Data from hue_60_FLMS001491_8.txt Node
Date: Mon Feb 06 15:11:51 GMT 2017
User: dcchb
Spectrometer: FLMS00149
Trigger mode: 0
Integration Time (sec): 2.000000E-2
Scans to average: 10
Electric dark correction enabled: true
Nonlinearity correction enabled: false
Boxcar width: 0
XAxis mode: Wavelengths
Number of Pixels in Spectrum: 2048
>>>>>Begin Spectral Data<<<<<
341.393	9.66
341.776	9.66
342.16	9.66
342.543	-56.33
342.927	-90
343.31	-70.56
343.693	-66.95
344.077	-66.72
344.46	-62.2
344.843	-58.81
345.226	-45.93
345.61	-24.24
345.993	-22.2
346.376	1.98
346.759	14.41
347.142	18.47
347.525	49.43
347.908	66.38
348.291	72.03
348.674	90.34
349.057	104.57
349.44	126.27
349.823	136.89
350.206	163.78
350.588	189.77
350.971	213.5
351.354	218.02
351.737	234.97
352.119	255.76
352.502	266.6
352.884	288.75
353.267	269.99
353.65	308.86
354.032	279.94
354.414	313.83
354.797	326.94
355.179	314.06
355.562	331.46
355.944	341.86
356.326	362.65
356.709	340.27
357.091	333.95
357.473	372.82
357.855	340.95
358.238	346.83
358.62	341.4
359.002	343.44
359.384	370.56
359.766	343.66
360.148	347.28
360.53	346.6
360.912	347.05
361.294	344.57
361.676	331.69
362.057	367.84
362.439	350.67
362.821	332.36
363.203	344.57
363.584	328.52
363.966	329.2
364.348	326.94
364.729	347.5
365.111	320.84
365.493	331.23
365.874	325.36
366.256	327.17
366.637	312.7
367.019	328.07
367.4	314.06
367.781	332.14
368.163	325.58
368.544	338.92
368.925	305.25
369.306	329.88
369.688	312.48
370.069	296.21
370.45	321.97
370.831	329.88
371.212	342.08
371.593	324.91
371.974	317.9
372.355	313.83
372.736	320.61
373.117	331.01
373.498	335.3
373.879	320.39
374.26	329.2
374.641	338.24
375.021	321.97
375.402	320.16
375.783	321.07
376.163	321.52
376.544	337.11
376.925	345.02
377.305	316.32
377.686	334.85
378.066	340.27
378.447	346.83
378.827	332.59
379.208	347.5
379.588	326.71
379.968	335.3
380.349	347.96
380.729	350.22
381.109	356.54
381.489	346.83
381.87	329.88
382.25	336.66
382.63	339.14
383.01	365.13
383.39	343.89
383.77	336.88
384.15	361.29
384.53	345.02
384.91	376.43
385.29	357.67
385.67	333.04
386.049	349.54
386.429	376.43
386.809	350.67
387.189	361.74
387.568	363.1
387.948	372.82
388.328	366.71
388.707	354.06
389.087	345.92
389.466	365.36
389.846	382.31
390.225	372.14
390.605	370.78
390.984	384.79
391.363	364.45
391.743	371.69
392.122	374.4
392.501	366.49
392.881	366.49
393.26	367.84
393.639	365.36
394.018	380.95
394.397	368.75
394.776	391.35
395.155	386.15
395.534	374.85
395.913	394.06
396.292	385.7
396.671	390.22
397.05	393.38
397.429	398.13
397.808	395.19
398.186	405.81
398.565	374.4
398.944	376.2
399.323	397.22
399.701	380.72
400.08	398.35
400.458	403.77
400.837	410.33
401.215	400.38
401.594	391.8
401.972	422.08
402.351	408.29
402.729	407.84
403.107	404.45
403.486	405.36
403.864	412.59
404.242	413.27
404.62	411.01
404.999	414.62
405.377	407.16
405.755	418.01
406.133	416.43
406.511	422.98
406.889	415.3
407.267	427.73
407.645	413.27
408.023	434.06
408.401	436.32
408.779	443.32
409.156	428.86
409.534	426.15
409.912	429.31
410.29	429.54
410.667	427.95
411.045	462.3
411.422	452.14
411.8	458.69
412.178	461.85
412.555	479.48
412.933	453.26
413.31	454.17
413.687	474.06
414.065	490.33
414.442	503.21
414.819	486.48
415.197	482.42
415.574	494.62
415.951	499.37
416.328	481.29
416.705	475.64
417.082	495.3
417.46	488.52
417.837	498.01
418.214	494.62
418.591	507.05
418.967	508.18
419.344	501.85
419.721	504.11
420.098	530.33
420.475	503.21
420.852	512.92
421.228	538.46
421.605	527.16
421.982	515.41
422.358	534.84
422.735	543.21
423.111	543.21
423.488	550.44
423.864	545.24
424.241	542.75
424.617	541.4
424.994	552.02
425.37	555.64
425.746	571.91
426.123	578.01
426.499	570.32
426.875	565.13
427.251	582.98
427.627	606.71
428.003	590.21
428.379	594.5
428.756	590.44
429.132	597.89
429.507	589.08
429.883	619.81
430.259	603.32
430.635	603.54
431.011	614.62
431.387	624.11
431.763	625.92
432.138	638.12
432.514	665.01
432.89	651.45
433.265	636.08
433.641	658.46
434.016	655.29
434.392	641.73
434.767	664.78
435.143	674.05
435.518	690.77
435.894	664.78
436.269	695.07
436.644	714.95
437.02	693.03
437.395	723.31
437.77	702.07
438.145	709.3
438.52	730.09
438.895	718.34
439.271	717.21
439.646	746.82
440.021	740.26
440.395	713.37
440.77	742.52
441.145	760.15
441.52	779.58
441.895	750.66
442.27	772.8
442.645	764.22
443.019	774.39
443.394	771.9
443.769	760.15
444.143	761.28
444.518	781.84
444.892	786.36
445.267	791.34
445.641	793.59
446.016	794.95
446.39	811.9
446.764	832.69
447.139	804.22
447.513	796.76
447.887	809.64
448.262	839.7
448.636	799.02
449.01	851.9
449.384	812.35
449.758	835.63
450.132	845.8
450.506	869.75
450.88	867.94
451.254	846.47
451.628	857.55
452.002	864.33
452.376	848.96
452.75	931.22
453.123	890.09
453.497	897.55
453.871	916.76
454.244	931.22
454.618	930.09
454.992	936.42
455.365	963.99
455.739	957.21
456.112	952.91
456.486	972.57
456.859	969.64
457.232	980.71
457.606	999.69
457.979	1013.02
458.352	1052.57
458.725	1040.59
459.099	1053.93
459.472	1043.98
459.845	1092.12
460.218	1087.15
460.591	1097.32
460.964	1110.65
461.337	1121.04
461.71	1131.67
462.083	1160.36
462.456	1173.02
462.829	1168.05
463.201	1167.82
463.574	1193.13
463.947	1208.73
464.32	1222.06
464.692	1232.68
465.065	1265.45
465.438	1297.08
465.81	1266.58
466.183	1317.65
466.555	1287.82
466.928	1335.95
467.3	1346.35
467.672	1349.74
468.045	1432.45
468.417	1420.02
468.789	1418.89
469.161	1457.31
469.534	1496.63
469.906	1534.14
470.278	1554.48
470.65	1564.42
471.022	1579.56
471.394	1640.13
471.766	1660.01
472.138	1684.64
472.51	1749.28
472.882	1786.56
473.253	1816.39
473.625	1828.37
473.997	1912.89
474.369	1913.11
474.74	1971.42
475.112	2018.42
475.484	2060
475.855	2120.34
476.227	2177.06
476.598	2235.59
476.97	2299.32
477.341	2333.22
477.713	2437.39
478.084	2438.07
478.455	2518.07
478.827	2610.72
479.198	2681.91
479.569	2721.68
479.94	2836.48
480.311	2891.17
480.682	3009.13
481.053	3106.08
481.424	3230.59
481.795	3274.66
482.166	3375.22
482.537	3494.31
482.908	3600.75
483.279	3683.46
483.65	3798.04
484.021	3888.65
484.391	4005.49
484.762	4078.48
485.133	4201.64
485.503	4308.08
485.874	4503.33
486.244	4635.53
486.615	4715.98
486.985	4892.92
487.356	5012.69
487.726	5080.04
488.097	5287.94
488.467	5366.81
488.837	5618.1
489.207	5736.74
489.578	5898.32
489.948	6042.72
490.318	6197.75
490.688	6364.52
491.058	6511.86
491.428	6697.85
491.798	6838.86
492.168	7033.66
492.538	7135.12
492.908	7339.86
493.278	7618.73
493.648	7675.67
494.017	7860.3
494.387	7991.37
494.757	8174.19
495.126	8345.26
495.496	8528.98
495.866	8649.66
496.235	8828.86
496.605	9055.07
496.974	9218.23
497.344	9375.29
497.713	9556.98
498.082	9691.44
498.452	9909.97
498.821	9942.73
499.19	10151.32
499.559	10388.37
499.928	10514.47
500.298	10641.92
500.667	10870.62
501.036	10902.71
501.405	11217.73
501.774	11278.07
502.143	11445.52
502.512	11577.04
502.88	11887.77
503.249	11853.42
503.618	12083.69
503.987	12199.62
504.356	12349.22
504.724	12544.92
505.093	12627.18
505.462	12868.98
505.83	13023.78
506.199	13182.2
506.567	13433.49
506.936	13537.21
507.304	13655.63
507.672	13879.8
508.041	14004.32
508.409	14183.07
508.777	14333.8
509.145	14587.36
509.514	14596.4
509.882	14732.21
510.25	14828.71
510.618	15094.46
510.986	15166.32
511.354	15394.79
511.722	15567.67
512.09	15797.72
512.458	15727.21
512.826	15972.4
513.193	16133.08
513.561	16264.15
513.929	16415.33
514.297	16597.25
514.664	16723.35
515.032	16883.79
515.4	17005.6
515.767	17222.54
516.135	17351.8
516.502	17315.42
516.869	17646.49
517.237	17771
517.604	17796.99
517.972	18005.8
518.339	18131.22
518.706	18273.14
519.073	18416.18
519.44	18556.29
519.808	18807.36
520.175	18807.81
520.542	19084.19
520.909	19223.39
521.276	19300
521.643	19516.94
522.009	19714
522.376	19855.47
522.743	20102.24
523.11	20207.32
523.477	20456.81
523.843	20552.17
524.21	20787.19
524.577	21017.24
524.943	21116.9
525.31	21195.77
525.676	21438.02
526.043	21584.69
526.409	21677.79
526.776	21888.18
527.142	22004.11
527.508	22201.39
527.874	22330.43
528.241	22365.01
528.607	22545.11
528.973	22828.72
529.339	22770.19
529.705	23083.18
530.071	23258.09
530.437	23372.66
530.803	23579.66
531.169	23641.81
531.535	23625.99
531.901	23758.41
532.267	23957.51
532.632	24001.35
532.998	24238.85
533.364	24370.15
533.73	24463.26
534.095	24709.12
534.461	24704.38
534.826	24823.02
535.192	24889.46
535.557	25067.76
535.923	25112.5
536.288	25264.36
536.653	25309.11
537.019	25324.48
537.384	25537.8
537.749	25601.98
538.114	25670.45
538.479	25795.65
538.845	25874.07
539.21	25844.91
539.575	26037.68
539.94	26079.71
540.305	26221.17
540.67	26291.23
541.034	26541.39
541.399	26499.81
541.764	26571.22
542.129	26756.75
542.494	26779.8
542.858	26894.83
543.223	27011.89
543.587	27065.67
543.952	27082.17
544.316	27121.49
544.681	27164.65
545.045	27458.43
545.41	27537.52
545.774	27646.9
546.138	27623.17
546.503	27730.29
546.867	27680.35
547.231	27991.75
547.595	27888.02
547.959	28131.86
548.324	28109.03
548.688	28213.21
549.052	28365.75
549.416	28405.07
549.779	28485.07
550.143	28504.5
550.507	28627.89
550.871	28759.19
551.235	28824.95
551.599	29045.96
551.962	29045.96
552.326	29211.38
552.689	29461.09
553.053	29299.96
553.417	29460.86
553.78	29749.44
554.143	29682.33
554.507	29855.88
554.87	29987.18
555.234	30330.45
555.597	29978.59
555.96	30188.3
556.323	30347.17
556.686	30381.52
557.05	30615.64
557.413	30670.1
557.776	30779.7
558.139	31000.94
558.502	31097.66
558.865	31053.59
559.228	31353.47
559.59	31369.74
559.953	31553.92
560.316	31933.34
560.679	31714.36
561.041	31969.95
561.404	32225.31
561.767	32447.23
562.129	32174.69
562.492	32649.71
562.854	32575.13
563.217	32647.9
563.579	32775.58
563.941	32929.02
564.304	33247.2
564.666	33401.55
565.028	33463.47
565.39	33487.42
565.753	33880.41
566.115	33894.65
566.477	33973.97
566.839	34152.49
567.201	34291.7
567.563	34369.44
567.925	34583.67
568.287	34508.19
568.648	34632.25
569.01	34783.21
569.372	35097.55
569.734	34918.35
570.095	35294.16
570.457	35269.75
570.819	35422.51
571.18	35471.78
571.542	35660.93
571.903	35733.92
572.265	35846.01
572.626	35851.43
572.987	35951.54
573.349	36132.33
573.71	36145.43
574.071	36315.15
574.432	36345.65
574.794	36739.54
575.155	36742.48
575.516	36725.53
575.877	36823.61
576.238	36882.82
576.599	37066.99
576.96	37082.81
577.32	37144.05
577.681	37192.86
578.042	37250.04
578.403	37427.43
578.763	37481.44
579.124	37559.86
579.485	37593.53
579.845	37758.27
580.206	37661.55
580.566	37705.17
580.927	37639.63
581.287	37875.11
581.648	37881.89
582.008	37955.1
582.368	37941.77
582.728	37954.65
583.089	38007.53
583.449	37905.39
583.809	38075.1
584.169	38078.94
584.529	38027.42
584.889	38237.13
585.249	38135.66
585.609	38125.95
585.969	38248.66
586.329	38005.05
586.688	38144.03
587.048	38245.27
587.408	38214.08
587.768	38229.9
588.127	38131.14
588.487	38184.48
588.846	38487.97
589.206	38203.68
589.565	38331.37
589.925	38419.5
590.284	38279.16
590.643	38388.31
591.003	38436.22
591.362	38662.43
591.721	38572.49
592.08	38542.88
592.44	38626.95
592.799	38603.22
593.158	38537.69
593.517	38608.42
593.876	38764.12
594.235	38557.8
594.593	38770.22
594.952	38803.89
595.311	38625.37
595.67	38726.38
596.029	38893.84
596.387	38914.17
596.746	38918.47
597.104	38988.3
597.463	38896.32
597.822	39053.38
598.18	38947.39
598.538	38764.8
598.897	39091.12
599.255	38817.68
599.613	39391.45
599.972	39228.06
600.33	39354.84
600.688	39148.97
601.046	39253.15
601.404	39431.45
601.762	39278.68
602.12	39560.03
602.478	39525.91
602.836	39562.07
603.194	39342.64
603.552	39462.63
603.91	39383.09
604.268	39742.85
604.625	39585.57
604.983	39787.6
605.341	39580.82
605.698	39841.16
606.056	39808.16
606.413	39856.3
606.771	40075.27
607.128	40122.96
607.485	39926.58
607.843	40120.24
608.2	40346.91
608.557	40394.36
608.914	40323.85
609.272	40432.33
609.629	40503.06
609.986	40699.66
610.343	40575.83
610.7	40718.65
611.057	40775.14
611.414	40656.73
611.771	40862.82
612.127	41027.11
612.484	41055.81
612.841	41123.61
613.198	41106.66
613.554	40981.01
613.911	41366.09
614.267	41301.91
614.624	41354.56
614.98	41322.25
615.337	41530.15
615.693	41693.76
616.05	41424.84
616.406	41775.79
616.762	41591.17
617.118	41618.96
617.475	41681.11
617.831	41886.75
618.187	41884.94
618.543	42051.49
618.899	42166.29
619.255	42097.59
619.611	42060.08
619.967	42210.81
620.323	42357.02
620.678	42176.24
621.034	42162.68
621.39	42153.86
621.746	42233.86
622.101	42594.76
622.457	42249.68
622.812	42388.21
623.168	42444.7
623.523	42546.62
623.879	42600.18
624.234	42431.82
624.589	42609.22
624.945	42520.86
625.3	42704.81
625.655	42595.66
626.01	42549.33
626.365	42761.76
626.72	42673.62
627.075	42661.87
627.43	42717.24
627.785	42580.97
628.14	42540.07
628.495	42762.89
628.85	42671.36
629.205	42512.27
629.559	42730.57
629.914	42508.43
630.269	42654.87
630.623	42494.19
630.978	42426.62
631.332	42668.43
631.687	42781.42
632.041	42531.25
632.396	42627.98
632.75	42506.4
633.104	42533.29
633.459	42357.47
633.813	42311.37
634.167	42366.97
634.521	42418.26
634.875	42437.02
635.229	42289.45
635.583	42145.05
635.937	42152.96
636.291	42232.73
636.645	42249.45
636.999	42108.67
637.352	42365.84
637.706	41924.72
638.06	42188.21
638.413	42050.14
638.767	42155.45
639.121	42072.74
639.474	41839.3
639.828	41868.22
640.181	42008.33
640.534	42023.7
640.888	41862.35
641.241	41658.96
641.594	41764.72
641.947	41869.8
642.301	41738.51
642.654	41631.62
643.007	41798.62
643.36	41726.76
643.713	41611.05
644.066	41828
644.419	41573.31
644.771	41250.16
645.124	40977.85
645.477	40933.1
645.83	40713.22
646.182	40510.97
646.535	40484.75
646.888	40409.73
647.24	40118.21
647.593	40511.87
647.945	40500.12
648.298	40217.42
648.65	40111.66
649.002	40283.86
649.355	40296.51
649.707	39995.28
650.059	40305.55
650.411	40707.57
650.763	40765.43
651.115	41103.27
651.467	40898.3
651.819	41091.07
652.171	40965.65
652.523	40989.6
652.875	40855.14
653.227	40814.69
653.578	41063.5
653.93	40905.76
654.282	40809.49
654.633	40655.15
654.985	40889.94
655.337	40687.46
655.688	40686.56
656.039	40852.2
656.391	40563.85
656.742	40581.02
657.094	40573.11
657.445	40579.22
657.796	40691.98
658.147	40516.39
658.498	40423.51
658.849	40587.12
659.2	40472.33
659.551	40324.31
659.902	40556.62
660.253	40381.48
660.604	40416.73
660.955	40255.38
661.306	40405.66
661.656	40376.51
662.007	40289.51
662.358	40329.28
662.708	40370.18
663.059	40341.71
663.409	40075.27
663.76	40408.82
664.11	40425.55
664.461	40355.49
664.811	40481.59
665.161	40301.03
665.511	40288.6
665.862	40336.06
666.212	40394.81
666.562	40414.02
666.912	40272.78
667.262	40293.57
667.612	40230.3
667.962	40189.85
668.312	40216.29
668.662	40362.27
669.011	40159.34
669.361	40155.05
669.711	39990.76
670.06	40039.34
670.41	39969.29
670.76	39962.28
671.109	40114.82
671.459	40166.12
671.808	39945.11
672.157	40032.11
672.507	39839.12
672.856	39805.9
673.205	39777.65
673.554	39928.16
673.904	39858.78
674.253	40155.27
674.602	39967.93
674.951	39278.23
675.3	39121.17
675.649	39864.66
675.998	39732.91
676.346	39711.67
676.695	39811.78
677.044	39593.03
677.393	39738.79
677.741	39824.43
678.09	39576.53
678.438	39477.1
678.787	39539.92
679.135	39722.74
679.484	39380.38
679.832	39428.29
680.181	39263.54
680.529	39354.61
680.877	39348.29
681.225	39333.37
681.573	39407.95
681.922	39267.61
682.27	38927.51
682.618	39068.29
682.966	38995.3
683.314	39050.22
683.661	38967.28
684.009	38737.46
684.357	38746.72
684.705	38671.92
685.053	38683.9
685.4	38614.75
685.748	38349.67
686.095	38438.93
686.443	38360.52
686.79	38284.59
687.138	38428.54
687.485	38296.11
687.832	38124.36
688.18	38211.14
688.527	37990.58
688.874	37854.77
689.221	37867.2
689.568	37701.1
689.915	37758.27
690.262	37589.92
690.609	37484.61
690.956	37334.56
691.303	37397.83
691.65	37209.36
691.997	37255.46
692.344	37035.35
692.69	36954.9
693.037	37050.95
693.383	36679.88
693.73	36989.03
694.077	36617.74
694.423	36532.54
694.769	36528.47
695.116	36380.46
695.462	36414.81
695.808	36259.56
696.155	36369.83
696.501	35991.77
696.847	36257.3
697.193	35806.46
697.539	35964.2
697.885	35632
698.231	35671.1
698.577	35546.58
698.923	35631.77
699.269	35465.45
699.614	35237.21
699.96	35188.4
700.306	35028.85
700.651	35078.8
700.997	34968.52
701.342	34935.52
701.688	34862.3
702.033	34731.46
702.379	34733.27
702.724	34570.56
703.069	34623.21
703.415	34340.51
703.76	34378.25
704.105	34189.55
704.45	34226.16
704.795	34056.9
705.14	33900.3
705.485	33935.32
705.83	33747.3
706.175	33804.03
706.52	33723.8
706.865	33561.77
707.209	33521.32
707.554	33378.73
707.899	33437.93
708.243	33324.27
708.588	33190.94
708.932	33169.24
709.277	33027.55
709.621	32978.06
709.966	32740.33
710.31	32855.58
710.654	32615.13
710.998	32703.04
711.342	32636.83
711.687	32533.78
712.031	32407.45
712.375	32408.81
712.719	32382.14
713.063	32293.78
713.407	32405.65
713.75	32223.05
714.094	32145.76
714.438	31971.08
714.782	31991.42
715.125	31835.94
715.469	32089.72
715.812	31746.23
716.156	31602.28
716.499	31690.41
716.843	31642.05
717.186	31577.64
717.53	31663.97
717.873	31623.07
718.216	31423.98
718.559	31384.43
718.902	31296.52
719.246	31271.66
719.589	31110.76
719.932	31034.16
720.275	30951.9
720.617	31065.79
720.96	30869.87
721.303	30876.65
721.646	30886.36
721.989	30653.6
722.331	30831.68
722.674	30775.63
723.016	30672.58
723.359	30635.52
723.701	30656.09
724.044	30564.56
724.386	30337.22
724.729	30469.65
725.071	30285.7
725.413	30337.9
725.755	30365.92
726.097	30269.43
726.439	30009.1
726.782	30093.84
727.124	30255.42
727.465	30035.76
727.807	30054.29
728.149	29868.99
728.491	29911.02
728.833	29873.06
729.175	29645.04
729.516	29667.86
729.858	29643.46
730.199	29692.95
730.541	29614.31
730.882	29623.35
731.224	29640.75
731.565	29298.83
731.906	29393.29
732.248	29417.02
732.589	29254.09
732.93	29149.46
733.271	29202.34
733.612	29149.23
733.953	29219.06
734.294	29117.14
734.635	28878.51
734.976	28985.17
735.317	28861.11
735.658	28864.5
735.999	28867.21
736.339	28709.02
736.68	28936.58
737.021	28685.97
737.361	28702.24
737.702	28869.92
738.042	28668.12
738.383	28505.41
738.723	28655.91
739.063	28553.99
739.404	28507.44
739.744	28529.59
740.084	28417.5
740.424	28314.68
740.764	28387.22
741.104	28360.1
741.444	28225.87
741.784	28076.95
742.124	28294.11
742.464	28169.6
742.804	28072.43
743.143	28083.05
743.483	27928.47
743.823	27858.19
744.162	27797.18
744.502	27853
744.841	27717.86
745.181	27907.01
745.52	27722.6
745.86	27713.57
746.199	27615.49
746.538	27664.75
746.877	27582.5
747.216	27527.81
747.556	27474.25
747.895	27490.75
748.234	27360.35
748.573	27265.89
748.911	27399.9
749.25	27240.81
749.589	27105.45
749.928	27137.31
750.267	27131.66
750.605	26962.17
750.944	26990.87
751.283	26887.15
751.621	26880.59
751.96	26834.72
752.298	26811.44
752.636	26811.22
752.975	26698
753.313	26575.06
753.651	26745.68
753.989	26498.46
754.327	26556.31
754.666	26381.4
755.004	26349.53
755.342	26388.18
755.679	26317.44
756.017	26200.61
756.355	26216.43
756.693	26063.89
757.031	26179.37
757.368	25988.64
757.706	25948.64
758.044	25895.99
758.381	25891.47
758.719	25772.15
759.056	25771.47
759.394	25740.28
759.731	25547.29
760.068	25557.24
760.405	25352.95
760.743	25353.18
761.08	25298.94
761.417	25206.96
761.754	25207.42
762.091	25015.1
762.428	24940.3
762.765	24848.33
763.102	24994.99
763.438	24793.87
763.775	24560.88
764.112	24679.75
764.449	24638.62
764.785	24555.46
765.122	24278.85
765.458	24256.71
765.795	24236.37
766.131	24138.52
766.467	24146.65
766.804	23887.68
767.14	23894.91
767.476	23891.07
767.812	23800.22
768.148	23870.95
768.485	23646.33
768.821	23535.37
769.157	23528.82
769.492	23404.3
769.828	23348.71
770.164	23169.96
770.5	23120.24
770.836	23107.36
771.171	22968.15
771.507	22958.89
771.842	22857.2
772.178	22758.89
772.513	22784.2
772.849	22606.13
773.184	22658.1
773.519	22499.24
773.855	22442.29
774.19	22277.32
774.525	22245.91
774.86	22140.83
775.195	22179.7
775.53	22083.66
775.865	22063.09
776.2	21717.56
776.535	21689.54
776.87	21690.67
777.205	21510.56
777.539	21442.77
777.874	21553.28
778.209	21193.74
778.543	21307.41
778.878	21216.79
779.212	21119.39
779.547	20935.66
779.881	21085.49
780.215	20838.72
780.55	20932.5
780.884	20771.37
781.218	20805.27
781.552	20699.06
781.886	20590.59
782.22	20476.92
782.554	20431.72
782.888	20173.65
783.222	20097.27
783.556	20019.3
783.889	20074.67
784.223	19945.41
784.557	19877.16
784.89	19930.04
785.224	19699.99
785.557	19746.99
785.891	19608.47
786.224	19612.54
786.558	19658.64
786.891	19315.59
787.224	19302.03
787.557	19212.77
787.891	19147.24
788.224	19257.52
788.557	19153.11
788.89	19066.11
789.223	19007.13
789.556	18931.42
789.888	18822.95
790.221	18721.26
790.554	18683.07
790.887	18622.28
791.219	18630.19
791.552	18508.61
791.884	18424.32
792.217	18370.31
792.549	18311.1
792.882	18151.56
793.214	18135.06
793.546	18144.1
793.879	17932.13
794.211	17916.08
794.543	18063.42
794.875	17846.71
795.207	17840.83
795.539	17748.63
795.871	17766.48
796.203	17515.87
796.535	17526.94
796.867	17548.86
797.198	17443.78
797.53	17476.09
797.862	17324.69
798.193	17461.41
798.525	17222.54
798.856	17273.84
799.188	17119.27
799.519	16980.97
799.85	16839.5
800.182	16917.46
800.513	17013.73
800.844	16746.62
801.175	16923.34
801.506	16817.13
801.837	16804.93
802.168	16625.72
802.499	16595.21
802.83	16594.76
803.161	16532.84
803.491	16483.35
803.822	16420.3
804.153	16268.44
804.483	16216.01
804.814	16212.85
805.145	16131.72
805.475	16204.94
805.805	16170.59
806.136	16024.38
806.466	16133.98
806.796	15991.84
807.126	15883.14
807.457	15860.77
807.787	15800.21
808.117	15864.84
808.447	15732.19
808.777	15792.75
809.107	15598.4
809.436	15672.75
809.766	15724.05
810.096	15522.02
810.426	15394.79
810.755	15534.45
811.085	15363.38
811.414	15394.57
811.744	15234.8
812.073	15211.97
812.403	15222.14
812.732	15077.06
813.061	15122.26
813.39	15053.11
813.719	14952.09
814.049	15011.53
814.378	15001.13
814.707	14937.4
815.036	14981.92
815.365	14891.3
815.693	14803.62
816.022	14860.12
816.351	14709.16
816.68	14712.33
817.008	14637.98
817.337	14529.96
817.665	14590.52
817.994	14481.37
818.322	14571.54
818.651	14515.27
818.979	14413.8
819.307	14516.85
819.636	14394.14
819.964	14288.61
820.292	14329.96
820.62	14362.28
820.948	14316.4
821.276	14358.66
821.604	14211.77
821.932	14292.45
822.259	14272.11
822.587	14276.4
822.915	14221.72
823.243	14215.61
823.57	14237.08
823.898	14227.59
824.225	14154.6
824.553	14178.55
824.88	14218.33
825.207	14213.36
825.535	14124.09
825.862	14227.37
826.189	14173.13
826.516	14207.71
826.843	14350.53
827.17	14222.17
827.497	14300.58
827.824	14282.51
828.151	14211.1
828.478	14150.08
828.805	14163.86
829.131	14121.38
829.458	14196.63
829.785	14140.81
830.111	14174.49
830.438	14199.57
830.764	14205.45
831.09	14165.67
831.417	14077.99
831.743	14208.38
832.069	14129.29
832.395	14023.3
832.722	14132.45
833.048	14083.87
833.374	14020.14
833.7	13922.97
834.026	13951.22
834.351	14065.56
834.677	13987.37
835.003	14026.24
835.329	13957.09
835.654	13955.06
835.98	13847.71
836.306	13876.64
836.631	13906.7
836.956	13949.18
837.282	13923.19
837.607	13830.54
837.932	13773.37
838.258	13769.98
838.583	13824.89
838.908	13741.96
839.233	13748.28
839.558	13718.23
839.883	13692.01
840.208	13585.57
840.533	13566.37
840.858	13637.1
841.182	13640.71
841.507	13584.22
841.832	13474.39
842.156	13522.53
842.481	13427.16
842.805	13335.64
843.13	13380.61
843.454	13428.07
843.778	13323.21
844.103	13314.85
844.427	13253.15
844.751	13283.21
845.075	13185.36
845.399	13174.51
845.723	13077.57
846.047	13103.33
846.371	12990.11
846.695	12981.07
847.019	12962.77
847.343	12880.73
847.666	12787.63
847.99	12734.98
848.313	12778.14
848.637	12617.46
848.96	12556.68
849.284	12595.77
849.607	12460.63
849.931	12474.87
850.254	12390.8
850.577	12313.52
850.9	12238.27
851.223	12213.41
851.546	12177.48
851.869	12036.69
852.192	12156.46
852.515	11961.44
852.838	11987.2
853.161	11996.01
853.483	11891.83
853.806	11920.99
854.129	11836.24
854.451	11778.39
854.774	11797.83
855.096	11722.35
855.419	11686.64
855.741	11648.9
856.063	11653.42
856.385	11567.1
856.708	11537.49
857.03	11502.24
857.352	11512.86
857.674	11426.08
857.996	11454.11
858.318	11333.88
858.64	11290.27
858.961	11315.58
859.283	11223.38
859.605	11208.91
859.926	11211.85
860.248	11157.84
860.57	11077.84
860.891	11111.06
861.212	11018.41
861.534	11034.46
861.855	11054.57
862.176	11016.38
862.498	10959.43
862.819	11041.46
863.14	10923.5
863.461	10918.07
863.782	10866.55
864.103	10937.96
864.424	10815.25
864.745	10825.87
865.065	10786.1
865.386	10766.89
865.707	10739.55
866.027	10746.33
866.348	10754.01
866.668	10671.53
866.989	10721.92
867.309	10620.91
867.63	10620.91
867.95	10643.51
868.27	10598.08
868.59	10611.87
868.91	10554.47
869.23	10565.54
869.55	10512.44
869.87	10555.82
870.19	10507.24
870.51	10476.96
870.83	10533.68
871.15	10398.09
871.469	10434.02
871.789	10522.38
872.109	10366
872.428	10361.48
872.748	10438.31
873.067	10412.1
873.386	10378.88
873.706	10320.58
874.025	10352.44
874.344	10308.82
874.663	10383.63
874.982	10253.23
875.301	10272.67
875.62	10223.18
875.939	10173.46
876.258	10196.51
876.577	10134.14
876.896	10147.25
877.214	10145.89
877.533	10123.52
877.852	10090.3
878.17	10073.8
878.489	10126.46
878.807	10038.78
879.125	10029.28
879.444	10075.61
879.762	10027.93
880.08	9983.64
880.398	9944.54
880.716	9959.91
881.034	9897.31
881.352	9920.36
881.67	9925.11
881.988	9859.57
882.306	9896.86
882.624	9788.39
882.941	9736.18
883.259	9702.29
883.577	9760.36
883.894	9677.2
884.212	9623.42
884.529	9635.85
884.846	9593.59
885.164	9621.39
885.481	9607.83
885.798	9636.98
886.115	9507.94
886.432	9565.79
886.75	9497.77
887.067	9495.06
887.383	9555.62
887.7	9431.11
888.017	9405.12
888.334	9357.89
888.651	9375.74
888.967	9360.15
889.284	9329.64
889.6	9284.67
889.917	9203.54
890.233	9243.99
890.55	9231.11
890.866	9192.02
891.182	9136.88
891.498	9131
891.815	9126.26
892.131	9040.16
892.447	9092.36
892.763	9065.69
893.079	9029.99
893.395	8962.65
893.71	8965.81
894.026	8968.75
894.342	8903.21
894.657	8887.85
894.973	8843.33
895.289	8868.86
895.604	8783.44
895.92	8789.77
896.235	8706.16
896.55	8714.74
896.865	8703.44
897.181	8623.9
897.496	8668.64
897.811	8609.43
898.126	8483.11
898.441	8566.05
898.756	8476.56
899.071	8446.5
899.386	8472.49
899.7	8381.87
900.015	8346.39
900.33	8353.85
900.644	8258.48
900.959	8337.8
901.273	8266.84
901.588	8259.16
901.902	8162.89
902.216	8224.13
902.531	8154.98
902.845	8140.29
903.159	8069.11
903.473	7990.92
903.787	8011.26
904.101	8037.02
904.415	7956.12
904.729	7921.77
905.042	7886.29
905.356	7844.48
905.67	7853.52
905.984	7914.54
906.297	7838.61
906.611	7738.05
906.924	7776.46
907.237	7728.55
907.551	7652.85
907.864	7666.41
908.177	7625.05
908.491	7575.79
908.804	7547.09
909.117	7490.37
909.43	7441.56
909.743	7434.55
910.056	7451.27
910.368	7370.82
910.681	7370.15
910.994	7293.54
911.307	7263.26
911.619	7241.11
911.932	7293.76
912.244	7189.58
912.557	7157.04
912.869	7150.94
913.181	7078.4
913.494	7117.95
913.806	7063.71
914.118	7001.34
914.43	6962.02
914.742	7004.96
915.054	6973.55
915.366	6965.64
915.678	6879.08
915.99	6874.57
916.302	6879.99
916.613	6790.05
916.925	6775.81
917.236	6767.22
917.548	6727.45
917.859	6727.22
918.171	6722.7
918.482	6615.81
918.794	6655.59
919.105	6611.97
919.416	6583.5
919.727	6550.51
920.038	6514.35
920.349	6462.15
920.66	6428.93
920.971	6465.76
921.282	6381.02
921.593	6307.8
921.903	6351.41
922.214	6345.31
922.525	6282.72
922.835	6299.21
923.146	6269.61
923.456	6195.71
923.767	6181.48
924.077	6146.22
924.387	6135.83
924.697	6112.33
925.008	6083.85
925.318	6031.2
925.628	6028.71
925.938	6047.47
926.248	5931.99
926.558	5978.09
926.867	5892.9
927.177	5831.2
927.487	5802.95
927.796	5792.33
928.106	5790.07
928.416	5816.06
928.725	5789.4
929.034	5782.16
929.344	5781.94
929.653	5682.96
929.962	5654.94
930.271	5642.73
930.581	5660.81
930.89	5579.68
931.199	5587.14
931.508	5589.18
931.817	5529.52
932.125	5521.15
932.434	5501.04
932.743	5444.32
933.051	5404.1
933.36	5384.43
933.669	5367.71
933.977	5356.86
934.286	5343.53
934.594	5302.85
934.902	5256.08
935.21	5243.87
935.519	5241.39
935.827	5252.69
936.135	5216.53
936.443	5180.82
936.751	5142.86
937.059	5111.9
937.367	5088.85
937.674	5103.54
937.982	5125.01
938.29	5044.33
938.597	5014.27
938.905	5000.72
939.213	5027.83
939.52	4984.67
939.827	4994.84
940.135	4926.59
940.442	4953.03
940.749	4883.88
941.056	4920.94
941.363	4852.7
941.67	4857.44
941.977	4810.21
942.284	4747.62
942.591	4757.78
942.898	4744.23
943.205	4735.86
943.511	4715.07
943.818	4727.95
944.125	4661.52
944.431	4634.62
944.738	4610.22
945.044	4588.3
945.35	4582.87
945.657	4571.8
945.963	4527.73
946.269	4525.93
946.575	4502.65
946.881	4513.05
947.187	4472.82
947.493	4473.95
947.799	4440.96
948.105	4424.91
948.41	4383.11
948.716	4429.88
949.022	4331.58
949.327	4354.63
949.633	4310.11
949.938	4282.09
950.244	4314.41
950.549	4254.97
950.854	4227.63
951.16	4212.94
951.465	4192.38
951.77	4143.79
952.075	4177.01
952.38	4151.92
952.685	4137.01
952.99	4114.86
953.294	4095.88
953.599	4064.92
953.904	4060.85
954.209	4060.85
954.513	4066.73
954.818	4051.59
955.122	4023.11
955.426	3974.98
955.731	3956
956.035	3951.7
956.339	3951.25
956.643	3908.99
956.948	3896.56
957.252	3884.81
957.556	3873.74
957.86	3841.2
958.163	3818.15
958.467	3824.48
958.771	3807.75
959.075	3788.32
959.378	3756.91
959.682	3752.16
959.985	3743.8
960.289	3771.6
960.592	3647.31
960.896	3646.4
961.199	3675.1
961.502	3688.43
961.805	3644.59
962.108	3637.59
962.411	3630.13
962.714	3569.79
963.017	3567.31
963.32	3577.02
963.623	3550.36
963.926	3531.38
964.228	3512.39
964.531	3489.12
964.833	3499.96
965.136	3485.28
965.438	3456.8
965.741	3423.81
966.043	3434.43
966.345	3396.24
966.648	3396.92
966.95	3364.83
967.252	3360.53
967.554	3325.96
967.856	3344.94
968.158	3300.87
968.46	3259.74
968.761	3275.11
969.063	3288.22
969.365	3227.43
969.666	3233.3
969.968	3210.25
970.269	3224.94
970.571	3182.23
970.872	3204.61
971.174	3163.7
971.475	3153.31
971.776	3182.01
972.077	3144.72
972.378	3122.12
972.679	3139.3
972.98	3097.49
973.281	3085.96
973.582	3047.77
973.883	3044.16
974.183	3040.54
974.484	3031.5
974.785	3042.8
975.085	2994.67
975.386	3000.99
975.686	2951.96
975.986	2942.69
976.287	2966.65
976.587	2898.4
976.887	2901.11
977.187	2944.27
977.487	2906.53
977.787	2878.51
978.087	2841.68
978.387	2853.43
978.687	2874.67
978.987	2816.82
979.286	2799.87
979.586	2827.89
979.885	2785.18
980.185	2783.15
980.484	2770.27
980.784	2746.54
981.083	2734.11
981.382	2741.79
981.682	2777.72
981.981	2699.53
982.28	2709.25
982.579	2679.42
982.878	2714.67
983.177	2657.05
983.475	2644.17
983.774	2618.63
984.073	2644.62
984.372	2594.9
984.67	2572.76
984.969	2613.21
985.267	2573.89
985.566	2541.57
985.864	2574.79
986.162	2561.68
986.461	2542.02
986.759	2528.46
987.057	2501.12
987.355	2521.91
987.653	2492.53
987.951	2487.34
988.249	2475.13
988.547	2470.39
988.844	2446.21
989.142	2467.68
989.44	2426.55
989.737	2426.55
990.035	2373.44
990.332	2407.11
990.63	2353.33
990.927	2362.14
991.224	2353.33
991.521	2330.73
991.819	2332.54
992.116	2347.23
992.413	2331.86
992.71	2287.57
993.006	2302.48
993.303	2252.09
993.6	2245.99
993.897	2237.17
994.193	2276.95
994.49	2260.68
994.787	2236.72
995.083	2205.31
995.379	2192.65
995.676	2215.03
995.972	2182.71
996.268	2145.42
996.565	2197.85
996.861	2161.92
997.157	2114.92
997.453	2118.98
997.749	2112.2
998.044	2114.92
998.34	2101.13
998.636	2115.59
998.932	2105.65
999.227	2068.59
999.523	2084.18
999.818	2034.24
1000.114	2029.49
1000.409	2036.95
1000.704	2026.33
1001	2044.18
1001.295	1997.41
1001.59	1981.81
1001.885	1983.17
1002.18	1962.6
1002.475	1960.8
1002.77	1942.04
1003.065	1932.32
1003.359	1907.46
1003.654	1887.8
1003.949	1918.54
1004.243	1911.08
1004.538	1859.56
1004.832	1867.92
1005.127	1869.72
1005.421	1876.05
1005.715	1845.54
1006.009	1853.91
1006.304	1835.6
1006.598	1822.27
1006.892	1771.65
1007.186	1796.05
1007.48	1828.14
1007.773	1782.04
1008.067	1764.42
1008.361	1761.03
1008.655	1738.43
1008.948	1747.69
1009.242	1718.54
1009.535	1689.16
1009.829	1671.54
1010.122	1690.97
1010.415	1664.98
1010.708	1683.29
1011.001	1659.56
1011.295	1676.06
1011.588	1660.01
1011.881	1630.64
1012.173	1664.08
1012.466	1625.44
1012.759	1599.9
1013.052	1604.42
1013.344	1612.78
1013.637	1577.3
1013.93	1569.85
1014.222	1587.02
1014.514	1541.82
1014.807	1558.77
1015.099	1544.31
1015.391	1569.39
1015.683	1536.85
1015.976	1492.11
1016.268	1514.93
1016.56	1502.5
1016.851	1487.36
1017.143	1457.76
1017.435	1462.05
1017.727	1444.43
1018.018	1456.18
1018.31	1452.33
1018.602	1459.34
1018.893	1405.56
1019.185	1407.14
1019.476	1426.57
1019.767	1397.65
1020.058	1384.99
1020.35	1399.68
1020.641	1375.95
1020.932	1368.04
1021.223	1337.76
1021.514	1350.42
1021.804	1314.94
1022.095	1310.19
1022.386	1351.77
1022.677	1293.02
1022.967	1287.82
1023.258	1278.55
1023.548	1279.46
1023.839	1297.54
1024.129	1264.77
1024.419	1232.91
1024.709	1243.3
1025	1253.92
1025.29	1227.71
1025.58	1237.65
1025.87	1189.52
1026.16	1215.28
1026.449	1199.23
1026.739	1204.88
1027.029	1201.49
1027.319	1187.71
1027.608	1196.07
1027.898	1154.72
1028.187	1153.36
1028.477	1173.02
1028.766	1148.61
1029.055	1131.67
1029.344	1123.08
1029.634	1132.34
1029.923	1134.15
1030.212	1095.96
1030.501	1122.17
1030.79	1086.24
1031.078	1098.9
1031.367	1089.86
1031.656	1086.02
1031.945	1055.28
1032.233	1065.23
1032.522	1057.54
1032.81	1039.69
1033.099	1054.15
1033.387	1053.02
1033.675	1037.66
1033.963	1030.88
1034.251	1008.28
1034.54	1009.41
1034.828	982.29
1035.116	987.49
1035.403	1004.89
1035.691	991.1
1035.979	964.66
1036.267	969.41
1036.554	959.69
1036.842	963.08
1037.129	966.02
1037.417	929.64
1037.704	962.18
1037.992	932.8
1038.279	941.39
1038.566	906.13
1038.853	906.13
1039.14	906.13
