Data from hue_140_FLMS001491_00008.txt Node
Date: Tue Feb 07 16:55:18 GMT 2017
User: dcchb
Spectrometer: FLMS00149
Trigger mode: 0
Integration Time (sec): 2.000000E-2
Scans to average: 10
Electric dark correction enabled: true
Nonlinearity correction enabled: false
Boxcar width: 0
XAxis mode: Wavelengths
Number of Pixels in Spectrum: 2048
>>>>>Begin Spectral Data<<<<<
341.393	-32.67
341.776	-32.67
342.16	-32.67
342.543	-83.06
342.927	-57.75
343.31	-74.25
343.693	-67.7
344.077	-73.57
344.46	-53.01
344.843	-54.59
345.226	-41.48
345.61	-31.99
345.993	-6.91
346.376	-16.17
346.759	4.17
347.142	27.44
347.525	47.1
347.908	64.5
348.291	69.7
348.674	80.32
349.057	126.42
349.44	145.86
349.823	137.95
350.206	174.56
350.588	176.59
350.971	222.92
351.354	221.11
351.737	235.35
352.119	230.83
352.502	268.79
352.884	261.11
353.267	281.9
353.65	290.03
354.032	273.54
354.414	288
354.797	315.34
355.179	304.95
355.562	336.14
355.944	322.12
356.326	323.25
356.709	339.98
357.091	354.44
357.473	326.64
357.855	356.25
358.238	339.98
358.62	325.06
359.002	320.77
359.384	327.55
359.766	319.86
360.148	330.26
360.53	335.91
360.912	324.61
361.294	311.28
361.676	320.32
362.057	332.97
362.439	332.29
362.821	305.63
363.203	315.34
363.584	329.13
363.966	316.93
364.348	322.12
364.729	318.73
365.111	306.98
365.493	320.54
365.874	316.02
366.256	322.12
366.637	298.62
367.019	288.45
367.4	305.18
367.781	301.11
368.163	313.31
368.544	311.73
368.925	322.35
369.306	319.19
369.688	290.94
370.069	308.34
370.45	286.65
370.831	304.72
371.212	296.59
371.593	303.59
371.974	303.14
372.355	313.99
372.736	294.1
373.117	313.08
373.498	318.96
373.879	337.72
374.26	308.11
374.641	324.16
375.021	311.05
375.402	318.06
375.783	300.66
376.163	316.93
376.544	322.58
376.925	298.85
377.305	312.63
377.686	324.84
378.066	328
378.447	339.3
378.827	337.04
379.208	338.17
379.588	325.29
379.968	337.27
380.349	328.68
380.729	340.43
381.109	305.85
381.489	331.16
381.87	346.53
382.25	347.21
382.63	327.1
383.01	374.33
383.39	332.52
383.77	335.68
384.15	351.05
384.53	338.85
384.91	330.71
385.29	327.55
385.67	353.08
386.049	350.15
386.429	348.56
386.809	334.78
387.189	345.63
387.568	338.17
387.948	341.11
388.328	337.72
388.707	355.12
389.087	368.9
389.466	358.51
389.846	364.84
390.225	368
390.605	372.52
390.984	377.26
391.363	344.5
391.743	371.61
392.122	353.31
392.501	365.74
392.881	365.96
393.26	361.45
393.639	373.2
394.018	379.75
394.397	370.48
394.776	390.15
395.155	366.19
395.534	390.82
395.913	386.3
396.292	372.74
396.671	376.13
397.05	378.85
397.429	394.21
397.808	362.8
398.186	385.17
398.565	391.28
398.944	390.82
399.323	401.44
399.701	397.6
400.08	412.97
400.458	384.95
400.837	411.61
401.215	406.42
401.594	381.33
401.972	400.09
402.351	423.14
402.729	409.35
403.107	408.68
403.486	410.71
403.864	412.52
404.242	437.6
404.62	424.49
404.999	419.97
405.377	443.93
405.755	415.46
406.133	448.45
406.511	424.27
406.889	422.23
407.267	419.75
407.645	449.58
408.023	434.66
408.401	431.5
408.779	445.74
409.156	436.92
409.534	462.91
409.912	457.26
410.29	457.49
410.667	457.71
411.045	450.93
411.422	478.5
411.8	474.66
412.178	494.32
412.555	463.59
412.933	475.57
413.31	476.02
413.687	472.18
414.065	485.28
414.442	501.1
414.819	504.49
415.197	509.24
415.574	495
415.951	497.94
416.328	499.07
416.705	503.81
417.082	513.98
417.46	509.69
417.837	492.74
418.214	530.25
418.591	501.33
418.967	499.97
419.344	531.84
419.721	532.51
420.098	530.25
420.475	536.36
420.852	545.85
421.228	526.41
421.605	527.54
421.982	567.09
422.358	553.3
422.735	555.56
423.111	574.1
423.488	561.21
423.864	562.8
424.241	568.67
424.617	563.25
424.994	568.67
425.37	569.12
425.746	583.13
426.123	574.55
426.499	599.63
426.875	576.35
427.251	593.3
427.627	603.02
428.003	616.81
428.379	642.12
428.756	606.41
429.132	642.34
429.507	625.62
429.883	648.22
430.259	634.43
430.635	654.54
431.011	642.57
431.387	629.23
431.763	646.86
432.138	633.98
432.514	684.15
432.89	643.7
433.265	639.86
433.641	694.09
434.016	682.79
434.392	705.39
434.767	706.52
435.143	702.23
435.518	727.31
435.894	716.92
436.269	726.41
436.644	746.07
437.02	755.79
437.395	728.22
437.77	750.36
438.145	749.01
438.52	765.28
438.895	796.24
439.271	765.73
439.646	799.17
440.021	805.73
440.395	779.51
440.77	797.37
441.145	818.38
441.52	813.86
441.895	815.67
442.27	826.29
442.645	825.16
443.019	822.22
443.394	828.78
443.769	826.74
444.143	844.6
444.518	825.39
444.892	868.32
445.267	836.01
445.641	873.97
446.016	869.68
446.39	879.4
446.764	890.24
447.139	876.01
447.513	903.35
447.887	893.41
448.262	887.99
448.636	889.57
449.01	903.8
449.384	899.74
449.758	924.59
450.132	919.85
450.506	934.31
450.88	934.54
451.254	950.13
451.628	961.43
452.002	958.72
452.376	970.92
452.75	970.02
453.123	986.97
453.497	1005.5
453.871	996.68
454.244	1037.59
454.618	1027.19
454.992	1042.56
455.365	1067.42
455.739	1085.95
456.112	1071.48
456.486	1058.15
456.859	1097.02
457.232	1117.13
457.606	1112.61
457.979	1101.54
458.352	1157.13
458.725	1137.24
459.099	1172.72
459.472	1183.57
459.845	1198.94
460.218	1221.76
460.591	1210.24
460.964	1211.59
461.337	1256.11
461.71	1263.34
462.083	1251.37
462.456	1304.7
462.829	1280.29
463.201	1286.39
463.574	1361.19
463.947	1339.95
464.32	1380.63
464.692	1398.03
465.065	1395.32
465.438	1412.72
465.81	1483.45
466.183	1459.72
466.555	1499.72
466.928	1510.12
467.3	1524.13
467.672	1554.86
468.045	1591.92
468.417	1627.17
468.789	1642.32
469.161	1646.84
469.534	1687.06
469.906	1732.03
470.278	1740.84
470.65	1779.49
471.022	1793.05
471.394	1810.67
471.766	1834.85
472.138	1908.07
472.51	1950.33
472.882	1957.56
473.253	2019.48
473.625	2059.48
473.997	2105.13
474.369	2133.38
474.74	2191.23
475.112	2204.11
475.484	2305.12
475.855	2343.77
476.227	2386.25
476.598	2450.88
476.97	2495.85
477.341	2600.26
477.713	2635.06
478.084	2693.81
478.455	2780.36
478.827	2804.09
479.198	2952.56
479.569	2969.96
479.94	3079.79
480.311	3146.23
480.682	3254.02
481.053	3356.85
481.424	3431.42
481.795	3514.58
482.166	3543.96
482.537	3653.11
482.908	3788.02
483.279	3864.18
483.65	4001.58
484.021	4132.87
484.391	4200.89
484.762	4280.66
485.133	4383.71
485.503	4472.3
485.874	4648.56
486.244	4736.47
486.615	4869.12
486.985	4979.18
487.356	5157.03
487.726	5270.47
488.097	5361.99
488.467	5510.46
488.837	5629.33
489.207	5782.32
489.578	5901.64
489.948	6014.4
490.318	6195.42
490.688	6235.42
491.058	6471.57
491.428	6599.7
491.798	6705.23
492.168	6906.36
492.538	7010.76
492.908	7138.89
493.278	7341.15
493.648	7475.16
494.017	7580.24
494.387	7753.57
494.757	7919.66
495.126	8021.13
495.496	8102.94
495.866	8217.51
496.235	8371.18
496.605	8483.27
496.974	8618.4
497.344	8730.49
497.713	8859.98
498.082	9003.93
498.452	9145.85
498.821	9193.53
499.19	9284.83
499.559	9431.26
499.928	9597.59
500.298	9709.9
500.667	9747.64
501.036	9837.58
501.405	9984.7
501.774	10008.42
502.143	10147.63
502.512	10252.94
502.88	10400.73
503.249	10464.91
503.618	10602.98
503.987	10658.12
504.356	10685.92
504.724	10852.24
505.093	10906.7
505.462	10949.19
505.83	10964.33
506.199	11234.38
506.567	11237.54
506.936	11284.1
507.304	11536.97
507.672	11494.49
508.041	11623.07
508.409	11709.17
508.777	11757.76
509.145	11890.63
509.514	11886.11
509.882	11973.34
510.25	11996.85
510.618	12113.23
510.986	12121.59
511.354	12325.88
511.722	12321.58
512.09	12352.32
512.458	12392.77
512.826	12547.57
513.193	12511.63
513.561	12591.41
513.929	12638.18
514.297	12773.77
514.664	12758.41
515.032	12790.27
515.4	12941.23
515.767	12913.66
516.135	13067.55
516.502	12884.05
516.869	13154.56
517.237	13159.75
517.604	13071.85
517.972	13245.17
518.339	13206.31
518.706	13241.78
519.073	13275.91
519.44	13272.29
519.808	13449.91
520.175	13395.9
520.542	13516.35
520.909	13504.6
521.276	13475
521.643	13584.37
522.009	13740.75
522.376	13683.13
522.743	13804.48
523.11	13824.37
523.477	13916.57
523.843	13859.62
524.21	13933.29
524.577	14012.84
524.943	14034.31
525.31	14004.48
525.676	14085.15
526.043	14145.26
526.409	14128.77
526.776	14172.16
527.142	14122.44
527.508	14178.94
527.874	14213.06
528.241	14253.74
528.607	14281.98
528.973	14274.3
529.339	14272.49
529.705	14313.39
530.071	14357.69
530.437	14416.44
530.803	14335.32
531.169	14424.35
531.535	14321.08
531.901	14386.39
532.267	14304.13
532.632	14393.62
532.998	14397.91
533.364	14335.09
533.73	14364.69
534.095	14438.59
534.461	14383.68
534.826	14311.59
535.192	14284.92
535.557	14387.74
535.923	14244.24
536.288	14307.52
536.653	14233.17
537.019	14091.03
537.384	14168.31
537.749	14173.29
538.114	14128.99
538.479	14077.47
538.845	14149.78
539.21	14115.89
539.575	14013.06
539.94	14056.45
540.305	14012.61
540.67	13896.68
541.034	13995.66
541.399	13850.13
541.764	13900.07
542.129	13799.74
542.494	13829.79
542.858	13878.6
543.223	13767.65
543.587	13783.01
543.952	13865.72
544.316	13762.67
544.681	13725.16
545.045	13736.46
545.41	13692.17
545.774	13602.91
546.138	13621.66
546.503	13538.5
546.867	13428.22
547.231	13449.01
547.595	13441.1
547.959	13361.1
548.324	13384.15
548.688	13340.31
549.052	13300.09
549.416	13271.16
549.779	13246.3
550.143	13230.49
550.507	13256.02
550.871	13251.73
551.235	13128.12
551.599	13232.29
551.962	13074.11
552.326	13162.46
552.689	13138.06
553.053	13067.55
553.417	13049.02
553.78	13113.88
554.143	13017.84
554.507	13029.13
554.87	13000.89
555.234	13073.43
555.597	12945.3
555.96	12978.29
556.323	12882.02
556.686	12898.52
557.05	12954.11
557.413	12891.29
557.776	12844.73
558.139	12937.84
558.502	12887.44
558.865	12801.8
559.228	12797.5
559.59	12773.1
559.953	12857.39
560.316	12983.94
560.679	12847.22
561.041	12949.81
561.404	12948.68
561.767	12975.58
562.129	12814.9
562.492	13070.26
562.854	12943.71
563.217	12946.43
563.579	12911.4
563.941	12955.46
564.304	12969.25
564.666	12991.85
565.028	12942.58
565.39	12984.16
565.753	13075.69
566.115	13064.84
566.477	13032.98
566.839	13006.54
567.201	13081.34
567.563	13041.34
567.925	13152.07
568.287	13132.41
568.648	13171.5
569.01	13106.19
569.372	13195.01
569.734	13097.38
570.095	13158.17
570.457	13251.5
570.819	13186.64
571.18	13185.51
571.542	13279.75
571.903	13207.66
572.265	13246.3
572.626	13293.08
572.987	13236.36
573.349	13277.72
573.71	13365.17
574.071	13274.33
574.432	13302.12
574.794	13384.83
575.155	13376.47
575.516	13291.95
575.877	13385.74
576.238	13326.53
576.599	13443.14
576.96	13431.61
577.32	13355.23
577.681	13464.83
578.042	13420.08
578.403	13470.71
578.763	13436.58
579.124	13387.32
579.485	13507.09
579.845	13460.54
580.206	13422.57
580.566	13325.4
580.927	13429.35
581.287	13509.35
581.648	13345.28
582.008	13482
582.368	13406.07
582.728	13472.74
583.089	13396.58
583.449	13466.41
583.809	13400.65
584.169	13399.97
584.529	13420.31
584.889	13454.66
585.249	13333.99
585.609	13244.72
585.969	13422.57
586.329	13295.12
586.688	13364.72
587.048	13393.19
587.408	13315
587.768	13319.75
588.127	13231.62
588.487	13219.86
588.846	13299.86
589.206	13230.26
589.565	13199.07
589.925	13235.91
590.284	13272.07
590.643	13202.24
591.003	13204.95
591.362	13248.11
591.721	13290.6
592.08	13235.01
592.44	13276.81
592.799	13217.38
593.158	13210.37
593.517	13182.13
593.876	13175.57
594.235	13126.76
594.593	13122.47
594.952	13114.1
595.311	13162.92
595.67	13222.35
596.029	13225.97
596.387	13163.59
596.746	13204.05
597.104	13132.18
597.463	13059.42
597.822	13189.81
598.18	13058.74
598.538	13112.75
598.897	13168.11
599.255	13066.2
599.613	13191.62
599.972	13160.43
600.33	13167.66
600.688	13098.74
601.046	13204.72
601.404	13199.3
601.762	13188.9
602.12	13253.76
602.478	13151.17
602.836	13212.18
603.194	13160.66
603.552	13239.75
603.91	13092.18
604.268	13165.85
604.625	13111.17
604.983	13192.52
605.341	13047.44
605.698	13123.82
606.056	13207.89
606.413	13157.04
606.771	13234.33
607.128	13145.06
607.485	13078.63
607.843	13154.33
608.2	13198.85
608.557	13258.51
608.914	13119.08
609.272	13195.01
609.629	13246.3
609.986	13278.85
610.343	13177.61
610.7	13305.51
611.057	13260.99
611.414	13205.85
611.771	13338.96
612.127	13363.36
612.484	13320.43
612.841	13280.88
613.198	13319.3
613.554	13218.06
613.911	13423.7
614.267	13351.61
614.624	13324.95
614.98	13313.42
615.337	13393.19
615.693	13445.85
616.05	13379.41
616.406	13508.22
616.762	13437.71
617.118	13395.9
617.475	13439.97
617.831	13512.96
618.187	13488.56
618.543	13462.12
618.899	13533.75
619.255	13576.24
619.611	13538.95
619.967	13556.35
620.323	13610.14
620.678	13499.4
621.034	13561.32
621.39	13450.14
621.746	13484.72
622.101	13666.63
622.457	13452.85
622.812	13554.77
623.168	13632.96
623.523	13578.05
623.879	13543.02
624.234	13515.68
624.589	13577.82
624.945	13530.14
625.3	13578.27
625.655	13557.71
626.01	13574.66
626.365	13528.1
626.72	13510.93
627.075	13539.4
627.43	13552.51
627.785	13533.53
628.14	13522.23
628.495	13531.95
628.85	13542.12
629.205	13471.16
629.559	13565.84
629.914	13482.91
630.269	13537.14
630.623	13424.15
630.978	13403.59
631.332	13484.26
631.687	13508.67
632.041	13440.2
632.396	13433.42
632.75	13468.22
633.104	13391.84
633.459	13363.36
633.813	13402.23
634.167	13354.1
634.521	13372.4
634.875	13354.55
635.229	13311.16
635.583	13194.1
635.937	13203.14
636.291	13188
636.645	13172.41
636.999	13252.86
637.352	13209.02
637.706	13170.6
638.06	13170.6
638.413	13105.29
638.767	13127.44
639.121	13141.22
639.474	13101.45
639.828	13092.41
640.181	13161.33
640.534	13119.75
640.888	13075.24
641.241	13023.71
641.594	13044.5
641.947	13041.11
642.301	13014.67
642.654	12953.43
643.007	12989.81
643.36	12994.11
643.713	13049.02
644.066	13041.11
644.419	12926.54
644.771	12870.49
645.124	12707.11
645.477	12832.53
645.83	12647.68
646.182	12575.59
646.535	12574.68
646.888	12616.49
647.24	12542.59
647.593	12595.02
647.945	12567.45
648.298	12534.91
648.65	12464.63
649.002	12469.83
649.355	12511.86
649.707	12535.81
650.059	12550.96
650.411	12721.57
650.763	12801.12
651.115	12902.36
651.467	12830.5
651.819	12788.92
652.171	12769.48
652.523	12798.18
652.875	12771.06
653.227	12757.05
653.578	12803.6
653.93	12843.38
654.282	12741.91
654.633	12697.39
654.985	12728.13
655.337	12789.59
655.688	12747.33
656.039	12831.63
656.391	12698.52
656.742	12720.44
657.094	12730.39
657.445	12786.66
657.796	12791.63
658.147	12802.25
658.498	12754.79
658.849	12770.84
659.2	12788.24
659.551	12672.53
659.902	12766.09
660.253	12805.19
660.604	12736.49
660.955	12849.03
661.306	12847.44
661.656	12831.63
662.007	12807.9
662.358	12914.34
662.708	12902.13
663.059	12856.26
663.409	12709.82
663.76	12812.19
664.11	12882.47
664.461	12897.39
664.811	12848.35
665.161	12849.7
665.511	12851.74
665.862	12843.38
666.212	12880.21
666.562	12881.34
666.912	12818.52
667.262	12875.01
667.612	12831.4
667.962	12928.12
668.312	12892.42
668.662	12841.8
669.011	12803.83
669.361	12804.73
669.711	12810.38
670.06	12847.44
670.41	12757.5
670.76	12757.05
671.109	12746.43
671.459	12808.12
671.808	12816.26
672.157	12786.88
672.507	12710.05
672.856	12675.02
673.205	12681.12
673.554	12735.36
673.904	12715.24
674.253	12835.92
674.602	12669.82
674.951	12491.52
675.3	12423.28
675.649	12714.34
675.998	12581.46
676.346	12642.25
676.695	12729.93
677.044	12549.15
677.393	12573.78
677.741	12566.1
678.09	12584.17
678.438	12578.98
678.787	12574.23
679.135	12574.01
679.484	12470.96
679.832	12468.92
680.181	12531.52
680.529	12557.51
680.877	12426.66
681.225	12415.82
681.573	12470.05
681.922	12306.22
682.27	12332.66
682.618	12279.32
682.966	12258.53
683.314	12289.95
683.661	12278.87
684.009	12201.36
684.357	12246.1
684.705	12221.25
685.053	12193.22
685.4	12103.74
685.748	12124.53
686.095	12073.91
686.443	12047.47
686.79	12058.09
687.138	12027.13
687.485	12040.23
687.832	12008.14
688.18	11961.82
688.527	11931.54
688.874	11854.93
689.221	11889.96
689.568	11836.62
689.915	11736.06
690.262	11791.2
690.609	11720.47
690.956	11714.14
691.303	11634.37
691.65	11612
691.997	11574.26
692.344	11534.71
692.69	11502.85
693.037	11498.33
693.383	11431.89
693.73	11397.54
694.077	11376.97
694.423	11267.83
694.769	11248.62
695.116	11281.38
695.462	11202.97
695.808	11210.2
696.155	11196.19
696.501	11096.08
696.847	11163.87
697.193	11047.72
697.539	11029.19
697.885	11000.04
698.231	10909.42
698.577	10970.21
698.923	10922.52
699.269	10846.59
699.614	10729.76
699.96	10765.47
700.306	10701.74
700.651	10691.57
700.997	10625.81
701.342	10640.95
701.688	10627.16
702.033	10531.12
702.379	10490.22
702.724	10502.87
703.069	10538.13
703.415	10384.23
703.76	10425.14
704.105	10397.11
704.45	10363.67
704.795	10285.03
705.14	10258.59
705.485	10191.02
705.83	10189.89
706.175	10242.09
706.52	10123.22
706.865	10075.09
707.209	10139.27
707.554	10056.33
707.899	10060.85
708.243	9922.1
708.588	9972.04
708.932	9952.38
709.277	9836.68
709.621	9905.83
709.966	9850.24
710.31	9812.5
710.654	9774.76
710.998	9807.75
711.342	9778.15
711.687	9723.91
712.031	9655.89
712.375	9640.3
712.719	9677.13
713.063	9619.05
713.407	9658.6
713.75	9594.42
714.094	9574.76
714.438	9569.79
714.782	9551.03
715.125	9479.4
715.469	9612.95
715.812	9485.5
716.156	9459.74
716.499	9453.18
716.843	9505.61
717.186	9449.79
717.53	9419.29
717.873	9376.12
718.216	9466.74
718.559	9388.55
718.902	9321.66
719.246	9336.35
719.589	9304.94
719.932	9313.07
720.275	9283.92
720.617	9250.48
720.96	9188.11
721.303	9224.04
721.646	9275.11
721.989	9179.52
722.331	9254.77
722.674	9185.17
723.016	9224.26
723.359	9159.86
723.701	9242.79
724.044	9152.4
724.386	9085.96
724.729	9246.18
725.071	9138.62
725.413	9163.7
725.755	9131.61
726.097	9129.58
726.439	9114.44
726.782	9066.08
727.124	9102.46
727.465	9041.44
727.807	9041.9
728.149	9062.01
728.491	9019.52
728.833	9075.11
729.175	9045.28
729.516	9025.62
729.858	9011.16
730.199	9030.6
730.541	8995.79
730.882	8993.53
731.224	8985.63
731.565	9029.69
731.906	8973.87
732.248	8922.35
732.589	8976.59
732.93	8927.1
733.271	8984.27
733.612	9029.24
733.953	8976.36
734.294	8985.85
734.635	9004.38
734.976	8980.65
735.317	8968.9
735.658	8929.58
735.999	9000.09
736.339	8978.85
736.68	8970.03
737.021	8981.56
737.361	8972.52
737.702	9039.86
738.042	8965.96
738.383	9007.55
738.723	9016.36
739.063	9074.89
739.404	9007.32
739.744	9063.59
740.084	9029.47
740.424	9051.61
740.764	9077.6
741.104	9106.75
741.444	9120.09
741.784	9116.24
742.124	9153.08
742.464	9167.77
742.804	9131.16
743.143	9170.48
743.483	9142.23
743.823	9157.15
744.162	9151.5
744.502	9276.01
744.841	9281.89
745.181	9273.98
745.52	9337.25
745.86	9318.27
746.199	9422.9
746.538	9444.6
746.877	9527.98
747.216	9579.51
747.556	9584.03
747.895	9647.08
748.234	9652.5
748.573	9693.63
748.911	9781.54
749.25	9771.59
749.589	9848.88
749.928	9948.76
750.267	10031.7
750.605	10071.25
750.944	10145.82
751.283	10205.93
751.621	10359.37
751.96	10400.05
752.298	10407.73
752.636	10558.69
752.975	10578.8
753.313	10718.01
753.651	10915.52
753.989	10941.73
754.327	11020.15
754.666	11085.46
755.004	11320.03
755.342	11427.6
755.679	11487.25
756.017	11619.68
756.355	11806.79
756.693	11802.27
757.031	12108.26
757.368	12122.49
757.706	12370.4
758.044	12458.75
758.381	12683.83
758.719	12806.99
759.056	12996.37
759.394	13113.43
759.731	13308.22
760.068	13497.37
760.405	13589.8
760.743	13728.1
761.08	13907.98
761.417	14045.61
761.754	14294.86
762.091	14432.94
762.428	14563.11
762.765	14674.06
763.102	14964.9
763.438	15067.95
763.775	15218
764.112	15412.8
764.449	15677.65
764.785	15736.63
765.122	15726.01
765.458	15926.91
765.795	16130.07
766.131	16253.46
766.467	16404.64
766.804	16510.4
767.14	16695.93
767.476	16725.53
767.812	16821.58
768.148	17054.79
768.485	17133.21
768.821	17239.42
769.157	17394.67
769.492	17543.59
769.828	17659.97
770.164	17650.93
770.5	17839.4
770.836	17943.36
771.171	18083.24
771.507	18066.29
771.842	18209.56
772.178	18324.59
772.513	18496.56
772.849	18413.17
773.184	18469.22
773.519	18690
773.855	18633.96
774.19	18723.67
774.525	18781.3
774.86	18945.82
775.195	18984.91
775.53	19019.94
775.865	19009.54
776.2	19017.45
776.535	18910.11
776.87	19119.37
777.205	19111.01
777.539	19050.67
777.874	19228.07
778.209	19215.19
778.543	19240.27
778.878	19179.03
779.212	19180.84
779.547	19246.82
779.881	19269.42
780.215	19242.98
780.55	19372.92
780.884	19279.82
781.218	19248.41
781.552	19361.62
781.886	19354.39
782.22	19355.3
782.554	19286.6
782.888	19118.01
783.222	19182.65
783.556	19090.9
783.889	19116.21
784.223	19099.03
784.557	19084.12
784.89	19118.47
785.224	19112.82
785.557	19123.66
785.891	19059.94
786.224	19075.76
786.558	19115.3
786.891	18951.92
787.224	18896.55
787.557	19053.16
787.891	18944.46
788.224	19000.96
788.557	19010.9
788.89	19045.7
789.223	18944.91
789.556	18900.39
789.888	18797.12
790.221	18773.16
790.554	18646.61
790.887	18653.39
791.219	18594.64
791.552	18580.63
791.884	18585.6
792.217	18523.68
792.549	18566.84
792.882	18349.9
793.214	18372.05
793.546	18421.08
793.879	18335.89
794.211	18238.94
794.543	18286.17
794.875	18270.35
795.207	18328.66
795.539	18229.45
795.871	18245.04
796.203	18079.4
796.535	18053.18
796.867	17936.8
797.198	17967.76
797.53	17971.38
797.862	17809.8
798.193	17867.43
798.525	17825.39
798.856	17819.07
799.188	17671.27
799.519	17661.33
799.85	17618.62
800.182	17591.5
800.513	17564.83
800.844	17444.16
801.175	17561.9
801.506	17456.36
801.837	17461.79
802.168	17452.52
802.499	17288.23
802.83	17305.86
803.161	17209.36
803.491	17233.54
803.822	17155.13
804.153	17130.27
804.483	16939.54
804.814	16956.26
805.145	17010.95
805.475	16911.52
805.805	16797.62
806.136	16864.29
806.466	16895.25
806.796	16845.53
807.126	16705.2
807.457	16725.99
807.787	16641.47
808.117	16649.38
808.447	16579.1
808.777	16582.94
809.107	16478.08
809.436	16506.56
809.766	16450.06
810.096	16356.05
810.426	16420.68
810.755	16372.78
811.085	16401.48
811.414	16297.75
811.744	16215.72
812.073	16205.55
812.403	16239.45
812.732	16079
813.061	16102.5
813.39	16034.48
813.719	16002.62
814.049	15989.96
814.378	15931.66
814.707	15890.75
815.036	15908.38
815.365	15865.44
815.693	15721.95
816.022	15719.01
816.351	15731.44
816.68	15631.78
817.008	15614.38
817.337	15546.13
817.665	15528.5
817.994	15552.01
818.322	15504.32
818.651	15443.53
818.979	15418
819.307	15544.55
819.636	15354.05
819.964	15470.43
820.292	15432.69
820.62	15399.92
820.948	15399.24
821.276	15379.81
821.604	15344.33
821.932	15381.39
822.259	15398.56
822.587	15354.72
822.915	15293.26
823.243	15362.63
823.57	15314.05
823.898	15282.86
824.225	15240.83
824.553	15274.95
824.88	15333.03
825.207	15282.63
825.535	15319.02
825.862	15382.07
826.189	15204.67
826.516	15347.27
826.843	15359.47
827.17	15381.62
827.497	15294.16
827.824	15356.98
828.151	15386.36
828.478	15325.12
828.805	15429.07
829.131	15374.16
829.458	15331.22
829.785	15285.8
830.111	15358.57
830.438	15398.11
830.764	15334.16
831.09	15358.11
831.417	15233.6
831.743	15321.73
832.069	15317.44
832.395	15235.4
832.722	15396.76
833.048	15282.41
833.374	15273.37
833.7	15181.17
834.026	15215.74
834.351	15255.74
834.677	15244.44
835.003	15219.13
835.329	15168.97
835.654	15182.52
835.98	15083.54
836.306	15180.94
836.631	15041.06
836.956	15135.75
837.282	15139.59
837.607	15141.17
837.932	15059.36
838.258	15079.7
838.583	15099.14
838.908	14966.03
839.233	14898.92
839.558	14951.8
839.883	14950.44
840.208	14825.47
840.533	14877.22
840.858	14865.92
841.182	14883.78
841.507	14773.27
841.832	14729.88
842.156	14700.28
842.481	14687.4
842.805	14647.62
843.13	14663.44
843.454	14554.74
843.778	14619.15
844.103	14526.72
844.427	14519.04
844.751	14498.7
845.075	14484.46
845.399	14477.01
845.723	14253.51
846.047	14335.54
846.371	14216
846.695	14233.62
847.019	14102.78
847.343	14139.39
847.666	14020.75
847.99	13859.85
848.313	13902.33
848.637	13804.71
848.96	13793.86
849.284	13772.17
849.607	13613.07
849.931	13656.46
850.254	13455.11
850.577	13513.42
850.9	13501.44
851.223	13392.74
851.546	13293.99
851.869	13350.71
852.192	13249.92
852.515	13163.37
852.838	13158.62
853.161	13118.4
853.483	13025.75
853.806	12988.46
854.129	12999.76
854.451	12951.62
854.774	12834.34
855.096	12839.99
855.419	12708.47
855.741	12776.94
856.063	12650.84
856.385	12675.25
856.708	12589.82
857.03	12582.59
857.352	12631.18
857.674	12496.95
857.996	12559.09
858.318	12475.93
858.64	12452.65
858.961	12436.83
859.283	12384.63
859.605	12353.9
859.926	12337.63
860.248	12344.86
860.57	12268.25
860.891	12264.18
861.212	12207.24
861.534	12108.48
861.855	12109.38
862.176	12106
862.498	12075.94
862.819	12070.06
863.14	12069.84
863.461	11954.13
863.782	11984.64
864.103	11987.81
864.424	11950.07
864.745	11958.2
865.065	11913.68
865.386	11764.76
865.707	11850.86
866.027	11826.23
866.348	11790.3
866.668	11750.3
866.989	11776.06
867.309	11670.07
867.63	11744.42
867.95	11767.02
868.27	11668.04
868.59	11721.82
868.91	11577.65
869.23	11611.32
869.55	11529.51
869.87	11556.18
870.19	11558.44
870.51	11527.03
870.83	11591.43
871.15	11473.24
871.469	11418.78
871.789	11532.9
872.109	11463.53
872.428	11349.18
872.748	11451.1
873.067	11372.91
873.386	11348.05
873.706	11324.55
874.025	11319.8
874.344	11292.23
874.663	11271.89
874.982	11247.49
875.301	11248.62
875.62	11271.89
875.939	11256.07
876.258	11311.89
876.577	11118
876.896	11202.97
877.214	11125
877.533	11129.75
877.852	11066.7
878.17	11038
878.489	11047.94
878.807	11083.65
879.125	10985.12
879.444	11045.46
879.762	11044.55
880.08	10998.68
880.398	10959.36
880.716	10954.16
881.034	10889.76
881.352	10953.03
881.67	10859.02
881.988	10908.96
882.306	10753.26
882.624	10785.13
882.941	10740.83
883.259	10712.36
883.577	10706.26
883.894	10665.58
884.212	10660.16
884.529	10648.63
884.846	10643.43
885.164	10648.41
885.481	10504.91
885.798	10619.48
886.115	10476.43
886.432	10491.12
886.75	10514.62
887.067	10504.91
887.383	10469.88
887.7	10420.39
888.017	10351.24
888.334	10461.07
888.651	10338.36
888.967	10318.02
889.284	10292.48
889.6	10301.3
889.917	10179.49
890.233	10208.19
890.55	10120.51
890.866	10131.36
891.182	10115.54
891.498	10041.87
891.815	10033.51
892.131	9947.63
892.447	9984.24
892.763	9885.26
893.079	9898.14
893.395	9893.62
893.71	9874.87
894.026	9816.56
894.342	9816.56
894.657	9724.59
894.973	9778.6
895.289	9756.23
895.604	9734.98
895.92	9621.09
896.235	9580.19
896.55	9605.04
896.865	9537.93
897.181	9544.25
897.496	9536.8
897.811	9513.97
898.126	9448.66
898.441	9313.07
898.756	9391.94
899.071	9330.48
899.386	9289.35
899.7	9229.01
900.015	9185.85
900.33	9096.36
900.644	9096.58
900.959	9092.29
901.273	9073.31
901.588	9070.14
901.902	9008.9
902.216	8978.85
902.531	8934.78
902.845	8878.96
903.159	8887.1
903.473	8850.94
903.787	8761.22
904.101	8684.62
904.415	8732.3
904.729	8654.11
905.042	8663.83
905.356	8665.86
905.67	8605.3
905.984	8604.17
906.297	8519.2
906.611	8494.34
906.924	8485.98
907.237	8419.99
907.551	8394.23
907.864	8338.18
908.177	8333.21
908.491	8297.73
908.804	8271.97
909.117	8222.48
909.43	8254.8
909.743	8165.31
910.056	8154.23
910.368	8105.65
910.681	8022.94
910.994	8065.2
911.307	8016.61
911.619	7930.96
911.932	7994.69
912.244	7904.3
912.557	7974.35
912.869	7827.46
913.181	7768.93
913.494	7759.44
913.806	7740.46
914.118	7686.22
914.43	7639.22
914.742	7661.14
915.054	7620.01
915.366	7601.71
915.678	7613.46
915.99	7521.48
916.302	7482.61
916.613	7482.61
916.925	7385.89
917.236	7411.66
917.548	7321.71
917.859	7386.8
918.171	7257.08
918.482	7301.6
918.794	7241.72
919.105	7202.62
919.416	7198.78
919.727	7116.07
920.038	7145.67
920.349	7101.38
920.66	7037.2
920.971	7083.08
921.282	7024.77
921.593	6963.53
921.903	6916.53
922.214	6964.21
922.525	6910.65
922.835	6923.98
923.146	6826.59
923.456	6824.78
923.767	6821.39
924.077	6825.46
924.387	6707.95
924.697	6680.38
925.008	6663.2
925.318	6677.89
925.628	6613.03
925.938	6599.7
926.248	6565.8
926.558	6501.4
926.867	6524.9
927.177	6515.63
927.487	6470.44
927.796	6365.58
928.106	6387.73
928.416	6298.01
928.725	6378.24
929.034	6339.59
929.344	6318.35
929.653	6268.86
929.962	6240.84
930.271	6128.07
930.581	6142.08
930.89	6151.8
931.199	6112.93
931.508	6110.9
931.817	6135.76
932.125	6112.93
932.434	6067.51
932.743	5994.97
933.051	6008.3
933.36	5956.78
933.669	5936.21
933.977	5944.12
934.286	5916.78
934.594	5906.38
934.902	5826.16
935.21	5857.12
935.519	5803.56
935.827	5780.74
936.135	5774.64
936.443	5639.5
936.751	5734.19
937.059	5651.7
937.367	5653.74
937.674	5682.89
937.982	5604.47
938.29	5574.87
938.597	5585.04
938.905	5473.18
939.213	5479.05
939.52	5452.16
939.827	5448.09
940.135	5423.46
940.442	5455.55
940.749	5389.11
941.056	5422.33
941.363	5338.49
941.67	5347.08
941.977	5291.49
942.284	5279.96
942.591	5268.21
942.898	5238.83
943.205	5183.47
943.511	5191.6
943.818	5146.86
944.125	5159.74
944.431	5123.58
944.738	5113.64
945.044	5046.75
945.35	5062.11
945.657	5002
945.963	5040.19
946.269	4965.17
946.575	4970.36
946.881	4926.75
947.187	4903.02
947.493	4883.59
947.799	4855.56
948.105	4852.17
948.41	4823.25
948.716	4804.49
949.022	4786.41
949.327	4788.22
949.633	4717.71
949.938	4777.37
950.244	4702.35
950.549	4729.47
950.854	4685.17
951.16	4660.77
951.465	4591.16
951.77	4571.05
952.075	4590.03
952.38	4575.57
952.685	4532.86
952.99	4491.28
953.294	4538.51
953.599	4474.33
953.904	4490.38
954.209	4426.88
954.513	4459.19
954.818	4427.55
955.122	4413.54
955.426	4380.32
955.731	4381.9
956.035	4320.89
956.339	4335.58
956.643	4308.01
956.948	4317.5
957.252	4289.03
957.556	4261.46
957.86	4234.34
958.163	4219.42
958.467	4185.75
958.771	4191.18
959.075	4161.8
959.378	4134.23
959.682	4145.98
959.985	4082.93
960.289	4093.1
960.592	4083.83
960.896	4104.17
961.199	4020.33
961.502	4029.6
961.805	4001.35
962.108	4010.84
962.411	3975.36
962.714	3927.45
963.017	3892.65
963.32	3916.38
963.623	3882.03
963.926	3881.35
964.228	3865.08
964.531	3849.72
964.833	3808.13
965.136	3828.25
965.438	3776.72
965.741	3766.33
966.043	3740.34
966.345	3779.21
966.648	3660.57
966.95	3738.98
967.252	3669.15
967.554	3712.32
967.856	3651.75
968.158	3618.76
968.46	3616.73
968.761	3629.61
969.063	3604.3
969.365	3615.37
969.666	3576.5
969.968	3548.93
970.269	3515.03
970.571	3495.37
970.872	3540.34
971.174	3486.56
971.475	3463.28
971.776	3469.84
972.077	3473
972.378	3416.96
972.679	3472.1
972.98	3415.6
973.281	3378.32
973.582	3361.59
973.883	3325.21
974.183	3320.69
974.484	3332.21
974.785	3338.77
975.085	3306.68
975.386	3316.4
975.686	3260.35
975.986	3231.88
976.287	3222.16
976.587	3192.33
976.887	3213.35
977.187	3200.01
977.487	3183.97
977.787	3191.2
978.087	3118.89
978.387	3143.75
978.687	3107.59
978.987	3083.86
979.286	3113.46
979.586	3094.48
979.885	3068.94
980.185	3063.52
980.484	3048.83
980.784	3044.54
981.083	2999.57
981.382	2987.36
981.682	2994.14
981.981	2991.43
982.28	3016.97
982.579	2954.6
982.878	2984.43
983.177	2946.91
983.475	2936.74
983.774	2903.75
984.073	2914.37
984.372	2888.84
984.67	2857.42
984.969	2850.87
985.267	2871.66
985.566	2858.33
985.864	2797.54
986.162	2845.45
986.461	2794.38
986.759	2765.68
987.057	2761.83
987.355	2718.9
987.653	2787.37
987.951	2739.69
988.249	2702.4
988.547	2722.51
988.844	2663.53
989.142	2659.46
989.44	2679.35
989.737	2607.71
990.035	2616.98
990.332	2605.23
990.63	2618.56
990.927	2629.41
991.224	2566.81
991.521	2579.47
991.819	2553.93
992.116	2548.96
992.413	2557.09
992.71	2498.34
993.006	2545.12
993.303	2506.25
993.6	2514.16
993.897	2506.02
994.193	2469.41
994.49	2431.9
994.787	2455.63
995.083	2444.33
995.379	2432.58
995.676	2416.08
995.972	2370.66
996.268	2393.71
996.565	2341.05
996.861	2360.49
997.157	2352.35
997.453	2323.65
997.749	2345.57
998.044	2311.9
998.34	2313.48
998.636	2291.56
998.932	2287.04
999.227	2289.53
999.523	2223.77
999.818	2262.64
1000.114	2222.19
1000.409	2227.84
1000.704	2209.31
1001	2201.85
1001.295	2169.08
1001.59	2203.88
1001.885	2161.85
1002.18	2144.68
1002.475	2129.99
1002.77	2129.08
1003.065	2083.43
1003.359	2106.71
1003.654	2100.83
1003.949	2087.28
1004.243	2084.34
1004.538	2061.51
1004.832	2045.24
1005.127	2035.75
1005.421	2031.91
1005.715	1984.91
1006.009	2002.98
1006.304	1988.97
1006.598	1976.77
1006.892	1985.36
1007.186	1975.41
1007.48	1930.22
1007.773	1945.58
1008.067	1938.8
1008.361	1882.08
1008.655	1909.88
1008.948	1881.63
1009.242	1848.64
1009.535	1875.3
1009.829	1873.04
1010.122	1839.15
1010.415	1832.37
1010.708	1838.69
1011.001	1826.72
1011.295	1767.96
1011.588	1792.59
1011.881	1774.52
1012.173	1751.47
1012.466	1798.92
1012.759	1769.32
1013.052	1719.15
1013.344	1712.82
1013.637	1731.8
1013.93	1702.88
1014.222	1682.09
1014.514	1695.65
1014.807	1670.56
1015.099	1653.61
1015.391	1642.54
1015.683	1673.5
1015.976	1632.6
1016.268	1646.84
1016.56	1617.46
1016.851	1610.68
1017.143	1595.76
1017.435	1587.85
1017.727	1579.72
1018.018	1584.01
1018.31	1556.22
1018.602	1550.79
1018.893	1517.57
1019.185	1535.88
1019.476	1503.34
1019.767	1507.4
1020.058	1494.52
1020.35	1495.88
1020.641	1469.21
1020.932	1471.02
1021.223	1452.26
1021.514	1463.34
1021.804	1416.56
1022.095	1439.61
1022.386	1413.85
1022.677	1432.38
1022.967	1416.78
1023.258	1395.77
1023.548	1386.05
1023.839	1383.57
1024.129	1364.58
1024.419	1363.45
1024.709	1362.55
1025	1333.62
1025.29	1341.76
1025.58	1325.04
1025.87	1298.82
1026.16	1301.31
1026.449	1290.91
1026.739	1298.6
1027.029	1278.71
1027.319	1260.4
1027.608	1273.29
1027.898	1222.89
1028.187	1273.74
1028.477	1236.45
1028.766	1216.34
1029.055	1229.67
1029.344	1214.08
1029.634	1235.55
1029.923	1172.5
1030.212	1204.14
1030.501	1177.24
1030.79	1157.36
1031.078	1147.64
1031.367	1145.83
1031.656	1161.42
1031.945	1149.22
1032.233	1132.5
1032.522	1120.52
1032.81	1110.58
1033.099	1117.36
1033.387	1112.16
1033.675	1087.98
1033.963	1092.27
1034.251	1113.29
1034.54	1073.07
1034.828	1049.11
1035.116	1056.34
1035.403	1075.78
1035.691	1044.14
1035.979	1050.92
1036.267	1039.62
1036.554	1020.86
1036.842	1035.33
1037.129	1014.76
1037.417	1001.88
1037.704	1025.61
1037.992	1012.28
1038.279	1008.43
1038.566	989.45
1038.853	989.45
1039.14	989.45
