Data from hue_180_FLMS001491_00083.txt Node
Date: Tue Feb 07 16:47:35 GMT 2017
User: dcchb
Spectrometer: FLMS00149
Trigger mode: 0
Integration Time (sec): 2.000000E-2
Scans to average: 10
Electric dark correction enabled: true
Nonlinearity correction enabled: false
Boxcar width: 0
XAxis mode: Wavelengths
Number of Pixels in Spectrum: 2048
>>>>>Begin Spectral Data<<<<<
341.393	-33.64
341.776	-33.64
342.16	-33.64
342.543	-62.57
342.927	-65.73
343.31	-70.93
343.693	-58.05
344.077	-62.12
344.46	-70.93
344.843	-57.15
345.226	-30.25
345.61	-17.6
345.993	-23.25
346.376	-5.85
346.759	-4.27
347.142	16.52
347.525	49.52
347.908	56.3
348.291	75.96
348.674	93.13
349.057	108.95
349.44	149.85
349.823	148.95
350.206	165
350.588	174.03
350.971	190.98
351.354	219.91
351.737	265.11
352.119	249.74
352.502	258.78
352.884	277.76
353.267	280.92
353.65	284.31
354.032	313.01
354.414	294.94
354.797	292.22
355.179	313.24
355.562	325.67
355.944	322.73
356.326	336.06
356.709	317.31
357.091	335.39
357.473	323.18
357.855	333.58
358.238	353.47
358.62	353.24
359.002	331.32
359.384	349.17
359.766	349.4
360.148	333.58
360.53	356.86
360.912	346.01
361.294	341.94
361.676	328.83
362.057	314.6
362.439	321.6
362.821	338.32
363.203	334.03
363.584	334.48
363.966	337.87
364.348	310.98
364.729	341.71
365.111	330.42
365.493	337.87
365.874	304.2
366.256	291.77
366.637	307.14
367.019	316.4
367.4	311.21
367.781	324.99
368.163	315.5
368.544	325.67
368.925	327.03
369.306	315.95
369.688	320.02
370.069	303.98
370.45	325.9
370.831	322.51
371.212	306.23
371.593	306.23
371.974	309.17
372.355	321.6
372.736	302.17
373.117	317.53
373.498	325.44
373.879	300.13
374.26	326.57
374.641	311.88
375.021	313.47
375.402	318.44
375.783	326.12
376.163	323.64
376.544	327.03
376.925	332
377.305	310.08
377.686	308.04
378.066	320.47
378.447	314.37
378.827	325.67
379.208	338.55
379.588	332.45
379.968	344.88
380.349	343.52
380.729	328.83
381.109	304.88
381.489	350.3
381.87	329.51
382.25	321.38
382.63	334.71
383.01	328.38
383.39	340.81
383.77	330.64
384.15	336.29
384.53	348.49
384.91	334.26
385.29	344.2
385.67	347.36
386.049	358.66
386.429	353.47
386.809	333.58
387.189	337.87
387.568	330.64
387.948	333.8
388.328	350.3
388.707	358.21
389.087	342.84
389.466	361.6
389.846	368.15
390.225	363.86
390.605	355.73
390.984	383.3
391.363	379.23
391.743	379.45
392.122	381.71
392.501	349.85
392.881	381.26
393.26	374.03
393.639	373.35
394.018	383.75
394.397	360.92
394.776	414.48
395.155	376.06
395.534	373.13
395.913	388.72
396.292	386.01
396.671	396.4
397.05	396.18
397.429	368.15
397.808	393.46
398.186	393.46
398.565	394.59
398.944	380.36
399.323	407.25
399.701	398.44
400.08	394.14
400.458	390.07
400.837	393.46
401.215	411.09
401.594	417.42
401.972	407.48
402.351	411.77
402.729	402.96
403.107	442.73
403.486	420.58
403.864	428.72
404.242	407.93
404.62	415.16
404.999	454.71
405.377	451.99
405.755	428.94
406.133	438.43
406.511	465.33
406.889	452.9
407.267	459
407.645	475.5
408.023	475.95
408.401	475.95
408.779	484.31
409.156	478.43
409.534	510.75
409.912	475.95
410.29	494.25
410.667	519.34
411.045	526.34
411.422	523.18
411.8	542.39
412.178	529.96
412.555	517.75
412.933	553.91
413.31	550.52
413.687	573.57
414.065	566.79
414.442	556.62
414.819	580.35
415.197	595.94
415.574	584.87
415.951	621.48
416.328	603.63
416.705	599.79
417.082	603.85
417.46	626
417.837	633.01
418.214	652.21
418.591	649.28
418.967	689.5
419.344	657.64
419.721	673.68
420.098	670.97
420.475	693.57
420.852	709.39
421.228	698.31
421.605	714.59
421.982	729.05
422.358	742.16
422.735	729.05
423.111	724.3
423.488	782.83
423.864	786
424.241	774.47
424.617	804.75
424.994	819.22
425.37	807.46
425.746	828.93
426.123	860.12
426.499	868.03
426.875	836.16
427.251	865.77
427.627	896.05
428.003	882.49
428.379	900.57
428.756	896.73
429.132	940.79
429.507	936.05
429.883	939.21
430.259	941.47
430.635	950.29
431.011	932.66
431.387	984.86
431.763	1002.26
432.138	1010.4
432.514	1037.52
432.89	1002.49
433.265	1065.31
433.641	1070.96
434.016	1058.53
434.392	1125.87
434.767	1106.67
435.143	1106.67
435.518	1153.9
435.894	1183.95
436.269	1185.08
436.644	1196.15
437.02	1207.68
437.395	1258.53
437.77	1263.72
438.145	1296.04
438.52	1299.88
438.895	1331.07
439.271	1321.58
439.646	1340.33
440.021	1377.85
440.395	1380.56
440.77	1375.81
441.145	1410.61
441.52	1440.89
441.895	1441.12
442.27	1460.1
442.645	1437.05
443.019	1470.95
443.394	1499.65
443.769	1501.68
444.143	1489.93
444.518	1556.6
444.892	1527.22
445.267	1567.44
445.641	1566.54
446.016	1585.98
446.39	1615.35
446.764	1599.08
447.139	1586.65
447.513	1640.66
447.887	1613.55
448.262	1646.99
448.636	1633.43
449.01	1678.18
449.384	1698.51
449.758	1708.91
450.132	1723.82
450.506	1755.91
450.88	1787.1
451.254	1781.45
451.628	1759.98
452.002	1820.32
452.376	1836.59
452.75	1851.96
453.123	1868
453.497	1893.31
453.871	1921.56
454.244	1925.18
454.618	1939.64
454.992	1986.19
455.365	1975.57
455.739	2025.51
456.112	2049.92
456.486	2047.43
456.859	2076.58
457.232	2105.06
457.606	2113.64
457.979	2161.1
458.352	2235.68
458.725	2218.05
459.099	2220.76
459.472	2282.45
459.845	2268.22
460.218	2316.8
460.591	2315.67
460.964	2347.99
461.337	2418.95
461.71	2473.18
462.083	2478.83
462.456	2494.88
462.829	2527.87
463.201	2567.42
463.574	2577.59
463.947	2594.54
464.32	2672.73
464.692	2672.27
465.065	2740.97
465.438	2761.31
465.81	2815.77
466.183	2815.1
466.555	2919.5
466.928	2932.15
467.3	2946.62
467.672	2992.04
468.045	3070
468.417	3072.94
468.789	3129.44
469.161	3135.31
469.534	3223.22
469.906	3301.18
470.278	3312.48
470.65	3342.54
471.022	3423.44
471.394	3462.31
471.766	3524.23
472.138	3610.78
472.51	3625.92
472.882	3731.46
473.253	3738.91
473.625	3808.97
473.997	3885.12
474.369	3978.91
474.74	3976.65
475.112	4064.1
475.484	4140.71
475.855	4224.55
476.227	4228.84
476.598	4428.84
476.97	4419.57
477.341	4534.15
477.713	4614.6
478.084	4675.39
478.455	4787.47
478.827	4879.22
479.198	5013.23
479.569	5051.65
479.94	5195.15
480.311	5231.98
480.682	5331.19
481.053	5499.54
481.424	5592.65
481.795	5663.83
482.166	5741.12
482.537	5862.7
482.908	5935.92
483.279	6035.8
483.65	6170.94
484.021	6348.79
484.391	6344.72
484.762	6487.09
485.133	6536.81
485.503	6631.27
485.874	6850.24
486.244	6921.2
486.615	7051.59
486.985	7115.32
487.356	7252.72
487.726	7274.87
488.097	7491.58
488.467	7510.57
488.837	7744.46
489.207	7796.89
489.578	7907.84
489.948	7936.77
490.318	8140.38
490.688	8150.77
491.058	8318.68
491.428	8447.94
491.798	8503.08
492.168	8679.57
492.538	8673.25
492.908	8832.34
493.278	8992.11
493.648	8942.39
494.017	9024.88
494.387	9173.12
494.757	9231.2
495.126	9305.55
495.496	9395.94
495.866	9494.24
496.235	9540.57
496.605	9658.53
496.974	9752.31
497.344	9794.57
497.713	9825.08
498.082	9961.8
498.452	10059.2
498.821	10014.23
499.19	10091.29
499.559	10148.01
499.928	10205.41
500.298	10191.4
500.667	10298.97
501.036	10315.24
501.405	10398.85
501.774	10418.74
502.143	10531.95
502.512	10560.2
502.88	10616.47
503.249	10588.45
503.618	10659.86
503.987	10717.71
504.356	10766.07
504.724	10824.83
505.093	10811.72
505.462	10922.45
505.83	10900.98
506.199	11070.47
506.567	11048.33
506.936	10987.76
507.304	11249
507.672	11189.79
508.041	11164.25
508.409	11272.05
508.777	11351.37
509.145	11383.91
509.514	11394.76
509.882	11347.3
510.25	11333.06
510.618	11480.63
510.986	11479.95
511.354	11631.13
511.722	11522.44
512.09	11659.61
512.458	11558.37
512.826	11676.78
513.193	11692.15
513.561	11768.53
513.929	11704.13
514.297	11794.52
514.664	11812.6
515.032	11868.42
515.4	11914.97
515.767	11890.56
516.135	11958.13
516.502	11784.35
516.869	11959.94
517.237	12004.01
517.604	11873.16
517.972	12030.67
518.339	11995.65
518.706	12020.28
519.073	12108.64
519.44	12062.99
519.808	12156.09
520.175	12100.5
520.542	12216.88
520.909	12154.74
521.276	12190.22
521.643	12269.31
522.009	12232.02
522.376	12239.71
522.743	12239.71
523.11	12353.15
523.477	12370.32
523.843	12387.5
524.21	12479.25
524.577	12423.88
524.943	12331.91
525.31	12515.41
525.676	12526.25
526.043	12472.47
526.409	12446.25
526.776	12639.7
527.142	12512.69
527.508	12559.47
527.874	12651.45
528.241	12562.64
528.607	12497.33
528.973	12530.55
529.339	12471.11
529.705	12578.91
530.071	12591.11
530.437	12503.2
530.803	12591.79
531.169	12584.78
531.535	12425.69
531.901	12408.52
532.267	12356.54
532.632	12418.68
532.998	12389.08
533.364	12424.79
533.73	12452.13
534.095	12494.84
534.461	12387.27
534.826	12343.43
535.192	12352.92
535.557	12365.8
535.923	12229.99
536.288	12215.3
536.653	12182.31
537.019	12148.41
537.384	12064.8
537.749	12131.69
538.114	12014.85
538.479	11959.71
538.845	12072.03
539.21	11880.62
539.575	11907.96
539.94	11845.14
540.305	11801.53
540.67	11788.19
541.034	11764.46
541.399	11679.95
541.764	11655.99
542.129	11655.09
542.494	11574.64
542.858	11528.76
543.223	11523.57
543.587	11512.49
543.952	11406.51
544.316	11465.49
544.681	11348.66
545.045	11385.94
545.41	11203.58
545.774	11300.75
546.138	11245.83
546.503	11129.23
546.867	11062.11
547.231	11030.47
547.595	10967.88
547.959	10969.46
548.324	10903.02
548.688	10872.74
549.052	10794.32
549.416	10875.45
549.779	10702.57
550.143	10771.95
550.507	10685.62
550.871	10640.65
551.235	10590.26
551.599	10601.33
551.962	10556.13
552.326	10458.51
552.689	10402.47
553.053	10384.39
553.417	10300.32
553.78	10441.11
554.143	10346.65
554.507	10316.14
554.87	10269.81
555.234	10341.45
555.597	10164.05
555.96	10235.92
556.323	10222.36
556.686	10130.38
557.05	10129.48
557.413	10140.1
557.776	10075.7
558.139	10085.64
558.502	10023.95
558.865	10014.45
559.228	10061.91
559.59	10001.57
559.953	9962.03
560.316	10013.32
560.679	9971.52
561.041	9938.07
561.404	9950.73
561.767	9962.25
562.129	9908.92
562.492	9905.08
562.854	9890.62
563.217	9870.96
563.579	9811.3
563.941	9894.23
564.304	9865.08
564.666	9872.31
565.028	9923.84
565.39	9821.46
565.753	9852.65
566.115	9872.99
566.477	9906.89
566.839	9924.74
567.201	9964.06
567.563	9901.24
567.925	9900.11
568.287	9865.08
568.648	9903.04
569.01	9876.15
569.372	9911.63
569.734	9889.94
570.095	9925.19
570.457	9901.91
570.819	9928.35
571.18	9845.42
571.542	9904.4
571.903	9884.74
572.265	9928.58
572.626	9907.79
572.987	9862.82
573.349	9949.15
573.71	9963.16
574.071	9915.7
574.432	9928.58
574.794	9964.51
575.155	9912.99
575.516	9865.08
575.877	9950.95
576.238	9901.01
576.599	9928.58
576.96	9885.64
577.32	9909.15
577.681	9931.74
578.042	9861.46
578.403	9889.94
578.763	9891.07
579.124	9919.32
579.485	9965.87
579.845	9903.04
580.206	9846.77
580.566	9948.24
580.927	9876.38
581.287	9884.97
581.648	9823.05
582.008	9886.1
582.368	9823.05
582.728	9817.4
583.089	9842.71
583.449	9864.18
583.809	9791.18
584.169	9849.26
584.529	9806.32
584.889	9797.28
585.249	9752.77
585.609	9726.55
585.969	9850.16
586.329	9856.49
586.688	9764.52
587.048	9712.09
587.408	9665.99
587.768	9641.81
588.127	9587.12
588.487	9702.6
588.846	9666.89
589.206	9634.13
589.565	9641.13
589.925	9698.3
590.284	9689.04
590.643	9679.77
591.003	9637.97
591.362	9744.18
591.721	9644.75
592.08	9618.31
592.44	9609.95
592.799	9621.92
593.158	9601.58
593.517	9543.73
593.876	9563.84
594.235	9591.64
594.593	9502.83
594.952	9556.39
595.311	9536.5
595.67	9499.44
596.029	9587.12
596.387	9547.12
596.746	9568.59
597.104	9544.41
597.463	9502.83
597.822	9496.73
598.18	9534.24
598.538	9492.21
598.897	9516.16
599.255	9450.85
599.613	9593.45
599.972	9422.61
600.33	9507.8
600.688	9445.2
601.046	9484.75
601.404	9436.16
601.762	9509.38
602.12	9457.63
602.478	9485.88
602.836	9531.08
603.194	9455.37
603.552	9457.86
603.91	9430.51
604.268	9411.76
604.625	9387.58
604.983	9472.77
605.341	9415.15
605.698	9512.77
606.056	9466.9
606.413	9408.14
606.771	9486.11
607.128	9444.75
607.485	9471.19
607.843	9432.77
608.2	9505.54
608.557	9501.47
608.914	9505.77
609.272	9522.04
609.629	9587.8
609.986	9535.37
610.343	9454.47
610.7	9553
611.057	9525.88
611.414	9453.56
611.771	9484.07
612.127	9531.08
612.484	9492.66
612.841	9465.54
613.198	9517.07
613.554	9477.07
613.911	9514.58
614.267	9508.93
614.624	9507.35
614.98	9571.98
615.337	9574.01
615.693	9572.88
616.05	9550.06
616.406	9605.43
616.762	9558.65
617.118	9549.16
617.475	9536.27
617.831	9562.26
618.187	9628.25
618.543	9596.39
618.899	9637.51
619.255	9618.98
619.611	9545.54
619.967	9630.06
620.323	9630.96
620.678	9628.93
621.034	9649.72
621.39	9616.05
621.746	9646.33
622.101	9673.22
622.457	9575.14
622.812	9652.43
623.168	9657.4
623.523	9636.61
623.879	9681.58
624.234	9559.1
624.589	9560.45
624.945	9629.83
625.3	9599.55
625.655	9648.81
626.01	9604.97
626.365	9654.24
626.72	9577.63
627.075	9599.32
627.43	9600.68
627.785	9608.36
628.14	9618.76
628.495	9560.91
628.85	9562.26
629.205	9561.13
629.559	9557.29
629.914	9530.4
630.269	9549.61
630.623	9520.23
630.978	9411.08
631.332	9524.07
631.687	9508.93
632.041	9511.19
632.396	9458.31
632.75	9499.44
633.104	9451.08
633.459	9421.7
633.813	9403.85
634.167	9452.21
634.521	9331.31
634.875	9442.04
635.229	9437.52
635.583	9323.85
635.937	9412.89
636.291	9386.67
636.645	9347.81
636.999	9315.49
637.352	9346
637.706	9235.94
638.06	9331.76
638.413	9300.35
638.767	9270.52
639.121	9258.99
639.474	9323.85
639.828	9244.98
640.181	9254.02
640.534	9237.53
640.888	9195.04
641.241	9181.93
641.594	9191.65
641.947	9251.76
642.301	9184.19
642.654	9204.76
643.007	9219.22
643.36	9230.07
643.713	9182.61
644.066	9211.09
644.419	9108.26
644.771	9040.69
645.124	9054.03
645.477	8973.35
645.83	8885.9
646.182	8910.3
646.535	8910.98
646.888	8881.83
647.24	8876.86
647.593	8925.9
647.945	8907.14
648.298	8812.68
648.65	8873.02
649.002	8791.21
649.355	8888.38
649.707	8862.17
650.059	8918.89
650.411	9069.39
650.763	9046.8
651.115	9164.99
651.467	9069.39
651.819	9066.68
652.171	9086.79
652.523	9038.66
652.875	9094.48
653.227	8998.66
653.578	9096.29
653.93	9109.17
654.282	9120.47
654.633	8990.75
654.985	9105.55
655.337	9111.43
655.688	9034.59
656.039	9128.15
656.391	8990.75
656.742	9048.38
657.094	9035.27
657.445	9105.1
657.796	9038.89
658.147	9001.37
658.498	9042.5
658.849	9068.26
659.2	9092.9
659.551	9105.1
659.902	9090.64
660.253	9066.23
660.604	9069.62
660.955	9068.04
661.306	9153.69
661.656	9090.41
662.007	9081.82
662.358	9165.44
662.708	9124.99
663.059	9140.8
663.409	9105.55
663.76	9204.53
664.11	9154.36
664.461	9169.5
664.811	9195.27
665.161	9202.72
665.511	9186.91
665.862	9137.64
666.212	9222.38
666.562	9200.01
666.912	9136.06
667.262	9117.08
667.612	9177.64
667.962	9123.63
668.312	9135.61
668.662	9228.94
669.011	9133.35
669.361	9123.18
669.711	9160.47
670.06	9181.93
670.41	9155.95
670.76	9103.52
671.109	9103.97
671.459	9158.88
671.808	9076.63
672.157	9131.99
672.507	9081.37
672.856	9025.1
673.205	9114.82
673.554	9146
673.904	9052.45
674.253	9049.06
674.602	9084.54
674.951	8982.16
675.3	8860.81
675.649	9019.9
675.998	9056.29
676.346	9022.16
676.695	9067.81
677.044	8944.43
677.393	9004.09
677.741	8972.45
678.09	8987.36
678.438	8921.6
678.787	8952.11
679.135	8971.54
679.484	8940.81
679.832	8911.66
680.181	8924.54
680.529	8902.62
680.877	8864.2
681.225	8881.38
681.573	8917.31
681.922	8841.83
682.27	8760.25
682.618	8830.53
682.966	8760.93
683.314	8772
683.661	8736.3
684.009	8658.56
684.357	8674.38
684.705	8751.89
685.053	8667.6
685.4	8668.5
685.748	8649.97
686.095	8645.22
686.443	8599.35
686.79	8541.95
687.138	8552.12
687.485	8567.03
687.832	8489.52
688.18	8525.45
688.527	8462.4
688.874	8459.92
689.221	8400.26
689.568	8357.77
689.915	8408.62
690.262	8398.68
690.609	8309.64
690.956	8292.92
691.303	8302.18
691.65	8235.29
691.997	8215.63
692.344	8151.68
692.69	8098.57
693.037	8158.68
693.383	8102.41
693.73	8149.42
694.077	8121.17
694.423	8058.35
694.769	8016.77
695.116	7982.64
695.462	7958.46
695.808	7941.29
696.155	7919.37
696.501	7868.3
696.847	7849.99
697.193	7809.09
697.539	7847.51
697.885	7726.38
698.231	7678.47
698.577	7762.76
698.923	7660.39
699.269	7610.68
699.614	7591.47
699.96	7535.88
700.306	7548.76
700.651	7527.74
700.997	7548.53
701.342	7425.82
701.688	7471.7
702.033	7435.76
702.379	7424.01
702.724	7363
703.069	7397.12
703.415	7310.34
703.76	7287.29
704.105	7282.1
704.45	7262.89
704.795	7178.82
705.14	7167.07
705.485	7138.37
705.83	7097.47
706.175	7214.3
706.52	7140.41
706.865	7142.21
707.209	7081.2
707.554	7062.44
707.899	7068.09
708.243	6998.94
708.588	6996.23
708.932	6923.01
709.277	6882.33
709.621	6890.24
709.966	6873.29
710.31	6932.73
710.654	6845.5
710.998	6817.93
711.342	6813.41
711.687	6795.33
712.031	6782.9
712.375	6785.16
712.719	6724.82
713.063	6681.89
713.407	6749.91
713.75	6717.14
714.094	6703.58
714.438	6681.21
714.782	6628.1
715.125	6608.67
715.469	6712.39
715.812	6570.93
716.156	6623.13
716.499	6609.35
716.843	6655.9
717.186	6577.93
717.53	6617.48
717.873	6605.5
718.216	6562.79
718.559	6543.59
718.902	6495.45
719.246	6514.43
719.589	6502.46
719.932	6496.58
720.275	6480.54
720.617	6516.02
720.96	6498.61
721.303	6469.24
721.646	6472.85
721.989	6485.96
722.331	6531.61
722.674	6499.97
723.016	6467.43
723.359	6408
723.701	6484.15
724.044	6435.34
724.386	6403.25
724.729	6436.24
725.071	6428.11
725.413	6409.8
725.755	6409.35
726.097	6350.6
726.439	6377.26
726.782	6308.79
727.124	6355.34
727.465	6370.48
727.807	6381.1
728.149	6356.25
728.491	6353.31
728.833	6352.63
729.175	6395.34
729.516	6367.54
729.858	6370.26
730.199	6365.28
730.541	6345.4
730.882	6384.95
731.224	6352.63
731.565	6358.51
731.906	6376.81
732.248	6383.82
732.589	6350.82
732.93	6351.95
733.271	6321.67
733.612	6362.8
733.953	6395.11
734.294	6334.32
734.635	6312.18
734.976	6373.42
735.317	6374.78
735.658	6326.87
735.999	6361.22
736.339	6392.85
736.68	6384.04
737.021	6368.67
737.361	6409.13
737.702	6421.1
738.042	6379.3
738.383	6338.84
738.723	6423.14
739.063	6404.61
739.404	6419.52
739.744	6457.94
740.084	6460.65
740.424	6445.28
740.764	6394.89
741.104	6482.57
741.444	6539.52
741.784	6494.55
742.124	6511.72
742.464	6503.13
742.804	6525.96
743.143	6561.66
743.483	6636.92
743.823	6634.66
744.162	6608.67
744.502	6633.53
744.841	6709.68
745.181	6763.47
745.52	6732.51
745.86	6734.77
746.199	6805.27
746.538	6857.02
746.877	6911.94
747.216	6904.93
747.556	7016.11
747.895	7013.4
748.234	7057.92
748.573	7092.27
748.911	7131.59
749.25	7219.27
749.589	7273.06
749.928	7344.47
750.267	7393.73
750.605	7439.83
750.944	7553.5
751.283	7626.49
751.621	7722.99
751.96	7777.45
752.298	7875.3
752.636	7981.29
752.975	8015.86
753.313	8092.47
753.651	8243.43
753.989	8407.94
754.327	8494.04
754.666	8510.54
755.004	8635.96
755.342	8797.99
755.679	8937.65
756.017	8986.46
756.355	9225.1
756.693	9286.34
757.031	9454.02
757.368	9547.57
757.706	9704.86
758.044	9843.16
758.381	10060.78
758.719	10196.6
759.056	10361.34
759.394	10525.85
759.731	10603.14
760.068	10815.11
760.405	10880.65
760.743	11089
761.08	11256.91
761.417	11362.89
761.754	11597.01
762.091	11716.1
762.428	11823.9
762.765	12072.03
763.102	12224.11
763.438	12368.06
763.775	12585.69
764.112	12789.75
764.449	12915.85
764.785	13060.02
765.122	13132.56
765.458	13275.84
765.795	13486.23
766.131	13683.06
766.467	13719.44
766.804	13938.87
767.14	14095.02
767.476	14187.9
767.812	14417.5
768.148	14557.61
768.485	14582.7
768.821	14714.9
769.157	14911.05
769.492	14993.76
769.828	15146.97
770.164	15149.23
770.5	15290.25
770.836	15480.98
771.171	15484.37
771.507	15594.65
771.842	15605.72
772.178	15764.59
772.513	15905.15
772.849	15946.28
773.184	16034.63
773.519	16172.48
773.855	16148.3
774.19	16227.4
774.525	16387.39
774.86	16418.13
775.195	16522.31
775.53	16513.04
775.865	16572.7
776.2	16577.9
776.535	16486.6
776.87	16650.44
777.205	16635.75
777.539	16774.05
777.874	16888.85
778.209	16869.87
778.543	16830.77
778.878	16866.48
779.212	16915.52
779.547	16882.07
779.881	16999.13
780.215	17004.78
780.55	17078
780.884	17013.37
781.218	17035.74
781.552	17082.52
781.886	16961.39
782.22	16982.41
782.554	17028.73
782.888	17015.4
783.222	16956.64
783.556	16934.5
783.889	17056.3
784.223	16962.52
784.557	16959.36
784.89	17054.27
785.224	17073.93
785.557	16971.11
785.891	16958.23
786.224	16913.93
786.558	16943.54
786.891	16905.8
787.224	16965.01
787.557	16860.6
787.891	16858.79
788.224	16862.86
788.557	16894.05
788.89	16927.27
789.223	16993.71
789.556	16803.43
789.888	16859.92
790.221	16833.48
790.554	16712.13
790.887	16707.84
791.219	16701.51
791.552	16694.05
791.884	16609.54
792.217	16546.94
792.549	16583.55
792.882	16395.76
793.214	16450.67
793.546	16519.59
793.879	16402.08
794.211	16315.76
794.543	16431.01
794.875	16351.69
795.207	16416.09
795.539	16365.93
795.871	16373.16
796.203	16179.49
796.535	16165.93
796.867	16109.89
797.198	16133.16
797.53	16098.14
797.862	15964.13
798.193	16028.08
798.525	15939.27
798.856	15973.62
799.188	15806.62
799.519	15830.8
799.85	15842.78
800.182	15833.96
800.513	15781.53
800.844	15684.14
801.175	15791.48
801.506	15734.76
801.837	15639.62
802.168	15580.18
802.499	15592.16
802.83	15504.93
803.161	15480.75
803.491	15477.14
803.822	15498.38
804.153	15368.21
804.483	15277.82
804.814	15257.71
805.145	15292.73
805.475	15294.99
805.805	15235.79
806.136	15165.96
806.466	15241.44
806.796	15218.84
807.126	15039.18
807.457	15009.35
807.787	15041.21
808.117	14973.42
808.447	14907.88
808.777	15033.76
809.107	14965.51
809.436	14861.56
809.766	14818.17
810.096	14788.11
810.426	14747.44
810.755	14803.25
811.085	14830.37
811.414	14711.73
811.744	14631.73
812.073	14601.23
812.403	14650.26
812.732	14506.54
813.061	14546.09
813.39	14492.3
813.719	14464.73
814.049	14487.78
814.378	14419.99
814.707	14392.87
815.036	14361.01
815.365	14318.75
815.693	14270.84
816.022	14235.13
816.351	14229.26
816.68	14147.9
817.008	14234.91
817.337	14041.69
817.665	14057.51
817.994	14173.89
818.322	14067
818.651	14021.13
818.979	13991.52
819.307	14029.72
819.636	14012.99
819.964	13932.09
820.292	14001.24
820.62	13959.89
820.948	13944.07
821.276	13994.91
821.604	13958.31
821.932	13989.49
822.259	13953.56
822.587	13957.4
822.915	13881.92
823.243	13890.74
823.57	13884.18
823.898	13901.81
824.225	13895.71
824.553	13856.61
824.88	13890.51
825.207	13904.97
825.535	13933.45
825.862	13902.94
826.189	13917.85
826.516	13941.36
826.843	13914.01
827.17	13960.79
827.497	14037.4
827.824	13995.59
828.151	14043.5
828.478	13907.69
828.805	13981.13
829.131	13963.95
829.458	13976.61
829.785	13920.34
830.111	13929.83
830.438	14006.21
830.764	14023.39
831.09	14036.04
831.417	13923.5
831.743	13936.16
832.069	13854.35
832.395	13827.46
832.722	13894.58
833.048	13793.56
833.374	13928.7
833.7	13843.73
834.026	13797.18
834.351	13853
834.677	13804.41
835.003	13886.22
835.329	13826.78
835.654	13748.59
835.98	13783.39
836.306	13805.99
836.631	13718.99
836.956	13701.81
837.282	13742.94
837.607	13662.04
837.932	13695.26
838.258	13704.75
838.583	13580.01
838.908	13584.53
839.233	13675.37
839.558	13611.42
839.883	13559.67
840.208	13464.08
840.533	13519.9
840.858	13515.61
841.182	13487.81
841.507	13419.34
841.832	13312.9
842.156	13466.57
842.481	13390.18
842.805	13372.33
843.13	13290.07
843.454	13321.94
843.778	13157.2
844.103	13173.92
844.427	13179.34
844.751	13119.91
845.075	13111.1
845.399	13071.77
845.723	13008.05
846.047	13053.02
846.371	12845.11
846.695	12996.3
847.019	12759.24
847.343	12773.93
847.666	12704.78
847.99	12629.3
848.313	12669.07
848.637	12598.12
848.96	12521.28
849.284	12556.31
849.607	12448.06
849.931	12452.58
850.254	12350.44
850.577	12276.09
850.9	12154.96
851.223	12160.84
851.546	12173.72
851.869	12052.14
852.192	12085.36
852.515	12004.91
852.838	11940.96
853.161	11977.57
853.483	11847.4
853.806	11862.09
854.129	11777.12
854.451	11683.79
854.774	11744.13
855.096	11704.58
855.419	11670.91
855.741	11662.32
856.063	11557.01
856.385	11618.71
856.708	11498.26
857.03	11444.93
857.352	11379.16
857.674	11349.79
857.996	11297.81
858.318	11316.34
858.64	11324.02
858.961	11351.59
859.283	11268.66
859.605	11170.36
859.926	11256.91
860.248	11154.54
860.57	11065.5
860.891	11166.74
861.212	11035.67
861.534	11025.05
861.855	11014.65
862.176	11001.32
862.498	11002.68
862.819	10995.22
863.14	10972.85
863.461	10929.01
863.782	10878.16
864.103	10917.93
864.424	10866.86
864.745	10956.58
865.065	10870.25
865.386	10794.09
865.707	10775.56
866.027	10714.55
866.348	10713.87
866.668	10722.68
866.989	10693.53
867.309	10636.13
867.63	10695.57
867.95	10580.54
868.27	10606.98
868.59	10592.74
868.91	10617.15
869.23	10651.27
869.55	10522.24
869.87	10578.96
870.19	10546.87
870.51	10512.07
870.83	10543.71
871.15	10502.35
871.469	10461.22
871.789	10480.66
872.109	10480.2
872.428	10403.6
872.748	10327.89
873.067	10365.86
873.386	10351.39
873.706	10329.02
874.025	10298.06
874.344	10317.72
874.663	10352.52
874.982	10282.92
875.301	10251.06
875.62	10279.98
875.939	10224.62
876.258	10217.84
876.577	10252.64
876.896	10244.28
877.214	10184.85
877.533	10177.39
877.852	10155.02
878.17	10141.68
878.489	10148.46
878.807	10034.57
879.125	10093.1
879.444	10051.74
879.762	10089.93
880.08	10000.44
880.398	9985.3
880.716	9983.04
881.034	9958.86
881.352	9958.64
881.67	9950.28
881.988	9910.28
882.306	9882.25
882.624	9854.68
882.941	9777.62
883.259	9804.97
883.577	9853.78
883.894	9785.08
884.212	9765.87
884.529	9748.47
884.846	9691.98
885.164	9733.11
885.481	9647.01
885.798	9687.91
886.115	9609.27
886.432	9646.55
886.75	9489.5
887.067	9500.12
887.383	9526.78
887.7	9578.53
888.017	9539.44
888.334	9470.74
888.651	9482.72
888.967	9380.12
889.284	9390.74
889.6	9404.98
889.917	9265.77
890.233	9332.89
890.55	9277.3
890.866	9253.57
891.182	9242.27
891.498	9156.62
891.815	9176.51
892.131	9116.17
892.447	9161.82
892.763	9052.22
893.079	9041.82
893.395	9035.04
893.71	9043.18
894.026	8978.78
894.342	8913.92
894.657	8899.91
894.973	8883.18
895.289	8846.12
895.604	8824.43
895.92	8745.11
896.235	8738.1
896.55	8738.1
896.865	8714.6
897.181	8666.69
897.496	8681.38
897.811	8624.66
898.126	8557.09
898.441	8566.81
898.756	8594.15
899.071	8491.78
899.386	8494.27
899.7	8438.9
900.015	8346.93
900.33	8351.9
900.644	8395.06
900.959	8363.65
901.273	8281.17
901.588	8246.82
901.902	8212.69
902.216	8189.42
902.531	8276.65
902.845	8127.27
903.159	8117.55
903.473	8048.86
903.787	8091.11
904.101	8090.89
904.415	7951.46
904.729	7940.84
905.042	7997.56
905.356	7909.42
905.67	7853.83
905.984	7811.8
906.297	7827.62
906.611	7782.87
906.924	7726.38
907.237	7786.72
907.551	7732.93
907.864	7706.72
908.177	7681.63
908.491	7643.44
908.804	7519.6
909.117	7497.91
909.43	7466.72
909.743	7416.56
910.056	7469.89
910.368	7386.27
910.681	7341.98
910.994	7352.83
911.307	7240.52
911.619	7265.37
911.932	7254.53
912.244	7228.99
912.557	7165.04
912.869	7163.91
913.181	7139.95
913.494	7088.43
913.806	6974.08
914.118	7016.34
914.43	7006.4
914.742	7015.89
915.054	6978.38
915.366	6892.73
915.678	6927.53
915.99	6874.42
916.302	6894.08
916.613	6756.23
916.925	6797.36
917.236	6809.57
917.548	6716.91
917.859	6726.41
918.171	6669.68
918.482	6667.42
918.794	6630.81
919.105	6576.58
919.416	6517.6
919.727	6547.65
920.038	6467.88
920.349	6471.72
920.66	6457.03
920.971	6480.76
921.282	6444.6
921.593	6386.3
921.903	6351.73
922.214	6331.61
922.525	6294.55
922.835	6278.06
923.146	6312.4
923.456	6199.41
923.767	6196.93
924.077	6188.57
924.387	6159.64
924.697	6061.56
925.008	6121.9
925.318	6050.94
925.628	6077.16
925.938	6051.62
926.248	5952.41
926.558	5968.46
926.867	5988.12
927.177	5958.29
927.487	5898.18
927.796	5867.9
928.106	5864.51
928.416	5857.95
928.725	5824.06
929.034	5806.66
929.344	5819.76
929.653	5808.46
929.962	5758.52
930.271	5681.23
930.581	5710.61
930.89	5662.93
931.199	5571.18
931.508	5642.37
931.817	5662.25
932.125	5600.33
932.434	5581.8
932.743	5510.39
933.051	5568.02
933.36	5499.54
933.669	5468.81
933.977	5397.63
934.286	5401.02
934.594	5405.31
934.902	5347.68
935.21	5377.74
935.519	5307.23
935.827	5286.44
936.135	5264.97
936.443	5286.22
936.751	5213.9
937.059	5227.01
937.367	5157.41
937.674	5173.23
937.982	5123.96
938.29	5097.07
938.597	5088.71
938.905	5058.88
939.213	5064.98
939.52	5046
939.827	5034.47
940.135	4968.26
940.442	4951.99
940.749	4987.69
941.056	4961.93
941.363	4930.07
941.67	4879
941.977	4863.63
942.284	4789.28
942.591	4833.35
942.898	4808.49
943.205	4823.86
943.511	4770.52
943.818	4761.26
944.125	4735.5
944.431	4689.85
944.738	4681.71
945.044	4650.3
945.35	4647.36
945.657	4610.75
945.963	4602.62
946.269	4603.75
946.575	4608.95
946.881	4518.55
947.187	4510.87
947.493	4507.48
947.799	4469.74
948.105	4454.15
948.41	4443.75
948.716	4498.89
949.022	4437.43
949.327	4410.53
949.633	4363.53
949.938	4375.96
950.244	4306.13
950.549	4343.42
950.854	4225.45
951.16	4230.43
951.465	4286.24
951.77	4269.29
952.075	4211.22
952.38	4228.84
952.685	4196.53
952.99	4173.48
953.294	4196.75
953.599	4152.01
953.904	4137.32
954.209	4085.34
954.513	4062.52
954.818	4058.23
955.122	4024.1
955.426	4032.01
955.731	3993.37
956.035	3992.24
956.339	3985.01
956.643	3961.73
956.948	3926.48
957.252	3908.63
957.556	3893.03
957.86	3910.43
958.163	3956.99
958.467	3882.64
958.771	3867.5
959.075	3857.78
959.378	3798.57
959.682	3837.22
959.985	3796.31
960.289	3758.12
960.592	3770.1
960.896	3723.77
961.199	3723.09
961.502	3721.74
961.805	3686.26
962.108	3683.1
962.411	3631.57
962.714	3649.65
963.017	3665.24
963.32	3623.21
963.623	3588.63
963.926	3594.28
964.228	3577.56
964.531	3527.62
964.833	3521.52
965.136	3507.05
965.438	3548.18
965.741	3469.77
966.043	3454.63
966.345	3481.29
966.648	3481.74
966.95	3466.6
967.252	3410.11
967.554	3389.77
967.856	3397
968.158	3371.01
968.46	3360.62
968.761	3359.49
969.063	3317
969.365	3345.25
969.666	3290.34
969.968	3276.33
970.269	3267.96
970.571	3214.63
970.872	3221.86
971.174	3213.73
971.475	3234.97
971.776	3205.59
972.077	3190
972.378	3156.1
972.679	3122.88
972.98	3153.62
973.281	3124.92
973.582	3135.31
973.883	3130.79
974.183	3093.73
974.484	3093.51
974.785	3097.8
975.085	3066.16
975.386	3055.09
975.686	3014.64
975.986	3007.63
976.287	2987.75
976.587	2940.29
976.887	2941.19
977.187	2988.42
977.487	2937.35
977.787	2905.49
978.087	2892.38
978.387	2890.57
978.687	2884.02
978.987	2827.07
979.286	2863.91
979.586	2849.67
979.885	2875.21
980.185	2823.46
980.484	2803.12
980.784	2802.44
981.083	2804.93
981.382	2781.2
981.682	2782.55
981.981	2765.83
982.28	2738.26
982.579	2723.12
982.878	2739.62
983.177	2713.63
983.475	2700.75
983.774	2656.23
984.073	2638.15
984.372	2657.81
984.67	2641.31
984.969	2631.37
985.267	2695.1
985.566	2624.14
985.864	2601.32
986.162	2578.72
986.461	2597.93
986.759	2563.58
987.057	2543.92
987.355	2559.28
987.653	2520.41
987.951	2531.49
988.249	2493.3
988.547	2508.89
988.844	2487.42
989.142	2498.49
989.44	2464.82
989.737	2446.97
990.035	2471.38
990.332	2439.74
990.63	2399.74
990.927	2408.33
991.224	2424.15
991.521	2383.02
991.819	2381.89
992.116	2402.45
992.413	2348.44
992.71	2351.15
993.006	2346.86
993.303	2309.12
993.6	2311.15
993.897	2329.01
994.193	2294.21
994.49	2259.86
994.787	2282.23
995.083	2265.28
995.379	2249.91
995.676	2198.39
995.972	2229.57
996.268	2205.62
996.565	2213.98
996.861	2157.26
997.157	2209.24
997.453	2162.23
997.749	2165.85
998.044	2155.23
998.34	2126.07
998.636	2161.55
998.932	2113.42
999.227	2098.73
999.523	2127.2
999.818	2074.32
1000.114	2047.88
1000.409	2047.88
1000.704	2037.26
1001	2028
1001.295	1987.77
1001.59	2040.88
1001.885	1992.07
1002.18	1964.27
1002.475	1968.56
1002.77	1966.76
1003.065	1942.58
1003.359	1951.84
1003.654	1929.7
1003.949	1915.01
1004.243	1935.12
1004.538	1908.68
1004.832	1908.9
1005.127	1910.49
1005.421	1889.24
1005.715	1863.93
1006.009	1866.87
1006.304	1839.08
1006.598	1828.23
1006.892	1825.52
1007.186	1773.31
1007.48	1806.31
1007.773	1821.22
1008.067	1809.02
1008.361	1796.14
1008.655	1747.55
1008.948	1755.24
1009.242	1726.76
1009.535	1764.73
1009.829	1722.24
1010.122	1718.18
1010.415	1703.26
1010.708	1701.45
1011.001	1684.96
1011.295	1649.7
1011.588	1651.06
1011.881	1625.52
1012.173	1641.12
1012.466	1628.01
1012.759	1639.08
1013.052	1647.22
1013.344	1615.35
1013.637	1599.08
1013.93	1587.33
1014.222	1596.37
1014.514	1599.31
1014.807	1567.9
1015.099	1535.58
1015.391	1567.67
1015.683	1538.07
1015.976	1525.19
1016.268	1525.19
1016.56	1505.3
1016.851	1533.32
1017.143	1493.1
1017.435	1506.88
1017.727	1498.29
1018.018	1470.72
1018.31	1455.81
1018.602	1474.11
1018.893	1462.36
1019.185	1439.76
1019.476	1409.26
1019.767	1409.48
1020.058	1443.61
1020.35	1408.35
1020.641	1388.24
1020.932	1368.58
1021.223	1373.78
1021.514	1351.41
1021.804	1316.38
1022.095	1383.72
1022.386	1335.36
1022.677	1321.8
1022.967	1327.9
1023.258	1322.71
1023.548	1312.31
1023.839	1318.41
1024.129	1264.18
1024.419	1275.93
1024.709	1279.32
1025	1220.79
1025.29	1246.55
1025.58	1229.83
1025.87	1214.91
1026.16	1215.14
1026.449	1217.17
1026.739	1233.22
1027.029	1183.05
1027.319	1182.6
1027.608	1183.27
1027.898	1166.1
1028.187	1186.89
1028.477	1163.16
1028.766	1166.1
1029.055	1154.57
1029.344	1162.94
1029.634	1140.11
1029.923	1140.56
1030.212	1127.46
1030.501	1091.98
1030.79	1093.78
1031.078	1109.6
1031.367	1116.16
1031.656	1061.02
1031.945	1088.81
1032.233	1076.84
1032.522	1040.45
1032.81	1055.59
1033.099	1050.85
1033.387	1011.75
1033.675	1040
1033.963	1028.7
1034.251	1049.04
1034.54	1001.58
1034.828	996.16
1035.116	1014.01
1035.403	985.77
1035.691	1007.46
1035.979	997.97
1036.267	976.5
1036.554	956.84
1036.842	992.54
1037.129	967.69
1037.417	936.95
1037.704	943.28
1037.992	949.61
1038.279	948.48
1038.566	935.82
1038.853	935.82
1039.14	935.82
