Data from hue_50_FLMS001491_50.txt Node
Date: Mon Feb 06 15:10:12 GMT 2017
User: dcchb
Spectrometer: FLMS00149
Trigger mode: 0
Integration Time (sec): 2.000000E-2
Scans to average: 10
Electric dark correction enabled: true
Nonlinearity correction enabled: false
Boxcar width: 0
XAxis mode: Wavelengths
Number of Pixels in Spectrum: 2048
>>>>>Begin Spectral Data<<<<<
341.393	-1.16
341.776	-1.16
342.16	-1.16
342.543	-62.17
342.927	-52.46
343.31	-75.96
343.693	-65.11
344.077	-65.11
344.46	-65.34
344.843	-47.26
345.226	-57.43
345.61	-27.6
345.993	-17.65
346.376	-14.27
346.759	15.79
347.142	45.17
347.525	37.94
347.908	66.64
348.291	79.07
348.674	89.91
349.057	101.21
349.44	107.31
349.823	152.06
350.206	175.11
350.588	185.5
350.971	221.21
351.354	235.9
351.737	232.73
352.119	267.54
352.502	265.95
352.884	272.96
353.267	268.89
353.65	309.34
354.032	284.71
354.414	318.16
354.797	315.44
355.179	322.9
355.562	326.06
355.944	319.51
356.326	337.59
356.709	349.12
357.091	349.12
357.473	324.48
357.855	349.79
358.238	346.63
358.62	351.6
359.002	353.63
359.384	344.14
359.766	347.53
360.148	341.66
360.53	326.74
360.912	349.79
361.294	339.62
361.676	333.75
362.057	340.98
362.439	333.75
362.821	336.46
363.203	312.28
363.584	314.09
363.966	324.48
364.348	307.99
364.729	329.45
365.111	326.52
365.493	324.93
365.874	309.79
366.256	320.42
366.637	325.39
367.019	334.65
367.4	335.33
367.781	314.54
368.163	299.85
368.544	322.68
368.925	340.75
369.306	311.6
369.688	319.06
370.069	312.28
370.45	317.25
370.831	329.23
371.212	322.9
371.593	311.83
371.974	315.44
372.355	304.14
372.736	319.51
373.117	331.49
373.498	313.18
373.879	319.96
374.26	324.03
374.641	322.68
375.021	330.58
375.402	319.29
375.783	350.47
376.163	326.52
376.544	328.78
376.925	347.76
377.305	334.65
377.686	328.78
378.066	337.36
378.447	346.4
378.827	338.49
379.208	331.26
379.588	324.93
379.968	334.65
380.349	329.91
380.729	339.85
381.109	354.09
381.489	351.6
381.87	332.84
382.25	346.4
382.63	344.37
383.01	323.35
383.39	329.91
383.77	332.17
384.15	339.85
384.53	335.56
384.91	349.57
385.29	360.87
385.67	361.77
386.049	342.79
386.429	354.99
386.809	355.44
387.189	340.3
387.568	373.3
387.948	327.19
388.328	348.44
388.707	353.63
389.087	369.45
389.466	367.19
389.846	372.62
390.225	357.48
390.605	344.6
390.984	348.21
391.363	357.25
391.743	362.45
392.122	360.41
392.501	369.23
392.881	362
393.26	351.6
393.639	370.58
394.018	361.77
394.397	373.52
394.776	371.26
395.155	379.85
395.534	384.14
395.913	365.16
396.292	392.73
396.671	370.81
397.05	384.59
397.429	366.52
397.808	354.76
398.186	372.17
398.565	360.64
398.944	378.94
399.323	381.66
399.701	390.02
400.08	364.71
400.458	378.94
400.837	373.3
401.215	379.85
401.594	387.31
401.972	395.67
402.351	420.3
402.729	390.02
403.107	386.4
403.486	401.54
403.864	381.88
404.242	387.31
404.62	399.96
404.999	415.78
405.377	414.65
405.755	398.83
406.133	403.12
406.511	407.19
406.889	415.1
407.267	394.09
407.645	412.84
408.023	423.69
408.401	404.48
408.779	414.65
409.156	415.55
409.534	425.72
409.912	430.69
410.29	431.15
410.667	451.94
411.045	439.06
411.422	427.53
411.8	426.63
412.178	420.53
412.555	432.73
412.933	431.15
413.31	458.49
413.687	481.77
414.065	446.97
414.442	472.05
414.819	447.87
415.197	467.98
415.574	450.36
415.951	456.46
416.328	471.6
416.705	472.5
417.082	471.6
417.46	463.46
417.837	470.69
418.214	470.02
418.591	482.67
418.967	484.25
419.344	472.28
419.721	497.81
420.098	489.68
420.475	496
420.852	486.29
421.228	488.32
421.605	496
421.982	504.82
422.358	492.39
422.735	491.94
423.111	510.01
423.488	498.04
423.864	518.15
424.241	524.93
424.617	518.15
424.994	517.25
425.37	516.12
425.746	536.23
426.123	513.63
426.499	539.17
426.875	541.43
427.251	533.97
427.627	560.63
428.003	532.84
428.379	541.65
428.756	575.32
429.132	560.41
429.507	543.91
429.883	551.14
430.259	567.41
430.635	569.67
431.011	580.97
431.387	592.95
431.763	575.32
432.138	587.75
432.514	595.89
432.89	560.41
433.265	569.67
433.641	585.72
434.016	613.97
434.392	587.75
434.767	589.56
435.143	615.1
435.518	646.06
435.894	625.94
436.269	626.62
436.644	636.57
437.02	639.5
437.395	647.41
437.77	655.1
438.145	653.51
438.52	645.83
438.895	684.47
439.271	669.56
439.646	674.76
440.021	686.51
440.395	653.29
440.77	673.4
441.145	684.93
441.52	699.84
441.895	686.96
442.27	691.03
442.645	686.28
443.019	693.29
443.394	678.37
443.769	720.18
444.143	710.01
444.518	708.2
444.892	726.96
445.267	716.11
445.641	730.12
446.016	734.19
446.39	732.83
446.764	742.1
447.139	745.04
447.513	747.97
447.887	738.26
448.262	739.84
448.636	743.68
449.01	773.51
449.384	747.52
449.758	750.01
450.132	794.3
450.506	768.77
450.88	785.71
451.254	780.29
451.628	790.69
452.002	785.71
452.376	786.17
452.75	783.45
453.123	833.17
453.497	831.14
453.871	820.74
454.244	829.55
454.618	875.2
454.992	851.02
455.365	822.77
455.739	861.42
456.112	886.73
456.486	857.8
456.859	895.32
457.232	883.34
457.606	877.46
457.979	899.16
458.352	926.28
458.725	954.3
459.099	923.56
459.472	926.73
459.845	973.05
460.218	983.67
460.591	988.19
460.964	961.98
461.337	997.69
461.71	1000.17
462.083	1027.29
462.456	1009.89
462.829	1034.07
463.201	1032.94
463.574	1049.21
463.947	1071.13
464.32	1082.66
464.692	1105.03
465.065	1102.99
465.438	1129.43
465.81	1150.22
466.183	1150.22
466.555	1162.2
466.928	1165.36
467.3	1182.09
467.672	1227.74
468.045	1229.32
468.417	1248.07
468.789	1239.49
469.161	1261.86
469.534	1308.19
469.906	1318.81
470.278	1349.99
470.65	1366.49
471.022	1418.92
471.394	1441.29
471.766	1447.39
472.138	1483.55
472.51	1507.5
472.882	1484.23
473.253	1558.35
473.625	1586.37
473.997	1644.45
474.369	1644.67
474.74	1687.61
475.112	1700.27
475.484	1747.72
475.855	1802.18
476.227	1823.2
476.598	1899.81
476.97	1962.18
477.341	1987.04
477.713	2036.3
478.084	2078.11
478.455	2151.1
478.827	2204.43
479.198	2231.78
479.569	2296.18
479.94	2366.69
480.311	2428.61
480.682	2542.28
481.053	2618.66
481.424	2666.12
481.795	2731.2
482.166	2832.44
482.537	2882.38
482.908	2998.54
483.279	3010.97
483.65	3140.91
484.021	3261.35
484.391	3338.42
484.762	3405.98
485.133	3471.74
485.503	3573.66
485.874	3695.02
486.244	3760.32
486.615	3893.88
486.985	3990.15
487.356	4067.89
487.726	4226.08
488.097	4373.42
488.467	4406.64
488.837	4545.84
489.207	4706.29
489.578	4763.69
489.948	4939.73
490.318	5052.72
490.688	5096.79
491.058	5249.55
491.428	5425.14
491.798	5485.25
492.168	5713.27
492.538	5742.65
492.908	5864.68
493.278	6050.43
493.648	6120.94
494.017	6247.94
494.387	6376.3
494.757	6491.1
495.126	6650.87
495.496	6727.48
495.866	6915.72
496.235	6995.27
496.605	7157.3
496.974	7218.31
497.344	7330.85
497.713	7499.66
498.082	7594.8
498.452	7786.89
498.821	7902.36
499.19	7930.16
499.559	8125.63
499.928	8219.87
500.298	8325.85
500.667	8405.17
501.036	8523.14
501.405	8712.29
501.774	8715
502.143	8872.73
502.512	8945.5
502.88	9049.45
503.249	9193.4
503.618	9249.67
503.987	9404.02
504.356	9511.36
504.724	9629.32
505.093	9701.86
505.462	9762.43
505.83	9921.07
506.199	10117.9
506.567	10182.08
506.936	10214.17
507.304	10439.25
507.672	10534.84
508.041	10482.86
508.409	10668.62
508.777	10829.97
509.145	10929.18
509.514	10929.63
509.882	11022.96
510.25	11182.95
510.618	11302.95
510.986	11393.34
511.354	11541.36
511.722	11633.79
512.09	11734.35
512.458	11751.98
512.826	11910.39
513.193	11947.91
513.561	12067
513.929	12200.33
514.297	12321.46
514.664	12378.86
515.032	12472.86
515.4	12614.56
515.767	12670.83
516.135	12772.97
516.502	12749.92
516.869	13043.02
517.237	13075.33
517.604	13013.87
517.972	13329.11
518.339	13347.87
518.706	13454.31
519.073	13434.19
519.44	13591.7
519.808	13711.02
520.175	13750.12
520.542	13941.53
520.909	14050.45
521.276	14007.74
521.643	14158.92
522.009	14331.35
522.376	14423.55
522.743	14494.73
523.11	14612.69
523.477	14838
523.843	14836.42
524.21	15088.61
524.577	15131.33
524.943	15209.97
525.31	15269.85
525.676	15390.98
526.043	15527.93
526.409	15674.81
526.776	15830.97
527.142	15857.18
527.508	16038.42
527.874	16025.09
528.241	16158.42
528.607	16170.17
528.973	16327
529.339	16371.74
529.705	16640.21
530.071	16734.9
530.437	16748.23
530.803	16957.04
531.169	17027.32
531.535	17040.2
531.901	17063.25
532.267	17182.57
532.632	17261.21
532.998	17345.05
533.364	17428.89
533.73	17419.17
534.095	17708.43
534.461	17663.46
534.826	17872.95
535.192	17858.49
535.557	18001.31
535.923	17966.05
536.288	18010.35
536.653	18234.07
537.019	18218.02
537.384	18268.64
537.749	18331.02
538.114	18413.05
538.479	18491.46
538.845	18587.73
539.21	18607.17
539.575	18778.46
539.94	18638.35
540.305	18846.93
540.67	18770.78
541.034	18980.26
541.399	19050.54
541.764	19123.54
542.129	19122.86
542.494	19159.92
542.858	19237.21
543.223	19263.87
543.587	19487.37
543.952	19484.88
544.316	19506.58
544.681	19638.1
545.045	19717.42
545.41	19753.12
545.774	19803.29
546.138	19829.05
546.503	19911.54
546.867	19919.67
547.231	20062.27
547.595	20047.58
547.959	20228.82
548.324	20116.96
548.688	20241.93
549.052	20324.86
549.416	20362.37
549.779	20445.08
550.143	20447.34
550.507	20662.71
550.871	20654.34
551.235	20631.97
551.599	20923.72
551.962	20953.32
552.326	21007.55
552.689	21037.61
553.053	21102.69
553.417	21104.95
553.78	21480.99
554.143	21323.03
554.507	21426.3
554.87	21442.12
555.234	21712.17
555.597	21563.47
555.96	21779.06
556.323	21784.94
556.686	21823.8
557.05	22013.86
557.413	22068.32
557.776	22171.14
558.139	22200.74
558.502	22296.33
558.865	22358.48
559.228	22538.59
559.59	22621.3
559.953	22628.08
560.316	22814.97
560.679	22836.21
561.041	23038.46
561.404	23077.33
561.767	23239.81
562.129	23179.02
562.492	23347.83
562.854	23404.33
563.217	23401.62
563.579	23489.52
563.941	23665.34
564.304	23741.49
564.666	23811.1
565.028	23979.45
565.39	23976.97
565.753	24151.2
566.115	24315.26
566.477	24271.42
566.839	24407.47
567.201	24524.52
567.563	24620.12
567.925	24698.08
568.287	24787.57
568.648	24882.03
569.01	25009.26
569.372	25110.27
569.734	25182.36
570.095	25244.28
570.457	25322.7
570.819	25539.41
571.18	25432.98
571.542	25624.16
571.903	25691.95
572.265	25849.91
572.626	25885.39
572.987	25962.45
573.349	26090.81
573.71	26184.14
574.071	26272.05
574.432	26197.7
574.794	26532.38
575.155	26646.28
575.516	26571.93
575.877	26807.63
576.238	26693.28
576.599	26882.43
576.96	26957
577.32	27040.39
577.681	27076.32
578.042	27270.44
578.403	27265.02
578.763	27288.07
579.124	27485.35
579.485	27575.97
579.845	27775.96
580.206	27722.63
580.566	27746.81
580.927	28030.42
581.287	28022.51
581.648	28056.86
582.008	28336.63
582.368	28325.55
582.728	28343.63
583.089	28484.87
583.449	28425.21
583.809	28676.05
584.169	28755.15
584.529	28702.72
584.889	29018.87
585.249	28937.74
585.609	28924.63
585.969	29291.4
586.329	29199.43
586.688	29354.68
587.048	29466.77
587.408	29460.67
587.768	29539.53
588.127	29672.64
588.487	29738.17
588.846	29932.07
589.206	29920.99
589.565	29885.97
589.925	30136.58
590.284	30126.64
590.643	30357.14
591.003	30572.95
591.362	30627.87
591.721	30664.93
592.08	30741.54
592.44	30965.71
592.799	31016.56
593.158	31039.38
593.517	31121.64
593.876	31142.43
594.235	31270.34
594.593	31255.2
594.952	31443.44
595.311	31538.8
595.67	31559.14
596.029	31740.61
596.387	31809.98
596.746	32022.63
597.104	31849.53
597.463	32058.56
597.822	32219.24
598.18	32078
598.538	32111.67
598.897	32362.06
599.255	32210.88
599.613	32751.43
599.972	32609.51
600.33	32868.71
600.688	32646.57
601.046	32816.06
601.404	33104.86
601.762	32996.62
602.12	33203.84
602.478	33336.5
602.836	33333.11
603.194	33216.05
603.552	33430.96
603.91	33350.51
604.268	33482.26
604.625	33510.5
604.983	33709.59
605.341	33644.96
605.698	33797.73
606.056	33973.32
606.413	33949.36
606.771	34059.42
607.128	34091.05
607.485	34134.67
607.843	34155.01
608.2	34275.23
608.557	34461.66
608.914	34408.33
609.272	34641.32
609.629	34699.17
609.986	34761.32
610.343	34673.41
610.7	35058.03
611.057	34868.43
611.414	34994.53
611.771	35081.99
612.127	35238.59
612.484	35225.94
612.841	35382.54
613.198	35335.77
613.554	35393.39
613.911	35604.91
614.267	35553.39
614.624	35537.34
614.98	35648.3
615.337	35967.61
615.693	35871.57
616.05	35796.54
616.406	36139.59
616.762	35985.92
617.118	35953.15
617.475	36091.68
617.831	36068.85
618.187	36222.07
618.543	36177.33
618.899	36577.32
619.255	36428.39
619.611	36336.42
619.967	36485.57
620.323	36636.97
620.678	36517.2
621.034	36572.34
621.39	36601.5
621.746	36565.56
622.101	36944.54
622.457	36693.7
622.812	36820.47
623.168	36899.79
623.523	36876.29
623.879	36951.09
624.234	36818.44
624.589	37146.34
624.945	37095.49
625.3	37131.42
625.655	37025.44
626.01	37206.45
626.365	37267.24
626.72	37114.7
627.075	37119.9
627.43	37187.02
627.785	37099.34
628.14	37255.04
628.495	37254.36
628.85	37342.94
629.205	37120.35
629.559	37429.27
629.914	37247.81
630.269	37195.15
630.623	37173.46
630.978	37078.54
631.332	37271.53
631.687	37429.72
632.041	37118.32
632.396	37290.74
632.75	37058.43
633.104	37071.09
633.459	36959
633.813	37111.31
634.167	37075.16
634.521	37058.43
634.875	37109.05
635.229	37056.17
635.583	36939.79
635.937	36847.14
636.291	36888.27
636.645	36889.17
636.999	36890.98
637.352	37085.32
637.706	36863.18
638.06	36997.87
638.413	36727.82
638.767	36773.24
639.121	36862.51
639.474	36628.84
639.828	36799.23
640.181	36706.8
640.534	36770.08
640.888	36670.19
641.241	36602.63
641.594	36574.6
641.947	36610.76
642.301	36560.59
642.654	36587.71
643.007	36519.92
643.36	36508.84
643.713	36490.31
644.066	36721.72
644.419	36397.43
644.771	36270.43
645.124	35833.38
645.477	35752.25
645.83	35513.61
646.182	35474.52
646.535	35341.19
646.888	35467.97
647.24	35225.49
647.593	35456.21
647.945	35307.97
648.298	35163.79
648.65	35123.12
649.002	35082.89
649.355	35298.48
649.707	35224.36
650.059	35244.02
650.411	35588.87
650.763	35647.62
651.115	36096.65
651.467	35917.22
651.819	35961.96
652.171	35897.78
652.523	35831.35
652.875	35986.82
653.227	35653.27
653.578	35949.76
653.93	35871.8
654.282	35769.88
654.633	35687.39
654.985	35728.98
655.337	35704.34
655.688	35758.35
656.039	35935.3
656.391	35573.5
656.742	35673.84
657.094	35621.86
657.445	35822.08
657.796	35712.03
658.147	35591.8
658.498	35592.26
658.849	35614.85
659.2	35534.4
659.551	35534.4
659.902	35636.77
660.253	35585.25
660.604	35637.68
660.955	35348.42
661.306	35629.09
661.656	35511.81
662.007	35385.93
662.358	35360.85
662.708	35464.12
663.059	35429.77
663.409	35244.47
663.76	35539.83
664.11	35293.96
664.461	35384.13
664.811	35461.64
665.161	35461.41
665.511	35296.67
665.862	35449.89
666.212	35432.71
666.562	35449.66
666.912	35389.55
667.262	35367.86
667.612	35357.23
667.962	35359.49
668.312	35384.8
668.662	35405.37
669.011	35428.42
669.361	35400.62
669.711	35370.12
670.06	35242.89
670.41	35114.98
670.76	35221.87
671.109	35318.82
671.459	35157.01
671.808	35058.03
672.157	35282.89
672.507	35157.24
672.856	34964.02
673.205	35128.54
673.554	35147.75
673.904	34912.5
674.253	35114.53
674.602	35105.04
674.951	34680.64
675.3	34470.93
675.649	34999.73
675.998	34886.74
676.346	34958.6
676.695	35117.69
677.044	34699.4
677.393	34831.37
677.741	34920.64
678.09	35005.83
678.438	34733.75
678.787	34810.13
679.135	34761.77
679.484	34655.33
679.832	34753.41
680.181	34466.86
680.529	34764.48
680.877	34560.87
681.225	34460.76
681.573	34804.25
681.922	34369.46
682.27	34342.12
682.618	34304.38
682.966	34156.14
683.314	34388.45
683.661	34193.65
684.009	34008.34
684.357	34046.76
684.705	33882.02
685.053	34074.1
685.4	33938.29
685.748	33815.81
686.095	33955.01
686.443	33669.59
686.79	33621.01
687.138	33755.92
687.485	33614.91
687.832	33523.61
688.18	33634.79
688.527	33472.76
688.874	33336.5
689.221	33406.78
689.568	33195.94
689.915	33161.13
690.262	33149.16
690.609	33010.86
690.956	32937.41
691.303	33079.55
691.65	32704.42
691.997	32854.02
692.344	32648.6
692.69	32512.56
693.037	32637.98
693.383	32331.78
693.73	32376.07
694.077	32173.14
694.423	32183.31
694.769	32110.77
695.116	32041.39
695.462	32005.46
695.808	31921.17
696.155	31896.08
696.501	31731.34
696.847	31855.41
697.193	31485.25
697.539	31675.3
697.885	31454.29
698.231	31294.97
698.577	31250
698.923	31290.22
699.269	31061.98
699.614	30961.42
699.96	30961.87
700.306	30972.26
700.651	30771.82
700.997	30688.2
701.342	30566.17
701.688	30586.74
702.033	30620.64
702.379	30603.69
702.724	30389.68
703.069	30363.47
703.415	29916.93
703.76	30075.57
704.105	30147.88
704.45	30133.87
704.795	29830.83
705.14	29797.38
705.485	29808.45
705.83	29676.25
706.175	29742.24
706.52	29675.35
706.865	29446.43
707.209	29424.73
707.554	29469.93
707.899	29351.97
708.243	29331.18
708.588	29330.73
708.932	28998.08
709.277	29063.61
709.621	29053.67
709.966	28804.86
710.31	28950.85
710.654	28681.03
710.998	28727.8
711.342	28746.11
711.687	28602.84
712.031	28540.92
712.375	28435.38
712.719	28452.56
713.063	28338.44
713.407	28433.35
713.75	28372.33
714.094	28284.43
714.438	28222.05
714.782	28142.06
715.125	28065.67
715.469	28067.71
715.812	28016.18
716.156	27854.38
716.499	27803.31
716.843	27831.33
717.186	27616.65
717.53	27800.37
717.873	27797.21
718.216	27638.57
718.559	27582.52
718.902	27425.01
719.246	27472.92
719.589	27452.36
719.932	27292.36
720.275	27327.61
720.617	27343.66
720.96	27134.63
721.303	27165.36
721.646	27211.46
721.989	26845.37
722.331	27114.29
722.674	26977.57
723.016	27069.09
723.359	26867.51
723.701	26894.63
724.044	26766.05
724.386	26671.59
724.729	26878.14
725.071	26743.68
725.413	26650.12
725.755	26606.73
726.097	26702.77
726.439	26398.83
726.782	26396.57
727.124	26658.48
727.465	26406.96
727.807	26389.33
728.149	26270.92
728.491	26262.56
728.833	26208.77
729.175	26228.43
729.516	26120.19
729.858	26201.09
730.199	26133.52
730.541	25969.23
730.882	26044.26
731.224	26204.03
731.565	25935.56
731.906	25842
732.248	25932.4
732.589	25820.31
732.93	25633.65
733.271	25766.98
733.612	25845.62
733.953	25743.7
734.294	25626.19
734.635	25648.34
734.976	25665.51
735.317	25530.37
735.658	25453.77
735.999	25518.85
736.339	25397.27
736.68	25515.01
737.021	25344.16
737.361	25238.86
737.702	25350.04
738.042	25247.9
738.383	25262.81
738.723	25259.19
739.063	25104.85
739.404	25207.44
739.744	25129.48
740.084	25003.38
740.424	25145.75
740.764	24910.73
741.104	25050.39
741.444	24876.15
741.784	24827.79
742.124	24946.21
742.464	24931.07
742.804	24750.73
743.143	24665.09
743.483	24784.4
743.823	24563.85
744.162	24622.6
744.502	24609.04
744.841	24536.28
745.181	24577.63
745.52	24547.35
745.86	24445.2
746.199	24469.61
746.538	24487.01
746.877	24484.75
747.216	24351.2
747.556	24178.77
747.895	24320.69
748.234	24168.6
748.573	24145.1
748.911	24073.92
749.25	24117.3
749.589	23972.22
749.928	24124.54
750.267	24043.63
750.605	23947.14
750.944	23916.18
751.283	23800.93
751.621	23898.78
751.96	23713.47
752.298	23721.16
752.636	23749.4
752.975	23566.81
753.313	23585.34
753.651	23580.59
753.989	23536.08
754.327	23466.47
754.666	23402.52
755.004	23456.76
755.342	23313.48
755.679	23299.47
756.017	23257.67
756.355	23256.99
756.693	23130.66
757.031	23151.91
757.368	23028.29
757.706	23046.37
758.044	22935.87
758.381	22903.1
758.719	22927.05
759.056	22792.82
759.394	22771.8
759.731	22678.7
760.068	22575.2
760.405	22556.21
760.743	22442.77
761.08	22518.25
761.417	22335.43
761.754	22313.28
762.091	22268.09
762.428	22162.1
762.765	22003.46
763.102	22166.39
763.438	21904.93
763.775	21960.75
764.112	21891.37
764.449	21924.14
764.785	21789
765.122	21605.73
765.458	21563.92
765.795	21539.97
766.131	21420.2
766.467	21349.92
766.804	21324.16
767.14	21162.35
767.476	21280.77
767.812	21091.17
768.148	21168.91
768.485	21008.91
768.821	20914.68
769.157	20883.04
769.492	20899.31
769.828	20753.32
770.164	20587.9
770.5	20653.67
770.836	20597.17
771.171	20344.75
771.507	20313.56
771.842	20308.14
772.178	20238.31
772.513	20150.63
772.849	19945.89
773.184	20030.41
773.519	19933.46
773.855	19861.14
774.19	19785.21
774.525	19661.38
774.86	19646.69
775.195	19614.37
775.53	19526.24
775.865	19470.19
776.2	19347.26
776.535	19282.18
776.87	19309.29
777.205	19146.36
777.539	19087.61
777.874	19117.21
778.209	18893.94
778.543	18877.44
778.878	18660.72
779.212	18827.95
779.547	18705.02
779.881	18700.05
780.215	18572.59
780.55	18594.51
780.884	18495.3
781.218	18491.24
781.552	18457.79
781.886	18372.14
782.22	18235.88
782.554	18067.07
782.888	17948.2
783.222	17994.07
783.556	17855.1
783.889	17920.63
784.223	17761.99
784.557	17660.07
784.89	17690.81
785.224	17621.88
785.557	17443.58
785.891	17442.45
786.224	17456.46
786.558	17404.03
786.891	17231.16
787.224	17241.78
787.557	17107.54
787.891	17017.38
788.224	17062.35
788.557	17034.33
788.89	16945.06
789.223	16834.33
789.556	16823.71
789.888	16822.13
790.221	16733.32
790.554	16552.08
790.887	16661
791.219	16556.15
791.552	16419.43
791.884	16411.29
792.217	16419.88
792.549	16316.15
792.882	16086.55
793.214	16092.66
793.546	16119.1
793.879	15943.51
794.211	15906.45
794.543	16036.84
794.875	15887.69
795.207	15971.3
795.539	15819.89
795.871	15864.19
796.203	15663.97
796.535	15596.85
796.867	15619.22
797.198	15489.51
797.53	15501.49
797.862	15366.57
798.193	15425.1
798.525	15301.49
798.856	15361.38
799.188	15187.82
799.519	15119.57
799.85	15046.36
800.182	15087.94
800.513	15012.68
800.844	14990.09
801.175	14973.59
801.506	14943.99
801.837	14932.69
802.168	14765.23
802.499	14711
802.83	14726.14
803.161	14642.07
803.491	14736.08
803.822	14653.6
804.153	14625.8
804.483	14478.91
804.814	14406.6
805.145	14353.27
805.475	14368.86
805.805	14336.32
806.136	14287.05
806.466	14251.12
806.796	14283.89
807.126	14210.45
807.457	14148.53
807.787	14143.78
808.117	13966.61
808.447	13980.4
808.777	14081.18
809.107	13971.36
809.436	13867.4
809.766	13941.75
810.096	13778.37
810.426	13804.35
810.755	13798.93
811.085	13697.69
811.414	13758.03
811.744	13584.47
812.073	13631.25
812.403	13640.97
812.732	13535.44
813.061	13502.89
813.39	13498.37
813.719	13361.43
814.049	13486.85
814.378	13346.97
814.707	13373.86
815.036	13393.29
815.365	13299.06
815.693	13087.76
816.022	13184.26
816.351	13153.07
816.68	13066.97
817.008	13132.28
817.337	13025.84
817.665	13066.29
817.994	13066.52
818.322	12901.78
818.651	12957.37
818.979	12885.96
819.307	12921.44
819.636	12921.44
819.964	12815.91
820.292	12816.58
820.62	12790.14
820.948	12763.25
821.276	12778.39
821.604	12718.51
821.932	12707.89
822.259	12773.2
822.587	12718.06
822.915	12712.18
823.243	12772.07
823.57	12676.02
823.898	12731.16
824.225	12544.05
824.553	12651.84
824.88	12607.55
825.207	12720.09
825.535	12640.54
825.862	12669.24
826.189	12612.52
826.516	12704.27
826.843	12631.05
827.17	12648
827.497	12664.27
827.824	12559.19
828.151	12659.98
828.478	12649.13
828.805	12644.61
829.131	12605.74
829.458	12600.32
829.785	12474.45
830.111	12530.26
830.438	12631.5
830.764	12521.45
831.09	12651.62
831.417	12535.69
831.743	12621.56
832.069	12562.35
832.395	12472.86
832.722	12525.52
833.048	12539.3
833.374	12552.18
833.7	12507.44
834.026	12543.37
834.351	12576.82
834.677	12478.74
835.003	12479.87
835.329	12462.92
835.654	12448.46
835.98	12340.66
836.306	12344.73
836.631	12379.99
836.956	12390.15
837.282	12441.45
837.607	12280.55
837.932	12309.93
838.258	12281.68
838.583	12230.38
838.908	12150.61
839.233	12209.82
839.558	12202.81
839.883	12119.88
840.208	12182.48
840.533	12088.69
840.858	12091.63
841.182	12159.88
841.507	12139.77
841.832	12003.27
842.156	11992.42
842.481	12012.09
842.805	12017.51
843.13	11980
843.454	11980.67
843.778	11844.63
844.103	11874.01
844.427	11841.69
844.751	11867.46
845.075	11845.99
845.399	11724.41
845.723	11685.77
846.047	11702.26
846.371	11595.83
846.695	11528.93
847.019	11610.29
847.343	11447.81
847.666	11294.59
847.99	11381.37
848.313	11275.38
848.637	11310.63
848.96	11228.6
849.284	11173.01
849.607	11190.19
849.931	11086.23
850.254	11000.36
850.577	10956.97
850.9	10914.49
851.223	10903.64
851.546	10855.73
851.869	10803.3
852.192	10887.14
852.515	10716.53
852.838	10681.95
853.161	10642.63
853.483	10664.1
853.806	10600.6
854.129	10550.65
854.451	10520.83
854.774	10459.36
855.096	10453.48
855.419	10387.95
855.741	10450.77
856.063	10382.3
856.385	10367.16
856.708	10340.04
857.03	10263.88
857.352	10277.89
857.674	10190.21
857.996	10202.42
858.318	10120.61
858.64	10153.6
858.961	10113.83
859.283	10028.18
859.605	9979.6
859.926	10080.16
860.248	9957.9
860.57	10015.75
860.891	10032.93
861.212	9831.13
861.534	9866.15
861.855	9869.99
862.176	9841.29
862.498	9851.69
862.819	9841.29
863.14	9852.37
863.461	9780.73
863.782	9748.19
864.103	9749.09
864.424	9649.44
864.745	9797.68
865.065	9671.36
865.386	9645.14
865.707	9594.52
866.027	9660.96
866.348	9591.58
866.668	9543
866.989	9560.85
867.309	9505.26
867.63	9604.92
867.95	9482.21
868.27	9471.81
868.59	9450.8
868.91	9503
869.23	9414.87
869.55	9427.29
869.87	9488.99
870.19	9421.64
870.51	9479.72
870.83	9473.85
871.15	9324.47
871.469	9404.47
871.789	9347.07
872.109	9329.22
872.428	9234.53
872.748	9328.54
873.067	9266.85
873.386	9239.95
873.706	9238.37
874.025	9258.03
874.344	9156.12
874.663	9213.97
874.982	9189.56
875.301	9223.46
875.62	9082.44
875.939	9086.51
876.258	9074.76
876.577	9085.61
876.896	9092.39
877.214	8999.74
877.533	9067.53
877.852	9022.56
878.17	9063.91
878.489	8966.06
878.807	9014.88
879.125	8970.58
879.444	9015.55
879.762	8925.16
880.08	8943.69
880.398	8910.25
880.716	8896.01
881.034	8882.45
881.352	8811.04
881.67	8860.08
881.988	8886.07
882.306	8831.6
882.624	8758.84
882.941	8734.43
883.259	8711.83
883.577	8675.68
883.894	8630.93
884.212	8674.32
884.529	8670.25
884.846	8642
885.164	8652.17
885.481	8611.72
885.798	8542.35
886.115	8525.4
886.432	8566.98
886.75	8468.45
887.067	8554.78
887.383	8514.78
887.7	8481.56
888.017	8429.58
888.334	8409.69
888.651	8345.97
888.967	8386.87
889.284	8329.24
889.6	8314.56
889.917	8260.55
890.233	8318.62
890.55	8284.27
890.866	8275.23
891.182	8204.73
891.498	8186.65
891.815	8139.42
892.131	8151.85
892.447	8139.42
892.763	8101
893.079	8083.83
893.395	8035.69
893.71	8020.55
894.026	7981
894.342	7957.28
894.657	7948.92
894.973	7962.93
895.289	7919.76
895.604	7918.63
895.92	7869.14
896.235	7783.5
896.55	7820.33
896.865	7754.8
897.181	7798.18
897.496	7743.72
897.811	7751.63
898.126	7716.61
898.441	7623.05
898.756	7631.41
899.071	7571.07
899.386	7571.75
899.7	7535.82
900.015	7472.77
900.33	7385.99
900.644	7525.42
900.959	7478.65
901.273	7423.05
901.588	7331.3
901.902	7328.82
902.216	7341.02
902.531	7272.77
902.845	7294.24
903.159	7170.86
903.473	7219.22
903.787	7152.55
904.101	7136.06
904.415	7127.92
904.729	7048.6
905.042	7039.79
905.356	7058.54
905.67	7025.1
905.984	7016.06
906.297	7018.09
906.611	6938.55
906.924	6940.81
907.237	6887.7
907.551	6875.05
907.864	6849.74
908.177	6816.29
908.491	6797.08
908.804	6742.85
909.117	6760.92
909.43	6676.41
909.743	6697.2
910.056	6674.15
910.368	6670.08
910.681	6626.69
910.994	6610.65
911.307	6545.11
911.619	6485.45
911.932	6532.46
912.244	6479.35
912.557	6458.78
912.869	6376.3
913.181	6383.98
913.494	6413.81
913.806	6299.92
914.118	6355.06
914.43	6268.28
914.742	6286.36
915.054	6206.59
915.366	6216.76
915.678	6251.56
915.99	6156.19
916.302	6135.18
916.613	6122.07
916.925	6126.59
917.236	6133.37
917.548	5983.77
917.859	6010.66
918.171	6034.16
918.482	5968.18
918.794	5973.83
919.105	5939.7
919.416	5891.57
919.727	5855.64
920.038	5851.34
920.349	5788.75
920.66	5756.43
920.971	5781.74
921.282	5748.75
921.593	5717.11
921.903	5689.31
922.214	5649.77
922.525	5666.49
922.835	5680.27
923.146	5571.35
923.456	5570.45
923.767	5523.89
924.077	5534.06
924.387	5485.7
924.697	5461.07
925.008	5481.86
925.318	5497.68
925.628	5457
925.938	5421.52
926.248	5361.64
926.558	5333.16
926.867	5339.94
927.177	5312.83
927.487	5276.67
927.796	5228.99
928.106	5204.81
928.416	5232.6
928.725	5230.57
929.034	5163
929.344	5189.21
929.653	5155.32
929.962	5094.08
930.271	5062.89
930.581	5063.57
930.89	5037.58
931.199	4986.96
931.508	5029.67
931.817	4946.28
932.125	5002.33
932.434	4952.84
932.743	4919.16
933.051	4895.89
933.36	4884.14
933.669	4895.21
933.977	4816.34
934.286	4784.25
934.594	4808.43
934.902	4787.42
935.21	4760.07
935.519	4782.67
935.827	4759.17
936.135	4736.34
936.443	4694.09
936.751	4621.32
937.059	4674.65
937.367	4652.28
937.674	4614.31
937.982	4612.96
938.29	4547.42
938.597	4536.12
938.905	4526.18
939.213	4456.58
939.52	4463.36
939.827	4463.58
940.135	4468.78
940.442	4409.12
940.749	4423.58
941.056	4420.87
941.363	4386.98
941.67	4379.29
941.977	4337.94
942.284	4321.44
942.591	4304.04
942.898	4266.53
943.205	4261.33
943.511	4251.84
943.818	4222.23
944.125	4219.97
944.431	4196.02
944.738	4182.91
945.044	4142.46
945.35	4146.53
945.657	4054.33
945.963	4089.58
946.269	4066.53
946.575	4067.21
946.881	4005.52
947.187	4079.64
947.493	4030.6
947.799	4012.75
948.105	4003.26
948.41	3930.49
948.716	3980.43
949.022	3962.58
949.327	3908.12
949.633	3895.69
949.938	3880.32
950.244	3884.16
950.549	3859.08
950.854	3831.28
951.16	3843.03
951.465	3798.97
951.77	3753.09
952.075	3715.13
952.38	3799.65
952.685	3755.13
952.99	3729.37
953.294	3762.58
953.599	3659.31
953.904	3654.79
954.209	3652.98
954.513	3647.56
954.818	3622.25
955.122	3627
955.426	3604.85
955.731	3624.96
956.035	3555.13
956.339	3579.54
956.643	3537.28
956.948	3526.43
957.252	3490.73
957.556	3521.24
957.86	3460.9
958.163	3468.58
958.467	3452.76
958.771	3452.76
959.075	3484.17
959.378	3364.4
959.682	3383.39
959.985	3342.03
960.289	3358.75
960.592	3339.77
960.896	3323.73
961.199	3325.76
961.502	3284.63
961.805	3288.47
962.108	3240.56
962.411	3281.47
962.714	3229.49
963.017	3231.75
963.32	3232.66
963.623	3195.37
963.926	3179.1
964.228	3202.6
964.531	3151.3
964.833	3125.09
965.136	3098.2
965.438	3119.21
965.741	3094.58
966.043	3090.06
966.345	3078.31
966.648	3060.23
966.95	3071.53
967.252	3011.87
967.554	3032.21
967.856	3031.98
968.158	3029.27
968.46	2971.42
968.761	2971.19
969.063	2948.82
969.365	2946.33
969.666	2974.81
969.968	2897.3
970.269	2881.25
970.571	2912.89
970.872	2887.13
971.174	2853.68
971.475	2893.91
971.776	2840.8
972.077	2815.94
972.378	2857.3
972.679	2845.32
972.98	2794.47
973.281	2807.81
973.582	2813.68
973.883	2768.49
974.183	2769.84
974.484	2753.35
974.785	2731.65
975.085	2773.23
975.386	2724.42
975.686	2724.65
975.986	2695.49
976.287	2677.19
976.587	2651.43
976.887	2638.32
977.187	2637.42
977.487	2639.9
977.787	2617.53
978.087	2588.6
978.387	2609.17
978.687	2566.23
978.987	2556.06
979.286	2552.9
979.586	2558.55
979.885	2512
980.185	2545.22
980.484	2520.13
980.784	2509.51
981.083	2519.23
981.382	2511.09
981.682	2487.14
981.981	2460.7
982.28	2460.92
982.579	2430.87
982.878	2400.81
983.177	2403.3
983.475	2380.02
983.774	2363.53
984.073	2390.87
984.372	2421.83
984.67	2351.77
984.969	2351.32
985.267	2352
985.566	2349.51
985.864	2314.94
986.162	2321.49
986.461	2292.79
986.759	2288.05
987.057	2277.2
987.355	2287.37
987.653	2260.25
987.951	2266.35
988.249	2244.88
988.547	2267.03
988.844	2269.06
989.142	2241.27
989.44	2181.16
989.737	2160.37
990.035	2202.85
990.332	2209.63
990.63	2168.95
990.927	2149.52
991.224	2133.47
991.521	2165.34
991.819	2125.57
992.116	2146.58
992.413	2108.39
992.71	2099.8
993.006	2091.67
993.303	2086.7
993.6	2061.16
993.897	2051.22
994.193	2063.19
994.49	2017.77
994.787	2018.68
995.083	2029.52
995.379	1989.3
995.676	1999.24
995.972	1982.97
996.268	1981.84
996.565	1972.58
996.861	1967.6
997.157	1954.04
997.453	1954.95
997.749	1914.05
998.044	1918.79
998.34	1926.93
998.636	1914.27
998.932	1906.59
999.227	1909.3
999.523	1869.75
999.818	1887.61
1000.114	1873.82
1000.409	1842.18
1000.704	1823.88
1001	1854.61
1001.295	1789.98
1001.59	1820.04
1001.885	1811.22
1002.18	1805.8
1002.475	1787.72
1002.77	1786.59
1003.065	1780.94
1003.359	1794.05
1003.654	1750.43
1003.949	1771
1004.243	1726.03
1004.538	1704.56
1004.832	1741.62
1005.127	1712.47
1005.421	1676.09
1005.715	1681.96
1006.009	1669.98
1006.304	1678.8
1006.598	1659.59
1006.892	1644.9
1007.186	1639.02
1007.48	1599.03
1007.773	1631.12
1008.067	1598.12
1008.361	1585.69
1008.655	1620.04
1008.948	1567.84
1009.242	1575.07
1009.535	1541.4
1009.829	1584.79
1010.122	1572.13
1010.415	1556.77
1010.708	1539.37
1011.001	1549.76
1011.295	1535.07
1011.588	1525.13
1011.881	1486.26
1012.173	1487.16
1012.466	1512.93
1012.759	1497.11
1013.052	1502.31
1013.344	1453.94
1013.637	1439.71
1013.93	1461.85
1014.222	1429.09
1014.514	1458.01
1014.807	1428.18
1015.099	1406.04
1015.391	1427.05
1015.683	1401.06
1015.976	1395.42
1016.268	1417.34
1016.56	1356.32
1016.851	1345.25
1017.143	1349.99
1017.435	1359.94
1017.727	1356.55
1018.018	1317.9
1018.31	1321.97
1018.602	1324.46
1018.893	1314.97
1019.185	1279.71
1019.476	1335.98
1019.767	1294.4
1020.058	1307.73
1020.35	1233.84
1020.641	1233.61
1020.932	1260.05
1021.223	1265.93
1021.514	1261.18
1021.804	1233.84
1022.095	1207.4
1022.386	1232.03
1022.677	1223.89
1022.967	1190.67
1023.258	1199.71
1023.548	1201.52
1023.839	1178.47
1024.129	1162.2
1024.419	1160.39
1024.709	1173.5
1025	1124.24
1025.29	1144.8
1025.58	1156.55
1025.87	1106.38
1026.16	1096.89
1026.449	1117.91
1026.739	1086.27
1027.029	1125.82
1027.319	1094.63
1027.608	1102.99
1027.898	1067.74
1028.187	1092.6
1028.477	1051.7
1028.766	1084.24
1029.055	1053.73
1029.344	1042.88
1029.634	1031.36
1029.923	1032.26
1030.212	1053.28
1030.501	1030.23
1030.79	1026.16
1031.078	1011.24
1031.367	1017.57
1031.656	1001.53
1031.945	984.8
1032.233	989.78
1032.522	1004.47
1032.81	992.04
1033.099	943.68
1033.387	968.76
1033.675	958.14
1033.963	937.57
1034.251	962.21
1034.54	937.35
1034.828	931.47
1035.116	931.02
1035.403	897.35
1035.691	907.97
1035.979	920.4
1036.267	902.09
1036.554	883.34
1036.842	903.45
1037.129	911.59
1037.417	885.6
1037.704	858.48
1037.992	870.91
1038.279	859.16
1038.566	864.13
1038.853	864.13
1039.14	864.13
