Data from hue_60_FLMS001491_87.txt Node
Date: Mon Feb 06 15:18:03 GMT 2017
User: dcchb
Spectrometer: FLMS00149
Trigger mode: 0
Integration Time (sec): 2.000000E-2
Scans to average: 10
Electric dark correction enabled: true
Nonlinearity correction enabled: false
Boxcar width: 0
XAxis mode: Wavelengths
Number of Pixels in Spectrum: 2048
>>>>>Begin Spectral Data<<<<<
341.393	-9.39
341.776	-9.39
342.16	-9.39
342.543	-60.92
342.927	-73.12
343.31	-67.24
343.693	-59.79
344.077	-68.37
344.46	-69.28
344.843	-63.4
345.226	-55.27
345.61	-24.08
345.993	-18.88
346.376	1.45
346.759	7.33
347.142	27.67
347.525	52.98
347.908	82.58
348.291	56.59
348.674	92.98
349.057	104.73
349.44	141.56
349.823	140.43
350.206	150.6
350.588	207.55
350.971	217.49
351.354	233.31
351.737	264.72
352.119	251.17
352.502	268.79
352.884	277.83
353.267	282.58
353.65	298.4
354.032	303.82
354.414	309.02
354.797	312.63
355.179	327.55
355.562	311.5
355.944	339.98
356.326	330.26
356.709	317.83
357.091	342.91
357.473	353.08
357.855	342.69
358.238	348.56
358.62	339.3
359.002	333.2
359.384	352.86
359.766	366.64
360.148	344.72
360.53	320.32
360.912	342.01
361.294	340.43
361.676	329.81
362.057	335.68
362.439	334.78
362.821	324.84
363.203	328.45
363.584	337.94
363.966	335.23
364.348	351.95
364.729	312.41
365.111	330.03
365.493	309.47
365.874	309.47
366.256	333.2
366.637	327.55
367.019	315.34
367.4	327.32
367.781	331.62
368.163	322.58
368.544	313.99
368.925	326.42
369.306	320.77
369.688	316.7
370.069	316.47
370.45	313.76
370.831	314.89
371.212	313.31
371.593	334.1
371.974	314.67
372.355	340.88
372.736	328.68
373.117	322.58
373.498	329.36
373.879	320.99
374.26	329.81
374.641	315.12
375.021	320.99
375.402	318.28
375.783	320.54
376.163	330.49
376.544	333.2
376.925	325.74
377.305	352.41
377.686	327.77
378.066	323.25
378.447	325.06
378.827	341.56
379.208	302.92
379.588	326.42
379.968	344.95
380.349	337.94
380.729	342.24
381.109	335.01
381.489	320.77
381.87	322.58
382.25	348.56
382.63	327.32
383.01	331.62
383.39	334.55
383.77	343.37
384.15	361.67
384.53	344.95
384.91	364.84
385.29	339.3
385.67	340.2
386.049	349.47
386.429	348.34
386.809	355.57
387.189	351.05
387.568	348.56
387.948	365.74
388.328	350.15
388.707	371.39
389.087	368.9
389.466	355.8
389.846	344.04
390.225	356.93
390.605	357.6
390.984	364.16
391.363	377.94
391.743	366.64
392.122	379.98
392.501	375
392.881	380.2
393.26	398.05
393.639	356.47
394.018	400.77
394.397	366.19
394.776	384.72
395.155	382.01
395.534	380.43
395.913	361.45
396.292	383.59
396.671	399.18
397.05	382.24
397.429	386.53
397.808	378.62
398.186	377.72
398.565	387.66
398.944	350.37
399.323	377.26
399.701	400.31
400.08	398.28
400.458	387.43
400.837	385.4
401.215	392.86
401.594	397.38
401.972	396.47
402.351	404.83
402.729	401.67
403.107	409.35
403.486	415.68
403.864	403.93
404.242	402.12
404.62	404.83
404.999	412.52
405.377	406.87
405.755	409.81
406.133	421.56
406.511	408.68
406.889	419.75
407.267	433.31
407.645	428.56
408.023	427.66
408.401	412.29
408.779	432.4
409.156	433.53
409.534	409.58
409.912	417.72
410.29	444.61
410.667	433.31
411.045	432.86
411.422	449.13
411.8	450.71
412.178	444.83
412.555	448.9
412.933	432.18
413.31	465.17
413.687	457.71
414.065	460.65
414.442	460.2
414.819	461.1
415.197	467.88
415.574	473.76
415.951	466.08
416.328	477.15
416.705	485.28
417.082	465.4
417.46	476.02
417.837	471.95
418.214	473.98
418.591	506.98
418.967	517.37
419.344	481.22
419.721	476.02
420.098	478.5
420.475	490.26
420.852	515.57
421.228	524.83
421.605	524.83
421.982	506.53
422.358	520.76
422.735	529.35
423.111	518.73
423.488	523.02
423.864	529.8
424.241	521.22
424.617	524.15
424.994	530.48
425.37	548.56
425.746	514.21
426.123	551.72
426.499	551.5
426.875	560.76
427.251	544.94
427.627	548.79
428.003	563.47
428.379	566.86
428.756	562.34
429.132	582.46
429.507	561.67
429.883	572.51
430.259	599.86
430.635	592.63
431.011	599.41
431.387	615.22
431.763	598.05
432.138	600.76
432.514	610.03
432.89	615.9
433.265	619.52
433.641	625.39
434.016	617.48
434.392	617.48
434.767	657.48
435.143	644.15
435.518	635.56
435.894	648.67
436.269	647.77
436.644	661.55
437.02	674.43
437.395	657.71
437.77	671.04
438.145	690.02
438.52	683.7
438.895	668.78
439.271	666.52
439.646	687.09
440.021	706.52
440.395	710.59
440.77	686.86
441.145	686.41
441.52	723.47
441.895	711.49
442.27	709.01
442.645	741.1
443.019	730.48
443.394	730.02
443.769	721.44
444.143	737.93
444.518	724.6
444.892	742.45
445.267	770.25
445.641	766.18
446.016	749.91
446.39	769.57
446.764	791.26
447.139	755.33
447.513	761.21
447.887	793.52
448.262	786.74
448.636	771.38
449.01	789.46
449.384	803.02
449.758	828.78
450.132	794.88
450.506	810.47
450.88	810.93
451.254	835.78
451.628	841.43
452.002	827.42
452.376	843.69
452.75	824.94
453.123	847.76
453.497	849.57
453.871	837.59
454.244	850.47
454.618	862.22
454.992	878.49
455.365	915.33
455.739	913.75
456.112	899.96
456.486	914.2
456.859	925.95
457.232	946.06
457.606	936.57
457.979	953.29
458.352	974.54
458.725	963.46
459.099	961.2
459.472	986.06
459.845	995.55
460.218	1011.37
460.591	1019.51
460.964	1033.97
461.337	1046.4
461.71	1069.9
462.083	1073.97
462.456	1097.47
462.829	1105.15
463.201	1071.03
463.574	1125.27
463.947	1139.96
464.32	1150.58
464.692	1136.11
465.065	1167.53
465.438	1204.14
465.81	1237.81
466.183	1231.48
466.555	1257.92
466.928	1236
467.3	1257.69
467.672	1296.11
468.045	1307.64
468.417	1332.04
468.789	1325.71
469.161	1354.19
469.534	1375.2
469.906	1427.63
470.278	1463.79
470.65	1468.53
471.022	1514.64
471.394	1521.64
471.766	1523
472.138	1573.39
472.51	1599.6
472.882	1652.03
473.253	1684.12
473.625	1677.57
473.997	1743.78
474.369	1778.36
474.74	1811.12
475.112	1851.35
475.484	1907.39
475.855	1958.69
476.227	2008.41
476.598	2050.89
476.97	2084.34
477.341	2151.45
477.713	2199.14
478.084	2266.48
478.455	2327.95
478.827	2368.62
479.198	2449.98
479.569	2508.96
479.94	2600.93
480.311	2652.23
480.682	2748.73
481.053	2854.04
481.424	2949.63
481.795	2998.66
482.166	3087.02
482.537	3179.9
482.908	3268.04
483.279	3341.48
483.65	3480.91
484.021	3580.34
484.391	3691.98
484.762	3774.69
485.133	3887.45
485.503	3997.06
485.874	4098.07
486.244	4165.41
486.615	4310.27
486.985	4413.99
487.356	4558.62
487.726	4687.21
488.097	4844.72
488.467	4962.45
488.837	5106.63
489.207	5223.92
489.578	5351.37
489.948	5479.73
490.318	5627.3
490.688	5821.19
491.058	5940.28
491.428	6097.11
491.798	6232.25
492.168	6457.78
492.538	6510.44
492.908	6693.71
493.278	6863.87
493.648	6986.58
494.017	7062.29
494.387	7256.86
494.757	7433.12
495.126	7589.5
495.496	7744.08
495.866	7880.57
496.235	8083.05
496.605	8179.54
496.974	8337.05
497.344	8544.06
497.713	8652.75
498.082	8817.72
498.452	8989.47
498.821	9106.07
499.19	9261.78
499.559	9421.55
499.928	9486.18
500.298	9693.86
500.667	9878.48
501.036	9939.27
501.405	10176.78
501.774	10250
502.143	10314.63
502.512	10461.52
502.88	10673.26
503.249	10862.86
503.618	10914.16
503.987	11120.71
504.356	11256.75
504.724	11369.07
505.093	11501.72
505.462	11608.38
505.83	11811.77
506.199	12008.14
506.567	12170.4
506.936	12245.65
507.304	12417.17
507.672	12476.61
508.041	12674.57
508.409	12837.28
508.777	13087.21
509.145	13144.84
509.514	13170.6
509.882	13284.72
510.25	13491.5
510.618	13673.41
510.986	13714.31
511.354	13904.37
511.722	14098.03
512.09	14281.76
512.458	14220.97
512.826	14427.97
513.193	14583.67
513.561	14632.93
513.929	14902.53
514.297	14990.21
514.664	15111.79
515.032	15229.98
515.4	15437.43
515.767	15502.29
516.135	15592.01
516.502	15668.61
516.869	15944.99
517.237	15984.09
517.604	16086.68
517.972	16358.09
518.339	16386.56
518.706	16537.29
519.073	16592.88
519.44	16743.84
519.808	16991.06
520.175	16972.99
520.542	17229.25
520.909	17338.4
521.276	17353.77
521.643	17699.29
522.009	17711.27
522.376	17867.88
522.743	18089.34
523.11	18272.84
523.477	18434.19
523.843	18579.5
524.21	18772.49
524.577	18875.76
524.943	18838.7
525.31	19205.7
525.676	19235.3
526.043	19443.66
526.409	19510.32
526.776	19791.67
527.142	19889.97
527.508	20012.45
527.874	20170.87
528.241	20310.98
528.607	20400.01
528.973	20667.35
529.339	20514.59
529.705	20856.5
530.071	20950.06
530.437	21011.75
530.803	21153.89
531.169	21271.63
531.535	21232.99
531.901	21403.15
532.267	21484.96
532.632	21657.83
532.998	21787.32
533.364	21878.17
533.73	21945.06
534.095	22080.2
534.461	22147.77
534.826	22385.05
535.192	22420.98
535.557	22632.72
535.923	22641.31
536.288	22807.41
536.653	22862.55
537.019	22812.38
537.384	22975.54
537.749	22973.96
538.114	23130.11
538.479	23169.21
538.845	23244.69
539.21	23286.04
539.575	23600.16
539.94	23517.45
540.305	23712.47
540.67	23608.07
541.034	23754.5
541.399	23834.05
541.764	23944.1
542.129	23995.85
542.494	24086.92
542.858	24243.76
543.223	24194.26
543.587	24223.64
543.952	24268.84
544.316	24356.52
544.681	24321.95
545.045	24561.49
545.41	24760.13
545.774	24742.27
546.138	24789.05
546.503	24924.87
546.867	24859.56
547.231	25096.39
547.595	25127.35
547.959	25188.82
548.324	25232.66
548.688	25305.42
549.052	25503.84
549.416	25457.96
549.779	25571.18
550.143	25537.51
550.507	25812.08
550.871	25982.24
551.235	25860.66
551.599	26148.34
551.962	26100.43
552.326	26130.94
552.689	26324.6
553.053	26311.95
553.417	26342.01
553.78	26793.07
554.143	26531.6
554.507	26805.04
554.87	26900.41
555.234	27124.36
555.597	27048.88
555.96	27127.3
556.323	27256.56
556.686	27349.89
557.05	27508.98
557.413	27603.67
557.776	27660.39
558.139	27780.39
558.502	27836.88
558.865	27824.68
559.228	28132.69
559.59	28144.44
559.953	28377.43
560.316	28591.89
560.679	28545.34
561.041	28706.69
561.404	28981.48
561.767	29060.35
562.129	29056.51
562.492	29298.54
562.854	29330.63
563.217	29314.81
563.579	29484.75
563.941	29693.33
564.304	29771.29
564.666	30037.73
565.028	29954.34
565.39	30166.09
565.753	30402.92
566.115	30492.18
566.477	30618.95
566.839	30443.37
567.201	30784.6
567.563	30781.44
567.925	31089
568.287	31119.73
568.648	30971.94
569.01	31356.34
569.372	31432.94
569.734	31532.15
570.095	31663.9
570.457	31760.85
570.819	31926.94
571.18	31871.13
571.542	32116.32
571.903	32258.46
572.265	32289.42
572.626	32411.68
572.987	32492.58
573.349	32497.55
573.71	32735.06
574.071	32817.32
574.432	32906.35
574.794	32894.83
575.155	33030.19
575.516	32968.95
575.877	33273.12
576.238	33037.65
576.599	33375.72
576.96	33292.56
577.32	33422.5
577.681	33456.17
578.042	33482.38
578.403	33593.11
578.763	33584.98
579.124	33702.04
579.485	33780.23
579.845	33862.49
580.206	33945.2
580.566	33771.19
580.927	33944.97
581.287	34045.53
581.648	33882.37
582.008	34052.31
582.368	34075.36
582.728	34188.8
583.089	34126.21
583.449	34290.95
583.809	34275.81
584.169	34393.54
584.529	34221.12
584.889	34429.93
585.249	34348.8
585.609	34362.13
585.969	34427.67
586.329	34307.22
586.688	34479.64
587.048	34363.04
587.408	34392.41
587.768	34406.88
588.127	34357.16
588.487	34329.59
588.846	34461.79
589.206	34314.68
589.565	34438.06
589.925	34541.34
590.284	34568.68
590.643	34516.25
591.003	34666.08
591.362	34785.62
591.721	34665.63
592.08	34672.86
592.44	34779.98
592.799	34776.13
593.158	34630.6
593.517	34815
593.876	34774.33
594.235	34783.82
594.593	34899.97
594.952	34904.49
595.311	34765.06
595.67	34979.07
596.029	35017.48
596.387	35127.31
596.746	35171.83
597.104	35026.07
597.463	34976.81
597.822	35209.57
598.18	35020.2
598.538	35034.66
598.897	35316.68
599.255	34983.59
599.613	35667.64
599.972	35286.4
600.33	35389.68
600.688	35397.36
601.046	35464.25
601.404	35610.69
601.762	35466.28
602.12	35766.84
602.478	35649.33
602.836	35674.64
603.194	35584.02
603.552	35774.53
603.91	35610.01
604.268	35772.04
604.625	35682.1
604.983	35906.95
605.341	35771.36
605.698	35903.11
606.056	36043.9
606.413	36079.6
606.771	36156.44
607.128	36231.46
607.485	36122.31
607.843	36223.33
608.2	36314.4
608.557	36471.91
608.914	36264.68
609.272	36602.07
609.629	36428.75
609.986	36775.86
610.343	36540.83
610.7	36790.54
611.057	36848.62
611.414	36829.41
611.771	36869.64
612.127	37125.45
612.484	36970.2
612.841	37276.41
613.198	37114.83
613.554	37148.5
613.911	37407.48
614.267	37341.94
614.624	37329.06
614.98	37456.29
615.337	37651.31
615.693	37418.78
616.05	37496.29
616.406	37818.09
616.762	37544.65
617.118	37821.25
617.475	37711.88
617.831	37910.06
618.187	37896.28
618.543	37900.8
618.899	38081.81
619.255	38082.04
619.611	38137.85
619.967	38163.84
620.323	38240.22
620.678	38263.95
621.034	38039.55
621.39	38164.75
621.746	38069.15
622.101	38660.55
622.457	38276.38
622.812	38467.79
623.168	38414.68
623.523	38379.88
623.879	38613.09
624.234	38213.33
624.589	38512.76
624.945	38486.77
625.3	38609.71
625.655	38535.81
626.01	38627.78
626.365	38766.99
626.72	38568.12
627.075	38617.39
627.43	38616.26
627.785	38516.83
628.14	38588.91
628.495	38722.7
628.85	38649.48
629.205	38557.28
629.559	38909.81
629.914	38672.53
630.269	38697.39
630.623	38725.86
630.978	38626.88
631.332	38685.18
631.687	38779.87
632.041	38679.53
632.396	38656.71
632.75	38554.34
633.104	38627.78
633.459	38472.31
633.813	38401.8
634.167	38478.18
634.521	38517.73
634.875	38483.61
635.229	38532.65
635.583	38304.85
635.937	38287
636.291	38300.33
636.645	38314.35
636.999	38298.3
637.352	38375.14
637.706	38180.79
638.06	38315.02
638.413	38352.08
638.767	38082.71
639.121	38229.6
639.474	38009.27
639.828	38070.74
640.181	38078.19
640.534	38129.72
640.888	38003.39
641.241	37846.34
641.594	38063.5
641.947	38007.24
642.301	38049.49
642.654	38085.88
643.007	38025.54
643.36	37901.02
643.713	37866.67
644.066	37903.74
644.419	37688.6
644.771	37537.19
645.124	37122.51
645.477	37109.86
645.83	36944.21
646.182	36783.76
646.535	36620.15
646.888	36859.69
647.24	36465.35
647.593	36575.18
647.945	36702.86
648.298	36595.97
648.65	36546.93
649.002	36453.83
649.355	36562.53
649.707	36512.36
650.059	36550.32
650.411	36964.78
650.763	36997.32
651.115	37444.76
651.467	37336.52
651.819	37270.31
652.171	37216.75
652.523	37154.83
652.875	37158.67
653.227	37145.56
653.578	37178.78
653.93	37116.64
654.282	37075.51
654.633	36969.07
654.985	36926.81
655.337	37153.7
655.688	36965.45
656.039	37212.23
656.391	36802.52
656.742	36889.98
657.094	36860.6
657.445	37023.08
657.796	36928.17
658.147	36934.72
658.498	36850.2
658.849	36801.39
659.2	36799.81
659.551	36757.55
659.902	36882.52
660.253	36820.37
660.604	36869.19
660.955	36802.97
661.306	36877.77
661.656	36773.82
662.007	36613.83
662.358	36769.75
662.708	36691.56
663.059	36712.81
663.409	36448.41
663.76	36807.94
664.11	36724.11
664.461	36770.66
664.811	36760.26
665.161	36596.65
665.511	36668.74
665.862	36662.64
666.212	36832.8
666.562	36713.48
666.912	36630.32
667.262	36731.34
667.612	36612.7
667.962	36645.24
668.312	36567.72
668.662	36805.01
669.011	36659.93
669.361	36430.33
669.711	36533.15
670.06	36579.93
670.41	36352.14
670.76	36362.53
671.109	36598.91
671.459	36545.35
671.808	36316.88
672.157	36574.05
672.507	36287.28
672.856	36364.34
673.205	36296.77
673.554	36416.32
673.904	36342.87
674.253	36507.61
674.602	36286.83
674.951	35888.65
675.3	35656.11
675.649	36343.1
675.998	36139.71
676.346	36139.49
676.695	36253.38
677.044	36000.96
677.393	36032.82
677.741	36162.76
678.09	35905.14
678.438	36035.08
678.787	36091.35
679.135	35993.5
679.484	35708.99
679.832	35850
680.181	35652.95
680.529	35897.46
680.877	35769.78
681.225	35894.07
681.573	35818.14
681.922	35591.71
682.27	35560.07
682.618	35515.1
682.966	35553.97
683.314	35556.9
683.661	35443.46
684.009	35340.41
684.357	35229.23
684.705	35209.57
685.053	35327.08
685.4	35171.38
685.748	35031.49
686.095	35141.77
686.443	34817.26
686.79	34851.39
687.138	34934.55
687.485	34918.5
687.832	34710.82
688.18	34839.41
688.527	34478.51
688.874	34580.21
689.221	34447.33
689.568	34389.7
689.915	34400.1
690.262	34292.76
690.609	34167.11
690.956	34167.79
691.303	34021.13
691.65	33885.99
691.997	34037.62
692.344	33788.36
692.69	33834.46
693.037	33668.82
693.383	33496.17
693.73	33581.14
694.077	33459.78
694.423	33351.76
694.769	33274.93
695.116	33313.57
695.462	33161.71
695.808	33027.25
696.155	33157.87
696.501	32846.69
696.847	32898.89
697.193	32725.79
697.539	32732.57
697.885	32534.38
698.231	32430.21
698.577	32522.18
698.923	32404.67
699.269	32309.31
699.614	32253.26
699.96	32089.65
700.306	32172.81
700.651	31955.87
700.997	31774.86
701.342	31938.47
701.688	31775.76
702.033	31698.47
702.379	31714.29
702.724	31455.32
703.069	31514.52
703.415	31291.03
703.76	31196.34
704.105	31246.73
704.45	31230.01
704.795	30999.96
705.14	30866.86
705.485	30918.83
705.83	30748.22
706.175	30797.26
706.52	30743.25
706.865	30592.06
707.209	30563.36
707.554	30376.7
707.899	30454.44
708.243	30333.76
708.588	30259.87
708.932	30100.78
709.277	30087.22
709.621	30165.18
709.966	29936.49
710.31	29980.78
710.654	29744.85
710.998	29860.78
711.342	29830.27
711.687	29735.14
712.031	29618.76
712.375	29583.73
712.719	29477.52
713.063	29429.16
713.407	29607.46
713.75	29228.71
714.094	29350.06
714.438	29217.64
714.782	29233
715.125	29164.08
715.469	29087.02
715.812	28884.76
716.156	28817.65
716.499	28791.88
716.843	28847.48
717.186	28730.42
717.53	28786.01
717.873	28665.33
718.216	28687.71
718.559	28631.44
718.902	28272.35
719.246	28457.43
719.589	28508.95
719.932	28237.77
720.275	28299.92
720.617	28278.9
720.96	28233.71
721.303	28245.91
721.646	28118.23
721.989	28040.27
722.331	28172.24
722.674	27991
723.016	28036.88
723.359	27921.85
723.701	27915.98
724.044	27854.28
724.386	27670.11
724.729	27716.43
725.071	27644.57
725.413	27604.8
725.755	27568.87
726.097	27398.25
726.439	27361.87
726.782	27305.37
727.124	27404.58
727.465	27362.77
727.807	27384.46
728.149	27272.15
728.491	27246.39
728.833	27190.12
729.175	27106.5
729.516	27090.01
729.858	26966.62
730.199	27126.84
730.541	27091.14
730.882	26822.9
731.224	27057.47
731.565	26847.75
731.906	26826.96
732.248	26808.66
732.589	26680.98
732.93	26673.07
733.271	26653.18
733.612	26691.37
733.953	26649.57
734.294	26599.63
734.635	26543.58
734.976	26530.02
735.317	26417.94
735.658	26363.25
735.999	26335
736.339	26312.18
736.68	26356.24
737.021	26251.16
737.361	26166.42
737.702	26379.52
738.042	26173.65
738.383	26113.31
738.723	26101.79
739.063	25907.44
739.404	26216.36
739.744	26032.18
740.084	25915.8
740.424	25922.36
740.764	25846.65
741.104	25984.95
741.444	25777.95
741.784	25672.87
742.124	25695.69
742.464	25756.03
742.804	25712.42
743.143	25571.86
743.483	25569.82
743.823	25443.05
744.162	25381.8
744.502	25624.51
744.841	25325.76
745.181	25556.72
745.52	25304.97
745.86	25418.87
746.199	25196.95
746.538	25099.1
746.877	25222.03
747.216	25308.81
747.556	25164.86
747.895	25107.01
748.234	25051.87
748.573	25034.92
748.911	24935.71
749.25	24931.19
749.589	24700.92
749.928	24840.8
750.267	24888.71
750.605	24752.89
750.944	24652.56
751.283	24653.91
751.621	24758.09
751.96	24435.61
752.298	24522.62
752.636	24513.8
752.975	24387.71
753.313	24277.43
753.651	24535.5
753.989	24289.4
754.327	24264.55
754.666	24041.73
755.004	24028.62
755.342	24145.68
755.679	24129.86
756.017	23953.59
756.355	24018.9
756.693	23753.6
757.031	23935.29
757.368	23754.5
757.706	23822.75
758.044	23642.87
758.381	23718.12
758.719	23534.17
759.056	23491.68
759.394	23511.8
759.731	23203.78
760.068	23277.9
760.405	23303.44
760.743	23197.91
761.08	23233.39
761.417	23015.31
761.754	22973.73
762.091	23085.37
762.428	22923.34
762.765	22795.43
763.102	22804.47
763.438	22652.61
763.775	22627.53
764.112	22561.09
764.449	22603.57
764.785	22457.81
765.122	22321.32
765.458	22258.5
765.795	22253.75
766.131	22156.58
766.467	22074.32
766.804	21998.84
767.14	21915
767.476	21884.27
767.812	21764.5
768.148	21941.67
768.485	21757.94
768.821	21578.51
769.157	21447.22
769.492	21527.44
769.828	21494
770.164	21209.26
770.5	21207.45
770.836	21133.55
771.171	21070.05
771.507	21048.81
771.842	20855.82
772.178	20924.07
772.513	20769.5
772.849	20786.67
773.184	20689.05
773.519	20653.79
773.855	20544.87
774.19	20386.46
774.525	20347.81
774.86	20328.38
775.195	20303.97
775.53	20144.65
775.865	20040.02
776.2	19860.14
776.535	19790.31
776.87	19889.75
777.205	19700.82
777.539	19725
777.874	19775.85
778.209	19544.22
778.543	19536.76
778.878	19410.66
779.212	19419.48
779.547	19255.19
779.881	19292.25
780.215	19149.43
780.55	19291.34
780.884	19049.99
781.218	18937.91
781.552	19068.3
781.886	18889.09
782.22	18812.71
782.554	18656.56
782.888	18616.33
783.222	18513.51
783.556	18453.85
783.889	18363.91
784.223	18283.23
784.557	18197.36
784.89	18297.7
785.224	18168.21
785.557	18050.02
785.891	17981.77
786.224	17893.87
786.558	17992.39
786.891	17812.06
787.224	17755.56
787.557	17720.54
787.891	17656.13
788.224	17649.8
788.557	17649.35
788.89	17465.18
789.223	17511.95
789.556	17370.04
789.888	17374.11
790.221	17229.7
790.554	17077.16
790.887	17184.51
791.219	17015.47
791.552	17084.62
791.884	16852.76
792.217	16870.39
792.549	16789.04
792.882	16645.99
793.214	16714.24
793.546	16649.15
793.879	16556.73
794.211	16476.28
794.543	16479.21
794.875	16357.86
795.207	16466.56
795.539	16347.24
795.871	16262.95
796.203	16217.3
796.535	16104.53
796.867	16016.4
797.198	16058.66
797.53	16033.35
797.862	15897.99
798.193	15888.72
798.525	15882.62
798.856	15819.12
799.188	15653.47
799.519	15616.86
799.85	15607.82
800.182	15580.03
800.513	15577.77
800.844	15364.89
801.175	15519.46
801.506	15432.69
801.837	15314.5
802.168	15319.02
802.499	15321.5
802.83	15164.45
803.161	15127.84
803.491	15148.85
803.822	15150.89
804.153	14990.21
804.483	14895.98
804.814	14858.69
805.145	14871.57
805.475	14975.07
805.805	14780.05
806.136	14811.23
806.466	14772.82
806.796	14723.78
807.126	14562.65
807.457	14561.75
807.787	14553.61
808.117	14454.63
808.447	14420.06
808.777	14450.34
809.107	14371.02
809.436	14368.76
809.766	14309.33
810.096	14321.53
810.426	14218.03
810.755	14230.69
811.085	14101.42
811.414	14154.08
811.744	14036.11
812.073	14041.54
812.403	13956.12
812.732	13885.84
813.061	13941.43
813.39	13869.79
813.719	13838.61
814.049	13820.07
814.378	13736.23
814.707	13745.27
815.036	13710.25
815.365	13696.01
815.693	13682.68
816.022	13604.03
816.351	13532.85
816.68	13415.11
817.008	13512.06
817.337	13415.11
817.665	13407.43
817.994	13343.93
818.322	13292.86
818.651	13299.86
818.979	13254.67
819.307	13255.12
819.636	13227.77
819.964	13118.17
820.292	13182.8
820.62	13201.11
820.948	13134.44
821.276	13190.03
821.604	13066.2
821.932	13090.6
822.259	13112.52
822.587	13159.07
822.915	13087.44
823.243	13122.01
823.57	13098.51
823.898	13096.25
824.225	13040.43
824.553	13083.82
824.88	13066.42
825.207	13080.43
825.535	13007.44
825.862	13020.32
826.189	13031.39
826.516	13088.34
826.843	13081.56
827.17	13118.85
827.497	13094.44
827.824	13141.45
828.151	13093.09
828.478	13032.52
828.805	13130.83
829.131	13005.86
829.458	13021.9
829.785	12962.24
830.111	12935.35
830.438	13065.52
830.764	13019.87
831.09	13034.11
831.417	12957.27
831.743	12992.07
832.069	12987.78
832.395	12974
832.722	12985.52
833.048	12962.47
833.374	13014.67
833.7	12950.27
834.026	12902.13
834.351	12893.09
834.677	12861.46
835.003	12921.57
835.329	12811.51
835.654	12857.16
835.98	12767.9
836.306	12864.39
836.631	12770.16
836.956	12756.37
837.282	12795.24
837.607	12677.05
837.932	12677.51
838.258	12738.97
838.583	12625.53
838.908	12572.2
839.233	12639.09
839.558	12527.23
839.883	12565.42
840.208	12550.28
840.533	12522.26
840.858	12527.68
841.182	12435.25
841.507	12406.1
841.832	12374.69
842.156	12407.46
842.481	12369.27
842.805	12304.18
843.13	12351.41
843.454	12276.39
843.778	12208.82
844.103	12272.54
844.427	12184.64
844.751	12185.09
845.075	12187.58
845.399	12108.03
845.723	12074.81
846.047	12111.87
846.371	11948.71
846.695	11965.66
847.019	11791.43
847.343	11817.42
847.666	11777.87
847.99	11630.75
848.313	11700.81
848.637	11604.77
848.96	11608.61
849.284	11481.6
849.607	11495.62
849.931	11398.67
850.254	11271.21
850.577	11361.38
850.9	11243.65
851.223	11289.52
851.546	11183.53
851.869	11087.04
852.192	11103.54
852.515	11048.17
852.838	10978.34
853.161	10942.86
853.483	10960.94
853.806	10922.98
854.129	10932.24
854.451	10859.7
854.774	10753.94
855.096	10765.24
855.419	10752.36
855.741	10732.92
856.063	10623.55
856.385	10675.98
856.708	10607.05
857.03	10537.45
857.352	10579.03
857.674	10520.5
857.996	10474.4
858.318	10473.27
858.64	10422.2
858.961	10363.44
859.283	10394.63
859.605	10298.36
859.926	10354.4
860.248	10313.27
860.57	10263.33
860.891	10202.99
861.212	10187.18
861.534	10202.32
861.855	10158.02
862.176	10161.41
862.498	10113.51
862.819	10179.49
863.14	10073.28
863.461	10066.27
863.782	10039.38
864.103	10064.24
864.424	9944.47
864.745	10032.15
865.065	9949.89
865.386	9963.23
865.707	9936.79
866.027	9854.53
866.348	9887.3
866.668	9876.45
866.989	9879.61
867.309	9749.45
867.63	9776.79
867.95	9778.37
868.27	9759.84
868.59	9787.41
868.91	9665.61
869.23	9781.54
869.55	9615.44
869.87	9720.75
870.19	9701.54
870.51	9630.35
870.83	9646.4
871.15	9605.72
871.469	9692.27
871.789	9664.03
872.109	9643.69
872.428	9580.19
872.748	9626.51
873.067	9525.27
873.386	9602.56
873.706	9520.53
874.025	9489.34
874.344	9523.01
874.663	9508.78
874.982	9494.09
875.301	9446.18
875.62	9363.69
875.939	9365.95
876.258	9382.9
876.577	9338.84
876.896	9413.64
877.214	9291.15
877.533	9352.17
877.852	9310.36
878.17	9277.14
878.489	9289.8
878.807	9229.23
879.125	9232.4
879.444	9285.73
879.762	9222
880.08	9198.95
880.398	9130.93
880.716	9203.25
881.034	9171.16
881.352	9148.78
881.67	9151.04
881.988	9093.42
882.306	9115.34
882.624	9068.79
882.941	9010.26
883.259	9065.17
883.577	9009.13
883.894	8997.15
884.212	8934.1
884.529	8965.06
884.846	8890.94
885.164	8890.71
885.481	8841.9
885.798	8857.04
886.115	8751.96
886.432	8826.08
886.75	8810.26
887.067	8782.69
887.383	8729.59
887.7	8694.33
888.017	8648.23
888.334	8760.77
888.651	8702.02
888.967	8604.17
889.284	8578.4
889.6	8576.14
889.917	8521.46
890.233	8569.82
890.55	8512.42
890.866	8474.45
891.182	8486.66
891.498	8479.65
891.815	8384.51
892.131	8393.55
892.447	8338.18
892.763	8329.82
893.079	8294.12
893.395	8250.28
893.71	8248.7
894.026	8265.64
894.342	8186.78
894.657	8148.81
894.973	8118.98
895.289	8143.16
895.604	8142.26
895.92	8055.71
896.235	8077.4
896.55	8123.5
896.865	8015.26
897.181	8024.29
897.496	7954.24
897.811	7929.38
898.126	7914.02
898.441	7873.11
898.756	7818.65
899.071	7791.98
899.386	7805.09
899.7	7767.13
900.015	7717.41
900.33	7750.63
900.644	7655.72
900.959	7625.21
901.273	7601.48
901.588	7608.03
901.902	7552.22
902.216	7516.51
902.531	7469.51
902.845	7506.79
903.159	7442.84
903.473	7436.97
903.787	7388.15
904.101	7321.71
904.415	7361.49
904.729	7299.79
905.042	7242.85
905.356	7281.49
905.67	7269.96
905.984	7216.63
906.297	7211.89
906.611	7143.41
906.924	7164.2
907.237	7139.57
907.551	7080.82
907.864	7065.68
908.177	7037.65
908.491	7020.25
908.804	7008.05
909.117	6897.09
909.43	6895.51
909.743	6902.74
910.056	6857.77
910.368	6846.47
910.681	6788.85
910.994	6783.65
911.307	6705.46
911.619	6651.9
911.932	6698.91
912.244	6649.87
912.557	6667.04
912.869	6620.04
913.181	6575.29
913.494	6592.47
913.806	6533.71
914.118	6484.45
914.43	6495.97
914.742	6451.45
915.054	6430.44
915.366	6397.67
915.678	6334.62
915.99	6324.9
916.302	6257.11
916.613	6304.57
916.925	6261.63
917.236	6232.93
917.548	6225.47
917.859	6192.03
918.171	6145.47
918.482	6129.66
918.794	6106.83
919.105	6163.1
919.416	6020.51
919.727	6050.34
920.038	6061.86
920.349	5973.73
920.66	5963.33
920.971	5945.71
921.282	5950.45
921.593	5869.78
921.903	5869.55
922.214	5826.16
922.525	5794.97
922.835	5737.12
923.146	5812.83
923.456	5767.86
923.767	5701.19
924.077	5715.88
924.387	5701.64
924.697	5611.25
925.008	5642.21
925.318	5627.52
925.628	5615.54
925.938	5563.79
926.248	5496.68
926.558	5533.96
926.867	5508.65
927.177	5492.61
927.487	5433.85
927.796	5377.58
928.106	5398.6
928.416	5377.13
928.725	5382.78
929.034	5324.25
929.344	5367.42
929.653	5298.49
929.962	5278.38
930.271	5195.44
930.581	5192.5
930.89	5193.41
931.199	5177.59
931.508	5162
931.817	5203.58
932.125	5134.43
932.434	5124.71
932.743	5091.26
933.051	5028.89
933.36	5039.74
933.669	5011.49
933.977	4968.1
934.286	4998.61
934.594	4957.26
934.902	4912.51
935.21	4902.34
935.519	4868.9
935.827	4893.3
936.135	4788
936.443	4776.24
936.751	4802.01
937.059	4754.55
937.367	4727.88
937.674	4729.01
937.982	4735.57
938.29	4711.16
938.597	4679.52
938.905	4625.74
939.213	4598.62
939.52	4557.95
939.827	4637.49
940.135	4605.63
940.442	4550.71
940.749	4521.79
941.056	4551.84
941.363	4453.32
941.67	4488.12
941.977	4412.19
942.284	4428.23
942.591	4432.3
942.898	4411.28
943.205	4368.35
943.511	4373.32
943.818	4353.88
944.125	4357.05
944.431	4288.12
944.738	4331.74
945.044	4278.4
945.35	4276.82
945.657	4216.94
945.963	4203.38
946.269	4206.99
946.575	4192.98
946.881	4145.75
947.187	4159.54
947.493	4175.81
947.799	4175.36
948.105	4077.51
948.41	4044.96
948.716	4051.52
949.022	4057.62
949.327	4026.43
949.633	4002.71
949.938	3946.89
950.244	3974.91
950.549	3957.06
950.854	3939.88
951.16	3939.66
951.465	3868.02
951.77	3869.38
952.075	3853.1
952.38	3839.09
952.685	3783.5
952.99	3788.25
953.294	3794.8
953.599	3787.34
953.904	3735.14
954.209	3739.66
954.513	3737.18
954.818	3737.18
955.122	3666.67
955.426	3684.52
955.731	3675.03
956.035	3637.07
956.339	3615.37
956.643	3595.03
956.948	3608.59
957.252	3611.3
957.556	3563.62
957.86	3542.6
958.163	3557.52
958.467	3529.05
958.771	3522.04
959.075	3520.46
959.378	3515.49
959.682	3491.31
959.985	3491.08
960.289	3446.11
960.592	3418.54
960.896	3411.08
961.199	3397.07
961.502	3371.08
961.805	3367.02
962.108	3394.59
962.411	3298.77
962.714	3323.18
963.017	3305.77
963.32	3311.2
963.623	3291.76
963.926	3250.18
964.228	3266.68
964.531	3240.24
964.833	3224.87
965.136	3193.01
965.438	3219.22
965.741	3208.15
966.043	3195.04
966.345	3186.46
966.648	3156.17
966.95	3124.31
967.252	3132.67
967.554	3108.72
967.856	3089.96
968.158	3105.1
968.46	3067.36
968.761	3027.59
969.063	3035.05
969.365	3035.5
969.666	3050.64
969.968	2998.21
970.269	2972.45
970.571	3001.6
970.872	2999.57
971.174	2950.53
971.475	2922.06
971.776	2942.85
972.077	2934.48
972.378	2854.26
972.679	2885.67
972.98	2884.32
973.281	2848.84
973.582	2861.27
973.883	2846.13
974.183	2821.72
974.484	2837.54
974.785	2792.34
975.085	2793.47
975.386	2774.72
975.686	2750.76
975.986	2731.55
976.287	2729.52
976.587	2732.91
976.887	2727.48
977.187	2713.47
977.487	2690.65
977.787	2667.37
978.087	2643.65
978.387	2680.93
978.687	2654.72
978.987	2643.19
979.286	2601.84
979.586	2635.51
979.885	2600.71
980.185	2582.18
980.484	2586.02
980.784	2560.48
981.083	2576.53
981.382	2525.68
981.682	2567.49
981.981	2519.81
982.28	2565.91
982.579	2495.85
982.878	2481.39
983.177	2489.75
983.475	2462.41
983.774	2443.65
984.073	2411.56
984.372	2409.98
984.67	2402.97
984.969	2402.97
985.267	2399.58
985.566	2382.86
985.864	2408.17
986.162	2363.65
986.461	2355.29
986.759	2375.86
987.057	2331.11
987.355	2353.03
987.653	2336.08
987.951	2327.95
988.249	2298.57
988.547	2266.03
988.844	2299.25
989.142	2263.77
989.44	2240.04
989.737	2263.77
990.035	2249.98
990.332	2234.39
990.63	2230.1
990.927	2232.81
991.224	2214.73
991.521	2209.31
991.819	2212.02
992.116	2191.45
992.413	2148.97
992.71	2146.71
993.006	2132.92
993.303	2131.79
993.6	2098.12
993.897	2112.13
994.193	2122.08
994.49	2135.64
994.787	2109.2
995.083	2082.3
995.379	2085.69
995.676	2070.1
995.972	2052.25
996.268	2007.5
996.565	2009.31
996.861	1990.33
997.157	2000.72
997.453	2018.12
997.749	1987.62
998.044	1953.49
998.34	1983.78
998.636	1969.09
998.932	1922.08
999.227	1905.36
999.523	1968.18
999.818	1939.93
1000.114	1880.05
1000.409	1897
1000.704	1895.42
1001	1893.38
1001.295	1881.41
1001.59	1843.21
1001.885	1864.68
1002.18	1809.54
1002.475	1819.03
1002.77	1804.8
1003.065	1806.83
1003.359	1782.65
1003.654	1809.32
1003.949	1811.35
1004.243	1762.31
1004.538	1720.05
1004.832	1762.76
1005.127	1745.14
1005.421	1734.06
1005.715	1753.5
1006.009	1699.04
1006.304	1703.33
1006.598	1705.82
1006.892	1715.53
1007.186	1684.8
1007.48	1663.11
1007.773	1660.85
1008.067	1655.87
1008.361	1634.63
1008.655	1629.43
1008.948	1624.24
1009.242	1598.47
1009.535	1618.14
1009.829	1575.42
1010.122	1602.32
1010.415	1608.19
1010.708	1575.2
1011.001	1546.5
1011.295	1555.09
1011.588	1530.45
1011.881	1530
1012.173	1531.58
1012.466	1527.29
1012.759	1534.07
1013.052	1495.88
1013.344	1507.63
1013.637	1499.72
1013.93	1478.25
1014.222	1459.5
1014.514	1469.89
1014.807	1447.29
1015.099	1421.76
1015.391	1414.75
1015.683	1445.03
1015.976	1435.54
1016.268	1434.64
1016.56	1404.58
1016.851	1392.15
1017.143	1381.98
1017.435	1372.49
1017.727	1374.75
1018.018	1351.93
1018.31	1382.44
1018.602	1345.15
1018.893	1353.74
1019.185	1345.6
1019.476	1334.3
1019.767	1323.23
1020.058	1304.02
1020.35	1313.06
1020.641	1283.91
1020.932	1308.99
1021.223	1292.49
1021.514	1265.83
1021.804	1252.04
1022.095	1256.56
1022.386	1248.2
1022.677	1228.54
1022.967	1226.06
1023.258	1249.33
1023.548	1200.29
1023.839	1211.82
1024.129	1191.25
1024.419	1192.61
1024.709	1176.57
1025	1187.19
1025.29	1168.43
1025.58	1153.74
1025.87	1133.63
1026.16	1125.72
1026.449	1138.6
1026.739	1163.46
1027.029	1125.04
1027.319	1140.41
1027.608	1122.1
1027.898	1118.71
1028.187	1080.75
1028.477	1113.52
1028.766	1078.49
1029.055	1063.57
1029.344	1074.19
1029.634	1047.53
1029.923	1051.14
1030.212	1030.35
1030.501	1051.6
1030.79	1040.98
1031.078	1008.43
1031.367	1017.93
1031.656	997.36
1031.945	1030.81
1032.233	988.32
1032.522	988.32
1032.81	984.25
1033.099	983.12
1033.387	991.49
1033.675	997.13
1033.963	958.49
1034.251	957.36
1034.54	954.65
1034.828	961.88
1035.116	935.22
1035.403	927.08
1035.691	929.79
1035.979	939.51
1036.267	920.07
1036.554	921.2
1036.842	941.54
1037.129	907.42
1037.417	891.6
1037.704	877.59
1037.992	876.23
1038.279	859.51
1038.566	861.77
1038.853	861.77
1039.14	861.77
