Data from hue_24_FLMS001491_00014.txt Node
Date: Tue Feb 07 17:11:51 GMT 2017
User: dcchb
Spectrometer: FLMS00149
Trigger mode: 0
Integration Time (sec): 2.000000E-2
Scans to average: 10
Electric dark correction enabled: true
Nonlinearity correction enabled: false
Boxcar width: 0
XAxis mode: Wavelengths
Number of Pixels in Spectrum: 2048
>>>>>Begin Spectral Data<<<<<
341.393	-21.54
341.776	-21.54
342.16	-21.54
342.543	-70.13
342.927	-57.47
343.31	-44.14
343.693	-95.21
344.077	-67.64
344.46	-50.46
344.843	-55.66
345.226	-47.3
345.61	-20.18
345.993	-30.35
346.376	9.19
346.759	5.8
347.142	33.6
347.525	44.22
347.908	56.88
348.291	51.91
348.674	87.61
349.057	121.73
349.44	127.16
349.823	160.38
350.206	149.98
350.588	183.43
350.971	231.34
351.354	239.02
351.737	238.57
352.119	246.25
352.502	257.1
352.884	278.57
353.267	274.27
353.65	281.73
354.032	302.52
354.414	321.95
354.797	316.98
355.179	305.46
355.562	337.1
355.944	318.57
356.326	314.27
356.709	333.48
357.091	345.91
357.473	334.38
357.855	356.53
358.238	332.35
358.62	338.45
359.002	315.4
359.384	333.71
359.766	328.73
360.148	340.49
360.53	320.6
360.912	354.5
361.294	337.55
361.676	325.57
362.057	329.86
362.439	351.33
362.821	342.07
363.203	328.28
363.584	325.8
363.966	327.6
364.348	320.82
364.729	358.34
365.111	322.86
365.493	327.6
365.874	335.74
366.256	326.93
366.637	298.9
367.019	307.94
367.4	311.11
367.781	311.56
368.163	328.06
368.544	304.1
368.925	312.01
369.306	332.35
369.688	306.81
370.069	297.1
370.45	317.66
370.831	328.06
371.212	306.36
371.593	312.69
371.974	345.23
372.355	326.93
372.736	310.88
373.117	322.41
373.498	321.73
373.879	330.54
374.26	323.31
374.641	308.4
375.021	312.69
375.402	319.47
375.783	320.15
376.163	341.39
376.544	321.28
376.925	333.03
377.305	340.03
377.686	340.71
378.066	331.9
378.447	337.77
378.827	316.31
379.208	353.59
379.588	340.26
379.968	343.65
380.349	341.39
380.729	342.97
381.109	330.09
381.489	309.98
381.87	350.2
382.25	331.22
382.63	349.07
383.01	335.29
383.39	353.37
383.77	345.23
384.15	354.04
384.53	356.08
384.91	366.25
385.29	354.27
385.67	360.37
386.049	361.73
386.429	346.59
386.809	363.54
387.189	377.09
387.568	349.52
387.948	359.24
388.328	351.56
388.707	370.77
389.087	377.55
389.466	371.67
389.846	378.22
390.225	367.6
390.605	380.48
390.984	376.87
391.363	362.63
391.743	383.42
392.122	369.19
392.501	397.66
392.881	395.63
393.26	387.72
393.639	384.55
394.018	378.68
394.397	406.02
394.776	390.2
395.155	408.73
395.534	381.16
395.913	389.52
396.292	402.63
396.671	405.34
397.05	403.31
397.429	398.11
397.808	412.57
398.186	415.74
398.565	418.68
398.944	413.48
399.323	430.88
399.701	394.27
400.08	385.91
400.458	406.92
400.837	437.43
401.215	434.95
401.594	405.12
401.972	433.59
402.351	429.3
402.729	436.08
403.107	434.72
403.486	437.43
403.864	438.56
404.242	418.45
404.62	432.01
404.999	429.75
405.377	452.8
405.755	436.75
406.133	432.23
406.511	450.99
406.889	450.99
407.267	444.44
407.645	455.96
408.023	452.57
408.401	463.87
408.779	449.86
409.156	459.58
409.534	467.71
409.912	488.28
410.29	465.45
410.667	487.6
411.045	478.11
411.422	479.01
411.8	472.01
412.178	485.79
412.555	480.59
412.933	496.41
413.31	502.97
413.687	508.62
414.065	512.01
414.442	519.24
414.819	527.6
415.197	507.49
415.574	524.89
415.951	517.66
416.328	527.37
416.705	520.82
417.082	517.88
417.46	507.94
417.837	521.95
418.214	546.58
418.591	542.51
418.967	558.78
419.344	530.99
419.721	548.84
420.098	548.16
420.475	559.69
420.852	560.37
421.228	582.29
421.605	558.33
421.982	568.28
422.358	555.4
422.735	593.59
423.111	591.33
423.488	594.49
423.864	591.1
424.241	582.74
424.617	596.3
424.994	592.68
425.37	589.29
425.746	586.35
426.123	625.9
426.499	612.79
426.875	629.07
427.251	635.84
427.627	621.83
428.003	629.29
428.379	639.91
428.756	635.84
429.132	635.39
429.507	664.32
429.883	661.38
430.259	666.13
430.635	668.39
431.011	673.13
431.387	689.85
431.763	697.31
432.138	713.58
432.514	699.35
432.89	700.25
433.265	718.55
433.641	709.97
434.016	736.86
434.392	705.9
434.767	741.38
435.143	736.63
435.518	735.96
435.894	730.08
436.269	752.45
436.644	768.95
437.02	787.93
437.395	770.98
437.77	776.18
438.145	804.88
438.52	787.03
438.895	805.11
439.271	806.46
439.646	826.57
440.021	799.23
440.395	822.96
440.77	824.09
441.145	843.3
441.52	853.01
441.895	853.24
442.27	869.29
442.645	854.37
443.019	879
443.394	874.48
443.769	875.84
444.143	870.64
444.518	864.77
444.892	880.13
445.267	893.24
445.641	884.2
446.016	918.1
446.39	912.45
446.764	915.16
447.139	916.29
447.513	910.64
447.887	930.98
448.262	932.11
448.636	936.4
449.01	949.96
449.384	938.21
449.758	964.42
450.132	953.58
450.506	960.81
450.88	976.4
451.254	983.63
451.628	999.23
452.002	1013.69
452.376	998.32
452.75	998.77
453.123	1019.56
453.497	1035.61
453.871	1031.99
454.244	1047.36
454.618	1056.62
454.992	1067.92
455.365	1057.75
455.739	1090.75
456.112	1111.09
456.486	1107.92
456.859	1109.28
457.232	1123.29
457.606	1150.63
457.979	1142.27
458.352	1203.29
458.725	1178.43
459.099	1214.36
459.472	1227.47
459.845	1219.11
460.218	1249.16
460.591	1250.97
460.964	1243.51
461.337	1286.9
461.71	1307.47
462.083	1341.82
462.456	1336.84
462.829	1312.44
463.201	1330.06
463.574	1354.24
463.947	1356.73
464.32	1396.95
464.692	1394.02
465.065	1423.85
465.438	1414.81
465.81	1431.76
466.183	1477.63
466.555	1478.53
466.928	1487.35
467.3	1510.4
467.672	1544.3
468.045	1543.17
468.417	1543.62
468.789	1591.07
469.161	1592.88
469.534	1618.87
469.906	1651.19
470.278	1688.92
470.65	1665.42
471.022	1722.6
471.394	1736.15
471.766	1777.06
472.138	1792.2
472.51	1812.99
472.882	1887.11
473.253	1868.35
473.625	1907.22
473.997	1937.05
474.369	1961.69
474.74	2001.46
475.112	2034.9
475.484	2059.99
475.855	2104.28
476.227	2116.94
476.598	2184.73
476.97	2205.07
477.341	2264.5
477.713	2249.36
478.084	2292.52
478.455	2344.73
478.827	2393.31
479.198	2447.1
479.569	2499.3
479.94	2504.95
480.311	2571.84
480.682	2637.83
481.053	2710.37
481.424	2760.53
481.795	2766.86
482.166	2848.67
482.537	2902
482.908	2931.38
483.279	2980.19
483.65	3036.23
484.021	3116.23
484.391	3171.82
484.762	3185.16
485.133	3231.26
485.503	3301.09
485.874	3379.05
486.244	3377.02
486.615	3486.84
486.985	3507.63
487.356	3581.53
487.726	3632.6
488.097	3717.57
488.467	3710.34
488.837	3780.62
489.207	3840.73
489.578	3925.25
489.948	3989.88
490.318	4082.31
490.688	4053.38
491.058	4108.07
491.428	4171.8
491.798	4211.12
492.168	4344.9
492.538	4324.56
492.908	4369.53
493.278	4423.32
493.648	4459.25
494.017	4547.83
494.387	4602.75
494.757	4610.66
495.126	4708.05
495.496	4730.2
495.866	4765.91
496.235	4793.48
496.605	4870.08
496.974	4890.2
497.344	4964.77
497.713	5023.07
498.082	5038.21
498.452	5076.41
498.821	5066.46
499.19	5092.22
499.559	5135.84
499.928	5163.86
500.298	5227.59
500.667	5288.6
501.036	5324.08
501.405	5366.12
501.774	5336.96
502.143	5397.75
502.512	5439.56
502.88	5523.17
503.249	5494.02
503.618	5565.66
503.987	5587.13
504.356	5626.67
504.724	5655.83
505.093	5629.39
505.462	5658.76
505.83	5715.94
506.199	5746.22
506.567	5819.21
506.936	5813.34
507.304	5882.26
507.672	5881.36
508.041	5925.2
508.409	5972.2
508.777	6001.81
509.145	6026.44
509.514	6092.42
509.882	6123.84
510.25	6105.76
510.618	6195.92
510.986	6196.6
511.354	6192.08
511.722	6312.76
512.09	6345.07
512.458	6270.95
512.826	6377.61
513.193	6390.27
513.561	6343.94
513.929	6406.77
514.297	6482.02
514.664	6533.77
515.032	6531.28
515.4	6590.72
515.767	6562.92
516.135	6593.2
516.502	6593.43
516.869	6697.61
517.237	6734.89
517.604	6746.19
517.972	6743.03
518.339	6824.61
518.706	6880.88
519.073	6859.18
519.44	6851.5
519.808	6921.33
520.175	6938.5
520.542	6997.26
520.909	7047.43
521.276	7030.48
521.643	7136.46
522.009	7169.91
522.376	7147.09
522.743	7220.3
523.11	7312.28
523.477	7314.99
523.843	7366.06
524.21	7416.46
524.577	7482.44
524.943	7481.54
525.31	7493.52
525.676	7617.13
526.043	7662.1
526.409	7649.9
526.776	7712.49
527.142	7743.23
527.508	7767.86
527.874	7794.53
528.241	7857.35
528.607	7848.31
528.973	7942.55
529.339	7959.95
529.705	8018.48
530.071	8115.65
530.437	8145.93
530.803	8133.95
531.169	8227.74
531.535	8210.79
531.901	8292.14
532.267	8256.89
532.632	8324.23
532.998	8304.34
533.364	8427.73
533.73	8477.22
534.095	8462.08
534.461	8498.91
534.826	8540.95
535.192	8647.84
535.557	8702.75
535.923	8600.38
536.288	8708.4
536.653	8729.42
537.019	8747.27
537.384	8786.37
537.749	8784.33
538.114	8844.22
538.479	8875.63
538.845	8909.98
539.21	8944.1
539.575	8979.13
539.94	8959.92
540.305	9114.72
540.67	8985.68
541.034	9062.06
541.399	9125.34
541.764	9196.52
542.129	9146.13
542.494	9287.37
542.858	9292.57
543.223	9321.49
543.587	9338.21
543.952	9374.15
544.316	9396.07
544.681	9429.51
545.045	9433.13
545.41	9567.14
545.774	9509.74
546.138	9592.45
546.503	9601.03
546.867	9652.33
547.231	9673.57
547.595	9708.83
547.959	9798.99
548.324	9774.14
548.688	9797.64
549.052	9895.49
549.416	9875.83
549.779	9875.83
550.143	9912.21
550.507	10044.41
550.871	10025.43
551.235	10075.82
551.599	10100
551.962	10109.95
552.326	10154.01
552.689	10253.45
553.053	10165.54
553.417	10234.24
553.78	10246.89
554.143	10317.85
554.507	10303.61
554.87	10429.49
555.234	10513.1
555.597	10415.47
555.96	10536.6
556.323	10498.64
556.686	10552.87
557.05	10568.24
557.413	10691.85
557.776	10585.19
558.139	10736.14
558.502	10707.22
558.865	10813.43
559.228	10834.67
559.59	10843.26
559.953	10850.04
560.316	10962.13
560.679	10920.77
561.041	10996.93
561.404	11083.93
561.767	11099.75
562.129	11071.95
562.492	11188.79
562.854	11139.75
563.217	11235.11
563.579	11251.61
563.941	11295.23
564.304	11394.21
564.666	11433.98
565.028	11513.07
565.39	11403.02
565.753	11590.13
566.115	11538.61
566.477	11604.37
566.839	11712.84
567.201	11696.57
567.563	11743.12
567.925	11849.34
568.287	11782.9
568.648	11885.72
569.01	11925.27
569.372	11974.3
569.734	11957.81
570.095	12089.33
570.457	12089.78
570.819	12128.88
571.18	12202.32
571.542	12240.74
571.903	12219.04
572.265	12342.43
572.626	12378.36
572.987	12397.12
573.349	12473.73
573.71	12532.03
574.071	12560.5
574.432	12646.83
574.794	12795.53
575.155	12763.89
575.516	12837.78
575.877	12931.34
576.238	12983.32
576.599	13096.53
576.96	13108.06
577.32	13214.5
577.681	13340.14
578.042	13423.08
578.403	13598.67
578.763	13629.4
579.124	13714.15
579.485	13884.54
579.845	13933.12
580.206	13993.46
580.566	14150.07
580.927	14226.22
581.287	14422.15
581.648	14475.25
582.008	14718.64
582.368	14850.84
582.728	15035.69
583.089	15126.99
583.449	15334.22
583.809	15414.67
584.169	15725.62
584.529	15809.68
584.889	16042.22
585.249	16116.12
585.609	16293.51
585.969	16711.13
586.329	16785.25
586.688	17020.27
587.048	17251.23
587.408	17456.65
587.768	17691.89
588.127	17871.78
588.487	18144.99
588.846	18522.38
589.206	18577.97
589.565	18834.69
589.925	19280.33
590.284	19431.73
590.643	19728.9
591.003	20037.37
591.362	20309.45
591.721	20632.16
592.08	20859.49
592.44	21250.67
592.799	21459.7
593.158	21779.47
593.517	22029.18
593.876	22442.5
594.235	22607.7
594.593	22993
594.952	23279.54
595.311	23565.41
595.67	23977.83
596.029	24382.34
596.387	24664.37
596.746	24907.75
597.104	25137.8
597.463	25403.78
597.822	25942.98
598.18	26080.37
598.538	26310.2
598.897	26788.15
599.255	26919.22
599.613	27442.37
599.972	27617.51
600.33	27964.39
600.688	28210.49
601.046	28624.71
601.404	28981.77
601.762	29184.25
602.12	29620.39
602.478	29861.74
602.836	30073.94
603.194	30243.43
603.552	30604.55
603.91	30860.36
604.268	31174.25
604.625	31488.37
604.983	31892.42
605.341	31898.98
605.698	32329.93
606.056	32595.23
606.413	32865.05
606.771	33175.33
607.128	33471.82
607.485	33583
607.843	33787.74
608.2	34312.7
608.557	34505.24
608.914	34645.35
609.272	35027.03
609.629	35300.7
609.986	35540.92
610.343	35597.41
610.7	36146.32
611.057	36264.74
611.414	36328.01
611.771	36613.43
612.127	36968.9
612.484	36941.78
612.841	37287.99
613.198	37453.86
613.554	37602.33
613.911	37995.09
614.267	38115.54
614.624	38152.6
614.98	38448.64
615.337	38716.2
615.693	38785.58
616.05	39006.81
616.406	39339.01
616.762	39394.6
617.118	39449.74
617.475	39652.45
617.831	39875.49
618.187	40073.23
618.543	40280.68
618.899	40522.71
619.255	40627.11
619.611	40651.06
619.967	40928.34
620.323	41110.03
620.678	41047.44
621.034	41117.72
621.39	41322.23
621.746	41301.89
622.101	41855.78
622.457	41538.27
622.812	41651.72
623.168	41898.71
623.523	41980.29
623.879	42291.47
624.234	42086.28
624.589	42308.87
624.945	42275.2
625.3	42524.46
625.655	42587.96
626.01	42632.03
626.365	42660.73
626.72	42538.7
627.075	42757.68
627.43	42815.98
627.785	42888.75
628.14	42951.12
628.495	43194.05
628.85	43129.87
629.205	43140.49
629.559	43360.82
629.914	43086.48
630.269	43213.48
630.623	43345.46
630.978	43194.95
631.332	43426.36
631.687	43452.35
632.041	43378.45
632.396	43452.12
632.75	43323.76
633.104	43501.16
633.459	43488.05
633.813	43475.4
634.167	43508.39
634.521	43543.42
634.875	43722.85
635.229	43526.47
635.583	43503.42
635.937	43554.26
636.291	43452.35
636.645	43568.05
636.999	43458
637.352	43704.77
637.706	43392.46
638.06	43587.48
638.413	43572.79
638.767	43404.21
639.121	43557.88
639.474	43333.03
639.828	43356.3
640.181	43299.36
640.534	43505.23
640.888	43322.18
641.241	43344.33
641.594	43418.9
641.947	43505
642.301	43418.45
642.654	43448.28
643.007	43468.84
643.36	43428.84
643.713	43365.79
644.066	43545.68
644.419	43224.78
644.771	43123.09
645.124	42699.82
645.477	42674.51
645.83	42476.55
646.182	42278.37
646.535	42241.3
646.888	42357.23
647.24	42151.59
647.593	42320.4
647.945	42132.38
648.298	42020.29
648.65	41974.87
649.002	42007.86
649.355	42206.05
649.707	42032.72
650.059	42352.94
650.411	42711.35
650.763	42704.57
651.115	43129.87
651.467	42978.69
651.819	43015.97
652.171	42891.01
652.523	42884.45
652.875	42965.58
653.227	42798.35
653.578	42961.51
653.93	42953.38
654.282	42868.86
654.633	42663.89
654.985	42815.07
655.337	42915.19
655.688	42881.51
656.039	43050.1
656.391	42551.13
656.742	42653.27
657.094	42761.06
657.445	42945.01
657.796	42725.13
658.147	42647.17
658.498	42672.25
658.849	42767.39
659.2	42729.65
659.551	42621.86
659.902	42795.64
660.253	42698.92
660.604	42844.9
660.955	42465.03
661.306	42700.28
661.656	42611.92
662.007	42716.32
662.358	42564.69
662.708	42690.11
663.059	42741.4
663.409	42338.7
663.76	42664.8
664.11	42719.71
664.461	42685.13
664.811	42641.52
665.161	42630.22
665.511	42467.29
665.862	42508.87
666.212	42644.23
666.562	42607.62
666.912	42667.73
667.262	42497.8
667.612	42513.16
667.962	42737.11
668.312	42564.69
668.662	42680.84
669.011	42573.05
669.361	42511.81
669.711	42384.58
670.06	42482.65
670.41	42397.23
670.76	42403.33
671.109	42502.09
671.459	42434.75
671.808	42359.27
672.157	42482.88
672.507	42131.25
672.856	42084.92
673.205	42254.86
673.554	42393.39
673.904	42093.51
674.253	42404.24
674.602	42303
674.951	41836.34
675.3	41562
675.649	42079.27
675.998	42183.9
676.346	42004.02
676.695	42129.67
677.044	41905.95
677.393	42065.72
677.741	42178.48
678.09	42042.67
678.438	41902.56
678.787	41985.94
679.135	42031.14
679.484	41780.98
679.832	41957.7
680.181	41770.13
680.529	41880.18
680.877	41701.43
681.225	41622.56
681.573	41853.52
681.922	41540.08
682.27	41426.41
682.618	41503.24
682.966	41410.37
683.314	41593.64
683.661	41246.98
684.009	41258.28
684.357	41141.45
684.705	41054.44
685.053	41173.08
685.4	40923.37
685.748	40888.8
686.095	40764.28
686.443	40790.95
686.79	40710.72
687.138	40778.29
687.485	40839.08
687.832	40586.43
688.18	40765.86
688.527	40432.54
688.874	40511.86
689.221	40350.28
689.568	40324.52
689.915	40211.08
690.262	40116.61
690.609	40094.92
690.956	39954.36
691.303	39901.03
691.65	39682.95
691.997	39694.25
692.344	39456.75
692.69	39279.8
693.037	39469.63
693.383	39264.89
693.73	39251.78
694.077	39072.12
694.423	38986.25
694.769	38805.91
695.116	38789.87
695.462	38693.83
695.808	38621.29
696.155	38764.11
696.501	38419.48
696.847	38544.45
697.193	38137.01
697.539	38337.45
697.885	38067.85
698.231	38010.46
698.577	38012.26
698.923	37940.85
699.269	37778.37
699.614	37643.69
699.96	37715.77
700.306	37616.79
700.651	37511.03
700.997	37378.38
701.342	37335.67
701.688	37252.28
702.033	37044.83
702.379	37115.34
702.724	36945.85
703.069	37076.24
703.415	36539.99
703.76	36765.29
704.105	36791.5
704.45	36678.96
704.795	36403.94
705.14	36222.25
705.485	36212.31
705.83	36169.15
706.175	36146.32
706.52	36067.91
706.865	36009.38
707.209	35838.08
707.554	35707.24
707.899	35798.76
708.243	35579.11
708.588	35565.1
708.932	35225.9
709.277	35302.96
709.621	35342.95
709.966	35185.44
710.31	35133.24
710.654	34925.56
710.998	34949.29
711.342	34879.01
711.687	34807.38
712.031	34646.7
712.375	34609.19
712.719	34634.5
713.063	34590.66
713.407	34715.85
713.75	34467.5
714.094	34512.02
714.438	34215.98
714.782	34452.58
715.125	34343.21
715.469	34159.26
715.812	34189.54
716.156	33949.77
716.499	34015.76
716.843	33924.24
717.186	33758.14
717.53	33858.02
717.873	33881.52
718.216	33848.53
718.559	33662.32
718.902	33486.05
719.246	33507.75
719.589	33291.71
719.932	33364.7
720.275	33225.72
720.617	33336.68
720.96	33161.77
721.303	33237.02
721.646	33150.47
721.989	32927.2
722.331	33157.25
722.674	32985.28
723.016	33006.97
723.359	32724.27
723.701	32925.17
724.044	32677.49
724.386	32511.39
724.729	32715.68
725.071	32611.28
725.413	32420.77
725.755	32396.59
726.097	32463.48
726.439	32080.22
726.782	32256.93
727.124	32342.81
727.465	32158.63
727.807	32111.4
728.149	32080.44
728.491	32072.98
728.833	32074.79
729.175	32030.5
729.516	31887.23
729.858	31794.35
730.199	31938.07
730.541	31868.92
730.882	31771.98
731.224	31790.05
731.565	31583.96
731.906	31580.34
732.248	31603.62
732.589	31515.48
732.93	31332.44
733.271	31491.76
733.612	31331.31
733.953	31393
734.294	31309.16
734.635	31229.16
734.976	31247.02
735.317	31088.15
735.658	31083.86
735.999	31131.31
736.339	31019.9
736.68	31189.62
737.021	30937.2
737.361	30844.32
737.702	30946.01
738.042	30911.66
738.383	30823.98
738.723	30828.95
739.063	30785.56
739.404	30872.11
739.744	30685.22
740.084	30531.56
740.424	30627.37
740.764	30438.45
741.104	30444.78
741.444	30440.03
741.784	30398.9
742.124	30435.51
742.464	30318.45
742.804	30192.81
743.143	30180.83
743.483	30105.58
743.823	29918.01
744.162	30051.79
744.502	30042.08
744.841	29977.45
745.181	30128.18
745.52	30021.29
745.86	30028.74
746.199	29895.41
746.538	29863.78
746.877	29952.59
747.216	29832.14
747.556	29896.32
747.895	29762.31
748.234	29685.7
748.573	29517.12
748.911	29615.42
749.25	29619.49
749.589	29397.12
749.928	29547.4
750.267	29622.88
750.605	29433.28
750.944	29342.66
751.283	29269.89
751.621	29284.13
751.96	29117.36
752.298	29219.05
752.636	29153.74
752.975	29082.33
753.313	28878.72
753.651	29201.2
753.989	28929.34
754.327	28844.37
754.666	28838.72
755.004	28851.83
755.342	28774.99
755.679	28636.69
756.017	28652.06
756.355	28541.33
756.693	28411.84
757.031	28542.91
757.368	28248.23
757.706	28346.3
758.044	28107.89
758.381	28302.69
758.719	28192.86
759.056	28166.65
759.394	28099.53
759.731	27809.82
760.068	27888.01
760.405	27726.21
760.743	27645.08
761.08	27735.92
761.417	27488.47
761.754	27627.9
762.091	27556.94
762.428	27449.15
762.765	27231.3
763.102	27390.62
763.438	27213.45
763.775	27023.17
764.112	27133.23
764.449	27270.17
764.785	26897.75
765.122	26802.61
765.458	26650.53
765.795	26585.45
766.131	26681.26
766.467	26535.95
766.804	26438.56
767.14	26307.94
767.476	26266.36
767.812	26109.75
768.148	26122.18
768.485	25963.54
768.821	25808.74
769.157	25807.84
769.492	25811
769.828	25632.02
770.164	25472.71
770.5	25432.71
770.836	25404.91
771.171	25239.04
771.507	25133.73
771.842	25004.92
772.178	25055.09
772.513	24909.1
772.849	24806.28
773.184	24779.16
773.519	24668.66
773.855	24599.96
774.19	24648.55
774.525	24474.54
774.86	24562
775.195	24384.82
775.53	24361.1
775.865	24255.79
776.2	23984.61
776.535	23844.27
776.87	23791.39
777.205	23778.51
777.539	23696.03
777.874	23615.35
778.209	23482.7
778.543	23404.29
778.878	23375.13
779.212	23290.84
779.547	23230.28
779.881	23286.77
780.215	23020.79
780.55	23092.66
780.884	22819.89
781.218	22806.56
781.552	22852.44
781.886	22696.28
782.22	22633.68
782.554	22557.08
782.888	22373.8
783.222	22259.68
783.556	22214.94
783.889	22058.56
784.223	21967.71
784.557	21957.09
784.89	22028.05
785.224	21876.87
785.557	21693.82
785.891	21621.06
786.224	21589.87
786.558	21608.4
786.891	21428.74
787.224	21292.93
787.557	21326.37
787.891	21306.04
788.224	21241.63
788.557	21150.33
788.89	21077.34
789.223	21079.15
789.556	20891.58
789.888	20859.95
790.221	20812.49
790.554	20546.28
790.887	20571.37
791.219	20527.3
791.552	20424.48
791.884	20376.34
792.217	20279.17
792.549	20196.69
792.882	20152.62
793.214	19993.53
793.546	20159.17
793.879	19940.42
794.211	19771.61
794.543	19897.49
794.875	19784.95
795.207	19894.55
795.539	19748.11
795.871	19624.27
796.203	19503.82
796.535	19479.19
796.867	19422.7
797.198	19328.91
797.53	19327.1
797.862	19165.75
798.193	19191.29
798.525	19074.91
798.856	19153.78
799.188	18919.66
799.519	18784.75
799.85	18771.64
800.182	18720.57
800.513	18707.91
800.844	18603.51
801.175	18640.34
801.506	18521.25
801.837	18476.51
802.168	18401.93
802.499	18352.22
802.83	18257.08
803.161	18261.14
803.491	18241.71
803.822	18200.81
804.153	18123.97
804.483	18030.42
804.814	17914.94
805.145	17994.48
805.475	17849.86
805.805	17842.4
806.136	17775.28
806.466	17882.17
806.796	17759.24
807.126	17566.02
807.457	17533.03
807.787	17580.26
808.117	17468.17
808.447	17448.96
808.777	17486.25
809.107	17300.49
809.436	17336.42
809.766	17205.13
810.096	17249.19
810.426	17224.34
810.755	17196.31
811.085	17048.97
811.414	17182.3
811.744	17008.75
812.073	16938.69
812.403	16882.2
812.732	16740.73
813.061	16729.43
813.39	16690.34
813.719	16667.06
814.049	16798.81
814.378	16659.15
814.707	16539.16
815.036	16465.71
815.365	16508.87
815.693	16291.25
816.022	16415.54
816.351	16281.76
816.68	16180.52
817.008	16251.48
817.337	16084.93
817.665	16125.38
817.994	16087.64
818.322	16090.58
818.651	16016.91
818.979	15956.35
819.307	16034.99
819.636	15970.36
819.964	15868.66
820.292	15945.95
820.62	15842.22
820.948	15813.52
821.276	15896.01
821.604	15894.88
821.932	15789.12
822.259	15793.19
822.587	15797.93
822.915	15764.03
823.243	15869.57
823.57	15746.41
823.898	15827.08
824.225	15689.69
824.553	15743.7
824.88	15717.26
825.207	15704.38
825.535	15665.51
825.862	15770.14
826.189	15568.79
826.516	15643.59
826.843	15790.93
827.17	15766.07
827.497	15709.12
827.824	15774.43
828.151	15837.93
828.478	15702.57
828.805	15824.15
829.131	15734.43
829.458	15747.31
829.785	15603.13
830.111	15614.89
830.438	15702.34
830.764	15709.57
831.09	15798.38
831.417	15645.85
831.743	15697.82
832.069	15635
832.395	15623.47
832.722	15671.61
833.048	15670.7
833.374	15688.78
833.7	15475.68
834.026	15491.73
834.351	15566.53
834.677	15501.22
835.003	15486.53
835.329	15533.76
835.654	15527.2
835.98	15352.52
836.306	15367.43
836.631	15413.08
836.956	15442.91
837.282	15326.08
837.607	15340.09
837.932	15297.15
838.258	15286.08
838.583	15203.82
838.908	15067.78
839.233	15173.32
839.558	15242.92
839.883	15123.37
840.208	15000.44
840.533	14997.5
840.858	15063.94
841.182	14989.59
841.507	15001.12
841.832	14896.26
842.156	14931.51
842.481	14939.2
842.805	14872.31
843.13	14806.32
843.454	14853.55
843.778	14685.64
844.103	14727.45
844.427	14652.65
844.751	14624.63
845.075	14606.55
845.399	14567.23
845.723	14562.71
846.047	14546.89
846.371	14415.37
846.695	14431.64
847.019	14252.44
847.343	14295.15
847.666	14204.53
847.99	14089.95
848.313	14076.17
848.637	14012.44
848.96	13955.04
849.284	13990.97
849.607	13942.84
849.931	13736.29
850.254	13702.85
850.577	13651.55
850.9	13539.23
851.223	13617.2
851.546	13450.42
851.869	13365.23
852.192	13450.88
852.515	13384.21
852.838	13283.87
853.161	13284.33
853.483	13194.38
853.806	13157.32
854.129	13080.72
854.451	13135.18
854.774	13035.07
855.096	12976.76
855.419	12929.31
855.741	12901.06
856.063	12908.52
856.385	12810.44
856.708	12813.38
857.03	12789.42
857.352	12759.37
857.674	12683.89
857.996	12715.75
858.318	12606.15
858.64	12630.78
858.961	12509.66
859.283	12472.14
859.605	12449.32
859.926	12426.04
860.248	12405.93
860.57	12339.72
860.891	12290.45
861.212	12306.05
861.534	12294.07
861.855	12213.39
862.176	12205.03
862.498	12203
862.819	12132.04
863.14	12125.03
863.461	12139.05
863.782	12134.53
864.103	12127.97
864.424	12007.98
864.745	12062.89
865.065	11971.82
865.386	11860.63
865.707	11934.98
866.027	11887.3
866.348	11871.71
866.668	11846.4
866.989	11860.63
867.309	11766.85
867.63	11821.99
867.95	11809.11
868.27	11681.2
868.59	11715.55
868.91	11655.22
869.23	11707.64
869.55	11656.57
869.87	11772.95
870.19	11663.58
870.51	11617.7
870.83	11639.85
871.15	11610.92
871.469	11642.79
871.789	11548.55
872.109	11601.43
872.428	11427.2
872.748	11543.81
873.067	11463.81
873.386	11502
873.706	11452.06
874.025	11459.74
874.344	11350.37
874.663	11436.69
874.982	11353.53
875.301	11351.04
875.62	11360.08
875.939	11346.07
876.258	11258.84
876.577	11276.47
876.896	11295.9
877.214	11240.76
877.533	11205.28
877.852	11178.39
878.17	11256.13
878.489	11129.58
878.807	11150.14
879.125	11116.7
879.444	11059.3
879.762	11068.11
880.08	11053.2
880.398	11041
880.716	11046.64
881.034	10940.88
881.352	10928.46
881.67	10978.85
881.988	10945.86
882.306	10930.26
882.624	10860.66
882.941	10804.62
883.259	10865.86
883.577	10785.86
883.894	10791.28
884.212	10763.71
884.529	10781.57
884.846	10704.96
885.164	10723.49
885.481	10652.3
885.798	10695.24
886.115	10649.14
886.432	10572.76
886.75	10585.87
887.067	10538.41
887.383	10495.02
887.7	10495.02
888.017	10447.11
888.334	10498.41
888.651	10436.49
888.967	10462.25
889.284	10298.19
889.6	10392.42
889.917	10265.42
890.233	10302.48
890.55	10199.89
890.866	10278.08
891.182	10170.28
891.498	10125.31
891.815	10148.59
892.131	10077.63
892.447	10055.48
892.763	9977.07
893.079	9949.05
893.395	9983.17
893.71	9957.86
894.026	9897.3
894.342	9890.97
894.657	9831.76
894.973	9779.79
895.289	9803.97
895.604	9748.37
895.92	9650.3
896.235	9675.83
896.55	9713.12
896.865	9572.11
897.181	9613.69
897.496	9578.66
897.811	9498.21
898.126	9544.54
898.441	9424.09
898.756	9446.01
899.071	9382.06
899.386	9357.88
899.7	9334.37
900.015	9290.08
900.33	9164.66
900.644	9170.76
900.959	9265.67
901.273	9191.33
901.588	9195.85
901.902	9127.6
902.216	9071.33
902.531	8992.24
902.845	9042.86
903.159	8961.05
903.473	8938.68
903.787	8901.62
904.101	8853.93
904.415	8840.83
904.729	8778.91
905.042	8786.37
905.356	8686.48
905.67	8705.69
905.984	8732.36
906.297	8637.44
906.611	8601.06
906.924	8648.29
907.237	8556.09
907.551	8592.47
907.864	8519.25
908.177	8464.57
908.491	8459.82
908.804	8364.46
909.117	8341.4
909.43	8317
909.743	8306.15
910.056	8291.46
910.368	8239.71
910.681	8211.69
910.994	8166.27
911.307	8148.87
911.619	8070.68
911.932	8079.72
912.244	7987.52
912.557	7968.31
912.869	7973.51
913.181	7956.78
913.494	7915.65
913.806	7839.5
914.118	7833.17
914.43	7773.51
914.742	7831.14
915.054	7718.6
915.366	7708.2
915.678	7665.72
915.99	7640.41
916.302	7583.68
916.613	7566.51
916.925	7562.22
917.236	7455.33
917.548	7410.58
917.859	7466.17
918.171	7417.81
918.482	7339.17
918.794	7394.09
919.105	7273.64
919.416	7297.82
919.727	7264.6
920.038	7185.96
920.349	7173.07
920.66	7140.53
920.971	7198.84
921.282	7128.78
921.593	7089.01
921.903	7014.89
922.214	6978.73
922.525	6994.32
922.835	7017.82
923.146	6881.56
923.456	6867.55
923.767	6883.59
924.077	6840.2
924.387	6851.05
924.697	6802.91
925.008	6696.48
925.318	6752.07
925.628	6705.74
925.938	6671.17
926.248	6662.35
926.558	6609.02
926.867	6581.68
927.177	6521.11
927.487	6483.83
927.796	6451.29
928.106	6420.33
928.416	6449.7
928.725	6442.92
929.034	6336.71
929.344	6316.15
929.653	6333.32
929.962	6267.56
930.271	6247
930.581	6234.12
930.89	6209.48
931.199	6164.29
931.508	6148.92
931.817	6139.2
932.125	6084.52
932.434	6057.85
932.743	6055.59
933.051	6041.8
933.36	6010.39
933.669	6006.78
933.977	5944.18
934.286	5937.17
934.594	5915.25
934.902	5888.81
935.21	5830.74
935.519	5884.97
935.827	5777.63
936.135	5786.44
936.443	5777.4
936.751	5698.08
937.059	5773.11
937.367	5679.78
937.674	5672.55
937.982	5670.06
938.29	5650.85
938.597	5586.22
938.905	5505.32
939.213	5524.3
939.52	5510.97
939.827	5500.8
940.135	5506
940.442	5407.02
940.749	5426.91
941.056	5405.66
941.363	5343.97
941.67	5342.61
941.977	5336.29
942.284	5238.44
942.591	5287.25
942.898	5221.71
943.205	5241.6
943.511	5221.71
943.818	5179
944.125	5150.75
944.431	5122.05
944.738	5131.77
945.044	5113.69
945.35	5048.16
945.657	5037.54
945.963	5021.94
946.269	4971.1
946.575	5012.9
946.881	4958.44
947.187	4947.37
947.493	4925
947.799	4900.37
948.105	4902.4
948.41	4869.41
948.716	4868.5
949.022	4820.14
949.327	4786.24
949.633	4754.15
949.938	4790.54
950.244	4794.61
950.549	4669.19
950.854	4701.95
951.16	4636.19
951.465	4654.27
951.77	4620.15
952.075	4595.06
952.38	4549.41
952.685	4620.15
952.99	4559.36
953.294	4536.76
953.599	4507.83
953.904	4517.32
954.209	4440.94
954.513	4463.99
954.818	4403.88
955.122	4461.96
955.426	4402.07
955.731	4420.83
956.035	4352.13
956.339	4333.15
956.643	4341.96
956.948	4269.2
957.252	4246.37
957.556	4296.09
957.86	4219.93
958.163	4217.9
958.467	4200.72
958.771	4194.4
959.075	4225.13
959.378	4176.77
959.682	4178.58
959.985	4161.4
960.289	4113.72
960.592	4094.96
960.896	4055.64
961.199	4049.77
961.502	3987.85
961.805	3956.44
962.108	3967.06
962.411	3986.27
962.714	3955.76
963.017	3920.73
963.32	3947.85
963.623	3932.93
963.926	3923.67
964.228	3849.77
964.531	3854.97
964.833	3860.84
965.136	3813.84
965.438	3812.71
965.741	3839.15
966.043	3771.36
966.345	3786.72
966.648	3686.84
966.95	3739.49
967.252	3676.44
967.554	3712.15
967.856	3672.15
968.158	3611.81
968.46	3658.14
968.761	3616.78
969.063	3640.96
969.365	3595.77
969.666	3585.37
969.968	3544.47
970.269	3504.47
970.571	3532.04
970.872	3511.48
971.174	3468.31
971.475	3517.8
971.776	3449.78
972.077	3441.65
972.378	3417.01
972.679	3416.11
972.98	3424.92
973.281	3344.25
973.582	3358.94
973.883	3380.41
974.183	3351.48
974.484	3361.42
974.785	3333.85
975.085	3299.73
975.386	3289.33
975.686	3292.05
975.986	3283.23
976.287	3231.48
976.587	3226.96
976.887	3204.14
977.187	3260.18
977.487	3213.18
977.787	3189.68
978.087	3194.87
978.387	3118.49
978.687	3166.17
978.987	3119.17
979.286	3107.64
979.586	3078.94
979.885	3076.68
980.185	3025.84
980.484	3025.84
980.784	3048.21
981.083	2977.93
981.382	3009.34
981.682	2994.65
981.981	2994.65
982.28	3002.34
982.579	2977.03
982.878	2944.26
983.177	2913.07
983.475	2912.17
983.774	2881.66
984.073	2913.3
984.372	2876.01
984.67	2841.89
984.969	2884.37
985.267	2812.74
985.566	2840.08
985.864	2777.94
986.162	2776.58
986.461	2778.84
986.759	2756.24
987.057	2797.14
987.355	2748.56
987.653	2749.01
987.951	2744.26
988.249	2685.51
988.547	2686.19
988.844	2676.92
989.142	2712.4
989.44	2656.58
989.737	2671.05
990.035	2639.41
990.332	2635.79
990.63	2626.3
990.927	2594.89
991.224	2568.68
991.521	2534.33
991.819	2568.68
992.116	2555.57
992.413	2562.12
992.71	2532.07
993.006	2516.47
993.303	2500.88
993.6	2506.08
993.897	2471.5
994.193	2496.36
994.49	2456.14
994.787	2435.12
995.083	2439.41
995.379	2432.63
995.676	2421.11
995.972	2426.08
996.268	2418.62
996.565	2396.7
996.861	2349.47
997.157	2344.05
997.453	2331.62
997.749	2345.18
998.044	2329.81
998.34	2316.48
998.636	2306.08
998.932	2309.47
999.227	2263.15
999.523	2272.86
999.818	2249.36
1000.114	2230.83
1000.409	2239.87
1000.704	2223.37
1001	2200.55
1001.295	2160.78
1001.59	2175.01
1001.885	2170.95
1002.18	2176.37
1002.475	2141.79
1002.77	2145.18
1003.065	2138.86
1003.359	2113.32
1003.654	2100.89
1003.949	2084.17
1004.243	2097.05
1004.538	2060.44
1004.832	2025.64
1005.127	2065.41
1005.421	2005.98
1005.715	2035.81
1006.009	2003.49
1006.304	1983.83
1006.598	1975.92
1006.892	1996.94
1007.186	1974.11
1007.48	1947.67
1007.773	1954
1008.067	1938.18
1008.361	1914.46
1008.655	1951.97
1008.948	1897.28
1009.242	1921.46
1009.535	1888.47
1009.829	1869.03
1010.122	1845.08
1010.415	1840.11
1010.708	1841.91
1011.001	1833.55
1011.295	1833.55
1011.588	1826.55
1011.881	1806.44
1012.173	1795.14
1012.466	1777.28
1012.759	1757.4
1013.052	1750.84
1013.344	1724.63
1013.637	1736.83
1013.93	1716.49
1014.222	1695.03
1014.514	1682.6
1014.807	1695.7
1015.099	1698.42
1015.391	1681.24
1015.683	1687.57
1015.976	1646.89
1016.268	1660.9
1016.56	1638.98
1016.851	1652.09
1017.143	1610.06
1017.435	1603.96
1017.727	1588.14
1018.018	1579.77
1018.31	1597.85
1018.602	1552.2
1018.893	1540.91
1019.185	1565.99
1019.476	1544.07
1019.767	1540.68
1020.058	1533
1020.35	1514.69
1020.641	1485.99
1020.932	1463.62
1021.223	1461.81
1021.514	1468.82
1021.804	1457.74
1022.095	1442.83
1022.386	1431.53
1022.677	1435.15
1022.967	1423.17
1023.258	1377.97
1023.548	1401.93
1023.839	1368.03
1024.129	1385.2
1024.419	1368.71
1024.709	1352.66
1025	1370.74
1025.29	1341.59
1025.58	1314.25
1025.87	1307.24
1026.16	1302.49
1026.449	1296.39
1026.739	1312.66
1027.029	1314.92
1027.319	1260.91
1027.608	1263.85
1027.898	1261.59
1028.187	1243.51
1028.477	1254.36
1028.766	1259.56
1029.055	1220.01
1029.344	1252.78
1029.634	1239.67
1029.923	1224.76
1030.212	1224.08
1030.501	1198.32
1030.79	1182.27
1031.078	1167.58
1031.367	1167.58
1031.656	1158.09
1031.945	1137.75
1032.233	1156.96
1032.522	1156.96
1032.81	1134.81
1033.099	1131.43
1033.387	1125.32
1033.675	1120.35
1033.963	1145.44
1034.251	1114.7
1034.54	1096.4
1034.828	1085.78
1035.116	1049.39
1035.403	1060.92
1035.691	1047.59
1035.979	1054.59
1036.267	1049.39
1036.554	1053.01
1036.842	1045.33
1037.129	1022.5
1037.417	1013.46
1037.704	1033.35
1037.992	1017.3
1038.279	1015.27
1038.566	999.23
1038.853	999.23
1039.14	999.23
