Data from hue_36_FLMS001491_00058.txt Node
Date: Tue Feb 07 17:30:00 GMT 2017
User: dcchb
Spectrometer: FLMS00149
Trigger mode: 0
Integration Time (sec): 2.000000E-2
Scans to average: 10
Electric dark correction enabled: true
Nonlinearity correction enabled: false
Boxcar width: 0
XAxis mode: Wavelengths
Number of Pixels in Spectrum: 2048
>>>>>Begin Spectral Data<<<<<
341.393	-21.26
341.776	-21.26
342.16	-21.26
342.543	-68.03
342.927	-69.39
343.31	-73.91
343.693	-80.69
344.077	-65.1
344.46	-47.47
344.843	-43.18
345.226	-31.65
345.61	-19.67
345.993	-27.81
346.376	-8.6
346.759	1.12
347.142	15.13
347.525	33.88
347.908	83.83
348.291	84.05
348.674	93.09
349.057	86.99
349.44	140.77
349.823	132.86
350.206	166.08
350.588	209.47
350.971	222.8
351.354	217.83
351.737	242.01
352.119	250.6
352.502	267.1
352.884	276.59
353.267	301.22
353.65	284.5
354.032	297.83
354.414	300.77
354.797	314.78
355.179	305.29
355.562	317.04
355.944	321.11
356.326	339.64
356.709	339.86
357.091	324.72
357.473	348.68
357.855	343.48
358.238	325.63
358.62	341.9
359.002	326.98
359.384	345.06
359.766	337.15
360.148	342.8
360.53	346.64
360.912	340.99
361.294	346.64
361.676	336.93
362.057	320.43
362.439	319.75
362.821	302.58
363.203	331.5
363.584	312.75
363.966	334.67
364.348	330.6
364.729	331.5
365.111	335.34
365.493	332.41
365.874	308.9
366.256	338.73
366.637	319.75
367.019	304.84
367.4	304.16
367.781	314.78
368.163	313.2
368.544	310.71
368.925	309.13
369.306	336.7
369.688	318.62
370.069	315.46
370.45	298.28
370.831	316.36
371.212	298.96
371.593	293.31
371.974	319.07
372.355	317.04
372.736	333.31
373.117	319.98
373.498	313.65
373.879	313.88
374.26	315.23
374.641	308.68
375.021	312.52
375.402	311.16
375.783	323.59
376.163	326.98
376.544	330.82
376.925	323.59
377.305	329.92
377.686	305.74
378.066	332.18
378.447	325.18
378.827	337.38
379.208	325.18
379.588	305.51
379.968	317.49
380.349	340.54
380.729	329.24
381.109	332.63
381.489	332.41
381.87	326.3
382.25	330.6
382.63	345.29
383.01	327.43
383.39	319.75
383.77	345.51
384.15	331.05
384.53	341.45
384.91	351.16
385.29	336.47
385.67	345.29
386.049	348.9
386.429	367.66
386.809	341.67
387.189	344.16
387.568	356.13
387.948	357.04
388.328	356.36
388.707	347.32
389.087	348.45
389.466	367.43
389.846	342.8
390.225	343.93
390.605	364.27
390.984	338.06
391.363	343.03
391.743	349.13
392.122	356.59
392.501	350.94
392.881	357.72
393.26	363.82
393.639	362.69
394.018	364.72
394.397	361.78
394.776	355.91
395.155	370.37
395.534	361.56
395.913	371.95
396.292	363.14
396.671	392.97
397.05	374.21
397.429	367.66
397.808	398.17
398.186	358.62
398.565	392.52
398.944	377.6
399.323	404.95
399.701	367.21
400.08	364.27
400.458	402.46
400.837	383.25
401.215	393.42
401.594	386.19
401.972	388
402.351	393.65
402.729	399.98
403.107	380.31
403.486	399.07
403.864	402.24
404.242	396.36
404.62	411.5
404.999	398.62
405.377	397.49
405.755	409.24
406.133	388.68
406.511	427.09
406.889	421.9
407.267	428
407.645	395.46
408.023	416.02
408.401	420.77
408.779	413.08
409.156	420.77
409.534	422.57
409.912	418.28
410.29	419.86
410.667	434.32
411.045	426.19
411.422	443.14
411.8	453.99
412.178	438.17
412.555	461.89
412.933	447.43
413.31	420.09
413.687	445.17
414.065	455.34
414.442	441.78
414.819	476.81
415.197	456.25
415.574	456.7
415.951	463.93
416.328	490.59
416.705	466.19
417.082	472.06
417.46	471.84
417.837	484.27
418.214	493.08
418.591	498.28
418.967	481.56
419.344	476.81
419.721	496.7
420.098	510.71
420.475	502.57
420.852	491.27
421.228	504.83
421.605	510.48
421.982	540.76
422.358	529.24
422.735	516.36
423.111	529.46
423.488	522.68
423.864	524.49
424.241	521.1
424.617	560.2
424.994	538.95
425.37	520.88
425.746	559.52
426.123	535.34
426.499	532.85
426.875	546.86
427.251	534.89
427.627	537.15
428.003	550.93
428.379	570.37
428.756	555.68
429.132	564.26
429.507	566.52
429.883	581.21
430.259	573.53
430.635	577.82
431.011	586.86
431.387	599.52
431.763	614.21
432.138	590.48
432.514	592.06
432.89	599.52
433.265	607.2
433.641	599.29
434.016	618.73
434.392	614.88
434.767	625.05
435.143	618.05
435.518	628.44
435.894	622.79
436.269	654.66
436.644	635.9
437.02	667.31
437.395	663.02
437.77	672.06
438.145	653.08
438.52	685.62
438.895	669.12
439.271	674.77
439.646	716.8
440.021	693.3
440.395	696.24
440.77	692.4
441.145	691.49
441.52	726.07
441.895	689.91
442.27	711.38
442.645	723.81
443.019	720.64
443.394	713.19
443.769	732.4
444.143	717.48
444.518	706.18
444.892	719.06
445.267	731.72
445.641	772.39
446.016	735.56
446.39	732.62
446.764	750.47
447.139	749.8
447.513	740.98
447.887	763.13
448.262	747.08
448.636	774.2
449.01	784.37
449.384	764.94
449.758	757.25
450.132	793.19
450.506	806.97
450.88	811.04
451.254	786.18
451.628	813.75
452.002	826.4
452.376	819.17
452.75	834.77
453.123	834.31
453.497	834.77
453.871	832.96
454.244	853.75
454.618	866.63
454.992	885.84
455.365	891.71
455.739	890.36
456.112	882
456.486	913.18
456.859	917.48
457.232	912.28
457.606	913.41
457.979	936.91
458.352	947.31
458.725	950.24
459.099	986.85
459.472	969.9
459.845	986.85
460.218	984.14
460.591	986.85
460.964	997.93
461.337	1021.88
461.71	1066.62
462.083	1056.46
462.456	1056
462.829	1044.93
463.201	1066.85
463.574	1073.63
463.947	1086.06
464.32	1116.79
464.692	1104.14
465.065	1112.95
465.438	1140.52
465.81	1159.28
466.183	1205.6
466.555	1191.37
466.928	1199.05
467.3	1206.28
467.672	1242.67
468.045	1232.27
468.417	1275.66
468.789	1265.49
469.161	1319.27
469.534	1315.66
469.906	1351.81
470.278	1322.89
470.65	1369.89
471.022	1419.84
471.394	1421.19
471.766	1449.67
472.138	1475.43
472.51	1492.38
472.882	1529.44
473.253	1554.75
473.625	1572.37
473.997	1630.45
474.369	1681.52
474.74	1672.71
475.112	1726.72
475.484	1737.79
475.855	1791.13
476.227	1827.28
476.598	1872.48
476.97	1874.74
477.341	1977.79
477.713	1978.24
478.084	2032.7
478.455	2130.33
478.827	2135.3
479.198	2223.2
479.569	2256.2
479.94	2320.38
480.311	2395.63
480.682	2430.66
481.053	2510.65
481.424	2530.54
481.795	2619.35
482.166	2692.34
482.537	2739.8
482.908	2830.87
483.279	2901.38
483.65	2982.05
484.021	3051.88
484.391	3094.59
484.762	3160.35
485.133	3267.47
485.503	3337.53
485.874	3441.48
486.244	3471.08
486.615	3602.6
486.985	3674.01
487.356	3768.93
487.726	3834.01
488.097	3963.72
488.467	4057.28
488.837	4158.29
489.207	4198.07
489.578	4313.54
489.948	4375.01
490.318	4577.72
490.688	4611.16
491.058	4702.46
491.428	4816.13
491.798	4918.95
492.168	5025.16
492.538	5108.1
492.908	5179.06
493.278	5365.95
493.648	5411.37
494.017	5497.02
494.387	5609.33
494.757	5620.63
495.126	5802.32
495.496	5826.5
495.866	5909.21
496.235	6053.39
496.605	6124.34
496.974	6169.77
497.344	6351.01
497.713	6398.24
498.082	6518.68
498.452	6575.41
498.821	6623.99
499.19	6728.85
499.559	6751.45
499.928	6892.69
500.298	7044.55
500.667	7070.76
501.036	7099.01
501.405	7251.09
501.774	7232.56
502.143	7316.86
502.512	7458.32
502.88	7530.86
503.249	7600.24
503.618	7660.35
503.987	7764.75
504.356	7780.57
504.724	7885.2
505.093	7875.49
505.462	8005.2
505.83	8091.3
506.199	8189.38
506.567	8306.21
506.936	8345.53
507.304	8472.31
507.672	8473.44
508.041	8540.33
508.409	8575.13
508.777	8712.53
509.145	8714.78
509.514	8782.35
509.882	8875.01
510.25	8922.01
510.618	8976.92
510.986	9057.6
511.354	9169.69
511.722	9141.21
512.09	9302.79
512.458	9255.11
512.826	9437.93
513.193	9444.94
513.561	9462.56
513.929	9553.86
514.297	9622.78
514.664	9705.72
515.032	9756.11
515.4	9893.74
515.767	9957.46
516.135	9954.3
516.502	9888.54
516.869	10070.91
517.237	10157.23
517.604	10122.21
517.972	10289.88
518.339	10341.41
518.706	10309.77
519.073	10369.2
519.44	10412.59
519.808	10560.61
520.175	10535.75
520.542	10643.55
520.909	10800.61
521.276	10743.66
521.643	10876.31
522.009	10956.53
522.376	10958.79
522.743	11058
523.11	11161.73
523.477	11201.5
523.843	11338.67
524.21	11427.93
524.577	11516.52
524.943	11562.85
525.31	11597.65
525.676	11700.7
526.043	11716.29
526.409	11907.47
526.776	11985.89
527.142	11931.88
527.508	12083.28
527.874	12174.81
528.241	12165.99
528.607	12239.89
528.973	12342.03
529.339	12360.56
529.705	12473.56
530.071	12604.17
530.437	12575.7
530.803	12735.24
531.169	12734.34
531.535	12659.77
531.901	12800.78
532.267	12821.12
532.632	12999.64
532.998	13031.73
533.364	13129.13
533.73	13192.86
534.095	13274.67
534.461	13252.52
534.826	13318.73
535.192	13371.61
535.557	13465.17
535.923	13489.12
536.288	13495
536.653	13576.13
537.019	13594.43
537.384	13628.1
537.749	13805.05
538.114	13800.98
538.479	13819.06
538.845	13867.87
539.21	13889.11
539.575	13879.62
539.94	13948.77
540.305	14060.41
540.67	14111.03
541.034	14156.22
541.399	14269.44
541.764	14305.6
542.129	14366.61
542.494	14462.66
542.858	14446.61
543.223	14565.48
543.587	14623.33
543.952	14552.6
544.316	14675.53
544.681	14748.07
545.045	14821.07
545.41	14779.26
545.774	14898.13
546.138	14866.26
546.503	14959.14
546.867	14958.01
547.231	15185.35
547.595	15246.82
547.959	15148.74
548.324	15284.78
548.688	15235.52
549.052	15352.58
549.416	15480.26
549.779	15422.41
550.143	15434.61
550.507	15512.8
550.871	15645
551.235	15669.86
551.599	15819.23
551.962	15658.78
552.326	15774.94
552.689	15970.87
553.053	15850.64
553.417	15920.47
553.78	16054.03
554.143	16112.78
554.507	16102.39
554.87	16144.65
555.234	16337.41
555.597	16193.01
555.96	16334.7
556.323	16347.8
556.686	16390.29
557.05	16529.04
557.413	16590.74
557.776	16583.05
558.139	16749.83
558.502	16755.48
558.865	16883.16
559.228	16946.43
559.59	16933.55
559.953	16955.92
560.316	17171.51
560.679	17112.3
561.041	17209.93
561.404	17218.74
561.767	17379.64
562.129	17342.58
562.492	17516.81
562.854	17585.51
563.217	17564.95
563.579	17604.49
563.941	17732.4
564.304	17702.35
564.666	17905.05
565.028	17868.22
565.39	17971.04
565.753	18046.97
566.115	18161.32
566.477	18207.87
566.839	18270.47
567.201	18308.43
567.563	18411.93
567.925	18561.98
568.287	18520.4
568.648	18653.96
569.01	18757.68
569.372	18804.46
569.734	18741.64
570.095	18868.64
570.457	18928.75
570.819	18966.72
571.18	19085.36
571.542	19215.98
571.903	19231.34
572.265	19337.56
572.626	19401.28
572.987	19469.3
573.349	19549.75
573.71	19611.45
574.071	19705.23
574.432	19818.45
574.794	20044.2
575.155	20107.48
575.516	20097.54
575.877	20218.44
576.238	20259.57
576.599	20394.93
576.96	20472.89
577.32	20563.51
577.681	20689.84
578.042	20884.41
578.403	20959.21
578.763	21028.36
579.124	21147.9
579.485	21401.91
579.845	21508.12
580.206	21656.59
580.566	21711.73
580.927	21934.78
581.287	22094.77
581.648	22157.82
582.008	22386.97
582.368	22452.28
582.728	22647.98
583.089	22824.47
583.449	22937.69
583.809	23183.11
584.169	23414.06
584.529	23424.23
584.889	23780.38
585.249	23851.11
585.609	24016.53
585.969	24231.21
586.329	24346.46
586.688	24682.05
587.048	24890.86
587.408	25003.17
587.768	25059.21
588.127	25304.63
588.487	25627.33
588.846	25935.35
589.206	25982.13
589.565	26112.52
589.925	26505.5
590.284	26621.88
590.643	26823.69
591.003	27106.84
591.362	27395.65
591.721	27539.37
592.08	27762.87
592.44	28042.19
592.799	28227.49
593.158	28462.29
593.517	28605.79
593.876	28919.45
594.235	28996.96
594.593	29381.81
594.952	29491.19
595.311	29575.48
595.67	30038.07
596.029	30309.7
596.387	30446.42
596.746	30647.77
597.104	30799.85
597.463	30885.95
597.822	31206.4
598.18	31238.49
598.538	31470.8
598.897	31820.17
599.255	31794.18
599.613	32337.67
599.972	32355.29
600.33	32651.33
600.688	32717.32
601.046	32962.28
601.404	33143.3
601.762	33326.79
602.12	33611.08
602.478	33800.91
602.836	33886.33
603.194	33933.33
603.552	34202.7
603.91	34133.55
604.268	34593.65
604.625	34609.02
604.983	34771.05
605.341	34885.85
605.698	35183.92
606.056	35388.43
606.413	35420.3
606.771	35697.8
607.128	35745.49
607.485	35865.03
607.843	35916.56
608.2	36228.19
608.557	36386.6
608.914	36354.96
609.272	36678.8
609.629	36752.92
609.986	37022.29
610.343	37067.71
610.7	37427.93
611.057	37504.76
611.414	37581.14
611.771	37588.38
612.127	37807.13
612.484	37948.59
612.841	38146.78
613.198	38122.37
613.554	38234.23
613.911	38476.04
614.267	38565.75
614.624	38603.04
614.98	38796.03
615.337	38996.25
615.693	39004.84
616.05	39118.73
616.406	39504.26
616.762	39233.08
617.118	39489.34
617.475	39449.8
617.831	39642.79
618.187	39804.14
618.543	39869.67
618.899	40125.48
619.255	40034.41
619.611	40036.67
619.967	40301.07
620.323	40446.15
620.678	40224.92
621.034	40293.62
621.39	40220.62
621.746	40354.63
622.101	40778.8
622.457	40488.19
622.812	40684.79
623.168	40807.95
623.523	40819.48
623.879	41022.41
624.234	40686.6
624.589	40951
624.945	41136.76
625.3	41116.64
625.655	41217.43
626.01	41242.29
626.365	41355.51
626.72	41235.74
627.075	41362.51
627.43	41274.83
627.785	41377.88
628.14	41353.7
628.495	41371.1
628.85	41445.22
629.205	41310.76
629.559	41511.44
629.914	41346.7
630.269	41536.75
630.623	41497.2
630.978	41368.39
631.332	41622.17
631.687	41622.17
632.041	41522.51
632.396	41615.39
632.75	41394.38
633.104	41602.06
633.459	41386.47
633.813	41455.62
634.167	41486.35
634.521	41529.74
634.875	41532.68
635.229	41504.88
635.583	41401.38
635.937	41544.66
636.291	41490.19
636.645	41541.72
636.999	41440.03
637.352	41548.72
637.706	41374.94
638.06	41539.01
638.413	41470.99
638.767	41161.62
639.121	41312.12
639.474	41099.47
639.828	41190.99
640.181	41336.53
640.534	41281.84
640.888	41106.93
641.241	40935.41
641.594	41092.69
641.947	41190.09
642.301	41213.14
642.654	41288.84
643.007	41241.61
643.36	41280.03
643.713	41192.12
644.066	41125.23
644.419	40994.61
644.771	40839.14
645.124	40435.53
645.477	40208.42
645.83	40137.46
646.182	40002.78
646.535	39974.75
646.888	40067.41
647.24	39826.96
647.593	40127.52
647.945	39948.99
648.298	39734.08
648.65	39751.03
649.002	39535.22
649.355	39714.2
649.707	39771.37
650.059	39864.7
650.411	40300.17
650.763	40439.37
651.115	40737.22
651.467	40598.92
651.819	40542.2
652.171	40543.55
652.523	40446.61
652.875	40502.65
653.227	40215.43
653.578	40664.23
653.93	40508.75
654.282	40475.53
654.633	40274.86
654.985	40409.09
655.337	40406.38
655.688	40346.72
656.039	40483.89
656.391	40298.36
656.742	40329.32
657.094	40339.49
657.445	40482.76
657.796	40247.29
658.147	40271.02
658.498	40500.84
658.849	40331.13
659.2	40317.34
659.551	40215.88
659.902	40238.02
660.253	40146.05
660.604	40258.81
660.955	40105.82
661.306	40294.07
661.656	40191.02
662.007	40377.68
662.358	40191.92
662.708	40209.1
663.059	40093.17
663.409	39876.23
663.76	40287.29
664.11	40219.27
664.461	40285.93
664.811	40309.89
665.161	40190.79
665.511	40068.54
665.862	40062.21
666.212	40259.94
666.562	40225.82
666.912	40067.63
667.262	40077.58
667.612	40117.12
667.962	40121.19
668.312	40023.11
668.662	40144.92
669.011	40059.05
669.361	40142.89
669.711	40123.68
670.06	40014.53
670.41	39831.03
670.76	39896.34
671.109	39923
671.459	39958.94
671.808	39869.9
672.157	39991.25
672.507	39818.83
672.856	39723.01
673.205	39839.62
673.554	39845.04
673.904	39760.97
674.253	39926.85
674.602	39843.23
674.951	39295.22
675.3	39196.24
675.649	39833.06
675.998	39743.12
676.346	39700.18
676.695	39857.47
677.044	39600.98
677.393	39676.46
677.741	39712.39
678.09	39670.13
678.438	39440.98
678.787	39606.18
679.135	39491.6
679.484	39407.31
679.832	39514.65
680.181	39384.04
680.529	39361.89
680.877	39303.36
681.225	39263.36
681.573	39422
681.922	39227.65
682.27	38917.61
682.618	39158.28
682.966	38963.03
683.314	39002.8
683.661	38979.07
684.009	38851.17
684.357	38785.63
684.705	38612.3
685.053	38675.58
685.4	38675.81
685.748	38494.11
686.095	38482.82
686.443	38464.29
686.79	38465.64
687.138	38436.49
687.485	38322.14
687.832	38321.46
688.18	38283.27
688.527	38085.31
688.874	37967.12
689.221	37957.18
689.568	37859.33
689.915	37793.12
690.262	37879.67
690.609	37775.26
690.956	37673.57
691.303	37558.32
691.65	37414.14
691.997	37476.06
692.344	37279.91
692.69	37228.84
693.037	37241.72
693.383	36886.7
693.73	36992.46
694.077	36786.59
694.423	36686.7
694.769	36707.72
695.116	36613.71
695.462	36519.48
695.808	36377.56
696.155	36555.18
696.501	36227.96
696.847	36230.9
697.193	36081.97
697.539	36129.88
697.885	35905.48
698.231	35871.36
698.577	35926.27
698.923	35807.63
699.269	35673.85
699.614	35450.58
699.96	35370.13
700.306	35373.75
700.651	35297.59
700.997	35091.27
701.342	35143.69
701.688	35098.05
702.033	34972.17
702.379	34938.5
702.724	34696.93
703.069	34825.06
703.415	34318.63
703.76	34534.67
704.105	34483.37
704.45	34485.41
704.795	34164.74
705.14	34156.6
705.485	34128.13
705.83	34059.88
706.175	34038.86
706.52	33889.26
706.865	33776.95
707.209	33714.35
707.554	33696.95
707.899	33782.83
708.243	33571.98
708.588	33467.81
708.932	33269.85
709.277	33275.5
709.621	33347.36
709.966	33099.45
710.31	33117.31
710.654	32818.11
710.998	32908.05
711.342	32923.64
711.687	32858.56
712.031	32673.7
712.375	32616.98
712.719	32645.68
713.063	32463.77
713.407	32638
713.75	32463.77
714.094	32385.12
714.438	32318.91
714.782	32264.22
715.125	32264
715.469	32292.24
715.812	32026.49
716.156	31856.1
716.499	31957.79
716.843	32023.78
717.186	31731.58
717.53	31794.18
717.873	31855.65
718.216	31783.33
718.559	31501.53
718.902	31362.78
719.246	31447.75
719.589	31422.89
719.932	31410.69
720.275	31203.46
720.617	31335.66
720.96	31294.08
721.303	31095.21
721.646	31184.02
721.989	31043.92
722.331	31087.08
722.674	31043.92
723.016	30910.13
723.359	30889.34
723.701	30906.74
724.044	30649.35
724.386	30608.67
724.729	30745.39
725.071	30617.71
725.413	30608.22
725.755	30631.04
726.097	30328.68
726.439	30334.56
726.782	30372.07
727.124	30513.76
727.465	30344.72
727.807	30183.6
728.149	30232.19
728.491	30088.91
728.833	30170.04
729.175	30132.98
729.516	30005.07
729.858	29947
730.199	29975.02
730.541	29944.74
730.882	29822.93
731.224	29871.74
731.565	29771.18
731.906	29760.79
732.248	29743.16
732.589	29500.45
732.93	29568.7
733.271	29518.08
733.612	29566.21
733.953	29511.07
734.294	29515.82
734.635	29266.56
734.976	29419.33
735.317	29262.27
735.658	29224.3
735.999	29286.22
736.339	29140.69
736.68	29353.34
737.021	29168.03
737.361	29141.82
737.702	29150.86
738.042	29028.38
738.383	28990.86
738.723	28923.97
739.063	28883.52
739.404	28951.54
739.744	28822.28
740.084	28784.09
740.424	28775.05
740.764	28697.76
741.104	28824.09
741.444	28641.49
741.784	28580.25
742.124	28512.91
742.464	28521.95
742.804	28442.85
743.143	28442.18
743.483	28398.79
743.823	28228.62
744.162	28359.01
744.502	28355.85
744.841	28157.89
745.181	28255.29
745.52	28163.99
745.86	28123.77
746.199	28025.24
746.538	28047.16
746.877	28127.83
747.216	28062.75
747.556	27976.43
747.895	28001.51
748.234	27921.96
748.573	27761.06
748.911	27748.41
749.25	27688.98
749.589	27626.83
749.928	27620.95
750.267	27694.4
750.605	27568.07
750.944	27393.62
751.283	27378.48
751.621	27425.03
751.96	27362.66
752.298	27337.12
752.636	27328.08
752.975	27164.92
753.313	27007.64
753.651	27310.23
753.989	27107.52
754.327	27070.23
754.666	26940.97
755.004	27044.7
755.342	26913.63
755.679	26904.59
756.017	26741.88
756.355	26655.33
756.693	26620.75
757.031	26719.06
757.368	26564.49
757.706	26579.85
758.044	26460.99
758.381	26366.07
758.719	26388.22
759.056	26395.22
759.394	26159.3
759.731	26082.01
760.068	26053.99
760.405	25943.71
760.743	25909.14
761.08	25835.69
761.417	25709.82
761.754	25638.18
762.091	25612.65
762.428	25593.66
762.765	25443.84
763.102	25407.23
763.438	25295.82
763.775	25219.66
764.112	25332.88
764.449	25306.44
764.785	25128.59
765.122	25030.74
765.458	24905.32
765.795	24797.3
766.131	24785.1
766.467	24738.32
766.804	24584.2
767.14	24497.42
767.476	24486.8
767.812	24306.01
768.148	24416.07
768.485	24185.34
768.821	24084.78
769.157	24047.26
769.492	24035.51
769.828	23939.47
770.164	23826.03
770.5	23777.89
770.836	23797.1
771.171	23585.13
771.507	23566.37
771.842	23337.68
772.178	23442.53
772.513	23264.01
772.849	23245.02
773.184	23222.2
773.519	23167.29
773.855	22961.64
774.19	22883
774.525	22765.94
774.86	22777.69
775.195	22876.22
775.53	22802.32
775.865	22607.08
776.2	22417.02
776.535	22316.91
776.87	22275.11
777.205	22211.38
777.539	22124.6
777.874	22184.04
778.209	21841.45
778.543	21892.07
778.878	21803.03
779.212	21799.19
779.547	21685.74
779.881	21607.78
780.215	21446.88
780.55	21446.65
780.884	21406.65
781.218	21277.39
781.552	21265.42
781.886	21110.17
782.22	21035.59
782.554	20981.81
782.888	20662.95
783.222	20761.02
783.556	20603.06
783.889	20608.48
784.223	20372.78
784.557	20504.08
784.89	20452.33
785.224	20314.93
785.557	20246.23
785.891	20260.7
786.224	20185.9
786.558	20032.91
786.891	19923.98
787.224	19851.89
787.557	19733.7
787.891	19810.76
788.224	19813.48
788.557	19697.32
788.89	19689.19
789.223	19565.35
789.556	19467.72
789.888	19389.76
790.221	19298.46
790.554	19253.26
790.887	19239.03
791.219	19119.03
791.552	19033.38
791.884	18945.25
792.217	18948.64
792.549	18917.68
792.882	18665.26
793.214	18767.63
793.546	18655.77
793.879	18549.33
794.211	18568.31
794.543	18552.94
794.875	18443.12
795.207	18475.88
795.539	18351.37
795.871	18305.49
796.203	18071.6
796.535	18044.94
796.867	18022.34
797.198	17964.26
797.53	17976.01
797.862	17897.37
798.193	17926.29
798.525	17706.86
798.856	17758.61
799.188	17685.62
799.519	17517.49
799.85	17418.51
800.182	17474.78
800.513	17484.27
800.844	17311.17
801.175	17359.08
801.506	17362.47
801.837	17246.54
802.168	17142.81
802.499	17021.46
802.83	17064.17
803.161	17049.03
803.491	16954.57
803.822	17028.01
804.153	16839.77
804.483	16755.7
804.814	16634.58
805.145	16720
805.475	16649.72
805.805	16533.79
806.136	16572.88
806.466	16520.68
806.796	16537.18
807.126	16402.72
807.457	16356.17
807.787	16316.39
808.117	16227.36
808.447	16183.29
808.777	16206.11
809.107	16251.99
809.436	16018.55
809.766	16063.29
810.096	15951.66
810.426	16035.72
810.755	15910.3
811.085	15852.45
811.414	15889.96
811.744	15766.58
812.073	15746.46
812.403	15674.38
812.732	15651.55
813.061	15593.02
813.39	15515.06
813.719	15557.54
814.049	15584.21
814.378	15466.7
814.707	15364.78
815.036	15383.08
815.365	15297.89
815.693	15212.24
816.022	15232.81
816.351	15229.42
816.68	15148.06
817.008	15110.77
817.337	15042.75
817.665	14965.24
817.994	15037.78
818.322	14941.51
818.651	14968.63
818.979	14797.11
819.307	14885.02
819.636	14827.39
819.964	14748.98
820.292	14811.35
820.62	14817.22
820.948	14692.71
821.276	14765.7
821.604	14723.44
821.932	14741.75
822.259	14713.95
822.587	14726.38
822.915	14704.23
823.243	14716.44
823.57	14715.08
823.898	14652.48
824.225	14709.43
824.553	14721.18
824.88	14669.88
825.207	14623.33
825.535	14690.9
825.862	14746.72
826.189	14621.52
826.516	14664.23
826.843	14690.67
827.17	14688.41
827.497	14669.66
827.824	14678.47
828.151	14617
828.478	14574.29
828.805	14770.67
829.131	14638.25
829.458	14562.77
829.785	14554.63
830.111	14603.67
830.438	14697.45
830.764	14564.35
831.09	14582.65
831.417	14538.81
831.743	14566.83
832.069	14549.21
832.395	14477.8
832.722	14555.31
833.048	14460.85
833.374	14522.77
833.7	14458.14
834.026	14520.06
834.351	14432.83
834.677	14493.84
835.003	14497.46
835.329	14419.27
835.654	14454.52
835.98	14366.84
836.306	14350.12
836.631	14359.38
836.956	14340.63
837.282	14376.56
837.607	14236.22
837.932	14217.01
838.258	14191.25
838.583	14193.74
838.908	14095.43
839.233	14191.93
839.558	14193.74
839.883	14085.04
840.208	13961.65
840.533	13979.73
840.858	14032.84
841.182	14000.75
841.507	13931.14
841.832	13898.15
842.156	13925.72
842.481	13894.54
842.805	13846.63
843.13	13813.18
843.454	13794.2
843.778	13765.5
844.103	13739.51
844.427	13674.2
844.751	13698.16
845.075	13674.65
845.399	13600.76
845.723	13531.61
846.047	13556.92
846.371	13438.28
846.695	13408.67
847.019	13290.71
847.343	13267.43
847.666	13144.5
847.99	13132.75
848.313	13073.99
848.637	12971.4
848.96	13037.61
849.284	12975.69
849.607	12971.17
849.931	12819.31
850.254	12786.32
850.577	12692.31
850.9	12697.05
851.223	12657.05
851.546	12587.23
851.869	12538.19
852.192	12522.59
852.515	12451.64
852.838	12395.59
853.161	12383.84
853.483	12336.38
853.806	12245.77
854.129	12281.92
854.451	12216.84
854.774	12218.87
855.096	12110.85
855.419	12048.26
855.741	12059.1
856.063	11965.32
856.385	12004.19
856.708	11813.01
857.03	11885.55
857.352	11876.96
857.674	11811.88
857.996	11751.09
858.318	11740.92
858.64	11662.5
858.961	11627.25
859.283	11660.24
859.605	11571.43
859.926	11601.04
860.248	11556.97
860.57	11451.21
860.891	11457.31
861.212	11486.69
861.534	11347.94
861.855	11369.63
862.176	11371.44
862.498	11377.54
862.819	11382.29
863.14	11299.8
863.461	11257.54
863.782	11239.92
864.103	11285.11
864.424	11230.88
864.745	11259.35
865.065	11189.3
865.386	11106.36
865.707	11064.55
866.027	11068.4
866.348	11123.76
866.668	11136.87
866.989	11072.46
867.309	10977.32
867.63	11036.31
867.95	10995.63
868.27	10927.61
868.59	10952.92
868.91	10885.8
869.23	10889.42
869.55	10841.28
869.87	10925.57
870.19	10863.88
870.51	10851.23
870.83	10906.14
871.15	10760.38
871.469	10813.03
871.789	10801.28
872.109	10749.76
872.428	10702.08
872.748	10704.11
873.067	10669.54
873.386	10723.32
873.706	10772.36
874.025	10593.38
874.344	10616.88
874.663	10587.28
874.982	10568.52
875.301	10565.36
875.62	10585.92
875.939	10516.55
876.258	10494.63
876.577	10456.89
876.896	10517.9
877.214	10490.56
877.533	10448.3
877.852	10414.85
878.17	10459.15
878.489	10437.68
878.807	10403.55
879.125	10365.36
879.444	10337.79
879.762	10287.85
880.08	10317.45
880.398	10232.71
880.716	10297.34
881.034	10277.68
881.352	10323.33
881.67	10251.02
881.988	10214.18
882.306	10138.7
882.624	10143.22
882.941	10083.11
883.259	10068.87
883.577	10060.29
883.894	10034.3
884.212	9980.97
884.529	10011.7
884.846	9943.45
885.164	9931.02
885.481	9888.99
885.798	9988.65
886.115	9808.54
886.432	9848.99
886.75	9862.55
887.067	9895.54
887.383	9780.07
887.7	9810.12
888.017	9666.85
888.334	9772.84
888.651	9691.48
888.967	9655.33
889.284	9656.68
889.6	9616.46
889.917	9577.81
890.233	9595.21
890.55	9582.11
890.866	9491.04
891.182	9480.41
891.498	9413.07
891.815	9491.04
892.131	9460.53
892.447	9404.03
892.763	9365.84
893.079	9312.96
893.395	9331.72
893.71	9289.01
894.026	9341.66
894.342	9228.22
894.657	9114.1
894.973	9252.4
895.289	9189.57
895.604	9147.77
895.92	9067.32
896.235	9029.58
896.55	9065.28
896.865	8979.18
897.181	8950.48
897.496	8900.77
897.811	8886.76
898.126	8833.88
898.441	8802.24
898.756	8771.05
899.071	8696.48
899.386	8743.03
899.7	8691.51
900.015	8609.03
900.33	8580.33
900.644	8587.56
900.959	8614
901.273	8570.83
901.588	8481.8
901.902	8446.77
902.216	8485.19
902.531	8449.93
902.845	8388.92
903.159	8329.48
903.473	8340.56
903.787	8277.06
904.101	8217.85
904.415	8272.99
904.729	8236.61
905.042	8163.61
905.356	8136.04
905.67	8113.9
905.984	8126.1
906.297	8091.3
906.611	8068.25
906.924	7987.12
907.237	7967.46
907.551	7918.2
907.864	7889.27
908.177	7860.34
908.491	7870.29
908.804	7821.93
909.117	7784.19
909.43	7694.7
909.743	7698.99
910.056	7676.17
910.368	7632.55
910.681	7561.82
910.994	7606.34
911.307	7577.19
911.619	7552.78
911.932	7542.61
912.244	7439.56
912.557	7424.42
912.869	7416.97
913.181	7369.96
913.494	7404.76
913.806	7394.14
914.118	7291.77
914.43	7263.3
914.742	7241.83
915.054	7188.27
915.366	7142.62
915.678	7120.48
915.99	7092.23
916.302	7030.76
916.613	6993.47
916.925	6997.54
917.236	7012.23
917.548	6935.4
917.859	6967.03
918.171	6887.94
918.482	6885.91
918.794	6842.97
919.105	6865.79
919.416	6807.26
919.727	6782.86
920.038	6702.86
920.349	6715.29
920.66	6634.84
920.971	6684.78
921.282	6588.97
921.593	6529.31
921.903	6578.12
922.214	6482.3
922.525	6497.89
922.835	6421.06
923.146	6506.48
923.456	6410.89
923.767	6405.24
924.077	6406.82
924.387	6337.9
924.697	6352.36
925.008	6329.08
925.318	6242.53
925.628	6251.57
925.938	6236.43
926.248	6169.99
926.558	6100.84
926.867	6129.09
927.177	6095.19
927.487	6038.7
927.796	6019.49
928.106	6045.02
928.416	6028.3
928.725	6009.09
929.034	5897.46
929.344	5946.5
929.653	5916.67
929.962	5897.68
930.271	5822.21
930.581	5825.6
930.89	5772.04
931.199	5796.44
931.508	5758.7
931.817	5740.17
932.125	5697.69
932.434	5728.42
932.743	5634.41
933.051	5630.12
933.36	5588.09
933.669	5576.34
933.977	5537.02
934.286	5525.26
934.594	5566.85
934.902	5503.34
935.21	5494.76
935.519	5475.32
935.827	5427.64
936.135	5397.58
936.443	5313.74
936.751	5392.39
937.059	5341.99
937.367	5304.71
937.674	5318.94
937.982	5261.54
938.29	5223.58
938.597	5222.45
938.905	5195.33
939.213	5144.03
939.52	5139.06
939.827	5147.87
940.135	5109
940.442	5078.72
940.749	5120.08
941.056	5079.85
941.363	5000.31
941.67	5029.01
941.977	4959.86
942.284	4982.45
942.591	4960.31
942.898	4905.85
943.205	4891.16
943.511	4884.6
943.818	4851.16
944.125	4835.79
944.431	4859.97
944.738	4771.16
945.044	4760.54
945.35	4752.4
945.657	4721.22
945.963	4696.13
946.269	4697.26
946.575	4636.02
946.881	4651.61
947.187	4613.65
947.493	4639.41
947.799	4609.58
948.105	4593.31
948.41	4511.05
948.716	4536.82
949.022	4450.94
949.327	4465.63
949.633	4428.8
949.938	4400.55
950.244	4459.08
950.549	4377.5
950.854	4385.86
951.16	4351.06
951.465	4374.79
951.77	4353.77
952.075	4290.72
952.38	4263.83
952.685	4304.96
952.99	4256.82
953.294	4253.43
953.599	4202.81
953.904	4203.04
954.209	4125.53
954.513	4144.74
954.818	4130.72
955.122	4153.32
955.426	4091.4
955.731	4115.36
956.035	4048.24
956.339	4037.62
956.643	4024.74
956.948	4027
957.252	3986.77
957.556	3960.56
957.86	3972.99
958.163	3952.65
958.467	3951.75
958.771	3919.88
959.075	3915.36
959.378	3882.14
959.682	3897.06
959.985	3861.35
960.289	3802.15
960.592	3812.99
960.896	3787.68
961.199	3774.8
961.502	3746.55
961.805	3730.51
962.108	3716.72
962.411	3737.06
962.714	3721.47
963.017	3685.99
963.32	3674.47
963.623	3667.46
963.926	3648.7
964.228	3620.46
964.531	3638.31
964.833	3595.37
965.136	3573.68
965.438	3541.59
965.741	3528.93
966.043	3518.76
966.345	3588.14
966.648	3522.15
966.95	3473.11
967.252	3431.53
967.554	3445.54
967.856	3430.4
968.158	3401.7
968.46	3419.56
968.761	3392.44
969.063	3402.61
969.365	3347.02
969.666	3339.79
969.968	3363.51
970.269	3311.09
970.571	3333.68
970.872	3267.24
971.174	3318.32
971.475	3267.92
971.776	3315.15
972.077	3256.62
972.378	3266.11
972.679	3185.89
972.98	3233.57
973.281	3197.42
973.582	3166.68
973.883	3169.62
974.183	3177.3
974.484	3137.98
974.785	3111.54
975.085	3111.77
975.386	3110.64
975.686	3068.15
975.986	3075.16
976.287	3026.35
976.587	2986.12
976.887	2998.78
977.187	3013.69
977.487	2989.51
977.787	2965.11
978.087	2957.2
978.387	2941.15
978.687	2926.01
978.987	2911.32
979.286	2922.62
979.586	2922.62
979.885	2857.09
980.185	2888.95
980.484	2871.77
980.784	2835.17
981.083	2846.92
981.382	2794.94
981.682	2833.58
981.981	2797.65
982.28	2779.35
982.579	2780.7
982.878	2760.59
983.177	2763.3
983.475	2738.22
983.774	2726.02
984.073	2672.46
984.372	2650.31
984.67	2677.66
984.969	2697.09
985.267	2665.68
985.566	2652.57
985.864	2670.88
986.162	2668.39
986.461	2599.92
986.759	2601.5
987.057	2581.16
987.355	2563.08
987.653	2570.54
987.951	2570.54
988.249	2572.12
988.547	2565.12
988.844	2526.47
989.142	2560.6
989.44	2475.18
989.737	2473.14
990.035	2469.3
990.332	2465.01
990.63	2447.15
990.927	2432.92
991.224	2464.78
991.521	2430.66
991.819	2401.05
992.116	2397.66
992.413	2403.31
992.71	2374.39
993.006	2374.16
993.303	2349.75
993.6	2380.26
993.897	2294.16
994.193	2348.85
994.49	2272.47
994.787	2296.2
995.083	2261.4
995.379	2283.77
995.676	2265.24
995.972	2273.6
996.268	2261.85
996.565	2213.94
996.861	2187.5
997.157	2216.42
997.453	2188.85
997.749	2179.36
998.044	2167.61
998.34	2183.43
998.636	2180.27
998.932	2163.09
999.227	2149.76
999.523	2114.51
999.818	2146.37
1000.114	2124.45
1000.409	2053.49
1000.704	2089.2
1001	2075.86
1001.295	2098.01
1001.59	2056.43
1001.885	2038.58
1002.18	2027.96
1002.475	2031.34
1002.77	1978.69
1003.065	1996.77
1003.359	2000.84
1003.654	1974.17
1003.949	1958.8
1004.243	1957.67
1004.538	1878.58
1004.832	1945.02
1005.127	1934.62
1005.421	1892.14
1005.715	1896.43
1006.009	1909.09
1006.304	1911.12
1006.598	1866.38
1006.892	1850.11
1007.186	1861.63
1007.48	1857.56
1007.773	1825.02
1008.067	1841.75
1008.361	1823.21
1008.655	1819.83
1008.948	1800.62
1009.242	1753.61
1009.535	1766.49
1009.829	1759.04
1010.122	1755.65
1010.415	1768.3
1010.708	1726.95
1011.001	1734.63
1011.295	1723.78
1011.588	1708.19
1011.881	1706.83
1012.173	1687.17
1012.466	1670.9
1012.759	1665.25
1013.052	1651.92
1013.344	1635.2
1013.637	1653.73
1013.93	1625.71
1014.222	1599.04
1014.514	1613.28
1014.807	1598.36
1015.099	1599.49
1015.391	1584.8
1015.683	1555.88
1015.976	1542.77
1016.268	1546.84
1016.56	1546.16
1016.851	1517.01
1017.143	1532.37
1017.435	1517.23
1017.727	1506.84
1018.018	1487.86
1018.31	1486.95
1018.602	1475.88
1018.893	1458.48
1019.185	1445.6
1019.476	1451.02
1019.767	1413.06
1020.058	1440.85
1020.35	1427.97
1020.641	1427.52
1020.932	1412.38
1021.223	1396.11
1021.514	1350.68
1021.804	1367.86
1022.095	1368.31
1022.386	1364.47
1022.677	1345.26
1022.967	1332.83
1023.258	1316.79
1023.548	1326.73
1023.839	1306.84
1024.129	1291.25
1024.419	1301.65
1024.709	1275.66
1025	1260.97
1025.29	1284.7
1025.58	1265.94
1025.87	1270.23
1026.16	1259.61
1026.449	1228.43
1026.739	1250.35
1027.029	1243.57
1027.319	1200.63
1027.608	1212.61
1027.898	1223.68
1028.187	1212.61
1028.477	1170.12
1028.766	1199.5
1029.055	1199.28
1029.344	1142.55
1029.634	1161.09
1029.923	1166.73
1030.212	1128.54
1030.501	1141.2
1030.79	1134.42
1031.078	1101.2
1031.367	1109.79
1031.656	1102.33
1031.945	1110.92
1032.233	1084.7
1032.522	1095.55
1032.81	1084.48
1033.099	1076.34
1033.387	1081.09
1033.675	1069.34
1033.963	1039.51
1034.251	1028.43
1034.54	1030.02
1034.828	1013.97
1035.116	1013.29
1035.403	1024.14
1035.691	1017.13
1035.979	1000.86
1036.267	1017.13
1036.554	981.43
1036.842	961.99
1037.129	1001.54
1037.417	969
1037.704	948.66
1037.992	933.97
1038.279	950.92
1038.566	918.38
1038.853	918.38
1039.14	918.38
