Data from hue_40_FLMS001491_10.txt Node
Date: Mon Feb 06 15:07:22 GMT 2017
User: dcchb
Spectrometer: FLMS00149
Trigger mode: 0
Integration Time (sec): 2.000000E-2
Scans to average: 10
Electric dark correction enabled: true
Nonlinearity correction enabled: false
Boxcar width: 0
XAxis mode: Wavelengths
Number of Pixels in Spectrum: 2048
>>>>>Begin Spectral Data<<<<<
341.393	-16.58
341.776	-16.58
342.16	-16.58
342.543	-72.4
342.927	-84.83
343.31	-56.35
343.693	-71.04
344.077	-53.42
344.46	-66.98
344.843	-60.42
345.226	-44.83
345.61	-42.12
345.993	-12.74
346.376	4.66
346.759	-17.26
347.142	24.77
347.525	50.99
347.908	52.57
348.291	89.4
348.674	98.9
349.057	103.87
349.44	133.7
349.823	135.96
350.206	153.81
350.588	196.97
350.971	224.09
351.354	211.44
351.737	236.07
352.119	259.12
352.502	257.99
352.884	280.59
353.267	293.24
353.65	300.7
354.032	309.74
354.414	297.76
354.797	298.21
355.179	301.6
355.562	332.34
355.944	337.08
356.326	342.05
356.709	332.34
357.091	329.17
357.473	333.92
357.855	351.32
358.238	366.23
358.62	347.93
359.002	335.05
359.384	353.58
359.766	339.79
360.148	342.96
360.53	347.02
360.912	341.83
361.294	342.51
361.676	318.55
362.057	328.95
362.439	339.79
362.821	326.91
363.203	349.74
363.584	319.68
363.966	304.99
364.348	330.53
364.729	334.82
365.111	316.52
365.493	329.4
365.874	302.51
366.256	316.52
366.637	312.45
367.019	311.55
367.4	308.83
367.781	302.05
368.163	289.85
368.544	317.2
368.925	310.42
369.306	302.73
369.688	330.53
370.069	318.78
370.45	306.35
370.831	313.35
371.212	330.75
371.593	296.18
371.974	306.35
372.355	316.29
372.736	322.17
373.117	310.42
373.498	310.42
373.879	319.91
374.26	318.1
374.641	323.75
375.021	311.32
375.402	333.24
375.783	335.5
376.163	344.09
376.544	319.23
376.925	334.37
377.305	333.92
377.686	336.18
378.066	331.66
378.447	348.83
378.827	326.01
379.208	329.17
379.588	326.69
379.968	323.07
380.349	321.71
380.729	345.44
381.109	337.53
381.489	348.61
381.87	343.64
382.25	317.87
382.63	345.89
383.01	327.59
383.39	337.76
383.77	355.16
384.15	363.07
384.53	347.93
384.91	354.48
385.29	371.88
385.67	365.56
386.049	358.78
386.429	359
386.809	355.84
387.189	343.86
387.568	336.18
387.948	359.45
388.328	352.9
388.707	372.79
389.087	359.23
389.466	359.45
389.846	377.31
390.225	352.22
390.605	367.36
390.984	385.67
391.363	342.51
391.743	353.13
392.122	374.14
392.501	385.89
392.881	379.57
393.26	363.3
393.639	383.18
394.018	392.45
394.397	374.59
394.776	393.58
395.155	389.51
395.534	386.57
395.913	383.18
396.292	391.54
396.671	398.77
397.05	386.12
397.429	384.54
397.808	360.58
398.186	386.12
398.565	393.58
398.944	386.35
399.323	415.72
399.701	401.26
400.08	397.64
400.458	394.93
400.837	384.76
401.215	397.64
401.594	390.19
401.972	397.87
402.351	401.71
402.729	396.51
403.107	415.95
403.486	423.86
403.864	421.15
404.242	402.39
404.62	403.07
404.999	440.36
405.377	437.87
405.755	417.08
406.133	425.67
406.511	415.5
406.889	437.19
407.267	431.77
407.645	437.87
408.023	420.02
408.401	456.17
408.779	456.17
409.156	428.38
409.534	443.52
409.912	413.46
410.29	428.6
410.667	460.69
411.045	448.49
411.422	479.22
411.8	470.64
412.178	457.76
412.555	460.24
412.933	454.37
413.31	448.27
413.687	481.71
414.065	492.78
414.442	468.15
414.819	474.03
415.197	491.2
415.574	486.68
415.951	482.61
416.328	513.12
416.705	482.84
417.082	518.77
417.46	497.98
417.837	524.42
418.214	511.09
418.591	539.56
418.967	507.25
419.344	511.99
419.721	520.35
420.098	512.67
420.475	537.75
420.852	528.49
421.228	535.27
421.605	538.43
421.982	537.3
422.358	535.72
422.735	560.13
423.111	572.33
423.488	550.86
423.864	551.09
424.241	573.23
424.617	553.57
424.994	559.45
425.37	579.56
425.746	563.06
426.123	565.55
426.499	610.29
426.875	599.9
427.251	608.94
427.627	606.23
428.003	601.48
428.379	608.94
428.756	606.68
429.132	626.57
429.507	609.84
429.883	603.74
430.259	612.78
430.635	646.45
431.011	625.21
431.387	655.27
431.763	653.01
432.138	643.74
432.514	636.06
432.89	652.78
433.265	660.24
433.641	689.84
434.016	671.76
434.392	660.24
434.767	681.25
435.143	680.12
435.518	708.37
435.894	718.31
436.269	709.05
436.644	719.22
437.02	710.63
437.395	726.68
437.77	733.23
438.145	725.32
438.52	760.12
438.895	756.28
439.271	745.21
439.646	746.79
440.021	766.9
440.395	772.1
440.77	764.19
441.145	771.42
441.52	794.47
441.895	792.44
442.27	771.19
442.645	789.27
443.019	788.37
443.394	814.36
443.769	786.34
444.143	801.02
444.518	806.45
444.892	824.98
445.267	845.32
445.641	820.01
446.016	818.2
446.39	840.12
446.764	832.66
447.139	843.51
447.513	843.06
447.887	860.46
448.262	842.38
448.636	875.82
449.01	868.59
449.384	892.32
449.758	881.7
450.132	920.12
450.506	898.87
450.88	891.64
451.254	901.36
451.628	921.47
452.002	934.58
452.376	932.55
452.75	919.21
453.123	918.31
453.497	934.35
453.871	966.44
454.244	981.81
454.618	974.8
454.992	961.92
455.365	950.62
455.739	1010.51
456.112	1043.96
456.486	1031.75
456.859	1043.5
457.232	1046.89
457.606	1048.93
457.979	1036.95
458.352	1080.79
458.725	1072.43
459.099	1082.6
459.472	1125.31
459.845	1116.95
460.218	1131.86
460.591	1126.89
460.964	1157.17
461.337	1168.02
461.71	1149.49
462.083	1208.02
462.456	1210.28
462.829	1211.63
463.201	1219.54
463.574	1269.26
463.947	1262.93
464.32	1288.92
464.692	1292.99
465.065	1299.99
465.438	1302.93
465.81	1321.69
466.183	1353.1
466.555	1365.98
466.928	1397.62
467.3	1391.29
467.672	1419.54
468.045	1459.31
468.417	1465.87
468.789	1481.46
469.161	1489.37
469.534	1528.69
469.906	1544.06
470.278	1561
470.65	1549.25
471.022	1617.05
471.394	1636.03
471.766	1683.94
472.138	1708.34
472.51	1706.09
472.882	1752.64
473.253	1774.56
473.625	1808.91
473.997	1862.01
474.369	1887.32
474.74	1914.44
475.112	1930.49
475.484	2006.19
475.855	2049.13
476.227	2088
476.598	2152.4
476.97	2187.65
477.341	2210.03
477.713	2242.79
478.084	2292.28
478.455	2370.47
478.827	2459.96
479.198	2487.08
479.569	2502.67
479.94	2594.42
480.311	2691.6
480.682	2740.41
481.053	2838.94
481.424	2884.81
481.795	2958.03
482.166	3019.27
482.537	3101.75
482.908	3173.17
483.279	3217.46
483.65	3318.47
484.021	3401.18
484.391	3528.41
484.762	3526.15
485.133	3647.28
485.503	3675.52
485.874	3822.41
486.244	3853.37
486.615	3972.47
486.985	4082.07
487.356	4148.28
487.726	4261.5
488.097	4364.09
488.467	4450.42
488.837	4579.91
489.207	4637.76
489.578	4750.98
489.948	4841.82
490.318	4951.88
490.688	5003.85
491.058	5159.33
491.428	5216.5
491.798	5392.32
492.168	5481.35
492.538	5612.65
492.908	5647.68
493.278	5794.57
493.648	5831.17
494.017	6002.02
494.387	6084.95
494.757	6152.3
495.126	6246.08
495.496	6341.9
495.866	6391.61
496.235	6518.39
496.605	6663.24
496.974	6711.6
497.344	6851.26
497.713	6922.45
498.082	7049.67
498.452	7092.84
498.821	7193.85
499.19	7267.52
499.559	7391.36
499.928	7470.45
500.298	7510.68
500.667	7625.48
501.036	7692.59
501.405	7807.39
501.774	7848.3
502.143	7988.18
502.512	8020.5
502.88	8178.68
503.249	8199.25
503.618	8255.97
503.987	8315.18
504.356	8423.65
504.724	8513.36
505.093	8654.38
505.462	8653.7
505.83	8831.32
506.199	8879.91
506.567	9010.75
506.936	9000.81
507.304	9148.83
507.672	9149.96
508.041	9268.15
508.409	9324.64
508.777	9468.82
509.145	9542.72
509.514	9554.92
509.882	9715.59
510.25	9730.96
510.618	9848.7
510.986	9828.13
511.354	9899.54
511.722	10046.88
512.09	10209.14
512.458	10138.86
512.826	10267.22
513.193	10329.14
513.561	10363.71
513.929	10444.84
514.297	10596.02
514.664	10573.87
515.032	10757.82
515.4	10784.94
515.767	10881.21
516.135	10867.88
516.502	10910.14
516.869	11079.4
517.237	11110.13
517.604	11072.17
517.972	11299.73
518.339	11278.26
518.706	11310.58
519.073	11458.82
519.44	11442.55
519.808	11577.46
520.175	11590.8
520.542	11772.71
520.909	11816.55
521.276	11826.95
521.643	11929.55
522.009	11985.36
522.376	12088.64
522.743	12182.87
523.11	12212.93
523.477	12407.5
523.843	12421.96
524.21	12571.34
524.577	12618.11
524.943	12780.6
525.31	12839.58
525.676	12835.74
526.043	12951.89
526.409	12974.26
526.776	13130.87
527.142	13194.82
527.508	13279.11
527.874	13390.75
528.241	13436.62
528.607	13585.55
528.973	13566.79
529.339	13573.34
529.705	13749.84
530.071	13882.49
530.437	13914.35
530.803	14098.08
531.169	14075.03
531.535	14146.44
531.901	14153.89
532.267	14284.51
532.632	14327.9
532.998	14458.74
533.364	14476.82
533.73	14505.75
534.095	14645.63
534.461	14651.51
534.826	14736.02
535.192	14807.66
535.557	14891.73
535.923	14959.3
536.288	14958.84
536.653	15054.66
537.019	15025.51
537.384	15150.7
537.749	15216.69
538.114	15333.75
538.479	15275.9
538.845	15391.15
539.21	15372.84
539.575	15452.62
539.94	15528.55
540.305	15606.28
540.67	15619.84
541.034	15754.53
541.399	15788.88
541.764	15835.43
542.129	15870.23
542.494	15960.63
542.858	15933.96
543.223	16035.65
543.587	16215.08
543.952	16169.21
544.316	16211.01
544.681	16293.72
545.045	16333.05
545.41	16379.15
545.774	16479.93
546.138	16551.57
546.503	16597.67
546.867	16600.38
547.231	16756.54
547.595	16771.68
547.959	16931.22
548.324	16849.64
548.688	16970.09
549.052	16985.46
549.416	16976.87
549.779	17057.32
550.143	17121.95
550.507	17228.16
550.871	17262.51
551.235	17310.87
551.599	17434.71
551.962	17441.72
552.326	17487.59
552.689	17621.37
553.053	17528.04
553.417	17614.59
553.78	17794.93
554.143	17801.48
554.507	17809.62
554.87	17845.32
555.234	18090.74
555.597	17930.97
555.96	18074.24
556.323	18108.59
556.686	18144.3
557.05	18354.01
557.413	18264.75
557.776	18422.71
558.139	18603.04
558.502	18524.85
558.865	18577.28
559.228	18696.15
559.59	18791.51
559.953	18756.03
560.316	19009.36
560.679	18965.07
561.041	19045.06
561.404	19246.64
561.767	19280.54
562.129	19295
562.492	19471.49
562.854	19426.3
563.217	19453.19
563.579	19532.06
563.941	19598.95
564.304	19671.71
564.666	19822.44
565.028	19864.03
565.39	19899.51
565.753	20066.05
566.115	20033.96
566.477	20047.75
566.839	20105.83
567.201	20258.14
567.563	20342.66
567.925	20563.89
568.287	20423.11
568.648	20503.1
569.01	20734.29
569.372	20749.88
569.734	20721.86
570.095	20840.27
570.457	21074.16
570.819	21023.09
571.18	21137.66
571.542	21261.5
571.903	21384.44
572.265	21347.6
572.626	21589.4
572.987	21585.34
573.349	21706.24
573.71	21763.64
574.071	21887.93
574.432	21903.29
574.794	22142.84
575.155	22206.11
575.516	22137.64
575.877	22324.75
576.238	22329.05
576.599	22550.96
576.96	22591.64
577.32	22657.17
577.681	22794.57
578.042	22947.11
578.403	23048.35
578.763	23086.77
579.124	23162.02
579.485	23417.15
579.845	23483.59
580.206	23690.14
580.566	23750.25
580.927	23915.67
581.287	24155.21
581.648	24037.25
582.008	24366.28
582.368	24471.36
582.728	24646.27
583.089	24747.97
583.449	24933.95
583.809	25074.06
584.169	25272.25
584.529	25413.03
584.889	25696.87
585.249	25816.41
585.609	25776.64
585.969	26258.66
586.329	26371.2
586.688	26508.6
587.048	26642.83
587.408	26733.45
587.768	27003.27
588.127	27100.22
588.487	27272.19
588.846	27665.85
589.206	27556.03
589.565	27836.25
589.925	28098.84
590.284	28286.63
590.643	28538.37
591.003	28677.58
591.362	28928.87
591.721	29050.45
592.08	29219.26
592.44	29445.24
592.799	29616.54
593.158	29747.61
593.517	29911.9
593.876	30082.06
594.235	30324.54
594.593	30434.37
594.952	30660.13
595.311	30686.57
595.67	31015.14
596.029	31398.19
596.387	31597.5
596.746	31685.64
597.104	31625.75
597.463	31890.83
597.822	32115.45
598.18	32202.01
598.538	32419.85
598.897	32605.61
599.255	32532.62
599.613	33186.61
599.972	33046.28
600.33	33346.38
600.688	33425.93
601.046	33621.4
601.404	33916.31
601.762	33949.98
602.12	34220.94
602.478	34339.58
602.836	34475.17
603.194	34375.28
603.552	34609.85
603.91	34674.94
604.268	35034.93
604.625	34863.18
604.983	35302.49
605.341	35027.02
605.698	35494.35
606.056	35751.07
606.413	35769.37
606.771	35961
607.128	36004.39
607.485	35935.69
607.843	36179.08
608.2	36485.74
608.557	36711.27
608.914	36518.73
609.272	36859.74
609.629	36970.24
609.986	37212.04
610.343	37138.37
610.7	37480.74
611.057	37467.4
611.414	37445.03
611.771	37717.57
612.127	37784.68
612.484	37808.64
612.841	38052.25
613.198	37926.6
613.554	38192.81
613.911	38355.97
614.267	38506.93
614.624	38549.41
614.98	38615.85
615.337	38766.13
615.693	38769.97
616.05	38713.25
616.406	39026.91
616.762	38917.31
617.118	39066.01
617.475	39278.2
617.831	39266.45
618.187	39403.62
618.543	39418.09
618.899	39795.71
619.255	39659.44
619.611	39859.88
619.967	39815.59
620.323	39992.08
620.678	39979.43
621.034	39867.12
621.39	39973.33
621.746	39846.33
622.101	40420.32
622.457	40150.95
622.812	40152.31
623.168	40364.5
623.523	40344.84
623.879	40499.19
624.234	40365.18
624.589	40464.61
624.945	40439.08
625.3	40669.81
625.655	40482.92
626.01	40741.22
626.365	40658.73
626.72	40602.01
627.075	40934.66
627.43	40682.24
627.785	40771.95
628.14	40965.84
628.495	40885.17
628.85	40838.84
629.205	40859.41
629.559	41069.12
629.914	40826.19
630.269	40965.84
630.623	40899.86
630.978	40736.47
631.332	41107.76
631.687	41041.1
632.041	40947.54
632.396	40906.18
632.75	40874.55
633.104	41022.79
633.459	40717.04
633.813	40804.72
634.167	40849.01
634.521	40828.22
634.875	40956.35
635.229	40953.64
635.583	40679.75
635.937	40787.32
636.291	40823.47
636.645	40825.73
636.999	40659.64
637.352	40729.47
637.706	40635
638.06	40706.64
638.413	40612.63
638.767	40613.54
639.121	40608.79
639.474	40399.76
639.828	40343.94
640.181	40409.02
640.534	40507.32
640.888	40305.3
641.241	40293.09
641.594	40368.12
641.947	40286.31
642.301	40365.18
642.654	40408.34
643.007	40364.05
643.36	40408.34
643.713	40223.26
644.066	40417.61
644.419	40192.53
644.771	39941.01
645.124	39668.25
645.477	39600.91
645.83	39420.12
646.182	39209.28
646.535	39065.55
646.888	39219.67
647.24	38951.89
647.593	39127.93
647.945	39051.32
648.298	38895.39
648.65	38887.03
649.002	38748.27
649.355	39009.74
649.707	38869.18
650.059	38992.34
650.411	39605.43
650.763	39423.74
651.115	39944.63
651.467	39765.65
651.819	39739.89
652.171	39628.7
652.523	39625.54
652.875	39677.29
653.227	39479.78
653.578	39698.31
653.93	39513.45
654.282	39419.44
654.633	39346.23
654.985	39392.33
655.337	39448.6
655.688	39346.68
656.039	39551.19
656.391	39185.55
656.742	39269.39
657.094	39271.43
657.445	39428.03
657.796	39336.06
658.147	39241.6
658.498	39205.89
658.849	39260.13
659.2	39163.63
659.551	39172.22
659.902	39348.26
660.253	39166.57
660.604	39372.44
660.955	39085.89
661.306	39193.69
661.656	39056.97
662.007	39157.76
662.358	39103.29
662.708	39226.23
663.059	39138.32
663.409	39046.8
663.76	39186.23
664.11	39193.69
664.461	39252.44
664.811	39056.74
665.161	39240.01
665.511	38998.66
665.862	39163.41
666.212	39333.12
666.562	39191.43
666.912	39172.67
667.262	39061.94
667.612	39076.63
667.962	39225.55
668.312	39127.25
668.662	39106.68
669.011	38903.53
669.361	38907.14
669.711	38931.55
670.06	38927.03
670.41	38933.58
670.76	38676.19
671.109	38977.65
671.459	38868.05
671.808	38741.04
672.157	38867.37
672.507	38632.57
672.856	38713.47
673.205	38768.16
673.554	38865.56
673.904	38666.7
674.253	38870.76
674.602	38722.51
674.951	38408.62
675.3	37945.36
675.649	38631.89
675.998	38528.62
676.346	38644.77
676.695	38688.62
677.044	38405.46
677.393	38532.69
677.741	38571.78
678.09	38417.89
678.438	38372.47
678.787	38597.54
679.135	38462.86
679.484	38210.89
679.832	38346.7
680.181	38102.19
680.529	38329.08
680.877	38102.87
681.225	38118.24
681.573	38255.63
681.922	38026.26
682.27	37907.17
682.618	38054.73
682.966	37849.32
683.314	37888.18
683.661	37995.75
684.009	37655.87
684.357	37617.46
684.705	37513.96
685.053	37553.05
685.4	37477.8
685.748	37382.89
686.095	37455.2
686.443	37302.66
686.79	37214.76
687.138	37267.64
687.485	37236.68
687.832	37043.69
688.18	37188.09
688.527	36886.63
688.874	36944.48
689.221	36910.58
689.568	36751.04
689.915	36765.73
690.262	36577.94
690.609	36572.96
690.956	36455.68
691.303	36463.59
691.65	36171.39
691.997	36198.96
692.344	35981.57
692.69	36121.9
693.037	35967.56
693.383	35798.52
693.73	35859.76
694.077	35562.82
694.423	35677.85
694.769	35470.85
695.116	35464.52
695.462	35461.13
695.808	35338.87
696.155	35390.62
696.501	35122.16
696.847	35088.94
697.193	34873.8
697.539	34972.56
697.885	34637.87
698.231	34510.42
698.577	34678.55
698.923	34518.56
699.269	34434.72
699.614	34253.7
699.96	34240.82
700.306	34295.51
700.651	34108.17
700.997	33998.34
701.342	33876.31
701.688	33893.26
702.033	33726.26
702.379	33768.52
702.724	33652.82
703.069	33693.94
703.415	33231.81
703.76	33342.77
704.105	33340.28
704.45	33253.05
704.795	33031.82
705.14	33087.18
705.485	33037.46
705.83	32924.02
706.175	32909.33
706.52	32771.71
706.865	32611.49
707.209	32608.55
707.554	32545.95
707.899	32574.65
708.243	32269.12
708.588	32297.82
708.932	32249.91
709.277	32259.86
709.621	32063.93
709.966	31939.41
710.31	32153.87
710.654	31727.44
710.998	31858.06
711.342	31898.96
711.687	31722.92
712.031	31632.76
712.375	31519.76
712.719	31476.83
713.063	31551.85
713.407	31539.88
713.75	31223.95
714.094	31276.61
714.438	31296.27
714.782	31296.72
715.125	31068.93
715.469	31154.35
715.812	31058.31
716.156	30851.31
716.499	30821.7
716.843	30909.84
717.186	30743.97
717.53	30757.75
717.873	30715.94
718.216	30661.26
718.559	30470.3
718.902	30271.89
719.246	30387.59
719.589	30224.66
719.932	30284.09
720.275	30213.81
720.617	30092.46
720.96	30077.32
721.303	29980.6
721.646	29981.27
721.989	29926.13
722.331	29942.4
722.674	29873.93
723.016	29874.61
723.359	29910.54
723.701	29756.87
724.044	29656.76
724.386	29466.26
724.729	29610.44
725.071	29599.14
725.413	29541.06
725.755	29554.17
726.097	29377.9
726.439	29278.69
726.782	29191.92
727.124	29304.91
727.465	29203.44
727.807	29130.45
728.149	29084.35
728.491	29033.73
728.833	29008.64
729.175	28883.9
729.516	28844.81
729.858	28934.75
730.199	28955.99
730.541	28701.31
730.882	28713.28
731.224	28827.41
731.565	28660.63
731.906	28604.59
732.248	28608.2
732.589	28534.76
732.93	28386.06
733.271	28320.07
733.612	28548.77
733.953	28483.69
734.294	28381.09
734.635	28234.2
734.976	28408.21
735.317	28155.33
735.658	28100.65
735.999	28143.81
736.339	28074.66
736.68	28192.17
737.021	27970.48
737.361	27875.34
737.702	28064.26
738.042	27885.28
738.383	27833.53
738.723	28034.88
739.063	27713.76
739.404	27845.06
739.744	27784.27
740.084	27628.57
740.424	27662.92
740.764	27532.75
741.104	27639.19
741.444	27414.11
741.784	27299.76
742.124	27578.63
742.464	27427.67
742.804	27293.21
743.143	27274.23
743.483	27344.96
743.823	27198.3
744.162	27280.55
744.502	27107
744.841	27117.62
745.181	27269.48
745.52	27023.84
745.86	27053.67
746.199	26872.65
746.538	27014.8
746.877	27078.98
747.216	26938.87
747.556	26772.54
747.895	26958.08
748.234	26796.05
748.573	26653.23
748.911	26627.92
749.25	26698.42
749.589	26453.23
749.928	26502.95
750.267	26593.11
750.605	26536.17
750.944	26473.12
751.283	26389.05
751.621	26360.13
751.96	26140.24
752.298	26099.57
752.636	26228.38
752.975	26078.1
753.313	25959.01
753.651	26065.44
753.989	25962.85
754.327	25812.34
754.666	25729.41
755.004	25824.55
755.342	25806.24
755.679	25635.63
756.017	25566.47
756.355	25562.63
756.693	25597.66
757.031	25544.1
757.368	25312.24
757.706	25401.06
758.044	25178.01
758.381	25347.72
758.719	25100.72
759.056	25062.31
759.394	25064.57
759.731	24899.15
760.068	24895.08
760.405	24741.86
760.743	24762.88
761.08	24825.03
761.417	24624.58
761.754	24651.47
762.091	24454.41
762.428	24465.49
762.765	24326.96
763.102	24383.91
763.438	24208.77
763.775	24213.29
764.112	24130.13
764.449	24067.08
764.785	23995.89
765.122	23811.94
765.458	23738.27
765.795	23734.43
766.131	23688.33
766.467	23521.33
766.804	23469.13
767.14	23311.62
767.476	23410.6
767.812	23075.24
768.148	23305.07
768.485	23100.1
768.821	22995.92
769.157	22908.69
769.492	22959.54
769.828	22900.78
770.164	22692.43
770.5	22618.3
770.836	22584.41
771.171	22458.99
771.507	22516.84
771.842	22331.53
772.178	22301.02
772.513	22248.14
772.849	22081.59
773.184	22026.45
773.519	22053.12
773.855	21975.61
774.19	21819.23
774.525	21780.13
774.86	21807.03
775.195	21668.95
775.53	21511.21
775.865	21480.71
776.2	21378.79
776.535	21171.56
776.87	21186.93
777.205	21069.19
777.539	21036.65
777.874	20987.16
778.209	20864.23
778.543	20801.18
778.878	20721.18
779.212	20618.13
779.547	20495.2
779.881	20605.02
780.215	20518.02
780.55	20452.26
780.884	20290.91
781.218	20249.33
781.552	20272.83
781.886	20037.13
782.22	20028.09
782.554	19990.8
782.888	19881.2
783.222	19649.79
783.556	19611.83
783.889	19587.2
784.223	19572.06
784.557	19513.3
784.89	19497.71
785.224	19385.85
785.557	19273.08
785.891	19209.58
786.224	19201.22
786.558	19198.96
786.891	18950.15
787.224	18828.57
787.557	18826.99
787.891	18754
788.224	18814.11
788.557	18708.12
788.89	18607.11
789.223	18601.91
789.556	18514.23
789.888	18486.43
790.221	18436.27
790.554	18241.02
790.887	18253.9
791.219	18140
791.552	18130.74
791.884	18047.58
792.217	18008.71
792.549	17973.45
792.882	17708.38
793.214	17747.25
793.546	17877.86
793.879	17588.83
794.211	17597.87
794.543	17589.06
794.875	17554.93
795.207	17700.92
795.539	17480.36
795.871	17453.69
796.203	17269.29
796.535	17202.17
796.867	17185.23
797.198	17141.39
797.53	17028.62
797.862	16956.31
798.193	17051.67
798.525	16867.27
798.856	16947.94
799.188	16631.79
799.519	16678.8
799.85	16629.31
800.182	16669.31
800.513	16576.2
800.844	16488.52
801.175	16583.43
801.506	16483.1
801.837	16316.1
802.168	16346.38
802.499	16197.68
802.83	16182.99
803.161	16130.34
803.491	16114.52
803.822	16178.02
804.153	16029.1
804.483	15883.11
804.814	15911.59
805.145	15825.94
805.475	15865.26
805.805	15763.79
806.136	15698.94
806.466	15715.89
806.796	15672.5
807.126	15554.99
807.457	15587.08
807.787	15479.51
808.117	15511.37
808.447	15390.47
808.777	15478.6
809.107	15377.59
809.436	15281.77
809.766	15234.77
810.096	15299.85
810.426	15192.96
810.755	15096.69
811.085	15150.93
811.414	15084.94
811.744	15034.77
812.073	14949.13
812.403	14929.69
812.732	14877.72
813.061	14864.38
813.39	14803.82
813.719	14776.02
814.049	14796.14
814.378	14705.07
814.707	14672.75
815.036	14643.37
815.365	14654.45
815.693	14479.31
816.022	14487.44
816.351	14413.32
816.68	14347.56
817.008	14409.03
817.337	14260.56
817.665	14268.92
817.994	14269.37
818.322	14271.18
818.651	14110.5
818.979	14137.62
819.307	14221.46
819.636	14080
819.964	13990.06
820.292	14116.15
820.62	14084.52
820.948	13984.86
821.276	14051.75
821.604	14019.43
821.932	14014.91
822.259	14040
822.587	13948.7
822.915	13884.07
823.243	13951.86
823.57	13934.46
823.898	13913.67
824.225	13860.79
824.553	13878.65
824.88	13876.39
825.207	13994.35
825.535	13909.15
825.862	13891.98
826.189	13923.16
826.516	13946.44
826.843	13977.4
827.17	13969.72
827.497	13992.54
827.824	13927.01
828.151	14004.07
828.478	13910.51
828.805	13925.65
829.131	13931.3
829.458	13874.58
829.785	13799.78
830.111	13828.7
830.438	13945.54
830.764	13926.78
831.09	13962.03
831.417	13739.22
831.743	13833.68
832.069	13878.87
832.395	13750.97
832.722	13860.34
833.048	13872.54
833.374	13827.8
833.7	13758.2
834.026	13728.59
834.351	13785.09
834.677	13775.6
835.003	13844.07
835.329	13791.87
835.654	13681.82
835.98	13564.53
836.306	13673.91
836.631	13595.94
836.956	13647.47
837.282	13577.19
837.607	13547.81
837.932	13482.72
838.258	13505.77
838.583	13450.86
838.908	13501.71
839.233	13439.79
839.558	13445.66
839.883	13361.6
840.208	13329.06
840.533	13320.02
840.858	13356.63
841.182	13230.3
841.507	13241.15
841.832	13301.26
842.156	13231.21
842.481	13229.62
842.805	13149.4
843.13	13072.57
843.454	13142.39
843.778	13113.02
844.103	12911.67
844.427	12990.08
844.751	12954.6
845.075	12902.17
845.399	12947.15
845.723	12850.2
846.047	12825.57
846.371	12676.87
846.695	12712.8
847.019	12615.4
847.343	12626.7
847.666	12556.65
847.99	12449.08
848.313	12431.23
848.637	12428.52
848.96	12364.34
849.284	12353.71
849.607	12199.37
849.931	12250.21
850.254	12121.4
850.577	12129.09
850.9	11996.89
851.223	11945.14
851.546	11976.32
851.869	11817.01
852.192	11901.3
852.515	11747.63
852.838	11723.22
853.161	11796.67
853.483	11668.53
853.806	11648.65
854.129	11623.34
854.451	11561.42
854.774	11536.34
855.096	11531.59
855.419	11479.39
855.741	11472.61
856.063	11374.98
856.385	11392.61
856.708	11364.81
857.03	11303.57
857.352	11238.26
857.674	11175.21
857.996	11156.68
858.318	11096.35
858.64	11138.83
858.961	11144.71
859.283	11019.51
859.605	10978.84
859.926	10974.09
860.248	11005.28
860.57	10978.38
860.891	10908.78
861.212	10859.29
861.534	10834.66
861.855	10839.86
862.176	10877.6
862.498	10755.79
862.819	10824.26
863.14	10760.31
863.461	10738.84
863.782	10673.53
864.103	10644.38
864.424	10697.49
864.745	10708.79
865.065	10581.56
865.386	10580.65
865.707	10511.73
866.027	10609.35
866.348	10498.85
866.668	10495.23
866.989	10480.54
867.309	10397.83
867.63	10439.64
867.95	10474.22
868.27	10389.47
868.59	10353.32
868.91	10384.73
869.23	10333.2
869.55	10324.62
869.87	10382.47
870.19	10380.66
870.51	10275.8
870.83	10209.82
871.15	10271.74
871.469	10316.03
871.789	10252.53
872.109	10324.39
872.428	10179.08
872.748	10169.82
873.067	10184.96
873.386	10183.38
873.706	10149.7
874.025	10107.45
874.344	10129.82
874.663	10116.03
874.982	10042.36
875.301	10015.47
875.62	10031.97
875.939	9990.39
876.258	10041.69
876.577	9938.64
876.896	9938.41
877.214	9920.78
877.533	9921.24
877.852	9930.28
878.17	9946.09
878.489	9896.38
878.807	9945.87
879.125	9858.19
879.444	9849.83
879.762	9824.52
880.08	9883.5
880.398	9774.12
880.716	9803.5
881.034	9735.25
881.352	9746.55
881.67	9668.36
881.988	9723.73
882.306	9631.53
882.624	9652.77
882.941	9602.6
883.259	9538.87
883.577	9539.1
883.894	9588.14
884.212	9540.91
884.529	9549.04
884.846	9446.22
885.164	9448.03
885.481	9447.58
885.798	9464.53
886.115	9349.27
886.432	9370.29
886.75	9357.41
887.067	9335.49
887.383	9271.99
887.7	9318.54
888.017	9253.23
888.334	9249.16
888.651	9245.55
888.967	9230.86
889.284	9150.41
889.6	9128.26
889.917	9111.31
890.233	9044.42
890.55	9082.61
890.866	9081.03
891.182	9002.16
891.498	8945.89
891.815	8950.41
892.131	8942.5
892.447	8965.1
892.763	8907.25
893.079	8866.57
893.395	8855.05
893.71	8770.53
894.026	8822.28
894.342	8741.38
894.657	8715.39
894.973	8719.46
895.289	8686.69
895.604	8650.99
895.92	8621.16
896.235	8559.69
896.55	8591.78
896.865	8522.63
897.181	8538.9
897.496	8485.34
897.811	8448.73
898.126	8390.2
898.441	8415.06
898.756	8365.12
899.071	8292.35
899.386	8378.9
899.7	8266.82
900.015	8262.97
900.33	8218.91
900.644	8145.24
900.959	8162.64
901.273	8166.03
901.588	8052.36
901.902	8056.65
902.216	8025.69
902.531	8006.03
902.845	7949.08
903.159	7957.45
903.473	7910.89
903.787	7920.84
904.101	7806.49
904.415	7868.18
904.729	7806.72
905.042	7779.37
905.356	7755.64
905.67	7670
905.984	7685.59
906.297	7702.54
906.611	7585.7
906.924	7599.49
907.237	7538.02
907.551	7572.37
907.864	7528.08
908.177	7528.08
908.491	7540.96
908.804	7429.78
909.117	7409.89
909.43	7371.02
909.743	7361.3
910.056	7314.75
910.368	7319.5
910.681	7219.61
910.994	7236.11
911.307	7195.21
911.619	7121.99
911.932	7183.23
912.244	7079.28
912.557	7111.14
912.869	7091.25
913.181	7013.97
913.494	7001.31
913.806	6945.27
914.118	6965.38
914.43	6924.93
914.742	6883.58
915.054	6839.74
915.366	6847.19
915.678	6853.97
915.99	6833.18
916.302	6688.78
916.613	6711.6
916.925	6682.23
917.236	6671.6
917.548	6606.3
917.859	6602.91
918.171	6585.28
918.482	6575.34
918.794	6477.26
919.105	6492.4
919.416	6455.11
919.727	6448.56
920.038	6400.65
920.349	6364.72
920.66	6318.62
920.971	6329.69
921.282	6320.43
921.593	6269.13
921.903	6225.06
922.214	6244.95
922.525	6221.22
922.835	6165.63
923.146	6126.31
923.456	6145.06
923.767	6060.55
924.077	6091.28
924.387	6030.72
924.697	6008.34
925.008	5973.32
925.318	5966.31
925.628	5902.36
925.938	5894
926.248	5893.77
926.558	5865.07
926.867	5858.97
927.177	5792.08
927.487	5752.08
927.796	5712.08
928.106	5656.49
928.416	5675.25
928.725	5701.46
929.034	5689.48
929.344	5659.2
929.653	5639.09
929.962	5584.4
930.271	5550.96
930.581	5519.32
930.89	5523.39
931.199	5505.99
931.508	5475.03
931.817	5467.57
932.125	5451.07
932.434	5455.59
932.743	5346.22
933.051	5407.68
933.36	5381.02
933.669	5339.89
933.977	5274.58
934.286	5268.25
934.594	5253.79
934.902	5230.74
935.21	5180.12
935.519	5230.96
935.827	5183.28
936.135	5116.62
936.443	5105.54
936.751	5098.99
937.059	5062.83
937.367	5029.16
937.674	5072.55
937.982	5000.91
938.29	4975.83
938.597	5006.34
938.905	4935.83
939.213	4936.96
939.52	4883.85
939.827	4925.21
940.135	4894.93
940.442	4861.93
940.749	4839.56
941.056	4810.18
941.363	4826
941.67	4777.42
941.977	4746.68
942.284	4699.45
942.591	4662.62
942.898	4658.32
943.205	4652.45
943.511	4634.82
943.818	4644.54
944.125	4611.55
944.431	4564.32
944.738	4610.64
945.044	4471.89
945.35	4498.33
945.657	4452.45
945.963	4479.12
946.269	4441.61
946.575	4445.45
946.881	4413.13
947.187	4389.4
947.493	4361.38
947.799	4352.34
948.105	4353.25
948.41	4351.89
948.716	4323.42
949.022	4321.84
949.327	4312.34
949.633	4229.41
949.938	4246.81
950.244	4220.82
950.549	4170.65
950.854	4208.17
951.16	4122.07
951.465	4144.21
951.77	4133.82
952.075	4102.18
952.38	4108.06
952.685	4107.6
952.99	4048.62
953.294	4026.93
953.599	4011.79
953.904	4000.26
954.209	3959.36
954.513	3965.91
954.818	3918.23
955.122	3913.71
955.426	3937.21
955.731	3904.45
956.035	3850.66
956.339	3885.69
956.643	3848.18
956.948	3797.33
957.252	3788.06
957.556	3809.98
957.86	3781.96
958.163	3791.91
958.467	3775.18
958.771	3746.48
959.075	3744.68
959.378	3673.72
959.682	3688.41
959.985	3635.07
960.289	3658.35
960.592	3637.11
960.896	3646.83
961.199	3613.83
961.502	3590.78
961.805	3577.9
962.108	3526.15
962.411	3561.4
962.714	3512.59
963.017	3529.54
963.32	3541.97
963.623	3492.93
963.926	3462.65
964.228	3461.52
964.531	3440.05
964.833	3409.09
965.136	3387.17
965.438	3396.44
965.741	3410
966.043	3390.56
966.345	3382.88
966.648	3343.56
966.95	3343.33
967.252	3287.51
967.554	3298.13
967.856	3325.48
968.158	3246.84
968.46	3213.84
968.761	3247.97
969.063	3235.76
969.365	3221.07
969.666	3248.64
969.968	3183.33
970.269	3158.25
970.571	3113.73
970.872	3169.32
971.174	3139.95
971.475	3144.24
971.776	3122.09
972.077	3062.43
972.378	3087.97
972.679	3071.02
972.98	3080.29
973.281	3036.9
973.582	2985.6
973.883	3047.29
974.183	2994.64
974.484	2980.63
974.785	2970.01
975.085	2950.35
975.386	2939.05
975.686	2953.96
975.986	2934.75
976.287	2919.61
976.587	2926.62
976.887	2880.52
977.187	2883.46
977.487	2855.21
977.787	2835.09
978.087	2838.71
978.387	2821.99
978.687	2809.78
978.987	2804.81
979.286	2808.2
979.586	2766.4
979.885	2741.76
980.185	2730.46
980.484	2748.09
980.784	2689.11
981.083	2709.67
981.382	2715.55
981.682	2670.35
981.981	2638.26
982.28	2651.6
982.579	2641.65
982.878	2677.58
983.177	2649.79
983.475	2607.08
983.774	2607.53
984.073	2586.29
984.372	2586.51
984.67	2559.62
984.969	2544.03
985.267	2525.72
985.566	2503.13
985.864	2539.06
986.162	2539.74
986.461	2508.32
986.759	2493.63
987.057	2474.88
987.355	2449.57
987.653	2456.12
987.951	2411.38
988.249	2474.88
988.547	2420.87
988.844	2413.41
989.142	2422.9
989.44	2414.54
989.737	2359.85
990.035	2380.42
990.332	2347.65
990.63	2374.09
990.927	2348.33
991.224	2310.59
991.521	2318.5
991.819	2346.07
992.116	2282.57
992.413	2245.05
992.71	2296.13
993.006	2262.45
993.303	2275.11
993.6	2238.05
993.897	2207.09
994.193	2217.48
994.49	2218.61
994.787	2215.22
995.083	2206.18
995.379	2185.17
995.676	2142.01
995.972	2147.43
996.268	2156.69
996.565	2151.05
996.861	2159.18
997.157	2123.7
997.453	2137.94
997.749	2082.8
998.044	2066.98
998.34	2080.09
998.636	2058.39
998.932	2057.26
999.227	2056.36
999.523	2045.51
999.818	2031.05
1000.114	2017.04
1000.409	1972.29
1000.704	1998.96
1001	1969.81
1001.295	1976.13
1001.59	1950.82
1001.885	1953.54
1002.18	1940.43
1002.475	1930.94
1002.77	1934.1
1003.065	1902.46
1003.359	1924.61
1003.654	1904.72
1003.949	1906.08
1004.243	1872.63
1004.538	1864.27
1004.832	1831.51
1005.127	1830.6
1005.421	1826.76
1005.715	1833.09
1006.009	1819.53
1006.304	1840.09
1006.598	1774.56
1006.892	1786.76
1007.186	1791.73
1007.48	1727.33
1007.773	1742.24
1008.067	1761.22
1008.361	1717.61
1008.655	1711.28
1008.948	1732.98
1009.242	1681.9
1009.535	1691.85
1009.829	1684.16
1010.122	1662.92
1010.415	1639.42
1010.708	1649.36
1011.001	1666.76
1011.295	1650.27
1011.588	1607.33
1011.881	1618.18
1012.173	1620.66
1012.466	1609.36
1012.759	1601.23
1013.052	1600.33
1013.344	1553.77
1013.637	1589.7
1013.93	1577.73
1014.222	1560.1
1014.514	1566.43
1014.807	1556.48
1015.099	1523.49
1015.391	1508.58
1015.683	1521.01
1015.976	1512.87
1016.268	1490.72
1016.56	1470.39
1016.851	1480.78
1017.143	1461.35
1017.435	1440.33
1017.727	1464.51
1018.018	1418.41
1018.31	1433.1
1018.602	1409.14
1018.893	1418.18
1019.185	1400.1
1019.476	1405.75
1019.767	1384.51
1020.058	1401.46
1020.35	1370.5
1020.641	1348.35
1020.932	1357.62
1021.223	1323.5
1021.514	1347.9
1021.804	1304.97
1022.095	1311.52
1022.386	1275.36
1022.677	1288.02
1022.967	1263.38
1023.258	1298.64
1023.548	1271.97
1023.839	1278.07
1024.129	1234.91
1024.419	1250.28
1024.709	1235.81
1025	1254.12
1025.29	1217.06
1025.58	1214.57
1025.87	1240.56
1026.16	1205.31
1026.449	1201.47
1026.739	1206.89
1027.029	1179.32
1027.319	1184.29
1027.608	1179.32
1027.898	1163.95
1028.187	1160.11
1028.477	1142.48
1028.766	1132.54
1029.055	1143.39
1029.344	1113.11
1029.634	1137.51
1029.923	1116.27
1030.212	1106.78
1030.501	1099.77
1030.79	1086.67
1031.078	1098.19
1031.367	1089.15
1031.656	1062.49
1031.945	1079.43
1032.233	1064.52
1032.522	1044.18
1032.81	1071.3
1033.099	1048.48
1033.387	1001.92
1033.675	1024.75
1033.963	1025.2
1034.251	1015.26
1034.54	989.72
1034.828	980.68
1035.116	989.72
1035.403	975.93
1035.691	972.32
1035.979	968.7
1036.267	964.18
1036.554	947.91
1036.842	947.23
1037.129	934.13
1037.417	931.64
1037.704	935.03
1037.992	892.1
1038.279	925.09
1038.566	889.38
1038.853	889.38
1039.14	889.38
