Data from hue_310_FLMS001491_63.txt Node
Date: Mon Feb 06 15:50:00 GMT 2017
User: dcchb
Spectrometer: FLMS00149
Trigger mode: 0
Integration Time (sec): 2.000000E-2
Scans to average: 10
Electric dark correction enabled: true
Nonlinearity correction enabled: false
Boxcar width: 0
XAxis mode: Wavelengths
Number of Pixels in Spectrum: 2048
>>>>>Begin Spectral Data<<<<<
341.393	-8.35
341.776	-8.35
342.16	-8.35
342.543	-75.46
342.927	-46.09
343.31	-36.14
343.693	-67.78
344.077	-66.88
344.46	-73.43
344.843	-51.51
345.226	-54.9
345.61	-18.52
345.993	-33.21
346.376	-6.99
346.759	19.22
347.142	36.4
347.525	31.65
347.908	49.96
348.291	71.2
348.674	86.57
349.057	114.36
349.44	139.67
349.823	143.97
350.206	156.17
350.588	210.18
350.971	202.72
351.354	235.94
351.737	225.54
352.119	244.53
352.502	258.09
352.884	279.55
353.267	262.15
353.65	308.03
354.032	292.66
354.414	308.93
354.797	315.49
355.179	298.99
355.562	323.17
355.944	324.75
356.326	330.4
356.709	329.95
357.091	334.24
357.473	352.32
357.855	336.05
358.238	363.39
358.62	337.86
359.002	345.77
359.384	352.1
359.766	340.57
360.148	351.64
360.53	360
360.912	342.6
361.294	322.04
361.676	326.33
362.057	320.23
362.439	328.59
362.821	323.85
363.203	335.15
363.584	316.39
363.966	350.97
364.348	318.88
364.729	317.52
365.111	310.97
365.493	331.3
365.874	322.49
366.256	331.08
366.637	304.86
367.019	317.75
367.4	314.81
367.781	321.81
368.163	311.42
368.544	301.93
368.925	318.42
369.306	304.86
369.688	296.28
370.069	309.38
370.45	314.81
370.831	321.59
371.212	312.1
371.593	312.77
371.974	297.86
372.355	330.85
372.736	338.54
373.117	315.26
373.498	319.78
373.879	310.29
374.26	307.8
374.641	322.49
375.021	322.94
375.402	333.79
375.783	329.05
376.163	341.02
376.544	345.77
376.925	311.64
377.305	335.15
377.686	316.62
378.066	307.58
378.447	312.77
378.827	335.82
379.208	318.65
379.588	341.25
379.968	333.34
380.349	339.21
380.729	346.45
381.109	333.56
381.489	341.47
381.87	340.12
382.25	322.94
382.63	339.67
383.01	349.38
383.39	333.11
383.77	331.08
384.15	348.25
384.53	343.06
384.91	355.49
385.29	339.21
385.67	341.7
386.049	348.25
386.429	348.48
386.809	335.15
387.189	359.55
387.568	345.09
387.948	357.07
388.328	366.33
388.707	355.94
389.087	352.32
389.466	348.71
389.846	329.95
390.225	348.93
390.605	372.21
390.984	368.37
391.363	375.82
391.743	374.47
392.122	383.73
392.501	374.47
392.881	393.68
393.26	376.05
393.639	392.32
394.018	382.38
394.397	385.99
394.776	375.82
395.155	406.11
395.534	379.67
395.913	372.66
396.292	393.9
396.671	381.47
397.05	402.72
397.429	396.61
397.808	386.44
398.186	388.93
398.565	379.89
398.944	393.68
399.323	398.65
399.701	394.81
400.08	393.68
400.458	404.07
400.837	398.65
401.215	393.45
401.594	430.74
401.972	401.13
402.351	411.75
402.729	414.92
403.107	404.75
403.486	407.91
403.864	429.38
404.242	419.44
404.62	419.89
404.999	451.98
405.377	425.09
405.755	444.3
406.133	435.71
406.511	456.73
406.889	438.42
407.267	428.93
407.645	463.05
408.023	449.72
408.401	479.1
408.779	454.24
409.156	459.44
409.534	466.67
409.912	483.17
410.29	484.75
410.667	491.07
411.045	506.22
411.422	486.78
411.8	499.66
412.178	535.59
412.555	532.2
412.933	534.01
413.31	551.86
413.687	533.11
414.065	533.33
414.442	534.69
414.819	568.59
415.197	571.75
415.574	572.65
415.951	581.69
416.328	578.98
416.705	574.46
417.082	609.49
417.46	592.77
417.837	617.63
418.214	628.25
418.591	612.88
418.967	616.04
419.344	630.51
419.721	654.69
420.098	623.73
420.475	662.14
420.852	660.56
421.228	675.25
421.605	695.14
421.982	699.66
422.358	703.05
422.735	711.41
423.111	706.66
423.488	722.71
423.864	743.05
424.241	751.63
424.617	754.34
424.994	737.17
425.37	750.05
425.746	764.97
426.123	759.54
426.499	769.49
426.875	786.21
427.251	788.47
427.627	804.06
428.003	806.55
428.379	841.57
428.756	842.93
429.132	816.72
429.507	855.13
429.883	839.31
430.259	875.25
430.635	885.19
431.011	890.39
431.387	895.58
431.763	893.78
432.138	903.04
432.514	933.55
432.89	936.49
433.265	955.47
433.641	966.99
434.016	974.68
434.392	986.88
434.767	989.82
435.143	1002.02
435.518	1000.67
435.894	1034.79
436.269	1044.96
436.644	1045.64
437.02	1076.6
437.395	1019.42
437.77	1072.08
438.145	1082.47
438.52	1095.35
438.895	1116.59
439.271	1079.76
439.646	1113.66
440.021	1098.29
440.395	1151.17
440.77	1126.76
441.145	1141.91
441.52	1171.06
441.895	1127.67
442.27	1167.67
442.645	1152.75
443.019	1155.01
443.394	1151.4
443.769	1184.39
444.143	1176.25
444.518	1204.5
444.892	1223.71
445.267	1183.03
445.641	1200.66
446.016	1218.74
446.39	1228
446.764	1218.06
447.139	1214.22
447.513	1231.62
447.887	1232.75
448.262	1234.11
448.636	1241.56
449.01	1235.69
449.384	1250.83
449.758	1254.67
450.132	1258.29
450.506	1291.28
450.88	1304.61
451.254	1284.27
451.628	1286.31
452.002	1288.57
452.376	1281.79
452.75	1288.79
453.123	1322.92
453.497	1338.28
453.871	1320.43
454.244	1356.81
454.618	1368.79
454.992	1363.37
455.365	1358.17
455.739	1371.28
456.112	1395.01
456.486	1380.77
456.859	1425.06
457.232	1441.56
457.606	1385.29
457.979	1417.83
458.352	1483.36
458.725	1468.22
459.099	1446.53
459.472	1473.2
459.845	1502.8
460.218	1494.44
460.591	1529.24
460.964	1495.79
461.337	1542.12
461.71	1533.99
462.083	1576.02
462.456	1555.23
462.829	1558.17
463.201	1612.18
463.574	1608.56
463.947	1614.21
464.32	1591.38
464.692	1598.16
465.065	1634.77
465.438	1691.27
465.81	1688.11
466.183	1686.3
466.555	1700.99
466.928	1718.61
467.3	1743.02
467.672	1724.94
468.045	1778.27
468.417	1773.98
468.789	1788.44
469.161	1770.59
469.534	1785.96
469.906	1814.43
470.278	1863.24
470.65	1833.19
471.022	1864.15
471.394	1923.58
471.766	1906.4
472.138	1909.57
472.51	1923.58
472.882	1965.16
473.253	1993.86
473.625	2011.26
473.997	2030.7
474.369	2037.93
474.74	2073.86
475.112	2066.17
475.484	2066.17
475.855	2105.72
476.227	2144.59
476.598	2190.92
476.97	2160.64
477.341	2211.48
477.713	2257.81
478.084	2235.66
478.455	2278.37
478.827	2341.42
479.198	2327.18
479.569	2347.3
479.94	2402.66
480.311	2414.64
480.682	2449.22
481.053	2489.44
481.424	2500.51
481.795	2536.44
482.166	2551.36
482.537	2555.2
482.908	2620.74
483.279	2658.7
483.65	2655.99
484.021	2668.64
484.391	2708.87
484.762	2724.01
485.133	2721.98
485.503	2752.03
485.874	2832.93
486.244	2849.2
486.615	2866.38
486.985	2897.11
487.356	2890.11
487.726	2900.95
488.097	2970.11
488.467	2981.4
488.837	3018.92
489.207	3093.72
489.578	3093.27
489.948	3109.08
490.318	3114.96
490.688	3127.16
491.058	3185.69
491.428	3244.9
491.798	3251.91
492.168	3276.76
492.538	3285.8
492.908	3278.8
493.278	3332.36
493.648	3350.21
494.017	3340.49
494.387	3366.03
494.757	3411
495.126	3424.56
495.496	3457.78
495.866	3462.75
496.235	3487.61
496.605	3534.38
496.974	3552.46
497.344	3543.2
497.713	3538.23
498.082	3566.7
498.452	3617.09
498.821	3583.65
499.19	3603.31
499.559	3666.13
499.928	3663.19
500.298	3680.14
500.667	3690.54
501.036	3691.44
501.405	3737.32
501.774	3720.82
502.143	3766.47
502.512	3783.19
502.88	3806.69
503.249	3772.12
503.618	3825.9
503.987	3802.17
504.356	3832.46
504.724	3864.09
505.093	3839.69
505.462	3884.21
505.83	3839.24
506.199	3871.78
506.567	3950.87
506.936	3931.89
507.304	3987.25
507.672	3963.98
508.041	3972.34
508.409	4010.76
508.777	4015.73
509.145	4023.19
509.514	4048.5
509.882	4051.43
510.25	4044.65
510.618	4064.77
510.986	4067.25
511.354	4094.14
511.722	4064.77
512.09	4216.85
512.458	4104.54
512.826	4134.82
513.193	4181.6
513.561	4163.75
513.929	4180.24
514.297	4191.99
514.664	4241.03
515.032	4249.85
515.4	4246
515.767	4267.02
516.135	4287.13
516.502	4272.9
516.869	4293.01
517.237	4304.76
517.604	4283.07
517.972	4334.82
518.339	4292.1
518.706	4314.02
519.073	4290.97
519.44	4330.52
519.808	4394.02
520.175	4393.12
520.542	4422.5
520.909	4423.85
521.276	4426.11
521.643	4454.13
522.009	4468.37
522.376	4486.68
522.743	4491.65
523.11	4532.32
523.477	4563.74
523.843	4610.74
524.21	4584.53
524.577	4624.75
524.943	4664.07
525.31	4672.89
525.676	4669.5
526.043	4685.31
526.409	4699.55
526.776	4735.48
527.142	4789.49
527.508	4784.52
527.874	4805.76
528.241	4879.43
528.607	4846.21
528.973	4907.46
529.339	4879.43
529.705	4943.16
530.071	4904.97
530.437	4991.07
530.803	4980.22
531.169	5033.33
531.535	5019.32
531.901	5036.94
532.267	5040.11
532.632	5100.9
532.998	5092.76
533.364	5131.4
533.73	5137.96
534.095	5195.36
534.461	5199.88
534.826	5216.15
535.192	5229.03
535.557	5297.5
535.923	5279.2
536.288	5262.7
536.653	5354.22
537.019	5325.07
537.384	5367.1
537.749	5412.98
538.114	5376.82
538.479	5392.41
538.845	5432.64
539.21	5431.74
539.575	5514.67
539.94	5483.03
540.305	5462.47
540.67	5531.85
541.034	5540.89
541.399	5569.13
541.764	5584.5
542.129	5645.06
542.494	5622.24
542.858	5663.59
543.223	5691.84
543.587	5710.6
543.952	5729.36
544.316	5748.79
544.681	5789.92
545.045	5792.18
545.41	5812.74
545.774	5850.26
546.138	5799.86
546.503	5920.76
546.867	5927.32
547.231	5892.06
547.595	5955.34
547.959	5989.24
548.324	5977.26
548.688	6008.44
549.052	6069.01
549.416	6036.47
549.779	6043.92
550.143	6052.06
550.507	6138.38
550.871	6125.05
551.235	6151.94
551.599	6189.91
551.962	6193.98
552.326	6186.52
552.689	6243.24
553.053	6200.53
553.417	6259.51
553.78	6319.62
554.143	6271.49
554.507	6291.83
554.87	6363.46
555.234	6343.8
555.597	6317.81
555.96	6436.91
556.323	6422.22
556.686	6413.63
557.05	6424.93
557.413	6449.56
557.776	6491.37
558.139	6537.92
558.502	6506.28
558.865	6527.07
559.228	6595.09
559.59	6628.09
559.953	6574.08
560.316	6651.36
560.679	6658.82
561.041	6651.36
561.404	6736.33
561.767	6748.31
562.129	6698.14
562.492	6911.7
562.854	6787.63
563.217	6772.72
563.579	6801.42
563.941	6815.43
564.304	6823.11
564.666	6925.93
565.028	6942.88
565.39	6931.13
565.753	7011.81
566.115	7016.78
566.477	7023.78
566.839	7057
567.201	7089.77
567.563	7090.68
567.925	7110.79
568.287	7142.2
568.648	7131.13
569.01	7198.92
569.372	7235.53
569.734	7204.34
570.095	7323.44
570.457	7297.9
570.819	7376.09
571.18	7381.97
571.542	7401.85
571.903	7434.17
572.265	7460.38
572.626	7506.48
572.987	7542.87
573.349	7592.58
573.71	7598.01
574.071	7694.5
574.432	7781.5
574.794	7783.31
575.155	7866.25
575.516	7831.67
575.877	7899.92
576.238	8068.05
576.599	8040.25
576.96	8125
577.32	8158.22
577.681	8343.3
578.042	8350.3
578.403	8454.48
578.763	8527.7
579.124	8612.44
579.485	8698.09
579.845	8846.11
580.206	8917.97
580.566	9005.2
580.927	9119.1
581.287	9245.19
581.648	9317.51
582.008	9522.7
582.368	9591.63
582.728	9723.15
583.089	9921.11
583.449	10099.18
583.809	10176.02
584.169	10409.91
584.529	10523.81
584.889	10789.33
585.249	10893.51
585.609	11099.61
585.969	11398.81
586.329	11487.85
586.688	11757.45
587.048	11863.21
587.408	12093.26
587.768	12236.3
588.127	12633.35
588.487	12794.93
588.846	13095.71
589.206	13238.99
589.565	13509.72
589.925	13818.86
590.284	14078.51
590.643	14231.73
591.003	14639.86
591.362	14893.18
591.721	15140.86
592.08	15433.05
592.44	15743.1
592.799	15989.65
593.158	16230.1
593.517	16509.41
593.876	16846.8
594.235	17088.38
594.593	17428.03
594.952	17737.17
595.311	17955.47
595.67	18314.33
596.029	18709.58
596.387	18985.05
596.746	19311.37
597.104	19513.17
597.463	19780.51
597.822	20127.85
598.18	20429.08
598.538	20632.47
598.897	20969.18
599.255	21123.75
599.613	21678.77
599.972	21843.96
600.33	22299.31
600.688	22436.94
601.046	22726.42
601.404	23043.25
601.762	23276.92
602.12	23773.4
602.478	23953.96
602.836	24143.11
603.194	24328.19
603.552	24753.26
603.91	24842.52
604.268	25252.23
604.625	25431.66
604.983	25856.06
605.341	25959.11
605.698	26326.33
606.056	26541.46
606.413	26676.37
606.771	27150.26
607.128	27350.71
607.485	27471.38
607.843	27633.86
608.2	28106.85
608.557	28313.17
608.914	28512.03
609.272	28806.94
609.629	29054.39
609.986	29201.28
610.343	29248.96
610.7	29697.09
611.057	29831.77
611.414	30093.01
611.771	30309.5
612.127	30520.12
612.484	30630.62
612.841	31001.01
613.198	30920.33
613.554	31269.93
613.911	31580.43
614.267	31630.37
614.624	31852.28
614.98	31925.73
615.337	32194.42
615.693	32249.56
616.05	32395.55
616.406	32839.6
616.762	32758.93
617.118	32899.04
617.475	33134.96
617.831	33306.71
618.187	33472.58
618.543	33537.66
618.899	33922.74
619.255	33852.46
619.611	34070.08
619.967	34220.13
620.323	34488.37
620.678	34447.92
621.034	34376.74
621.39	34558.43
621.746	34665.32
622.101	35101.92
622.457	34876.61
622.812	35116.38
623.168	35292.19
623.523	35317.05
623.879	35598.85
624.234	35467.78
624.589	35652.86
624.945	35737.83
625.3	35771.95
625.655	35832.29
626.01	35939.41
626.365	36052.4
626.72	35997.71
627.075	36081.1
627.43	36243.58
627.785	36197.48
628.14	36404.93
628.495	36521.54
628.85	36543.01
629.205	36297.36
629.559	36643.57
629.914	36587.75
630.269	36752.04
630.623	36698.71
630.978	36451.94
631.332	36710.69
631.687	37007.63
632.041	36776.67
632.396	36915.2
632.75	36710.69
633.104	36888.54
633.459	36707.75
633.813	36942.32
634.167	36815.54
634.521	36862.32
634.875	36921.3
635.229	36985.71
635.583	36890.34
635.937	36957.46
636.291	36884.92
636.645	36839.5
636.999	36874.52
637.352	36976.67
637.706	36857.35
638.06	37109.55
638.413	36900.29
638.767	36828.2
639.121	36927.63
639.474	36831.36
639.828	36916.33
640.181	36938.48
640.534	36951.81
640.888	36760.4
641.241	36651.71
641.594	36890.57
641.947	37079.49
642.301	36938.7
642.654	36806.96
643.007	36857.58
643.36	36821.19
643.713	36787.3
644.066	36942.77
644.419	36705.72
644.771	36585.49
645.124	36181.21
645.477	36233.86
645.83	36143.24
646.182	35745.51
646.535	35784.61
646.888	35821.22
647.24	35619.19
647.593	35928.11
647.945	35784.84
648.298	35642.24
648.65	35641.11
649.002	35571.73
649.355	35778.73
649.707	35635.24
650.059	35783.93
650.411	36161.32
650.763	36333.52
651.115	36572.61
651.467	36415.1
651.819	36489.22
652.171	36327.42
652.523	36344.14
652.875	36369.23
653.227	36160.87
653.578	36538.94
653.93	36343.47
654.282	36233.19
654.633	36168.33
654.985	36183.24
655.337	36381.66
655.688	36242.9
656.039	36407.19
656.391	36359.74
656.742	36198.16
657.094	36147.76
657.445	36303.24
657.796	36193.64
658.147	36162.91
658.498	36167.65
658.849	36311.38
659.2	36227.54
659.551	36232.96
659.902	36259.17
660.253	36204.71
660.604	36112.74
660.955	36035
661.306	36265.28
661.656	36004.49
662.007	36121.1
662.358	36042.91
662.708	36053.08
663.059	36143.47
663.409	35894.66
663.76	36057.15
664.11	36149.8
664.461	36070.93
664.811	36194.77
665.161	36075.9
665.511	35963.81
665.862	35968.11
666.212	36254.43
666.562	36186.41
666.912	36024.83
667.262	36081.1
667.612	36057.6
667.962	35992.97
668.312	36078.16
668.662	36233.64
669.011	35933.08
669.361	35957.71
669.711	36000.2
670.06	35893.76
670.41	35856.02
670.76	35908
671.109	35959.29
671.459	35931.72
671.808	35878.39
672.157	35970.59
672.507	35840.65
672.856	35853.76
673.205	35887.43
673.554	35917.04
673.904	35765.4
674.253	35946.41
674.602	35909.35
674.951	35306.88
675.3	35258.75
675.649	35770.15
675.998	35614.67
676.346	35712.3
676.695	35810.82
677.044	35549.14
677.393	35601.11
677.741	35602.24
678.09	35658.74
678.438	35600.43
678.787	35747.32
679.135	35718.17
679.484	35400.44
679.832	35595.91
680.181	35175.36
680.529	35508.46
680.877	35313.44
681.225	35270.95
681.573	35543.71
681.922	35298.3
682.27	35265.98
682.618	35089.49
682.966	35092.2
683.314	35032.77
683.661	35013.78
684.009	34891.98
684.357	34766.11
684.705	34723.62
685.053	34931.53
685.4	34877.06
685.748	34677.29
686.095	34731.98
686.443	34453.35
686.79	34499.22
687.138	34449.05
687.485	34553.23
687.832	34305.1
688.18	34456.51
688.527	34160.92
688.874	34182.84
689.221	34081.38
689.568	34016.97
689.915	33960.7
690.262	33949.4
690.609	33827.37
690.956	33803.87
691.303	33825.34
691.65	33640.71
691.997	33545.8
692.344	33404.79
692.69	33381.06
693.037	33515.74
693.383	33199.37
693.73	33317.33
694.077	33041.18
694.423	33064.46
694.769	33017.9
695.116	32961.41
695.462	32846.38
695.808	32639.38
696.155	32784.69
696.501	32505.15
696.847	32669.44
697.193	32383.57
697.539	32465.83
697.885	32235.55
698.231	32160.3
698.577	32111.26
698.923	32068.55
699.269	31846.86
699.614	31778.16
699.96	31796.92
700.306	31765.28
700.651	31673.08
700.997	31535.23
701.342	31625.4
701.688	31540.43
702.033	31408.68
702.379	31339.98
702.724	31277.16
703.069	31328.23
703.415	31081
703.76	31093.89
704.105	31080.33
704.45	30898.41
704.795	30700.45
705.14	30596.27
705.485	30736.38
705.83	30620.68
706.175	30596.5
706.52	30436.95
706.865	30295.04
707.209	30374.81
707.554	30145.66
707.899	30300.01
708.243	30009.85
708.588	29944.54
708.932	29901.37
709.277	29933.46
709.621	29949.96
709.966	29737.76
710.31	29840.81
710.654	29525.57
710.998	29513.36
711.342	29624.77
711.687	29382.97
712.031	29364.67
712.375	29335.51
712.719	29326.7
713.063	29230.66
713.407	29315.63
713.75	29109.98
714.094	29096.88
714.438	29036.76
714.782	29073.37
715.125	28891.23
715.469	28902.76
715.812	28830.67
716.156	28623.44
716.499	28688.53
716.843	28732.37
717.186	28557.91
717.53	28765.36
717.873	28749.99
718.216	28545.25
718.559	28472.71
718.902	28132.61
719.246	28293.28
719.589	28220.29
719.932	28163.34
720.275	28153.62
720.617	28129.22
720.96	28052.61
721.303	28130.12
721.646	28147.07
721.989	27780.53
722.331	27847.87
722.674	27874.99
723.016	27823.24
723.359	27774.2
723.701	27765.84
724.044	27700.98
724.386	27523.58
724.729	27549.57
725.071	27501.66
725.413	27592.96
725.755	27399.97
726.097	27383.93
726.439	27144.61
726.782	27169.7
727.124	27345.06
727.465	27051.96
727.807	27191.62
728.149	27059.42
728.491	27046.08
728.833	27056.03
729.175	26838.4
729.516	26766.77
729.858	26865.07
730.199	26803.38
730.541	26807.22
730.882	26766.77
731.224	26785.07
731.565	26545.53
731.906	26690.61
732.248	26631.86
732.589	26530.84
732.93	26508.47
733.271	26437.74
733.612	26522.03
733.953	26493.78
734.294	26358.42
734.635	26285.88
734.976	26356.84
735.317	26178.53
735.658	26290.4
735.999	26135.37
736.339	26254.69
736.68	26247.01
737.021	26143.06
737.361	26047.46
737.702	26180.79
738.042	26048.37
738.383	25986.45
738.723	26084.53
739.063	25985.77
739.404	25970.63
739.744	25889.5
740.084	25838.66
740.424	25735.83
740.764	25800.24
741.104	25851.31
741.444	25636.63
741.784	25568.38
742.124	25635.27
742.464	25562.28
742.804	25543.75
743.143	25421.72
743.483	25557.76
743.823	25285.9
744.162	25353.92
744.502	25393.24
744.841	25217.2
745.181	25312.12
745.52	25109.18
745.86	25269.41
746.199	25193.93
746.538	25105.57
746.877	25054.72
747.216	25134.95
747.556	25072.12
747.895	25004.33
748.234	24914.39
748.573	24931.79
748.911	24729.08
749.25	24823.32
749.589	24690.44
749.928	24755.75
750.267	24593.04
750.605	24588.07
750.944	24524.57
751.283	24625.58
751.621	24554.4
751.96	24351.01
752.298	24396.21
752.636	24448.41
752.975	24258.13
753.313	24162.32
753.651	24436.66
753.989	24106.95
754.327	24201.41
754.666	24010
755.004	24025.15
755.342	23920.52
755.679	23970.01
756.017	23751.03
756.355	23820.86
756.693	23756.45
757.031	23822.21
757.368	23680.3
757.706	23635.32
758.044	23528.66
758.381	23554.88
758.719	23410.02
759.056	23460.87
759.394	23332.28
759.731	23186.98
760.068	23164.38
760.405	23102.01
760.743	23009.8
761.08	23067.43
761.417	22943.82
761.754	23040.99
762.091	22836.93
762.428	22637.61
762.765	22589.02
763.102	22707.44
763.438	22533.88
763.775	22515.81
764.112	22537.95
764.449	22418.18
764.785	22371.86
765.122	22186.1
765.458	22147
765.795	22101.81
766.131	22174.12
766.467	22049.6
766.804	21875.37
767.14	21775.03
767.476	21831.3
767.812	21645.32
768.148	21588.15
768.485	21535.49
768.821	21408.72
769.157	21433.12
769.492	21381.15
769.828	21335.27
770.164	21193.13
770.5	21025.22
770.836	21160.81
771.171	20953.59
771.507	20880.37
771.842	20763.31
772.178	20843.08
772.513	20815.06
772.849	20681.96
773.184	20471.57
773.519	20524.45
773.855	20429.99
774.19	20367.39
774.525	20289.65
774.86	20295.53
775.195	20210.56
775.53	20129.43
775.865	19960.85
776.2	19903.9
776.535	19780.28
776.87	19886.27
777.205	19739.38
777.539	19630.23
777.874	19618.26
778.209	19497.35
778.543	19504.13
778.878	19345.72
779.212	19323.12
779.547	19286.96
779.881	19294.2
780.215	19157.02
780.55	19048.55
780.884	18906.18
781.218	19004.49
781.552	18950.7
781.886	18885.62
782.22	18701.67
782.554	18616.47
782.888	18566.08
783.222	18468
783.556	18434.56
783.889	18419.64
784.223	18223.72
784.557	18300.55
784.89	18172.19
785.224	18065.53
785.557	18063.49
785.891	17981.46
786.224	17862.14
786.558	17878.19
786.891	17738.53
787.224	17658.76
787.557	17622.83
787.891	17537.41
788.224	17445.66
788.557	17530.63
788.89	17346.68
789.223	17427.13
789.556	17261.03
789.888	17316.39
790.221	17145.78
790.554	16995.27
790.887	17079.57
791.219	17014.26
791.552	16972.9
791.884	16874.37
792.217	16786.24
792.549	16803.19
792.882	16641.16
793.214	16607.49
793.546	16565.45
793.879	16456.98
794.211	16318.91
794.543	16489.98
794.875	16416.31
795.207	16438.45
795.539	16270.55
795.871	16358
796.203	16218.8
796.535	16113.94
796.867	16064
797.198	15946.71
797.53	15870.11
797.862	15885.25
798.193	15880.27
798.525	15707.62
798.856	15847.96
799.188	15553.05
799.519	15564.12
799.85	15468.76
800.182	15548.08
800.513	15493.17
800.844	15343.34
801.175	15431.25
801.506	15333.62
801.837	15218.15
802.168	15283.68
802.499	15149.67
802.83	15060.18
803.161	15124.14
803.491	15108.77
803.822	15129.79
804.153	14968.89
804.483	14885.5
804.814	14767.31
805.145	14792.62
805.475	14769.34
805.805	14785.84
806.136	14686.86
806.466	14697.93
806.796	14694.09
807.126	14597.14
807.457	14495
807.787	14565.51
808.117	14483.93
808.447	14449.13
808.777	14467.88
809.107	14370.71
809.436	14308.11
809.766	14317.83
810.096	14264.72
810.426	14183.14
810.755	14121
811.085	14132.07
811.414	14105.63
811.744	14009.14
812.073	14011.4
812.403	13978.4
812.732	13898.41
813.061	13872.64
813.39	13793.1
813.719	13772.31
814.049	13869.48
814.378	13719.65
814.707	13723.5
815.036	13735.02
815.365	13641.46
815.693	13459.32
816.022	13429.27
816.351	13470.62
816.68	13362.37
817.008	13476.72
817.337	13323.73
817.665	13298.42
817.994	13355.82
818.322	13358.98
818.651	13241.02
818.979	13309.72
819.307	13286.9
819.636	13227.91
819.964	13144.08
820.292	13205.09
820.62	13146.79
820.948	13138.2
821.276	13127.35
821.604	13033.12
821.932	13190.18
822.259	13127.13
822.587	13071.76
822.915	13140.69
823.243	13132.1
823.57	13046.9
823.898	13038.54
824.225	13004.42
824.553	13001.25
824.88	13015.49
825.207	13125.77
825.535	12947.92
825.862	13160.8
826.189	12971.88
826.516	13117.64
826.843	13047.81
827.17	13125.32
827.497	13116.96
827.824	13031.76
828.151	13022.04
828.478	13018.43
828.805	13010.97
829.131	13050.52
829.458	13045.77
829.785	12960.8
830.111	12967.58
830.438	12974.59
830.764	13022.04
831.09	13010.75
831.417	13006.45
831.743	12966.45
832.069	12951.54
832.395	12911.54
832.722	12945.21
833.048	12888.49
833.374	12917.87
833.7	12828.38
834.026	12859.79
834.351	12890.75
834.677	12879.45
835.003	12901.14
835.329	12849.62
835.654	12826.34
835.98	12780.24
836.306	12837.19
836.631	12712.22
836.956	12841.71
837.282	12749.28
837.607	12707.7
837.932	12638.1
838.258	12726.23
838.583	12648.5
838.908	12582.28
839.233	12645.56
839.558	12580.02
839.883	12443.53
840.208	12464.09
840.533	12446.24
840.858	12472.23
841.182	12521.04
841.507	12482.85
841.832	12334.15
842.156	12394.94
842.481	12403.76
842.805	12370.08
843.13	12381.38
843.454	12213.25
843.778	12184.78
844.103	12281.73
844.427	12159.47
844.751	12159.24
845.075	12187.04
845.399	12093.71
845.723	11982.07
846.047	11992.69
846.371	11968.29
846.695	11950.66
847.019	11805.35
847.343	11751.8
847.666	11676.09
847.99	11710.21
848.313	11666.6
848.637	11582.53
848.96	11514.51
849.284	11520.16
849.607	11444.68
849.931	11453.05
850.254	11412.14
850.577	11309.32
850.9	11225.03
851.223	11277.23
851.546	11087.63
851.869	11117.69
852.192	11207.63
852.515	11053.06
852.838	11002.21
853.161	10936.68
853.483	10935.09
853.806	10976.22
854.129	10860.52
854.451	10862.1
854.774	10805.38
855.096	10787.3
855.419	10767.87
855.741	10686.29
856.063	10600.41
856.385	10688.55
856.708	10595.89
857.03	10508.66
857.352	10514.09
857.674	10525.16
857.996	10449.23
858.318	10382.79
858.64	10449.23
858.961	10334.88
859.283	10336.01
859.605	10320.87
859.926	10317.71
860.248	10328.56
860.57	10146.64
860.891	10193.87
861.212	10156.81
861.534	10146.87
861.855	10087.88
862.176	10094.21
862.498	10159.07
862.819	10138.28
863.14	10088.11
863.461	10060.54
863.782	10046.76
864.103	10008.34
864.424	10042.69
864.745	10023.48
865.065	10017.6
865.386	9814.67
865.707	9851.05
866.027	9879.98
866.348	9856.7
866.668	9878.17
866.989	9887.21
867.309	9783.03
867.63	9770.83
867.95	9797.72
868.27	9734
868.59	9720.21
868.91	9717.95
869.23	9678.18
869.55	9652.64
869.87	9687.22
870.19	9585.98
870.51	9635.02
870.83	9650.61
871.15	9582.81
871.469	9613.09
871.789	9599.54
872.109	9575.13
872.428	9478.41
872.748	9557.5
873.067	9565.64
873.386	9565.41
873.706	9508.46
874.025	9489.03
874.344	9441.12
874.663	9439.99
874.982	9413.55
875.301	9460.33
875.62	9410.84
875.939	9365.87
876.258	9421.46
876.577	9343.27
876.896	9419.43
877.214	9311.86
877.533	9330.39
877.852	9252.2
878.17	9310.5
878.489	9246.1
878.807	9189.83
879.125	9241.35
879.444	9140.11
879.762	9204.29
880.08	9199.32
880.398	9204.07
880.716	9138.08
881.034	9166.1
881.352	9178.98
881.67	9048.14
881.988	9156.38
882.306	9102.83
882.624	9046.33
882.941	9004.75
883.259	9039.32
883.577	8951.87
883.894	8889.5
884.212	8917.97
884.529	8894.02
884.846	8890.18
885.164	8867.58
885.481	8882.27
885.798	8852.21
886.115	8793.91
886.432	8809.95
886.75	8736.51
887.067	8789.39
887.383	8689.73
887.7	8729.5
888.017	8687.92
888.334	8628.26
888.651	8638.43
888.967	8641.82
889.284	8579
889.6	8559.79
889.917	8551.88
890.233	8522.05
890.55	8445.89
890.866	8475.72
891.182	8498.55
891.498	8412.9
891.815	8401.38
892.131	8346.24
892.447	8339.23
892.763	8298.55
893.079	8253.36
893.395	8270.08
893.71	8268.72
894.026	8194.15
894.342	8269.63
894.657	8144.21
894.973	8217.88
895.289	8145.79
895.604	8164.09
895.92	8026.02
896.235	8026.47
896.55	8056.75
896.865	8015.62
897.181	7976.3
897.496	7972.69
897.811	7921.39
898.126	7905.79
898.441	7853.37
898.756	7845.91
899.071	7794.61
899.386	7839.36
899.7	7746.48
900.015	7750.54
900.33	7679.81
900.644	7641.85
900.959	7695.18
901.273	7673.03
901.588	7566.14
901.902	7559.36
902.216	7541.96
902.531	7518.91
902.845	7493.83
903.159	7409.99
903.473	7370.44
903.787	7347.17
904.101	7360.72
904.415	7379.71
904.729	7340.61
905.042	7279.82
905.356	7280.73
905.67	7162.76
905.984	7167.74
906.297	7193.5
906.611	7149.66
906.924	7127.28
907.237	7116.21
907.551	7068.08
907.864	7016.1
908.177	7004.12
908.491	7016.55
908.804	6988.08
909.117	6962.99
909.43	6937.46
909.743	6867.63
910.056	6811.13
910.368	6792.83
910.681	6789.21
910.994	6748.76
911.307	6725.04
911.619	6707.86
911.932	6679.16
912.244	6676.45
912.557	6661.76
912.869	6603.68
913.181	6552.16
913.494	6554.87
913.806	6543.34
914.118	6486.62
914.43	6502.67
914.742	6497.92
915.054	6447.75
915.366	6356.01
915.678	6370.92
915.99	6341.99
916.302	6350.58
916.613	6334.99
916.925	6338.83
917.236	6264.26
917.548	6227.87
917.859	6202.34
918.171	6178.38
918.482	6167.99
918.794	6078.5
919.105	6119.85
919.416	6070.81
919.727	6077.14
920.038	6089.35
920.349	5998.27
920.66	5951.27
920.971	5915.79
921.282	5954.89
921.593	5848.22
921.903	5853.87
922.214	5863.59
922.525	5777.94
922.835	5838.5
923.146	5722.35
923.456	5746.98
923.767	5739.52
924.077	5716.02
924.387	5663.14
924.697	5598.51
925.008	5652.75
925.318	5662.46
925.628	5567.78
925.938	5545.86
926.248	5485.97
926.558	5448.46
926.867	5520.55
927.177	5459.53
927.487	5449.14
927.796	5386.99
928.106	5416.82
928.416	5368.91
928.725	5389.25
929.034	5315.58
929.344	5347.9
929.653	5316.03
929.962	5247.56
930.271	5224.96
930.581	5134.79
930.89	5208.92
931.199	5249.37
931.508	5142.03
931.817	5098.64
932.125	5131.4
932.434	5123.95
932.743	5010.28
933.051	5049.15
933.36	5040.33
933.669	4971.63
933.977	5020.22
934.286	4942.48
934.594	4953.33
934.902	4902.26
935.21	4887.8
935.519	4871.3
935.827	4859.1
936.135	4839.89
936.443	4825.65
936.751	4794.24
937.059	4752.88
937.367	4710.85
937.674	4734.13
937.982	4699.1
938.29	4654.81
938.597	4715.82
938.905	4619.1
939.213	4629.95
939.52	4628.37
939.827	4612.77
940.135	4582.94
940.442	4548.37
940.749	4567.58
941.056	4570.06
941.363	4484.19
941.67	4481.7
941.977	4479.9
942.284	4419.11
942.591	4393.8
942.898	4380.92
943.205	4394.02
943.511	4342.27
943.818	4340.46
944.125	4295.95
944.431	4325.32
944.738	4280.13
945.044	4269.73
945.35	4260.92
945.657	4243.52
945.963	4248.04
946.269	4172.79
946.575	4187.02
946.881	4163.07
947.187	4170.3
947.493	4120.13
947.799	4082.39
948.105	4102.05
948.41	4091.66
948.716	4088.27
949.022	4007.59
949.327	4035.84
949.633	3954.71
949.938	3968.05
950.244	3971.89
950.549	3941.83
950.854	3933.47
951.16	3903.41
951.465	3889.4
951.77	3894.6
952.075	3859.57
952.38	3854.38
952.685	3821.83
952.99	3796.52
953.294	3829.07
953.599	3782.97
953.904	3766.92
954.209	3738.22
954.513	3723.98
954.818	3712.91
955.122	3735.06
955.426	3716.07
955.731	3675.4
956.035	3691.44
956.339	3660.26
956.643	3645.34
956.948	3613.25
957.252	3588.39
957.556	3604.67
957.86	3578.9
958.163	3558.79
958.467	3533.93
958.771	3544.78
959.075	3523.76
959.378	3466.14
959.682	3493.03
959.985	3491.45
960.289	3479.24
960.592	3455.06
960.896	3434.95
961.199	3418.46
961.502	3388.17
961.805	3327.38
962.108	3343.43
962.411	3348.17
962.714	3308.18
963.017	3317.67
963.32	3316.76
963.623	3284.45
963.926	3295.29
964.228	3255.52
964.531	3228.86
964.833	3240.83
965.136	3253.94
965.438	3201.96
965.741	3193.83
966.043	3205.35
966.345	3165.35
966.648	3174.39
966.95	3161.51
967.252	3139.82
967.554	3094.62
967.856	3072.25
968.158	3093.72
968.46	3084.23
968.761	3053.04
969.063	3052.36
969.365	3048.3
969.666	3006.94
969.968	2972.37
970.269	3001.74
970.571	2979.6
970.872	2988.64
971.174	2898.92
971.475	2961.52
971.776	2955.64
972.077	2926.26
972.378	2908.86
972.679	2898.69
972.98	2882.65
973.281	2826.15
973.582	2875.42
973.883	2828.64
974.183	2834.06
974.484	2811.47
974.785	2806.72
975.085	2837
975.386	2805.59
975.686	2791.58
975.986	2754.97
976.287	2780.51
976.587	2720.39
976.887	2729.89
977.187	2706.61
977.487	2723.11
977.787	2688.53
978.087	2670.68
978.387	2622.32
978.687	2640.17
978.987	2658.7
979.286	2610.57
979.586	2638.81
979.885	2608.76
980.185	2585.48
980.484	2601.3
980.784	2585.03
981.083	2569.66
981.382	2543.45
981.682	2522.21
981.981	2545.94
982.28	2527.18
982.579	2529.44
982.878	2520.85
983.177	2472.94
983.475	2473.85
983.774	2459.38
984.073	2437.01
984.372	2475.66
984.67	2437.24
984.969	2441.98
985.267	2425.26
985.566	2430.46
985.864	2376.9
986.162	2372.83
986.461	2361.31
986.759	2348.2
987.057	2339.84
987.355	2324.25
987.653	2318.6
987.951	2327.64
988.249	2314.53
988.547	2323.34
988.844	2285.15
989.142	2281.54
989.44	2267.3
989.737	2267.53
990.035	2245.83
990.332	2245.38
990.63	2238.83
990.927	2211.48
991.224	2229.56
991.521	2209.67
991.819	2174.65
992.116	2165.38
992.413	2200.63
992.71	2152.27
993.006	2124.25
993.303	2154.31
993.6	2137.81
993.897	2148.66
994.193	2127.64
994.49	2117.02
994.787	2078.38
995.083	2102.78
995.379	2088.09
995.676	2072.73
995.972	2055.55
996.268	2014.88
996.565	2008.55
996.861	1998.38
997.157	1998.38
997.453	2008.1
997.749	2000.41
998.044	1970.81
998.34	1980.75
998.636	1951.6
998.932	1963.8
999.227	1922.9
999.523	1947.53
999.818	1912.51
1000.114	1926.29
1000.409	1892.85
1000.704	1907.31
1001	1890.13
1001.295	1889
1001.59	1866.18
1001.885	1834.54
1002.18	1864.15
1002.475	1827.54
1002.77	1845.84
1003.065	1837.25
1003.359	1810.36
1003.654	1807.65
1003.949	1799.74
1004.243	1773.3
1004.538	1737.37
1004.832	1761.1
1005.127	1728.78
1005.421	1757.48
1005.715	1724.71
1006.009	1732.4
1006.304	1749.35
1006.598	1713.64
1006.892	1696.24
1007.186	1680.2
1007.48	1668.67
1007.773	1671.16
1008.067	1691.72
1008.361	1648.78
1008.655	1639.75
1008.948	1633.19
1009.242	1635.68
1009.535	1602.01
1009.829	1590.93
1010.122	1575.79
1010.415	1586.87
1010.708	1569.24
1011.001	1555
1011.295	1536.02
1011.588	1559.07
1011.881	1535.12
1012.173	1532.86
1012.466	1545.28
1012.759	1497.83
1013.052	1523.36
1013.344	1500.54
1013.637	1512.29
1013.93	1488.56
1014.222	1469.13
1014.514	1466.87
1014.807	1480.65
1015.099	1444.27
1015.391	1437.94
1015.683	1423.71
1015.976	1431.61
1016.268	1418.51
1016.56	1416.7
1016.851	1387.77
1017.143	1415.12
1017.435	1383.93
1017.727	1370.15
1018.018	1382.35
1018.31	1371.73
1018.602	1357.27
1018.893	1333.99
1019.185	1339.87
1019.476	1344.16
1019.767	1341
1020.058	1290.38
1020.35	1313.43
1020.641	1305.97
1020.932	1302.8
1021.223	1258.51
1021.514	1255.12
1021.804	1277.72
1022.095	1263.26
1022.386	1244.73
1022.677	1257.38
1022.967	1199.3
1023.258	1208.57
1023.548	1223.71
1023.839	1205.63
1024.129	1209.93
1024.419	1191.17
1024.709	1178.74
1025	1173.09
1025.29	1164.28
1025.58	1155.01
1025.87	1159.76
1026.16	1181.23
1026.449	1129.7
1026.739	1143.03
1027.029	1121.57
1027.319	1094.9
1027.608	1115.69
1027.898	1118.85
1028.187	1101.23
1028.477	1103.04
1028.766	1109.14
1029.055	1068.01
1029.344	1053.77
1029.634	1035.92
1029.923	1091.28
1030.212	1040.89
1030.501	1063.04
1030.79	1025.52
1031.078	1045.18
1031.367	1032.98
1031.656	1014.9
1031.945	1032.98
1032.233	981.91
1032.522	1003.6
1032.81	997.05
1033.099	989.82
1033.387	988.46
1033.675	989.82
1033.963	975.58
1034.251	984.4
1034.54	965.86
1034.828	966.32
1035.116	965.64
1035.403	952.53
1035.691	927
1035.979	931.52
1036.267	919.54
1036.554	945.75
1036.842	918.41
1037.129	904.62
1037.417	901.46
1037.704	908.69
1037.992	891.06
1038.279	928.35
1038.566	885.41
1038.853	885.41
1039.14	885.41
