Data from hue_50_FLMS001491_27.txt Node
Date: Mon Feb 06 15:09:49 GMT 2017
User: dcchb
Spectrometer: FLMS00149
Trigger mode: 0
Integration Time (sec): 2.000000E-2
Scans to average: 10
Electric dark correction enabled: true
Nonlinearity correction enabled: false
Boxcar width: 0
XAxis mode: Wavelengths
Number of Pixels in Spectrum: 2048
>>>>>Begin Spectral Data<<<<<
341.393	-10.66
341.776	-10.66
342.16	-10.66
342.543	-59.48
342.927	-83.66
343.31	-54.73
343.693	-78.46
344.077	-64.67
344.46	-58.12
344.843	-65.8
345.226	-33.26
345.61	-19.7
345.993	-18.35
346.376	-3.88
346.759	18.71
347.142	29.56
347.525	39.96
347.908	61.88
348.291	53.74
348.674	86.51
349.057	106.62
349.44	138.49
349.823	141.2
350.206	152.95
350.588	186.62
350.971	205.6
351.354	215.09
351.737	222.78
352.119	248.09
352.502	257.13
352.884	252.38
353.267	274.75
353.65	276.79
354.032	281.98
354.414	298.25
354.797	314.53
355.179	335.32
355.562	317.24
355.944	331.7
356.326	341.87
356.709	327.41
357.091	339.38
357.473	351.59
357.855	334.64
358.238	329.89
358.62	336.9
359.002	329.21
359.384	353.17
359.766	332.38
360.148	344.36
360.53	346.62
360.912	342.55
361.294	349.1
361.676	336.22
362.057	357.24
362.439	331.47
362.821	309.1
363.203	335.99
363.584	316.33
363.966	343.45
364.348	321.31
364.729	327.86
365.111	312.49
365.493	324.02
365.874	312.04
366.256	316.79
366.637	300.51
367.019	309.33
367.4	298.71
367.781	300.74
368.163	288.76
368.544	309.78
368.925	305.71
369.306	327.41
369.688	312.94
370.069	315.43
370.45	297.58
370.831	309.55
371.212	295.54
371.593	295.09
371.974	332.83
372.355	305.49
372.736	315.66
373.117	319.27
373.498	293.06
373.879	314.53
374.26	320.4
374.641	319.72
375.021	320.85
375.402	311.81
375.783	310.01
376.163	323.34
376.544	315.2
376.925	320.18
377.305	308.2
377.686	316.56
378.066	319.95
378.447	332.83
378.827	340.74
379.208	348.2
379.588	324.92
379.968	342.77
380.349	328.31
380.729	318.14
381.109	345.49
381.489	325.82
381.87	337.35
382.25	330.12
382.63	319.72
383.01	338.03
383.39	335.77
383.77	314.98
384.15	326.95
384.53	345.49
384.91	340.97
385.29	342.77
385.67	345.03
386.049	341.19
386.429	345.03
386.809	354.52
387.189	347.29
387.568	345.03
387.948	353.62
388.328	349.55
388.707	334.86
389.087	330.8
389.466	368.31
389.846	353.62
390.225	339.16
390.605	353.39
390.984	359.5
391.363	348.2
391.743	359.04
392.122	359.04
392.501	371.7
392.881	382.09
393.26	372.6
393.639	383.68
394.018	377.35
394.397	379.38
394.776	357.01
395.155	361.98
395.534	356.78
395.913	367.86
396.292	379.16
396.671	370.57
397.05	340.51
397.429	385.26
397.808	376.67
398.186	381.64
398.565	363.56
398.944	369.67
399.323	368.76
399.701	379.61
400.08	353.62
400.458	370.12
400.837	371.93
401.215	396.78
401.594	400.4
401.972	382.09
402.351	386.16
402.729	382.32
403.107	396.33
403.486	384.58
403.864	372.83
404.242	410.34
404.62	380.06
404.999	399.72
405.377	396.56
405.755	393.85
406.133	405.6
406.511	396.78
406.889	418.93
407.267	399.72
407.645	419.16
408.023	404.69
408.401	406.95
408.779	422.09
409.156	421.64
409.534	410.12
409.912	423.45
410.29	424.13
410.667	418.7
411.045	427.52
411.422	426.39
411.8	439.49
412.178	434.3
412.555	441.98
412.933	453.73
413.31	432.26
413.687	437.69
414.065	450.34
414.442	442.43
414.819	467.97
415.197	463.9
415.574	455.54
415.951	452.15
416.328	471.13
416.705	474.07
417.082	458.93
417.46	463
417.837	471.81
418.214	447.4
418.591	487.85
418.967	474.52
419.344	516.1
419.721	495.31
420.098	474.52
420.475	484.92
420.852	493.73
421.228	488.31
421.605	491.47
421.982	506.38
422.358	511.81
422.735	499.15
423.111	514.75
423.488	522.88
423.864	518.36
424.241	518.81
424.617	533.28
424.994	507.51
425.37	511.58
425.746	512.49
426.123	533.28
426.499	528.08
426.875	524.69
427.251	554.52
427.627	525.14
428.003	564.69
428.379	557.23
428.756	555.88
429.132	540.73
429.507	562.88
429.883	557.01
430.259	568.53
430.635	582.54
431.011	568.53
431.387	572.37
431.763	594.97
432.138	584.58
432.514	614.63
432.89	569.43
433.265	617.79
433.641	620.96
434.016	598.36
434.392	617.79
434.767	642.88
435.143	638.58
435.518	634.97
435.894	641.07
436.269	657.34
436.644	662.54
437.02	667.96
437.395	650.79
437.77	673.61
438.145	654.18
438.52	669.54
438.895	661.41
439.271	668.19
439.646	676.78
440.021	685.36
440.395	695.31
440.77	665.93
441.145	712.03
441.52	701.18
441.895	686.04
442.27	714.06
442.645	720.39
443.019	725.59
443.394	712.26
443.769	708.64
444.143	718.13
444.518	737.34
444.892	729.43
445.267	731.01
445.641	733.27
446.016	730.11
446.39	729.2
446.764	724.23
447.139	761.52
447.513	746.15
447.887	757.9
448.262	743.89
448.636	763.78
449.01	780.95
449.384	787.73
449.758	796.77
450.132	782.99
450.506	808.75
450.88	778.92
451.254	818.69
451.628	830.67
452.002	814.4
452.376	833.16
452.75	820.95
453.123	848.3
453.497	833.16
453.871	830.22
454.244	844.46
454.618	848.3
454.992	860.95
455.365	863.44
455.739	897.79
456.112	878.8
456.486	908.41
456.859	949.54
457.232	909.76
457.606	917.9
457.979	913.83
458.352	936.66
458.725	939.37
459.099	970.55
459.472	948.18
459.845	978.69
460.218	998.58
460.591	989.31
460.964	979.14
461.337	1019.59
461.71	1029.99
462.083	1061.85
462.456	1055.98
462.829	1057.33
463.201	1086.03
463.574	1078.35
463.947	1116.09
464.32	1111.57
464.692	1127.84
465.065	1170.77
465.438	1151.79
465.81	1182.3
466.183	1175.97
466.555	1198.8
466.928	1211.9
467.3	1228.63
467.672	1245.8
468.045	1289.87
468.417	1286.7
468.789	1302.97
469.161	1319.7
469.534	1375.51
469.906	1386.59
470.278	1381.62
470.65	1425.68
471.022	1453.25
471.394	1470.43
471.766	1484.44
472.138	1490.09
472.51	1530.54
472.882	1549.97
473.253	1579.58
473.625	1619.35
473.997	1666.13
474.369	1700.93
474.74	1719.69
475.112	1770.08
475.484	1793.58
475.855	1856.18
476.227	1886.24
476.598	1948.61
476.97	1956.29
477.341	2043.75
477.713	2114.93
478.084	2109.28
478.455	2210.07
478.827	2225.89
479.198	2362.16
479.569	2351.31
479.94	2456.39
480.311	2526.67
480.682	2583.84
481.053	2643.5
481.424	2751.07
481.795	2785.2
482.166	2864.52
482.537	2955.59
482.908	3045.3
483.279	3124.85
483.65	3190.83
484.021	3302.02
484.391	3377.04
484.762	3455.69
485.133	3574.78
485.503	3614.55
485.874	3765.28
486.244	3798.05
486.615	3949.68
486.985	4055.67
487.356	4155.1
487.726	4272.16
488.097	4441.87
488.467	4522.32
488.837	4641.87
489.207	4746.95
489.578	4865.14
489.948	4982.65
490.318	5108.52
490.688	5169.31
491.058	5312.13
491.428	5458.8
491.798	5562.52
492.168	5765.23
492.538	5894.04
492.908	5971.78
493.278	6103.98
493.648	6177.65
494.017	6335.16
494.387	6468.94
494.757	6571.76
495.126	6736.28
495.496	6799.78
495.866	6933.79
496.235	7049.94
496.605	7192.76
496.974	7350.72
497.344	7468.24
497.713	7511.4
498.082	7633.66
498.452	7924.27
498.821	7883.59
499.19	8057.15
499.559	8191.83
499.928	8274.09
500.298	8395.9
500.667	8586.4
501.036	8585.27
501.405	8703.68
501.774	8747.07
502.143	8865.71
502.512	9018.7
502.88	9171.69
503.249	9198.59
503.618	9366.04
503.987	9412.59
504.356	9541.85
504.724	9704.79
505.093	9713.83
505.462	9830.43
505.83	9969.41
506.199	10063.42
506.567	10250.08
506.936	10286.47
507.304	10486.01
507.672	10524.88
508.041	10647.81
508.409	10711.77
508.777	10844.42
509.145	10997.86
509.514	10964.64
509.882	11117.18
510.25	11224.75
510.618	11362.37
510.986	11422.71
511.354	11542.03
511.722	11599.88
512.09	11800.78
512.458	11663.61
512.826	11874.67
513.193	12025.18
513.561	12066.31
513.929	12188.79
514.297	12310.37
514.664	12412.51
515.032	12485.28
515.4	12580.87
515.767	12669.46
516.135	12813.41
516.502	12723.46
516.869	12951.93
517.237	13143.79
517.604	13079.61
517.972	13204.36
518.339	13293.62
518.706	13326.61
519.073	13498.36
519.44	13494.29
519.808	13751.69
520.175	13697.45
520.542	13927.28
520.909	13900.61
521.276	14073.49
521.643	14165.46
522.009	14268.51
522.376	14417.21
522.743	14506.24
523.11	14729.97
523.477	14722.96
523.843	14802.51
524.21	14974.48
524.577	15092.22
524.943	15178.32
525.31	15243.4
525.676	15434.58
526.043	15582.15
526.409	15574.92
526.776	15781.01
527.142	15823.5
527.508	15900.56
527.874	16027.78
528.241	16151.62
528.607	16173.54
528.973	16314.78
529.339	16361.11
529.705	16497.6
530.071	16704.6
530.437	16820.98
530.803	16823.02
531.169	16906.18
531.535	16920.87
531.901	17024.37
532.267	17114.08
532.632	17251.48
532.998	17297.81
533.364	17465.26
533.73	17479.95
534.095	17695.54
534.461	17651.24
534.826	17768.3
535.192	17804.24
535.557	17872.26
535.923	17839.94
536.288	18033.38
536.653	18098.92
537.019	18113.38
537.384	18213.04
537.749	18329.87
538.114	18394.28
538.479	18400.6
538.845	18428.4
539.21	18434.28
539.575	18612.35
539.94	18667.26
540.305	18683.76
540.67	18762.18
541.034	18843.3
541.399	19025.9
541.764	19105.22
542.129	19100.02
542.494	19140.92
542.858	19144.31
543.223	19185.67
543.587	19330.97
543.952	19264.76
544.316	19415.49
544.681	19446.9
545.045	19553.79
545.41	19675.6
545.774	19716.05
546.138	19748.36
546.503	19857.97
546.867	19828.14
547.231	19945.42
547.595	20035.36
547.959	20104.06
548.324	20170.27
548.688	20179.99
549.052	20277.62
549.416	20259.76
549.779	20450.49
550.143	20400.78
550.507	20588.57
550.871	20636.93
551.235	20616.14
551.599	20784.72
551.962	20775.23
552.326	20893.65
552.689	21035.56
553.053	20894.1
553.417	21025.62
553.78	21290.02
554.143	21260.64
554.507	21343.35
554.87	21430.35
555.234	21588.54
555.597	21406.17
555.96	21626.28
556.323	21705.38
556.686	21679.84
557.05	21945.6
557.413	21918.93
557.776	22084.12
558.139	22207.96
558.502	22262.65
558.865	22160.5
559.228	22444.79
559.59	22414.28
559.953	22525.02
560.316	22698.57
560.679	22804.33
561.041	22901.05
561.404	23068.28
561.767	23025.34
562.129	23055.17
562.492	23349.4
562.854	23269.18
563.217	23280.02
563.579	23439.34
563.941	23657.41
564.304	23589.62
564.666	23858.99
565.028	23897.41
565.39	23984.19
565.753	24122.94
566.115	24147.35
566.477	24253.11
566.839	24377.62
567.201	24416.04
567.563	24423.5
567.925	24676.6
568.287	24725.41
568.648	24717.5
569.01	24831.4
569.372	24899.64
569.734	24909.59
570.095	25106.19
570.457	25272.06
570.819	25227.09
571.18	25421.44
571.542	25531.04
571.903	25544.6
572.265	25603.35
572.626	25861.65
572.987	25735.33
573.349	25950.01
573.71	26060.29
574.071	26110.91
574.432	26294.86
574.794	26470
575.155	26428.42
575.516	26451.24
575.877	26497.11
576.238	26644.91
576.599	26755.19
576.96	26743.44
577.32	26935.07
577.681	26932.58
578.042	27066.36
578.403	27069.53
578.763	27112.24
579.124	27298.45
579.485	27432
579.845	27519.91
580.206	27569.63
580.566	27623.41
580.927	27787.25
581.287	27987.92
581.648	27868.83
582.008	28118.54
582.368	28228.37
582.728	28259.33
583.089	28215.49
583.449	28347.69
583.809	28556.95
584.169	28705.64
584.529	28653.44
584.889	28999.42
585.249	28865.19
585.609	28953.55
585.969	29167.78
586.329	29213.43
586.688	29346.76
587.048	29296.14
587.408	29378.62
587.768	29525.06
588.127	29716.24
588.487	29585.85
588.846	29931.6
589.206	29777.48
589.565	30020.86
589.925	30270.8
590.284	30209.33
590.643	30340.85
591.003	30484.35
591.362	30676.67
591.721	30666.95
592.08	30802.54
592.44	30892.93
592.799	30939.71
593.158	30910.78
593.517	31030.55
593.876	31268.06
594.235	31207.05
594.593	31386.25
594.952	31388.06
595.311	31431.67
595.67	31609.75
596.029	31889.06
596.387	32024.65
596.746	32030.53
597.104	31964.54
597.463	32097.87
597.822	32256.51
598.18	32215.38
598.538	32232.78
598.897	32529.5
599.255	32382.38
599.613	32921.35
599.972	32711.41
600.33	32839.09
600.688	32782.6
601.046	33042.93
601.404	33110.27
601.762	33122.48
602.12	33385.52
602.478	33390.72
602.836	33427.55
603.194	33228.46
603.552	33463.26
603.91	33410.83
604.268	33716.59
604.625	33620.77
604.983	33808.79
605.341	33734.21
605.698	34018.95
606.056	34165.84
606.413	34110.02
606.771	34175.78
607.128	34406.96
607.485	34082.9
607.843	34383.01
608.2	34503.68
608.557	34696.45
608.914	34707.07
609.272	34746.16
609.629	34737.58
609.986	35044.46
610.343	34764.92
610.7	35208.52
611.057	35088.53
611.414	35183.44
611.771	35172.82
612.127	35403.32
612.484	35484.9
612.841	35488.06
613.198	35423.21
613.554	35472.47
613.911	35839.92
614.267	35707.72
614.624	35688.96
614.98	35860.94
615.337	36031.1
615.693	36012.8
616.05	35901.39
616.406	36252.34
616.762	36140.93
617.118	36161.94
617.475	36315.84
617.831	36371.66
618.187	36395.16
618.543	36561.71
618.899	36669.95
619.255	36659.33
619.611	36807.13
619.967	36816.84
620.323	36994.69
620.678	36877.86
621.034	36820.68
621.39	36780.23
621.746	36900.46
622.101	37310.39
622.457	37001.47
622.812	37126.44
623.168	37143.16
623.523	37099.32
623.879	37260.67
624.234	37098.42
624.589	37226.78
624.945	37180.22
625.3	37435.13
625.655	37419.76
626.01	37307
626.365	37339.09
626.72	37347.68
627.075	37285.98
627.43	37449.82
627.785	37381.12
628.14	37268.13
628.495	37436.49
628.85	37338.41
629.205	37276.04
629.559	37500.44
629.914	37418.86
630.269	37452.76
630.623	37318.75
630.978	37227.91
631.332	37489.82
631.687	37598.07
632.041	37330.95
632.396	37397.84
632.75	37272.2
633.104	37401.01
633.459	37281.24
633.813	37213.22
634.167	37292.31
634.521	37349.71
634.875	37389.03
635.229	37307.45
635.583	37119.43
635.937	37164.86
636.291	37083.5
636.645	37173.9
636.999	37059.55
637.352	37200.56
637.706	37041.7
638.06	37106.33
638.413	37104.07
638.767	37001.7
639.121	36999.66
639.474	36908.82
639.828	36897.07
640.181	36911.76
640.534	36894.35
640.888	36743.4
641.241	36575.27
641.594	36805.54
641.947	36888.71
642.301	36739.56
642.654	36698.65
643.007	36776.17
643.36	36747.69
643.713	36775.49
644.066	36867.01
644.419	36433.58
644.771	36294.14
645.124	36056.41
645.477	35984.77
645.83	35735.74
646.182	35717.21
646.535	35525.58
646.888	35726.02
647.24	35470.66
647.593	35798.11
647.945	35446.94
648.298	35424.56
648.65	35356.32
649.002	35214.62
649.355	35493.04
649.707	35383.66
650.059	35564.45
650.411	35876.3
650.763	35982.29
651.115	36368.27
651.467	36225.9
651.819	36199.23
652.171	36046.92
652.523	36055.96
652.875	35962.18
653.227	36082.17
653.578	36120.36
653.93	35992.46
654.282	35783.42
654.633	35813.93
654.985	35800.37
655.337	35861.61
655.688	35792.69
656.039	36021.16
656.391	35731.67
656.742	35801.5
657.094	35673.37
657.445	35847.38
657.796	35782.52
658.147	35696.65
658.498	35630.43
658.849	35803.99
659.2	35740.71
659.551	35731
659.902	35801.05
660.253	35850.31
660.604	35755.18
660.955	35653.26
661.306	35808.06
661.656	35671.79
662.007	35586.37
662.358	35685.8
662.708	35658.68
663.059	35648.74
663.409	35453.49
663.76	35598.34
664.11	35672.47
664.461	35546.37
664.811	35575.29
665.161	35556.99
665.511	35497.33
665.862	35651.22
666.212	35722.86
666.562	35665.23
666.912	35589.3
667.262	35568.97
667.612	35547.72
667.962	35521.06
668.312	35542.3
668.662	35596.31
669.011	35557.21
669.361	35538.68
669.711	35336.88
670.06	35335.75
670.41	35332.81
670.76	35292.59
671.109	35463.88
671.459	35385.02
671.808	35336.2
672.157	35593.37
672.507	35244.23
672.856	35309.54
673.205	35407.16
673.554	35453.49
673.904	35274.51
674.253	35387.28
674.602	35281.74
674.951	34765.82
675.3	34710.91
675.649	35158.36
675.998	35202.65
676.346	35261.18
676.695	35354.51
677.044	35078.36
677.393	35186.83
677.741	35255.08
678.09	35097.57
678.438	34963.56
678.787	34946.16
679.135	34994.52
679.484	34742.77
679.832	34893.28
680.181	34657.8
680.529	34773.28
680.877	34592.49
681.225	34657.58
681.573	34837.23
681.922	34471.37
682.27	34472.27
682.618	34455.32
682.966	34365.83
683.314	34520.18
683.661	34423.23
684.009	34231.15
684.357	34155.44
684.705	34195.22
685.053	34153.41
685.4	34054.2
685.748	33971.27
686.095	33934.43
686.443	33842.46
686.79	33851.72
687.138	33891.72
687.485	33876.58
687.832	33751.84
688.18	33819.86
688.527	33606.53
688.874	33518.4
689.221	33593.42
689.568	33448.12
689.915	33326.54
690.262	33405.63
690.609	33347.1
690.956	33102.36
691.303	33151.18
691.65	33038.18
691.997	32953.67
692.344	32814.69
692.69	32792.32
693.037	32843.39
693.383	32552.55
693.73	32654.69
694.077	32471.65
694.423	32432.33
694.769	32309.39
695.116	32270.52
695.462	32234.14
695.808	32085.89
696.155	32185.55
696.501	32033.69
696.847	31948.5
697.193	31756.18
697.539	31861.04
697.885	31671.67
698.231	31491.78
698.577	31480.71
698.923	31491.56
699.269	31343.99
699.614	31195.07
699.96	31226.48
700.306	31157.56
700.651	31009.31
700.997	30881.86
701.342	30886.15
701.688	30852.25
702.033	30802.76
702.379	30707.85
702.724	30650
703.069	30561.19
703.415	30348.76
703.76	30345.37
704.105	30225.83
704.45	30344.47
704.795	30143.35
705.14	30001.43
705.485	30045.04
705.83	29852.73
706.175	29927.98
706.52	29749.91
706.865	29698.61
707.209	29590.14
707.554	29536.58
707.899	29617.48
708.243	29360.09
708.588	29361.22
708.932	29198.06
709.277	29063.83
709.621	29266.98
709.966	29007.33
710.31	29077.39
710.654	28777.28
710.998	28954.9
711.342	29019.76
711.687	28784.74
712.031	28638.98
712.375	28558.75
712.719	28578.87
713.063	28496.61
713.407	28638.75
713.75	28548.13
714.094	28598.08
714.438	28346.78
714.782	28447.35
715.125	28171.87
715.469	28312.66
715.812	28110.86
716.156	28075.15
716.499	28138.88
716.843	27977.75
717.186	28010.75
717.53	27972.1
717.873	27894.82
718.216	27857.53
718.559	27780.02
718.902	27492.34
719.246	27665.9
719.589	27551.78
719.932	27530.99
720.275	27415.51
720.617	27446.47
720.96	27450.99
721.303	27403.08
721.646	27291.22
721.989	27229.07
722.331	27178.45
722.674	27237.66
723.016	27133.93
723.359	27091.9
723.701	27096.65
724.044	26923.77
724.386	26804.9
724.729	26976.65
725.071	26749.99
725.413	26789.99
725.755	26899.14
726.097	26654.17
726.439	26586.6
726.782	26614.4
727.124	26663.21
727.465	26473.16
727.807	26544.34
728.149	26368.53
728.491	26416.89
728.833	26453.27
729.175	26266.61
729.516	26331.47
729.858	26274.52
730.199	26289.21
730.541	26172.15
730.882	26094.41
731.224	26205.37
731.565	26109.55
731.906	26032.27
732.248	26088.99
732.589	25962.89
732.93	25885.83
733.271	25919.05
733.612	25879.96
733.953	25851.48
734.294	25739.85
734.635	25639.06
734.976	25699.17
735.317	25553.18
735.658	25582.56
735.999	25579.62
736.339	25507.31
736.68	25643.8
737.021	25506.63
737.361	25300.31
737.702	25542.34
738.042	25344.15
738.383	25401.55
738.723	25326.98
739.063	25334.21
739.404	25298.5
739.744	25220.76
740.084	25178.73
740.424	25170.82
740.764	25136.92
741.104	25080.2
741.444	25050.6
741.784	24961.34
742.124	24976.48
742.464	24963.82
742.804	24868.46
743.143	24858.06
743.483	24771.51
743.823	24676.14
744.162	24709.14
744.502	24846.99
744.841	24642.47
745.181	24832.07
745.52	24598.86
745.86	24697.61
746.199	24518.86
746.538	24453.55
746.877	24501.91
747.216	24553.89
747.556	24420.11
747.895	24514.34
748.234	24406.32
748.573	24293.1
748.911	24247
749.25	24183.5
749.589	24079.55
749.928	24138.53
750.267	24211.07
750.605	24091.08
750.944	24010.85
751.283	23857.64
751.621	24045.2
751.96	23769.28
752.298	23794.36
752.636	23744.87
752.975	23680.24
753.313	23586.23
753.651	23765.66
753.989	23479.34
754.327	23485.44
754.666	23346.01
755.004	23469.62
755.342	23493.8
755.679	23404.31
756.017	23369.29
756.355	23295.84
756.693	23319.12
757.031	23336.97
757.368	23056.53
757.706	23152.34
758.044	22967.26
758.381	22982.18
758.719	22878.9
759.056	22893.14
759.394	22819.92
759.731	22734.73
760.068	22647.72
760.405	22555.3
760.743	22542.42
761.08	22548.97
761.417	22369.31
761.754	22418.35
762.091	22351.23
762.428	22260.39
762.765	21984.69
763.102	22075.31
763.438	21950.57
763.775	22017.91
764.112	21991.47
764.449	21850.46
764.785	21842.77
765.122	21649.56
765.458	21580.41
765.795	21635.77
766.131	21550.58
766.467	21409.56
766.804	21431.26
767.14	21258.61
767.476	21175.9
767.812	21120.98
768.148	21178.84
768.485	20938.84
768.821	20888.67
769.157	20913.08
769.492	20871.5
769.828	20862.69
770.164	20723.71
770.5	20722.8
770.836	20605.74
771.171	20460.21
771.507	20421.79
771.842	20303.38
772.178	20303.38
772.513	20183.16
772.849	20082.37
773.184	20133.21
773.519	20056.83
773.855	19975.03
774.19	19839.66
774.525	19830.4
774.86	19871.07
775.195	19772.77
775.53	19634.02
775.865	19587.92
776.2	19316.51
776.535	19299.79
776.87	19336.85
777.205	19209.62
777.539	19070.64
777.874	19214.37
778.209	19008.5
778.543	18986.58
778.878	18887.6
779.212	18830.2
779.547	18775.51
779.881	18773.25
780.215	18646.7
780.55	18730.09
780.884	18539.81
781.218	18501.84
781.552	18490.09
781.886	18328.52
782.22	18273.38
782.554	18145.02
782.888	18092.82
783.222	18018.24
783.556	17931.46
783.889	17878.58
784.223	17808.08
784.557	17676.1
784.89	17744.58
785.224	17613.96
785.557	17552.04
785.891	17583.68
786.224	17422.32
786.558	17437.47
786.891	17291.25
787.224	17225.72
787.557	17252.39
787.891	17186.17
788.224	17042
788.557	17018.95
788.89	17077.93
789.223	16938.5
789.556	16821.89
789.888	16786.63
790.221	16715.22
790.554	16619.86
790.887	16632.97
791.219	16648.11
791.552	16533.31
791.884	16438.4
792.217	16430.03
792.549	16296.25
792.882	16251.96
793.214	16159.53
793.546	16232.3
793.879	16077.95
794.211	15943.95
794.543	16048.35
794.875	15871.86
795.207	15990.27
795.539	15903.95
795.871	15832.08
796.203	15703.27
796.535	15639.77
796.867	15561.58
797.198	15630.96
797.53	15625.31
797.862	15490.17
798.193	15493.34
798.525	15391.87
798.856	15385.99
799.188	15185.77
799.519	15075.49
799.85	15121.14
800.182	15069.17
800.513	15152.33
800.844	14940.81
801.175	15050.86
801.506	14913.46
801.837	14915.72
802.168	14912.56
802.499	14849.96
802.83	14675.96
803.161	14678.44
803.491	14710.53
803.822	14662.4
804.153	14560.7
804.483	14448.39
804.814	14369.75
805.145	14453.81
805.475	14430.54
805.805	14375.4
806.136	14323.87
806.466	14308.51
806.796	14231.9
807.126	14234.16
807.457	14183.09
807.787	14124.33
808.117	14112.58
808.447	14090.21
808.777	14074.39
809.107	13949.2
809.436	13992.81
809.766	13962.3
810.096	13866.49
810.426	13797.11
810.755	13873.72
811.085	13838.69
811.414	13773.38
811.744	13660.62
812.073	13662.2
812.403	13639.15
812.732	13462.88
813.061	13528.87
813.39	13522.54
813.719	13443.67
814.049	13439.83
814.378	13475.99
814.707	13399.15
815.036	13382.2
815.365	13308.53
815.693	13192.61
816.022	13263.56
816.351	13118.93
816.68	13051.14
817.008	13180.18
817.337	13049.56
817.665	13017.02
817.994	13017.02
818.322	12969.33
818.651	12925.04
818.979	12876.23
819.307	12839.62
819.636	12905.38
819.964	12774.99
820.292	12762.11
820.62	12842.11
820.948	12789.45
821.276	12925.27
821.604	12764.37
821.932	12751.49
822.259	12633.07
822.587	12716.23
822.915	12700.64
823.243	12696.35
823.57	12736.57
823.898	12725.95
824.225	12705.84
824.553	12642.56
824.88	12681.88
825.207	12786.97
825.535	12644.82
825.862	12689.12
826.189	12624.94
826.516	12708.78
826.843	12717.59
827.17	12744.03
827.497	12678.72
827.824	12710.58
828.151	12677.59
828.478	12670.81
828.805	12716.46
829.131	12650.02
829.458	12593.75
829.785	12624.03
830.111	12660.19
830.438	12687.53
830.764	12655.9
831.09	12664.94
831.417	12660.87
831.743	12572.73
832.069	12639.4
832.395	12599.17
832.722	12583.58
833.048	12598.95
833.374	12570.25
833.7	12559.85
834.026	12574.54
834.351	12553.98
834.677	12530.02
835.003	12596.46
835.329	12460.65
835.654	12450.93
835.98	12421.78
836.306	12417.71
836.631	12376.81
836.956	12468.1
837.282	12423.81
837.607	12337.49
837.932	12304.04
838.258	12250.26
838.583	12251.39
838.908	12224.27
839.233	12283.7
839.558	12205.96
839.883	12150.15
840.208	12113.31
840.533	12202.12
840.858	12203.25
841.182	12163.25
841.507	12108.57
841.832	12038.51
842.156	12038.29
842.481	12030.6
842.805	11970.72
843.13	12018.4
843.454	11981.11
843.778	11865.41
844.103	11874.67
844.427	11879.19
844.751	11867.67
845.075	11789.93
845.399	11784.05
845.723	11675.81
846.047	11705.19
846.371	11592.87
846.695	11648.24
847.019	11474.01
847.343	11432.88
847.666	11420
847.99	11358.98
848.313	11361.69
848.637	11239.89
848.96	11216.16
849.284	11244.18
849.607	11191.75
849.931	11139.1
850.254	11028.37
850.577	10995.6
850.9	10975.04
851.223	10920.8
851.546	10849.62
851.869	10805.55
852.192	10856.85
852.515	10733.01
852.838	10682.39
853.161	10727.13
853.483	10653.24
853.806	10585.89
854.129	10576.18
854.451	10593.13
854.774	10482.39
855.096	10490.3
855.419	10457.76
855.741	10488.5
856.063	10339.57
856.385	10283.53
856.708	10270.65
857.03	10252.12
857.352	10270.2
857.674	10268.16
857.996	10172.8
858.318	10111.78
858.64	10146.13
858.961	10076.08
859.283	10069.07
859.605	10006.02
859.926	10059.58
860.248	9998.79
860.57	9963.76
860.891	9968.28
861.212	9904.33
861.534	9934.16
861.855	9851
862.176	9853.71
862.498	9889.64
862.819	9755.86
863.14	9795.63
863.461	9766.71
863.782	9728.97
864.103	9707.05
864.424	9706.14
864.745	9683.09
865.065	9682.19
865.386	9658.69
865.707	9668.4
866.027	9674.28
866.348	9586.82
866.668	9686.93
866.989	9641.06
867.309	9452.14
867.63	9561.06
867.95	9514.74
868.27	9434.74
868.59	9458.92
868.91	9464.79
869.23	9482.19
869.55	9397.45
869.87	9544.34
870.19	9448.07
870.51	9412.59
870.83	9468.41
871.15	9366.49
871.469	9338.02
871.789	9336.89
872.109	9286.49
872.428	9304.12
872.748	9312.03
873.067	9299.37
873.386	9297.34
873.706	9246.27
874.025	9212.14
874.344	9180.73
874.663	9219.38
874.982	9182.32
875.301	9176.89
875.62	9184.8
875.939	9042.66
876.258	9101.19
876.577	9063.22
876.896	9065.48
877.214	8999.27
877.533	9062.09
877.852	9034.75
878.17	9039.49
878.489	9046.95
878.807	9001.75
879.125	8999.5
879.444	8974.18
879.762	8910.46
880.08	8927.86
880.398	8911.36
880.716	8978.03
881.034	8873.4
881.352	8825.49
881.67	8839.27
881.988	8812.38
882.306	8813.51
882.624	8756.11
882.941	8722.89
883.259	8699.62
883.577	8739.61
883.894	8678.37
884.212	8659.39
884.529	8644.48
884.846	8601.77
885.164	8659.62
885.481	8597.47
885.798	8663.23
886.115	8559.51
886.432	8557.92
886.75	8479.28
887.067	8523.8
887.383	8490.13
887.7	8460.07
888.017	8480.41
888.334	8411.04
888.651	8416.46
888.967	8391.15
889.284	8305.05
889.6	8331.04
889.917	8221.21
890.233	8297.14
890.55	8237.71
890.866	8185.73
891.182	8191.83
891.498	8198.84
891.815	8214.66
892.131	8150.93
892.447	8116.35
892.763	8061.67
893.079	7948
893.395	8018.05
893.71	8040.42
894.026	8041.78
894.342	7988
894.657	7907.77
894.973	7918.39
895.289	7911.61
895.604	7906.87
895.92	7832.29
896.235	7791.17
896.55	7811.73
896.865	7772.41
897.181	7771.73
897.496	7707.55
897.811	7745.06
898.126	7650.38
898.441	7641.34
898.756	7625.97
899.071	7556.14
899.386	7619.42
899.7	7516.82
900.015	7448.35
900.33	7430.5
900.644	7430.27
900.959	7419.2
901.273	7343.27
901.588	7364.06
901.902	7297.84
902.216	7324.06
902.531	7297.84
902.845	7276.83
903.159	7206.32
903.473	7214.46
903.787	7178.75
904.101	7153.22
904.415	7169.71
904.729	7091.52
905.042	7092.43
905.356	7063.05
905.67	6999.32
905.984	7057.63
906.297	6957.74
906.611	6955.93
906.924	6945.99
907.237	6928.59
907.551	6873.68
907.864	6812.21
908.177	6791.64
908.491	6816.73
908.804	6774.24
909.117	6725.43
909.43	6667.58
909.743	6742.61
910.056	6692.44
910.368	6620.57
910.681	6601.82
910.994	6568.15
911.307	6529.5
911.619	6547.58
911.932	6506.23
912.244	6494.7
912.557	6473.46
912.869	6495.15
913.181	6404.76
913.494	6411.54
913.806	6362.28
914.118	6301.49
914.43	6313.92
914.742	6270.53
915.054	6302.16
915.366	6260.58
915.678	6198.66
915.99	6186.69
916.302	6116.41
916.613	6086.58
916.925	6104.66
917.236	6087.48
917.548	6014.49
917.859	6069.85
918.171	6036.18
918.482	5973.13
918.794	5922.97
919.105	5927.94
919.416	5868.73
919.727	5882.97
920.038	5809.07
920.349	5809.52
920.66	5785.12
920.971	5797.09
921.282	5768.39
921.593	5682.97
921.903	5675.06
922.214	5690.2
922.525	5675.29
922.835	5669.19
923.146	5581.28
923.456	5586.25
923.767	5562.07
924.077	5516.65
924.387	5503.32
924.697	5510.32
925.008	5494.73
925.318	5485.69
925.628	5415.41
925.938	5443.2
926.248	5391.45
926.558	5337.9
926.867	5334.51
927.177	5309.2
927.487	5268.75
927.796	5219.93
928.106	5271.23
928.416	5231.46
928.725	5217.9
929.034	5182.19
929.344	5175.41
929.653	5137.9
929.962	5160.5
930.271	5086.38
930.581	5099.03
930.89	5041.63
931.199	5050.9
931.508	5022.42
931.817	5016.55
932.125	4981.07
932.434	4944.91
932.743	4887.51
933.051	4936.1
933.36	4870.56
933.669	4816.78
933.977	4814.75
934.286	4831.02
934.594	4816.33
934.902	4756.89
935.21	4714.64
935.519	4781.07
935.827	4761.87
936.135	4678.25
936.443	4661.08
936.751	4694.52
937.059	4626.73
937.367	4639.38
937.674	4635.32
937.982	4602.55
938.29	4540.18
938.597	4590.8
938.905	4516.22
939.213	4464.25
939.52	4455.21
939.827	4456.56
940.135	4425.83
940.442	4369.79
940.749	4420.86
941.056	4412.27
941.363	4349.22
941.67	4328.43
941.977	4318.71
942.284	4288.21
942.591	4305.83
942.898	4259.51
943.205	4262.22
943.511	4250.69
943.818	4256.12
944.125	4197.81
944.431	4191.03
944.738	4181.77
945.044	4197.14
945.35	4115.78
945.657	4107.87
945.963	4064.48
946.269	4090.25
946.575	4078.04
946.881	4027.87
947.187	4014.77
947.493	4026.52
947.799	3972.28
948.105	3986.07
948.41	3986.52
948.716	3918.5
949.022	3937.93
949.327	3950.59
949.633	3897.26
949.938	3900.19
950.244	3904.04
950.549	3846.86
950.854	3834.21
951.16	3822.68
951.465	3851.83
951.77	3776.36
952.075	3767.32
952.38	3737.49
952.685	3727.09
952.99	3687.77
953.294	3711.5
953.599	3690.71
953.904	3630.14
954.209	3638.73
954.513	3659.52
954.818	3656.13
955.122	3587.43
955.426	3601.22
955.731	3606.42
956.035	3549.47
956.339	3548.79
956.643	3508.34
956.948	3517.15
957.252	3523.25
957.556	3501.33
957.86	3457.95
958.163	3489.13
958.467	3456.59
958.771	3443.26
959.075	3423.14
959.378	3377.5
959.682	3368.91
959.985	3352.86
960.289	3347.89
960.592	3358.74
960.896	3315.12
961.199	3327.78
961.502	3291.4
961.805	3282.36
962.108	3245.97
962.411	3250.04
962.714	3212.98
963.017	3244.17
963.32	3206.2
963.623	3226.77
963.926	3201
964.228	3139.99
964.531	3165.98
964.833	3173.89
965.136	3130.27
965.438	3165.3
965.741	3081.91
966.043	3076.94
966.345	3061.8
966.648	3064.51
966.95	3066.77
967.252	3068.58
967.554	3019.77
967.856	3013.44
968.158	3005.08
968.46	3008.01
968.761	3006.43
969.063	2923.5
969.365	2946.55
969.666	2925.08
969.968	2938.19
970.269	2855.25
970.571	2891.41
970.872	2887.79
971.174	2874.68
971.475	2846.89
971.776	2821.8
972.077	2849.83
972.378	2848.02
972.679	2805.76
972.98	2766.44
973.281	2805.99
973.582	2793.78
973.883	2780
974.183	2790.39
974.484	2757.4
974.785	2748.59
975.085	2723.05
975.386	2706.55
975.686	2728.25
975.986	2721.24
976.287	2680.57
976.587	2646.44
976.887	2653.45
977.187	2641.02
977.487	2601.7
977.787	2653.9
978.087	2603.05
978.387	2591.08
978.687	2599.21
978.987	2577.74
979.286	2535.26
979.586	2533.9
979.885	2572.55
980.185	2519.44
980.484	2502.04
980.784	2507.69
981.083	2498.65
981.382	2503.62
981.682	2462.27
981.981	2477.86
982.28	2451.42
982.579	2426.11
982.878	2462.49
983.177	2416.62
983.475	2400.35
983.774	2399.67
984.073	2358.77
984.372	2346.11
984.67	2391.76
984.969	2358.99
985.267	2381.36
985.566	2330.74
985.864	2327.81
986.162	2332.33
986.461	2292.55
986.759	2304.53
987.057	2302.04
987.355	2265.89
987.653	2277.41
987.951	2265.43
988.249	2265.89
988.547	2244.42
988.844	2224.76
989.142	2200.58
989.44	2203.74
989.737	2209.17
990.035	2187.02
990.332	2188.37
990.63	2196.06
990.927	2162.16
991.224	2134.82
991.521	2129.85
991.819	2113.35
992.116	2139.56
992.413	2111.99
992.71	2102.73
993.006	2085.55
993.303	2102.73
993.6	2084.42
993.897	2043.29
994.193	2058.21
994.49	2039.68
994.787	1982.28
995.083	2008.49
995.379	2011.66
995.676	1984.76
995.972	2000.81
996.268	1951.32
996.565	1970.53
996.861	1970.98
997.157	1946.12
997.453	1957.42
997.749	1936.86
998.044	1933.69
998.34	1887.82
998.636	1916.07
998.932	1931.43
999.227	1893.92
999.523	1902.96
999.818	1863.19
1000.114	1884.88
1000.409	1870.87
1000.704	1862.73
1001	1832.68
1001.295	1805.56
1001.59	1817.31
1001.885	1810.08
1002.18	1787.26
1002.475	1778.89
1002.77	1799.01
1003.065	1731.66
1003.359	1761.72
1003.654	1750.65
1003.949	1737.77
1004.243	1735.73
1004.538	1712.23
1004.832	1732.79
1005.127	1698.9
1005.421	1703.42
1005.715	1690.53
1006.009	1692.12
1006.304	1678.11
1006.598	1646.47
1006.892	1641.04
1007.186	1657.77
1007.48	1631.33
1007.773	1599.69
1008.067	1610.99
1008.361	1598.11
1008.655	1606.92
1008.948	1591.33
1009.242	1593.81
1009.535	1574.61
1009.829	1559.24
1010.122	1548.84
1010.415	1550.88
1010.708	1521.95
1011.001	1505.91
1011.295	1510.88
1011.588	1518.79
1011.881	1504.32
1012.173	1499.81
1012.466	1478.34
1012.759	1505.91
1013.052	1481.73
1013.344	1462.97
1013.637	1453.48
1013.93	1459.13
1014.222	1448.28
1014.514	1449.64
1014.807	1419.36
1015.099	1427.72
1015.391	1412.12
1015.683	1418
1015.976	1385.01
1016.268	1386.14
1016.56	1374.16
1016.851	1370.54
1017.143	1351.56
1017.435	1330.54
1017.727	1352.01
1018.018	1335.06
1018.31	1331.67
1018.602	1297.78
1018.893	1336.65
1019.185	1291
1019.476	1286.7
1019.767	1260.94
1020.058	1256.87
1020.35	1315.63
1020.641	1238.12
1020.932	1259.81
1021.223	1232.47
1021.514	1239.47
1021.804	1246.93
1022.095	1216.65
1022.386	1216.42
1022.677	1206.48
1022.967	1186.37
1023.258	1184.56
1023.548	1179.36
1023.839	1165.35
1024.129	1178.68
1024.419	1160.83
1024.709	1168.51
1025	1153.37
1025.29	1141.4
1025.58	1150.21
1025.87	1149.53
1026.16	1105.24
1026.449	1098.91
1026.739	1102.75
1027.029	1116.99
1027.319	1092.58
1027.608	1088.74
1027.898	1081.51
1028.187	1072.7
1028.477	1070.66
1028.766	1068.4
1029.055	1032.92
1029.344	1031.79
1029.634	1048.74
1029.923	1029.08
1030.212	1029.76
1030.501	1023.66
1030.79	1012.36
1031.078	1013.26
1031.367	1008.74
1031.656	977.56
1031.945	1012.59
1032.233	984.56
1032.522	974.4
1032.81	966.03
1033.099	954.73
1033.387	989.76
1033.675	941.4
1033.963	950.44
1034.251	954.73
1034.54	921.06
1034.828	944.57
1035.116	930.1
1035.403	938.69
1035.691	912.93
1035.979	914.96
1036.267	916.77
1036.554	888.75
1036.842	895.98
1037.129	896.21
1037.417	864.79
1037.704	866.83
1037.992	877.67
1038.279	862.53
1038.566	865.7
1038.853	865.7
1039.14	865.7
