Data from hue_10_FLMS001491_5.txt Node
Date: Mon Feb 06 15:31:19 GMT 2017
User: dcchb
Spectrometer: FLMS00149
Trigger mode: 0
Integration Time (sec): 2.000000E-2
Scans to average: 10
Electric dark correction enabled: true
Nonlinearity correction enabled: false
Boxcar width: 0
XAxis mode: Wavelengths
Number of Pixels in Spectrum: 2048
>>>>>Begin Spectral Data<<<<<
341.393	-5.25
341.776	-5.25
342.16	-5.25
342.543	-80.51
342.927	-54.52
343.31	-82.77
343.693	-63.78
344.077	-60.62
344.46	-75.31
344.843	-43.22
345.226	-28.3
345.61	-24.91
345.993	-19.27
346.376	8.98
346.759	15.54
347.142	18.7
347.525	41.52
347.908	66.83
348.291	70.9
348.674	79.04
349.057	96.66
349.44	109.55
349.823	126.27
350.206	175.31
350.588	203.78
350.971	199.94
351.354	239.26
351.737	219.6
352.119	235.42
352.502	243.33
352.884	265.93
353.267	270.44
353.65	300.73
354.032	302.99
354.414	303.21
354.797	302.53
355.179	328.3
355.562	301.4
355.944	296.88
356.326	330.1
356.709	340.95
357.091	322.65
357.473	328.97
357.855	330.1
358.238	319.26
358.62	357
359.002	321.52
359.384	349.76
359.766	333.72
360.148	325.36
360.53	354.06
360.912	325.81
361.294	336.88
361.676	307.51
362.057	313.61
362.439	328.52
362.821	322.87
363.203	327.17
363.584	339.37
363.966	329.88
364.348	326.04
364.729	322.19
365.111	314.74
365.493	317.68
365.874	299.82
366.256	318.58
366.637	306.15
367.019	312.25
367.4	315.42
367.781	307.05
368.163	303.89
368.544	298.01
368.925	296.21
369.306	313.83
369.688	323.32
370.069	305.02
370.45	304.12
370.831	303.89
371.212	314.06
371.593	337.11
371.974	325.36
372.355	309.31
372.736	302.08
373.117	300.5
373.498	312.48
373.879	313.83
374.26	318.35
374.641	312.93
375.021	292.14
375.402	310.67
375.783	287.39
376.163	319.03
376.544	310.22
376.925	329.65
377.305	326.71
377.686	314.06
378.066	325.36
378.447	331.46
378.827	316.55
379.208	309.54
379.588	319.48
379.968	317.22
380.349	328.75
380.729	314.29
381.109	327.39
381.489	329.88
381.87	329.88
382.25	319.03
382.63	339.14
383.01	347.5
383.39	336.66
383.77	352.48
384.15	344.12
384.53	327.84
384.91	342.99
385.29	335.08
385.67	348.86
386.049	348.63
386.429	340.05
386.809	332.82
387.189	349.54
387.568	351.12
387.948	340.05
388.328	359.03
388.707	348.18
389.087	358.13
389.466	360.84
389.846	356.32
390.225	346.38
390.605	369.43
390.984	361.74
391.363	355.64
391.743	360.61
392.122	375.75
392.501	351.8
392.881	369.43
393.26	370.56
393.639	372.36
394.018	357.67
394.397	356.32
394.776	363.32
395.155	357.22
395.534	385.47
395.913	360.39
396.292	380.95
396.671	373.72
397.05	387.5
397.429	362.42
397.808	377.79
398.186	380.05
398.565	379.14
398.944	371.91
399.323	372.82
399.701	391.12
400.08	358.13
400.458	382.76
400.837	359.48
401.215	401.97
401.594	396.54
401.972	363.1
402.351	375.98
402.729	394.28
403.107	402.19
403.486	389.54
403.864	390.67
404.242	400.16
404.62	398.8
404.999	380.5
405.377	407.16
405.755	416.2
406.133	396.77
406.511	399.71
406.889	388.18
407.267	410.33
407.645	407.62
408.023	400.61
408.401	400.61
408.779	414.4
409.156	419.37
409.534	413.94
409.912	426.82
410.29	429.76
410.667	443.55
411.045	434.73
411.422	437.67
411.8	434.28
412.178	411.68
412.555	430.44
412.933	439.93
413.31	445.36
413.687	452.14
414.065	455.3
414.442	450.1
414.819	445.36
415.197	444.23
415.574	461.85
415.951	473.38
416.328	470.21
416.705	477.45
417.082	470.89
417.46	480.61
417.837	500.04
418.214	450.33
418.591	483.55
418.967	458.91
419.344	486.03
419.721	489.2
420.098	497.33
420.475	488.97
420.852	512.02
421.228	494.62
421.605	499.59
421.982	511.12
422.358	504.34
422.735	500.95
423.111	508.4
423.488	512.25
423.864	519.7
424.241	535.07
424.617	502.3
424.994	504.11
425.37	507.73
425.746	534.17
426.123	553.15
426.499	523.09
426.875	545.69
427.251	542.75
427.627	542.3
428.003	531.23
428.379	557.67
428.756	546.14
429.132	556.54
429.507	577.1
429.883	583.21
430.259	566.26
430.635	577.78
431.011	574.39
431.387	583.43
431.763	598.57
432.138	590.44
432.514	603.77
432.89	600.61
433.265	604.9
433.641	620.27
434.016	613.94
434.392	596.31
434.767	654.84
435.143	635.18
435.518	629.08
435.894	642.41
436.269	641.28
436.644	629.53
437.02	649.64
437.395	657.55
437.77	658.91
438.145	645.8
438.52	664.11
438.895	661.85
439.271	673.6
439.646	691.45
440.021	681.51
440.395	707.95
440.77	682.41
441.145	680.38
441.52	715.86
441.895	712.47
442.27	715.18
442.645	695.97
443.019	711.11
443.394	707.72
443.769	702.52
444.143	698
444.518	718.34
444.892	745.69
445.267	730.32
445.641	740.26
446.016	742.52
446.39	738.23
446.764	755.4
447.139	753.6
447.513	736.42
447.887	754.5
448.262	778.45
448.636	786.82
449.01	782.75
449.384	759.47
449.758	773.03
450.132	765.35
450.506	780.04
450.88	785.91
451.254	803.54
451.628	793.82
452.002	805.57
452.376	802.18
452.75	797.44
453.123	806.48
453.497	839.47
453.871	827.72
454.244	839.7
454.618	835.85
454.992	836.31
455.365	854.84
455.739	881.28
456.112	893.48
456.486	884.89
456.859	889.19
457.232	911.33
457.606	893.93
457.979	915.85
458.352	923.54
458.725	934.38
459.099	920.37
459.472	934.83
459.845	941.16
460.218	952.91
460.591	976.64
460.964	978.9
461.337	987.04
461.71	985
462.083	1024.55
462.456	993.14
462.829	1012.35
463.201	1019.58
463.574	1013.93
463.947	1039.24
464.32	1091.21
464.692	1079.92
465.065	1065.9
465.438	1099.35
465.81	1109.52
466.183	1119.46
466.555	1122.63
466.928	1166.69
467.3	1141.16
467.672	1151.1
468.045	1185.9
468.417	1166.01
468.789	1188.84
469.161	1225
469.534	1206.92
469.906	1252.57
470.278	1276.75
470.65	1273.36
471.022	1298.21
471.394	1310.19
471.766	1319.68
472.138	1347.93
472.51	1373.24
472.882	1409.17
473.253	1423.63
473.625	1401.94
473.997	1431.09
474.369	1458.66
474.74	1477.19
475.112	1481.26
475.484	1508.6
475.855	1541.6
476.227	1548.6
476.598	1614.82
476.97	1596.06
477.341	1665.66
477.713	1691.88
478.084	1694.81
478.455	1734.36
478.827	1741.37
479.198	1825.43
479.569	1795.15
479.94	1832.44
480.311	1863.85
480.682	1885.32
481.053	1956.95
481.424	1968.03
481.795	2001.02
482.166	2070.62
482.537	2086.89
482.908	2077.4
483.279	2158.08
483.65	2158.3
484.021	2246.89
484.391	2220
484.762	2261.58
485.133	2305.65
485.503	2358.75
485.874	2399.2
486.244	2421.8
486.615	2472.19
486.985	2521.23
487.356	2539.09
487.726	2573.66
488.097	2623.83
488.467	2638.07
488.837	2683.94
489.207	2713.77
489.578	2803.26
489.948	2854.11
490.318	2854.33
490.688	2887.1
491.058	2942.24
491.428	2980.88
491.798	3015.91
492.168	3053.42
492.538	3113.53
492.908	3113.76
493.278	3161.44
493.648	3168.22
494.017	3221.78
494.387	3290.25
494.757	3325.05
495.126	3323.7
495.496	3343.81
495.866	3354.21
496.235	3418.61
496.605	3434.43
496.974	3463.81
497.344	3487.76
497.713	3503.81
498.082	3560.75
498.452	3609.79
498.821	3570.7
499.19	3600.75
499.559	3702.9
499.928	3660.41
500.298	3691.6
500.667	3723.01
501.036	3703.57
501.405	3787.87
501.774	3803.69
502.143	3764.82
502.512	3852.05
502.88	3870.12
503.249	3923.68
503.618	3919.16
503.987	3934.08
504.356	4022.44
504.724	4011.82
505.093	3981.08
505.462	4007.97
505.83	4031.7
506.199	4083.23
506.567	4087.52
506.936	4093.4
507.304	4191.25
507.672	4154.86
508.041	4181.75
508.409	4226.73
508.777	4218.82
509.145	4260.85
509.514	4250.23
509.882	4347.63
510.25	4284.8
510.618	4300.85
510.986	4359.15
511.354	4353.5
511.722	4382.43
512.09	4450.67
512.458	4435.76
512.826	4452.71
513.193	4423.33
513.561	4489.77
513.929	4554.85
514.297	4531.35
514.664	4561.63
515.032	4553.72
515.4	4602.31
515.767	4609.99
516.135	4631.01
516.502	4598.92
516.869	4655.87
517.237	4709.42
517.604	4661.52
517.972	4718.92
518.339	4689.09
518.706	4721.18
519.073	4743.55
519.44	4830.55
519.808	4821.29
520.175	4834.84
520.542	4850.44
520.909	4846.14
521.276	4889.98
521.643	4960.04
522.009	4986.93
522.376	4963.88
522.743	4979.7
523.11	4998.46
523.477	5096.76
523.843	5068.28
524.21	5125.68
524.577	5131.79
524.943	5219.92
525.31	5145.8
525.676	5287.71
526.043	5243.87
526.409	5287.94
526.776	5309.18
527.142	5280.48
527.508	5349.86
527.874	5446.81
528.241	5452.91
528.607	5427.6
528.973	5495.39
529.339	5447.48
529.705	5523.19
530.071	5585.56
530.437	5559.35
530.803	5615.39
531.169	5616.29
531.535	5673.47
531.901	5652.22
532.267	5691.77
532.632	5734.71
532.998	5728.83
533.364	5770.87
533.73	5743.97
534.095	5821.71
534.461	5861.26
534.826	5909.17
535.192	5913.01
535.557	5955.95
535.923	5970.18
536.288	5970.63
536.653	5990.29
537.019	5958.88
537.384	6019.22
537.749	6046.56
538.114	6092.21
538.479	6054.25
538.845	6113.68
539.21	6123.62
539.575	6130.18
539.94	6117.52
540.305	6181.02
540.67	6230.06
541.034	6262.15
541.399	6256.95
541.764	6277.07
542.129	6367.91
542.494	6357.74
542.858	6378.76
543.223	6368.59
543.587	6384.63
543.952	6426.44
544.316	6521.13
544.681	6455.82
545.045	6503.28
545.41	6527.46
545.774	6568.13
546.138	6589.15
546.503	6599.77
546.867	6571.75
547.231	6649.03
547.595	6699.43
547.959	6700.56
548.324	6719.31
548.688	6716.15
549.052	6759.99
549.416	6773.55
549.779	6809.26
550.143	6769.03
550.507	6897.39
550.871	6950.27
551.235	6880.89
551.599	7002.02
551.962	6970.38
552.326	6997.05
552.689	7067.55
553.053	7144.16
553.417	7070.94
553.78	7154.33
554.143	7129.25
554.507	7126.54
554.87	7155.46
555.234	7203.6
555.597	7167.89
555.96	7197.95
556.323	7287.66
556.686	7296.02
557.05	7289.92
557.413	7320.43
557.776	7376.02
558.139	7315.46
558.502	7373.31
558.865	7378.28
559.228	7472.97
559.59	7464.38
559.953	7523.14
560.316	7545.06
560.679	7566.3
561.041	7619.4
561.404	7639.74
561.767	7593.87
562.129	7667.09
562.492	7748.89
562.854	7749.57
563.217	7715.22
563.579	7796.12
563.941	7825.27
564.304	7837.48
564.666	7881.54
565.028	7895.56
565.39	7894.65
565.753	7920.19
566.115	7968.32
566.477	8043.57
566.839	8084.7
567.201	8076.34
567.563	8122.89
567.925	8111.59
568.287	8133.29
568.648	8203.8
569.01	8201.76
569.372	8281.99
569.734	8254.64
570.095	8338.03
570.457	8343.9
570.819	8378.71
571.18	8430.23
571.542	8477.69
571.903	8464.13
572.265	8498.03
572.626	8594.52
572.987	8619.15
573.349	8590.23
573.71	8724.91
574.071	8732.37
574.432	8827.96
574.794	8881.52
575.155	8853.5
575.516	8874.06
575.877	8982.98
576.238	9047.39
576.599	9115.18
576.96	9153.83
577.32	9234.05
577.681	9315.63
578.042	9375.74
578.403	9402.18
578.763	9514.95
579.124	9571.22
579.485	9698.22
579.845	9832.45
580.206	9867.71
580.566	9921.26
580.927	10013.24
581.287	10233.8
581.648	10220.92
582.008	10318.99
582.368	10576.84
582.728	10636.27
583.089	10779.32
583.449	10979.09
583.809	11062.03
584.169	11200.1
584.529	11353.09
584.889	11575.23
585.249	11674.66
585.609	11856.58
585.969	12094.54
586.329	12178.15
586.688	12439.39
587.048	12524.13
587.408	12871.02
587.768	13046.15
588.127	13167.05
588.487	13438.91
588.846	13642.97
589.206	13780.37
589.565	14151.89
589.925	14364.09
590.284	14517.53
590.643	14725.88
591.003	15014.01
591.362	15414.68
591.721	15552.98
592.08	15750.04
592.44	16148.9
592.799	16358.61
593.158	16585.27
593.517	16929.22
593.876	17135.76
594.235	17388.86
594.593	17813.94
594.952	18028.17
595.311	18248.05
595.67	18566.91
596.029	18940.69
596.387	19170.29
596.746	19494.35
597.104	19669.48
597.463	19927.78
597.822	20325.51
598.18	20579.29
598.538	20882.56
598.897	21263.57
599.255	21380.62
599.613	21981.74
599.972	22032.58
600.33	22465.57
600.688	22647.71
601.046	22920.02
601.404	23366.79
601.762	23525.88
602.12	23935.13
602.478	24042.48
602.836	24294.22
603.194	24529.02
603.552	24867.09
603.91	24963.35
604.268	25378.49
604.625	25518.37
604.983	26012.59
605.341	26093.27
605.698	26503.2
606.056	26767.6
606.413	26961.27
606.771	27229.28
607.128	27561.25
607.485	27626.79
607.843	27986.78
608.2	28197.85
608.557	28549.02
608.914	28647.55
609.272	28985.85
609.629	29245.28
609.986	29543.12
610.343	29576.57
610.7	30025.82
611.057	30147.85
611.414	30276.44
611.771	30552.13
612.127	30842.75
612.484	31024.66
612.841	31226.02
613.198	31205.68
613.554	31579.23
613.911	31817.19
614.267	32035.49
614.624	32224.86
614.98	32357.06
615.337	32717.95
615.693	32804.05
616.05	32736.03
616.406	33251.27
616.762	33246.98
617.118	33257.15
617.475	33559.06
617.831	33677.93
618.187	33853.06
618.543	33834.08
618.899	34320.4
619.255	34413.28
619.611	34444.91
619.967	34627.51
620.323	34748.18
620.678	34837.45
621.034	34719.03
621.39	34941.4
621.746	35109.53
622.101	35496.86
622.457	35397.2
622.812	35465.9
623.168	35623.41
623.523	35709.97
623.879	35880.36
624.234	35770.3
624.589	36002.16
624.945	36074.93
625.3	36231.31
625.655	36152.89
626.01	36373
626.365	36482.83
626.72	36465.65
627.075	36481.92
627.43	36546.55
627.785	36595.82
628.14	36784.51
628.495	36766.21
628.85	36927.11
629.205	36705.65
629.559	37090.95
629.914	36837.39
630.269	37081.68
630.623	36869.26
630.978	37055.24
631.332	37177.72
631.687	37192.64
632.041	37115.8
632.396	37371.84
632.75	37205.97
633.104	37335.91
633.459	37078.97
633.813	37132.3
634.167	37230.83
634.521	37322.8
634.875	37228.8
635.229	37378.85
635.583	37186.31
635.937	37188.8
636.291	37222.02
636.645	37424.5
636.999	37293.65
637.352	37456.81
637.706	37134.11
638.06	37358.96
638.413	37393.54
638.767	37263.6
639.121	37423.82
639.474	37097.5
639.828	37159.19
640.181	37349.7
640.534	37351.96
640.888	37242.81
641.241	37028.57
641.594	37188.57
641.947	37252.52
642.301	37163.94
642.654	37277.38
643.007	37305.4
643.36	37128.01
643.713	37062.25
644.066	37207.55
644.419	37108.12
644.771	36954.45
645.124	36518.53
645.477	36532.09
645.83	36284.41
646.182	36206.9
646.535	36217.52
646.888	36236.5
647.24	36016.17
647.593	36170.29
647.945	36222.27
648.298	36074.93
648.65	35826.35
649.002	35959.45
649.355	35931.88
649.707	36057.98
650.059	36009.62
650.411	36637.4
650.763	36628.13
651.115	37016.15
651.467	36821.12
651.819	36802.37
652.171	36723.05
652.523	36758.98
652.875	36678.08
653.227	36698.41
653.578	36779.32
653.93	36658.19
654.282	36535.93
654.633	36449.61
654.985	36708.13
655.337	36647.79
655.688	36637.4
656.039	36735.25
656.391	36296.39
656.742	36437.63
657.094	36433.11
657.445	36621.13
657.796	36585.65
658.147	36485.31
658.498	36501.81
658.849	36575.7
659.2	36508.14
659.551	36469.72
659.902	36527.12
660.253	36594.01
660.604	36568.47
660.955	36409.61
661.306	36467.23
661.656	36473.11
662.007	36367.12
662.358	36396.95
662.708	36382.94
663.059	36325.99
663.409	36172.78
663.76	36320.34
664.11	36303.4
664.461	36395.82
664.811	36376.16
665.161	36385.2
665.511	36321.02
665.862	36344.07
666.212	36435.14
666.562	36359.21
666.912	36412.32
667.262	36375.94
667.612	36290.29
667.962	36333.9
668.312	36223.4
668.662	36491.64
669.011	36363.51
669.361	36246.67
669.711	36298.2
670.06	36195.38
670.41	36077.41
670.76	36169.39
671.109	36254.81
671.459	36273.11
671.808	36130.07
672.157	36261.36
672.507	35980.69
672.856	36050.07
673.205	36114.93
673.554	36173.46
673.904	36197.18
674.253	36274.02
674.602	36173.46
674.951	35605.33
675.3	35554.04
675.649	35942.73
675.998	36014.59
676.346	36029.5
676.695	36000.58
677.044	35773.69
677.393	35823.63
677.741	35972.33
678.09	35817.98
678.438	35804.2
678.787	35819.79
679.135	35673.58
679.484	35610.76
679.832	35772.79
680.181	35486.02
680.529	35658.21
680.877	35451.21
681.225	35492.12
681.573	35808.04
681.922	35389.75
682.27	35348.62
682.618	35355.62
682.966	35200.37
683.314	35332.57
683.661	35281.95
684.009	35009.64
684.357	34910.66
684.705	35090.55
685.053	34876.09
685.4	34918.12
685.748	34796.32
686.095	34733.95
686.443	34713.83
686.79	34619.37
687.138	34714.51
687.485	34611.91
687.832	34440.17
688.18	34462.77
688.527	34332.37
688.874	34372.15
689.221	34333.73
689.568	34164.02
689.915	34170.57
690.262	34201.53
690.609	34071.82
690.956	33826.17
691.303	33891.03
691.65	33756.34
691.997	33771.94
692.344	33469.57
692.69	33462.34
693.037	33500.31
693.383	33235.68
693.73	33492.17
694.077	33280.42
694.423	33171.73
694.769	33057.61
695.116	32999.08
695.462	33071.39
695.808	32850.15
696.155	32927.21
696.501	32719.31
696.847	32786.2
697.193	32410.62
697.539	32494.91
697.885	32381.24
698.231	32251.75
698.577	32326.78
698.923	32264.86
699.269	31947.13
699.614	31930.4
699.96	31807.24
700.306	31762.5
700.651	31793.91
700.997	31721.37
701.342	31588.72
701.688	31523.86
702.033	31501.71
702.379	31334.94
702.724	31374.26
703.069	31290.42
703.415	31083.87
703.76	30972.69
704.105	30990.77
704.45	30968.39
704.795	30807.27
705.14	30824.22
705.485	30680.27
705.83	30685.01
706.175	30640.95
706.52	30524.56
706.865	30399.14
707.209	30366.15
707.554	30320.28
707.899	30413.83
708.243	30127.51
708.588	30171.81
708.932	29860.63
709.277	29949.21
709.621	30071.02
709.966	29710.57
710.31	29828.76
710.654	29664.93
710.998	29715.55
711.342	29628.77
711.687	29444.59
712.031	29509.9
712.375	29249.34
712.719	29326.86
713.063	29318.27
713.407	29269.46
713.75	29090.93
714.094	29226.52
714.438	29158.27
714.782	29110.59
715.125	28890.03
715.469	29039.41
715.812	28761.22
716.156	28596.93
716.499	28755.8
716.843	28759.64
717.186	28557.84
717.53	28621.11
717.873	28636.7
718.216	28527.33
718.559	28396.48
718.902	28258.41
719.246	28281.91
719.589	28167.34
719.932	28196.94
720.275	28257.51
720.617	28100
720.96	28013.44
721.303	28050.73
721.646	28035.36
721.989	27850.06
722.331	27939.32
722.674	27808.25
723.016	27908.36
723.359	27689.16
723.701	27835.82
724.044	27579.56
724.386	27455.27
724.729	27597.64
725.071	27490.29
725.413	27573.46
725.755	27501.37
726.097	27442.84
726.439	27259.79
726.782	27198.32
727.124	27420.24
727.465	27181.6
727.807	27058.67
728.149	27069.06
728.491	27063.19
728.833	27139.79
729.175	27069.51
729.516	27031.78
729.858	26814.38
730.199	26922.85
730.541	26846.7
730.882	26835.62
731.224	26910.87
731.565	26703.65
731.906	26651.67
732.248	26696.64
732.589	26629.53
732.93	26533.71
733.271	26614.38
733.612	26550.66
733.953	26453.03
734.294	26363.32
734.635	26349.99
734.976	26476.54
735.317	26218.46
735.658	26216.66
735.999	26250.1
736.339	26217.33
736.68	26327.39
737.021	26195.64
737.361	26029.54
737.702	26248.07
738.042	26087.17
738.383	26100.5
738.723	25962.88
739.063	25922.65
739.404	25988.86
739.744	25949.09
740.084	25808.08
740.424	25940.5
740.764	25826.61
741.104	25806.04
741.444	25635.65
741.784	25576.45
742.124	25680.62
742.464	25661.64
742.804	25603.11
743.143	25551.81
743.483	25566.73
743.823	25333.29
744.162	25444.7
744.502	25422.78
744.841	25275.89
745.181	25410.57
745.52	25230.47
745.86	25211.03
746.199	25154.99
746.538	25061.88
746.877	25197.93
747.216	25185.95
747.556	25074.31
747.895	25143.24
748.234	24944.37
748.573	24903.47
748.911	24770.59
749.25	24948.67
749.589	24750.71
749.928	24818.5
750.267	24818.73
750.605	24819.18
750.944	24694.44
751.283	24590.03
751.621	24677.26
751.96	24598.84
752.298	24559.75
752.636	24481.79
752.975	24415.8
753.313	24389.58
753.651	24483.59
753.989	24305.29
754.327	24306.2
754.666	24181.23
755.004	24210.61
755.342	24234.79
755.679	24258.06
756.017	24062.59
756.355	24047.9
756.693	24014
757.031	24011.97
757.368	23764.74
757.706	23820.56
758.044	23755.48
758.381	23829.6
758.719	23597.06
759.056	23650.85
759.394	23490.63
759.731	23371.08
760.068	23315.26
760.405	23381.02
760.743	23269.16
761.08	23235.94
761.417	23175.61
761.754	23085.66
762.091	23103.52
762.428	22953.24
762.765	22814.71
763.102	22847.25
763.438	22731.32
763.775	22670.76
764.112	22810.64
764.449	22667.82
764.785	22625.11
765.122	22505.57
765.458	22361.62
765.795	22281.17
766.131	22369.75
766.467	22216.08
766.804	22127.72
767.14	22123.66
767.476	22047.5
767.812	21980.61
768.148	22023.55
768.485	21770.9
768.821	21775.87
769.157	21639.6
769.492	21615.19
769.828	21503.56
770.164	21397.12
770.5	21344.47
770.836	21438.93
771.171	21276.45
771.507	21101.31
771.842	21026.51
772.178	20958.94
772.513	20942.67
772.849	20819.51
773.184	20796.23
773.519	20710.59
773.855	20705.39
774.19	20587.2
774.525	20418.16
774.86	20467.65
775.195	20480.99
775.53	20385.17
775.865	20144.95
776.2	20120.09
776.535	19968.91
776.87	19943.6
777.205	19936.82
777.539	19872.64
777.874	19830.38
778.209	19707.45
778.543	19649.14
778.878	19567.34
779.212	19563.95
779.547	19326.67
779.881	19402.82
780.215	19316.05
780.55	19421.81
780.884	19165.32
781.218	19234.01
781.552	19130.51
781.886	19023.62
782.22	18933.68
782.554	18797.19
782.888	18636.29
783.222	18680.13
783.556	18521.72
783.889	18497.54
784.223	18322.4
784.557	18332.34
784.89	18382.74
785.224	18263.19
785.557	18196.3
785.891	18132.12
786.224	18111.56
786.558	18106.36
786.891	17973.03
787.224	17888.74
787.557	17801.28
787.891	17766.93
788.224	17656.2
788.557	17672.02
788.89	17633.15
789.223	17616.88
789.556	17503.89
789.888	17441.52
790.221	17337.34
790.554	17284.91
790.887	17239.49
791.219	17200.4
791.552	17174.86
791.884	17173.28
792.217	16962.21
792.549	16931.48
792.882	16761.54
793.214	16694.42
793.546	16844.47
793.879	16635.89
794.211	16663.91
794.543	16684.25
794.875	16533.75
795.207	16596.12
795.539	16434.09
795.871	16421.66
796.203	16266.63
796.535	16271.15
796.867	16267.54
797.198	16159.52
797.53	16127.2
797.862	16054.44
798.193	16065.51
798.525	15963.82
798.856	15962.69
799.188	15749.81
799.519	15873.88
799.85	15660.77
800.182	15767.21
800.513	15728.12
800.844	15482.25
801.175	15669.59
801.506	15556.82
801.837	15479.99
802.168	15454.45
802.499	15437.73
802.83	15308.69
803.161	15228.92
803.491	15231.63
803.822	15296.94
804.153	15170.62
804.483	15063.95
804.814	14998.65
805.145	14962.94
805.475	14956.84
805.805	14997.29
806.136	14913
806.466	14849.95
806.796	14873.22
807.126	14739.89
807.457	14782.15
807.787	14640.24
808.117	14503.52
808.447	14537.41
808.777	14618.32
809.107	14547.36
809.436	14463.29
809.766	14455.38
810.096	14413.58
810.426	14329.51
810.755	14445.67
811.085	14275.73
811.414	14281.6
811.744	14135.62
812.073	14073.25
812.403	14152.11
812.732	14082.29
813.061	14058.78
813.39	14044.55
813.719	13896.3
814.049	14015.17
814.378	13942.18
814.707	13882.52
815.036	13854.27
815.365	13763.2
815.693	13704.22
816.022	13711.45
816.351	13660.15
816.68	13630.77
817.008	13609.76
817.337	13469.87
817.665	13481.17
817.994	13579.47
818.322	13537.67
818.651	13440.95
818.979	13344.68
819.307	13418.35
819.636	13334.96
819.964	13269.2
820.292	13338.35
820.62	13311.68
820.948	13288.86
821.276	13276.66
821.604	13235.08
821.932	13253.61
822.259	13299.93
822.587	13206.38
822.915	13199.37
823.243	13333.38
823.57	13231.23
823.898	13220.16
824.225	13129.99
824.553	13107.85
824.88	13184.68
825.207	13134.51
825.535	13097.9
825.862	13197.34
826.189	13181.74
826.516	13192.36
826.843	13120.73
827.17	13140.39
827.497	13178.35
827.824	13111.24
828.151	13201.63
828.478	13092.71
828.805	13225.58
829.131	13109.2
829.458	13112.14
829.785	13071.01
830.111	13092.93
830.438	13137.68
830.764	13124.57
831.09	13122.31
831.417	13073.5
831.743	13153.95
832.069	13076.89
832.395	13036.89
832.722	13117.79
833.048	13086.15
833.374	13066.94
833.7	13004.8
834.026	13002.77
834.351	13036.21
834.677	13030.56
835.003	13061.29
835.329	13010.45
835.654	12910.56
835.98	12938.81
836.306	12854.52
836.631	12857.46
836.956	12907.17
837.282	12920.73
837.607	12806.61
837.932	12820.62
838.258	12788.31
838.583	12793.73
838.908	12764.81
839.233	12783.11
839.558	12677.58
839.883	12735.88
840.208	12649.33
840.533	12600.97
840.858	12600.74
841.182	12633.51
841.507	12633.28
841.832	12550.57
842.156	12530.46
842.481	12499.05
842.805	12468.54
843.13	12448.43
843.454	12414.53
843.778	12349.22
844.103	12296.12
844.427	12292.73
844.751	12314.42
845.075	12294.54
845.399	12191.71
845.723	12169.34
846.047	12230.36
846.371	12096.57
846.695	12105.84
847.019	11892.51
847.343	11912.4
847.666	11867.88
847.99	11872.63
848.313	11798.05
848.637	11697.94
848.96	11724.38
849.284	11710.37
849.607	11577.94
849.931	11547.44
850.254	11430.83
850.577	11432.41
850.9	11320.78
851.223	11386.31
851.546	11317.84
851.869	11246.2
852.192	11278.07
852.515	11244.17
852.838	11074.91
853.161	11046.88
853.483	11073.78
853.806	11006.89
854.129	11003.27
854.451	10948.13
854.774	10909.71
855.096	10850.73
855.419	10860.22
855.741	10838.98
856.063	10738.19
856.385	10710.62
856.708	10688.25
857.03	10694.13
857.352	10716.27
857.674	10605.77
857.996	10605.99
858.318	10556.73
858.64	10516.96
858.961	10520.8
859.283	10444.19
859.605	10382.04
859.926	10481.93
860.248	10394.47
860.57	10376.62
860.891	10334.36
861.212	10347.92
861.534	10263.18
861.855	10260.01
862.176	10224.99
862.498	10300.01
862.819	10308.6
863.14	10148.38
863.461	10188.6
863.782	10094.82
864.103	10084.42
864.424	10163.07
864.745	10092.56
865.065	10086.01
865.386	10062.05
865.707	9995.39
866.027	10066.35
866.348	10008.72
866.668	10022.5
866.989	9935.05
867.309	9974.82
867.63	9912.45
867.95	9837.65
868.27	9833.81
868.59	9848.27
868.91	9818.67
869.23	9801.72
869.55	9745.45
869.87	9834.04
870.19	9784.77
870.51	9798.33
870.83	9775.51
871.15	9639.24
871.469	9714.26
871.789	9750.65
872.109	9688.05
872.428	9676.3
872.748	9715.85
873.067	9663.19
873.386	9662.51
873.706	9642.18
874.025	9555.62
874.344	9587.04
874.663	9599.47
874.982	9516.76
875.301	9515.63
875.62	9518.34
875.939	9470.43
876.258	9466.81
876.577	9412.35
876.896	9452.35
877.214	9462.97
877.533	9412.58
877.852	9423.65
878.17	9428.4
878.489	9443.76
878.807	9415.74
879.125	9365.57
879.444	9309.08
879.762	9303.2
880.08	9310.89
880.398	9262.75
880.716	9300.04
881.034	9192.02
881.352	9236.31
881.67	9193.6
881.988	9204.67
882.306	9161.74
882.624	9160.61
882.941	9151.12
883.259	9104.34
883.577	9027.28
883.894	9051
884.212	8989.31
884.529	9017.79
884.846	8970.78
885.164	8941.86
885.481	8939.37
885.798	8936.88
886.115	8865.25
886.432	8920.84
886.75	8837.23
887.067	8861.63
887.383	8806.27
887.7	8854.85
888.017	8764.01
888.334	8821.18
888.651	8734.86
888.967	8700.28
889.284	8772.59
889.6	8688.08
889.917	8588.87
890.233	8622.09
890.55	8595.88
890.866	8643.56
891.182	8577.57
891.498	8550.68
891.815	8467.29
892.131	8487.86
892.447	8453.28
892.763	8432.26
893.079	8363.79
893.395	8374.86
893.71	8322.21
894.026	8336.45
894.342	8276.56
894.657	8257.81
894.973	8249.67
895.289	8206.73
895.604	8139.62
895.92	8122.67
896.235	8179.84
896.55	8115.21
896.865	8127.87
897.181	8039.51
897.496	8056.68
897.811	8019.62
898.126	7960.64
898.441	7959.06
898.756	7975.78
899.071	7851.26
899.386	7882.45
899.7	7850.81
900.015	7853.52
900.33	7773.98
900.644	7729.68
900.959	7755.9
901.273	7648.33
901.588	7616.69
901.902	7680.65
902.216	7588.22
902.531	7621.66
902.845	7545.96
903.159	7494.21
903.473	7507.09
903.787	7472.97
904.101	7444.49
904.415	7413.31
904.729	7312.97
905.042	7314.33
905.356	7301.45
905.67	7328.11
905.984	7245.4
906.297	7195.91
906.611	7197.27
906.924	7224.16
907.237	7200.21
907.551	7159.98
907.864	7092.19
908.177	7088.12
908.491	7102.58
908.804	7031.4
909.117	7025.75
909.43	7011.28
909.743	6952.98
910.056	6952.53
910.368	6909.37
910.681	6871.85
910.994	6844.96
911.307	6818.97
911.619	6728.35
911.932	6791.18
912.244	6726.77
912.557	6782.82
912.869	6664.85
913.181	6695.59
913.494	6616.49
913.806	6581.01
914.118	6519.77
914.43	6546.89
914.742	6494.24
915.054	6498.76
915.366	6467.12
915.678	6438.42
915.99	6436.38
916.302	6384.41
916.613	6293.79
916.925	6344.64
917.236	6345.77
917.548	6260.8
917.859	6237.07
918.171	6241.14
918.482	6222.38
918.794	6159.78
919.105	6145.32
919.416	6125.66
919.727	6102.16
920.038	6094.7
920.349	6031.88
920.66	6046.56
920.971	5989.39
921.282	6035.49
921.593	6053.12
921.903	5927.7
922.214	5873.46
922.525	5873.46
922.835	5862.39
923.146	5791.43
923.456	5809.06
923.767	5751.2
924.077	5748.27
924.387	5737.19
924.697	5728.61
925.008	5672.34
925.318	5710.53
925.628	5665.33
925.938	5658.1
926.248	5586.24
926.558	5564.32
926.867	5583.53
927.177	5539.01
927.487	5508.95
927.796	5409.07
928.106	5471.44
928.416	5446.35
928.725	5440.48
929.034	5389.86
929.344	5366.81
929.653	5375.85
929.962	5327.04
930.271	5351.44
930.581	5249.52
930.89	5254.27
931.199	5240.03
931.508	5192.12
931.817	5191.67
932.125	5190.77
932.434	5169.98
932.743	5096.53
933.051	5108.06
933.36	5112.8
933.669	5021.28
933.977	5020.6
934.286	5023.31
934.594	4977.44
934.902	4947.84
935.21	4931.11
935.519	4949.19
935.827	4880.95
936.135	4930.89
936.443	4864.9
936.751	4864.45
937.059	4827.39
937.367	4831.23
937.674	4842.75
937.982	4781.06
938.29	4732.93
938.597	4756.65
938.905	4652.93
939.213	4700.38
939.52	4712.81
939.827	4648.41
940.135	4589.88
940.442	4639.6
940.749	4600.73
941.056	4595.98
941.363	4542.2
941.67	4541.74
941.977	4491.58
942.284	4488.19
942.591	4424.69
942.898	4438.02
943.205	4429.88
943.511	4431.24
943.818	4377.68
944.125	4348.98
944.431	4325.25
944.738	4324.58
945.044	4308.76
945.35	4335.87
945.657	4297.46
945.963	4280.06
946.269	4224.92
946.575	4214.52
946.881	4198.03
947.187	4230.34
947.493	4159.16
947.799	4158.25
948.105	4146.95
948.41	4119.38
948.716	4130
949.022	4084.58
949.327	4082.1
949.633	4007.75
949.938	4026.05
950.244	4002.32
950.549	3976.56
950.854	3945.15
951.16	3989.22
951.465	3966.62
951.77	3932.5
952.075	3873.97
952.38	3917.13
952.685	3859.05
952.99	3842.33
953.294	3868.09
953.599	3836.45
953.904	3799.17
954.209	3801.65
954.513	3775.66
954.818	3765.95
955.122	3741.31
955.426	3711.71
955.731	3734.53
956.035	3690.47
956.339	3715.33
956.643	3733.86
956.948	3656.57
957.252	3612.05
957.556	3646.85
957.86	3580.41
958.163	3623.8
958.467	3604.37
958.771	3556.01
959.075	3551.26
959.378	3500.64
959.682	3546.97
959.985	3487.99
960.289	3490.02
960.592	3463.58
960.896	3488.21
961.199	3415.22
961.502	3413.41
961.805	3418.38
962.108	3402.11
962.411	3412.96
962.714	3330.7
963.017	3354.88
963.32	3341.55
963.623	3340.87
963.926	3301.78
964.228	3298.61
964.531	3286.41
964.833	3303.81
965.136	3264.49
965.438	3255.9
965.741	3205.96
966.043	3194.66
966.345	3151.95
966.648	3116.25
966.95	3186.53
967.252	3128.67
967.554	3133.19
967.856	3137.26
968.158	3125.29
968.46	3098.39
968.761	3083.25
969.063	3069.24
969.365	3076.47
969.666	3050.94
969.968	3024.04
970.269	3010.26
970.571	3048.22
970.872	3042.58
971.174	2984.05
971.475	3019.75
971.776	2966.42
972.077	2948.34
972.378	2926.19
972.679	2912.18
972.98	2922.35
973.281	2907.66
973.582	2871.73
973.883	2852.52
974.183	2871.96
974.484	2845.52
974.785	2832.19
975.085	2841
975.386	2822.24
975.686	2813.88
975.986	2773.88
976.287	2776.59
976.587	2736.59
976.887	2754.45
977.187	2763.71
977.487	2701.34
977.787	2723.49
978.087	2667.9
978.387	2713.77
978.687	2662.47
978.987	2656.6
979.286	2624.51
979.586	2648.24
979.885	2619.08
980.185	2617.5
980.484	2603.49
980.784	2589.71
981.083	2597.84
981.382	2559.42
981.682	2570.5
981.981	2571.4
982.28	2549.71
982.579	2490.5
982.878	2512.42
983.177	2499.76
983.475	2481.69
983.774	2480.56
984.073	2499.31
984.372	2437.17
984.67	2456.38
984.969	2474.23
985.267	2440.56
985.566	2409.37
985.864	2420.44
986.162	2414.57
986.461	2389.94
986.759	2388.36
987.057	2339.32
987.355	2342.93
987.653	2346.32
987.951	2364.85
988.249	2338.64
988.547	2357.62
988.844	2318.75
989.142	2311.3
989.44	2309.26
989.737	2248.25
990.035	2252.77
990.332	2249.15
990.63	2262.03
990.927	2263.16
991.224	2231.52
991.521	2208.47
991.819	2219.77
992.116	2223.61
992.413	2199.66
992.71	2143.84
993.006	2163.95
993.303	2158.98
993.6	2129.38
993.897	2149.94
994.193	2154.92
994.49	2115.82
994.787	2110.85
995.083	2091.64
995.379	2076.73
995.676	2038.99
995.972	2082.15
996.268	2076.73
996.565	2069.27
996.861	2031.98
997.157	2018.65
997.453	2006.67
997.749	2027.91
998.044	2007.35
998.34	2006.22
998.636	1997.41
998.932	1975.71
999.227	1965.09
999.523	1915.83
999.818	1965.09
1000.114	1914.02
1000.409	1924.86
1000.704	1872.44
1001	1921.7
1001.295	1865.88
1001.59	1870.63
1001.885	1874.47
1002.18	1850.29
1002.475	1882.38
1002.77	1837.64
1003.065	1810.97
1003.359	1838.54
1003.654	1800.35
1003.949	1798.99
1004.243	1784.76
1004.538	1758.99
1004.832	1767.13
1005.127	1775.04
1005.421	1761.25
1005.715	1733.23
1006.009	1752.89
1006.304	1696.4
1006.598	1725.1
1006.892	1715.15
1007.186	1705.21
1007.48	1679.9
1007.773	1688.26
1008.067	1681.26
1008.361	1653.91
1008.655	1674.25
1008.948	1647.81
1009.242	1646.23
1009.535	1639.22
1009.829	1641.48
1010.122	1623.63
1010.415	1584.76
1010.708	1578.66
1011.001	1578.43
1011.295	1560.35
1011.588	1550.86
1011.881	1547.93
1012.173	1520.81
1012.466	1512.67
1012.759	1504.76
1013.052	1551.09
1013.344	1563.52
1013.637	1489.4
1013.93	1533.91
1014.222	1508.83
1014.514	1486.46
1014.807	1484.42
1015.099	1488.72
1015.391	1448.94
1015.683	1455.72
1015.976	1441.49
1016.268	1417.31
1016.56	1398.32
1016.851	1409.4
1017.143	1433.58
1017.435	1405.56
1017.727	1396.06
1018.018	1380.92
1018.31	1370.98
1018.602	1360.59
1018.893	1320.36
1019.185	1353.35
1019.476	1336.86
1019.767	1320.81
1020.058	1338.67
1020.35	1316.52
1020.641	1312.9
1020.932	1277.88
1021.223	1287.37
1021.514	1276.97
1021.804	1276.75
1022.095	1274.26
1022.386	1242.17
1022.677	1260.48
1022.967	1246.92
1023.258	1237.43
1023.548	1235.17
1023.839	1241.04
1024.129	1199.69
1024.419	1234.49
1024.709	1187.93
1025	1201.95
1025.29	1175.96
1025.58	1147.94
1025.87	1166.69
1026.16	1157.43
1026.449	1175.28
1026.739	1153.36
1027.029	1126.92
1027.319	1123.76
1027.608	1118.33
1027.898	1102.97
1028.187	1114.26
1028.477	1105.9
1028.766	1077.88
1029.055	1068.39
1029.344	1085.79
1029.634	1078.56
1029.923	1101.38
1030.212	1066.58
1030.501	1055.96
1030.79	1053.7
1031.078	1035.17
1031.367	1026.81
1031.656	1043.31
1031.945	999.47
1032.233	1006.02
1032.522	1000.14
1032.81	1010.31
1033.099	999.47
1033.387	1001.27
1033.675	992.01
1033.963	962.86
1034.251	979.35
1034.54	963.99
1034.828	931.67
1035.116	959.69
1035.403	943.87
1035.691	920.37
1035.979	933.48
1036.267	908.39
1036.554	920.82
1036.842	933.7
1037.129	912.69
1037.417	901.39
1037.704	919.02
1037.992	905.68
1038.279	873.59
1038.566	853.71
1038.853	853.71
1039.14	853.71
