Data from hue_150_FLMS001491_00089.txt Node
Date: Tue Feb 07 16:54:40 GMT 2017
User: dcchb
Spectrometer: FLMS00149
Trigger mode: 0
Integration Time (sec): 2.000000E-2
Scans to average: 10
Electric dark correction enabled: true
Nonlinearity correction enabled: false
Boxcar width: 0
XAxis mode: Wavelengths
Number of Pixels in Spectrum: 2048
>>>>>Begin Spectral Data<<<<<
341.393	-4.7
341.776	-4.7
342.16	-4.7
342.543	-70.24
342.927	-72.95
343.31	-66.85
343.693	-60.97
344.077	-71.37
344.46	-57.58
344.843	-56.68
345.226	-54.42
345.61	-34.31
345.993	-20.97
346.376	-13.74
346.759	22.41
347.142	34.17
347.525	33.49
347.908	68.29
348.291	78.01
348.674	99.25
349.057	101.28
349.44	142.64
349.823	142.64
350.206	172.24
350.588	183.77
350.971	213.82
351.354	231.45
351.737	233.71
352.119	254.27
352.502	261.05
352.884	276.42
353.267	294.05
353.65	290.43
354.032	294.5
354.414	319.13
354.797	323.65
355.179	310.32
355.562	306.02
355.944	334.72
356.326	360.48
356.709	359.81
357.091	352.35
357.473	340.37
357.855	342.63
358.238	346.25
358.62	315.51
359.002	342.63
359.384	329.75
359.766	337.66
360.148	350.09
360.53	327.49
360.912	342.41
361.294	342.86
361.676	334.5
362.057	329.53
362.439	318.68
362.821	343.31
363.203	331.56
363.584	321.39
363.966	336.3
364.348	320.26
364.729	310.09
365.111	338.11
365.493	322.75
365.874	305.35
366.256	326.36
366.637	312.12
367.019	319.58
367.4	326.36
367.781	323.88
368.163	293.82
368.544	308.96
368.925	303.31
369.306	315.74
369.688	331.79
370.069	299.92
370.45	307.6
370.831	317.55
371.212	319.36
371.593	318.9
371.974	311.45
372.355	314.38
372.736	320.49
373.117	312.35
373.498	320.03
373.879	311.67
374.26	322.07
374.641	347.15
375.021	343.31
375.402	322.97
375.783	342.18
376.163	337.21
376.544	329.98
376.925	338.34
377.305	332.91
377.686	334.72
378.066	325.68
378.447	327.49
378.827	356.19
379.208	323.42
379.588	333.59
379.968	334.04
380.349	339.24
380.729	320.03
381.109	337.89
381.489	350.77
381.87	333.37
382.25	345.57
382.63	360.03
383.01	336.3
383.39	339.02
383.77	353.03
384.15	357.1
384.53	350.54
384.91	371.78
385.29	369.52
385.67	346.93
386.049	348.28
386.429	353.93
386.809	364.78
387.189	364.55
387.568	361.61
387.948	353.71
388.328	348.96
388.707	346.7
389.087	362.52
389.466	362.74
389.846	368.62
390.225	369.98
390.605	365.68
390.984	373.59
391.363	371.33
391.743	384.44
392.122	368.17
392.501	377.89
392.881	385.79
393.26	368.17
393.639	388.96
394.018	388.73
394.397	400.48
394.776	396.19
395.155	382.63
395.534	388.73
395.913	376.08
396.292	398.9
396.671	391.22
397.05	404.1
397.429	391.22
397.808	390.77
398.186	395.74
398.565	403.42
398.944	385.34
399.323	406.36
399.701	402.29
400.08	392.57
400.458	409.98
400.837	413.36
401.215	441.61
401.594	410.88
401.972	402.52
402.351	410.2
402.729	431.9
403.107	427.15
403.486	439.58
403.864	455.17
404.242	405.68
404.62	417.66
404.999	432.8
405.377	445.23
405.755	435.29
406.133	429.86
406.511	429.64
406.889	446.13
407.267	445.68
407.645	468.96
408.023	472.57
408.401	452.01
408.779	463.76
409.156	450.88
409.534	463.98
409.912	481.84
410.29	461.95
410.667	469.41
411.045	465.34
411.422	486.58
411.8	491.33
412.178	490.65
412.555	498.33
412.933	488.84
413.31	483.42
413.687	501.95
414.065	488.17
414.442	485.68
414.819	506.47
415.197	500.82
415.574	517.54
415.951	527.03
416.328	517.77
416.705	518.9
417.082	519.58
417.46	533.36
417.837	562.51
418.214	518.9
418.591	567.03
418.967	540.59
419.344	542.18
419.721	563.87
420.098	563.42
420.475	573.13
420.852	545.11
421.228	536.75
421.605	569.97
421.982	547.37
422.358	570.65
422.735	597.54
423.111	601.61
423.488	575.39
423.864	566.58
424.241	598.22
424.617	597.31
424.994	608.39
425.37	605
425.746	610.42
426.123	632.12
426.499	619.46
426.875	617.65
427.251	631.66
427.627	636.18
428.003	660.36
428.379	629.4
428.756	660.14
429.132	650.65
429.507	655.39
429.883	681.15
430.259	676.18
430.635	684.77
431.011	676.18
431.387	703.3
431.763	713.47
432.138	710.76
432.514	682.74
432.89	713.02
433.265	727.03
433.641	740.81
434.016	752.11
434.392	750.08
434.767	744.88
435.143	746.69
435.518	775.16
435.894	762.96
436.269	784.88
436.644	799.57
437.02	807.7
437.395	796.18
437.77	809.74
438.145	817.87
438.52	825.11
438.895	829.85
439.271	819
439.646	842.51
440.021	855.39
440.395	873.01
440.77	840.92
441.145	855.61
441.52	884.54
441.895	866.23
442.27	880.7
442.645	873.24
443.019	880.47
443.394	879.57
443.769	892
444.143	889.51
444.518	914.59
444.892	929.74
445.267	917.08
445.641	926.57
446.016	924.09
446.39	944.88
446.764	941.03
447.139	949.4
447.513	973.35
447.887	946.23
448.262	971.54
448.636	975.16
449.01	1008.15
449.384	994.14
449.758	976.06
450.132	1005.21
450.506	998.21
450.88	1011.54
451.254	1024.42
451.628	1026.23
452.002	1022.16
452.376	1055.38
452.75	1044.76
453.123	1087.7
453.497	1078.43
453.871	1126.11
454.244	1128.83
454.618	1121.14
454.992	1139
455.365	1149.84
455.739	1189.16
456.112	1207.02
456.486	1178.77
456.859	1211.76
457.232	1214.02
457.606	1201.37
457.979	1219.9
458.352	1230.52
458.725	1280.46
459.099	1252.21
459.472	1301.03
459.845	1300.8
460.218	1320.01
460.591	1322.72
460.964	1358.65
461.337	1362.72
461.71	1383.51
462.083	1401.14
462.456	1441.36
462.829	1440.68
463.201	1436.16
463.574	1458.31
463.947	1488.14
464.32	1527.46
464.692	1567.46
465.065	1544.41
465.438	1556.84
465.81	1593.22
466.183	1598.19
466.555	1632.77
466.928	1650.17
467.3	1664.41
467.672	1708.02
468.045	1733.33
468.417	1788.02
468.789	1801.58
469.161	1797.96
469.534	1833.44
469.906	1884.51
470.278	1894.23
470.65	1924.06
471.022	1950.05
471.394	1991.18
471.766	2018.29
472.138	2064.17
472.51	2141.45
472.882	2169.25
473.253	2209.93
473.625	2241.79
473.997	2304.16
474.369	2339.42
474.74	2366.08
475.112	2455.12
475.484	2456.7
475.855	2543.93
476.227	2603.36
476.598	2689.01
476.97	2727.2
477.341	2801.78
477.713	2850.36
478.084	2893.3
478.455	3022.79
478.827	3073.63
479.198	3167.87
479.569	3211.48
479.94	3324.02
480.311	3378.26
480.682	3493.51
481.053	3582.77
481.424	3643.56
481.795	3730.11
482.166	3841.52
482.537	3911.58
482.908	4015.3
483.279	4146.83
483.65	4229.31
484.021	4363.09
484.391	4427.95
484.762	4544.1
485.133	4591.79
485.503	4770.54
485.874	4860.93
486.244	5013.47
486.615	5116.74
486.985	5269.51
487.356	5339.34
487.726	5439.67
488.097	5620.69
488.467	5716.28
488.837	5848.93
489.207	6000.56
489.578	6127.79
489.948	6229.71
490.318	6408.24
490.688	6540.44
491.058	6637.61
491.428	6750.37
491.798	6919.63
492.168	7041.89
492.538	7178.16
492.908	7315.78
493.278	7442.11
493.648	7573.63
494.017	7707.41
494.387	7845.26
494.757	7924.81
495.126	8163.9
495.496	8210.9
495.866	8295.64
496.235	8412.48
496.605	8592.36
496.974	8646.82
497.344	8803.65
497.713	8845.23
498.082	8957.77
498.452	9006.81
498.821	9218.78
499.19	9277.76
499.559	9410.87
499.928	9505.78
500.298	9567.93
500.667	9739.67
501.036	9770.86
501.405	9920.91
501.774	9947.35
502.143	10032.55
502.512	10117.74
502.88	10223.05
503.249	10323.39
503.618	10380.33
503.987	10421.24
504.356	10479.31
504.724	10616.71
505.093	10670.5
505.462	10759.76
505.83	10858.74
506.199	10940.77
506.567	10965.86
506.936	11068.9
507.304	11209.69
507.672	11152.74
508.041	11357.94
508.409	11388.67
508.777	11459.85
509.145	11635.67
509.514	11564.48
509.882	11592.28
510.25	11592.51
510.618	11757.7
510.986	11780.52
511.354	11905.04
511.722	11989.78
512.09	12031.14
512.458	12055.32
512.826	12181.87
513.193	12167.63
513.561	12201.98
513.929	12269.78
514.297	12403.33
514.664	12387.06
515.032	12445.82
515.4	12536.66
515.767	12484.91
516.135	12574.4
516.502	12508.64
516.869	12697.34
517.237	12775.53
517.604	12674.96
517.972	12773.94
518.339	12844.68
518.706	12872.7
519.073	12782.31
519.44	12860.95
519.808	12922.41
520.175	12946.82
520.542	13082.41
520.909	13055.52
521.276	13088.06
521.643	13128.06
522.009	13192.24
522.376	13233.37
522.743	13218.45
523.11	13351.78
523.477	13441.5
523.843	13451.67
524.21	13406.47
524.577	13480.82
524.943	13456.41
525.31	13563.53
525.676	13613.7
526.043	13665.45
526.409	13634.49
526.776	13762.17
527.142	13746.8
527.508	13752.45
527.874	13777.76
528.241	13893.46
528.607	13806.68
528.973	13859.34
529.339	13833.58
529.705	13912.9
530.071	13936.63
530.437	13943.4
530.803	13939.56
531.169	13973.46
531.535	13843.97
531.901	13874.93
532.267	13903.86
532.632	13932.78
532.998	13940.69
533.364	13929.39
533.73	13911.09
534.095	13935.72
534.461	13893.91
534.826	13881.03
535.192	13863.18
535.557	13959
535.923	13926.23
536.288	13950.18
536.653	13882.62
537.019	13806.01
537.384	13828.15
537.749	13836.51
538.114	13857.31
538.479	13777.31
538.845	13770.53
539.21	13690.3
539.575	13670.64
539.94	13711.32
540.305	13664.32
540.67	13628.38
541.034	13694.82
541.399	13641.04
541.764	13568.05
542.129	13611.44
542.494	13533.47
542.858	13476.07
543.223	13528.95
543.587	13484.43
543.952	13453.7
544.316	13434.04
544.681	13349.75
545.045	13370.54
545.41	13281.95
545.774	13356.08
546.138	13277.66
546.503	13245.57
546.867	13218.23
547.231	13237.43
547.595	13192.92
547.959	13164.89
548.324	13121.28
548.688	13078.34
549.052	13182.29
549.416	13071.11
549.779	13084.67
550.143	12972.13
550.507	13008.51
550.871	13128.51
551.235	12941.4
551.599	13132.58
551.962	13022.3
552.326	12940.27
552.689	12955.63
553.053	12812.36
553.417	12777.33
553.78	12948.4
554.143	12842.42
554.507	12823.43
554.87	12768.97
555.234	12832.7
555.597	12755.19
555.96	12853.49
556.323	12820.5
556.686	12724.45
557.05	12808.52
557.413	12724.68
557.776	12765.36
558.139	12788.41
558.502	12799.03
558.865	12693.95
559.228	12771.23
559.59	12743.44
559.953	12806.49
560.316	12804
560.679	12775.07
561.041	12822.08
561.404	12839.7
561.767	12868.86
562.129	12744.34
562.492	12925.8
562.854	12835.41
563.217	12758.35
563.579	12847.16
563.941	12945.69
564.304	12983.2
564.666	12964.22
565.028	12955.41
565.39	12946.14
565.753	13030.89
566.115	12986.59
566.477	13037.21
566.839	13014.39
567.201	13009.42
567.563	12949.31
567.925	13073.6
568.287	13053.94
568.648	13094.39
569.01	13165.57
569.372	13110.66
569.734	13062.07
570.095	13134.16
570.457	13165.12
570.819	13114.73
571.18	13114.27
571.542	13199.7
571.903	13163.54
572.265	13147.95
572.626	13297.32
572.987	13235.63
573.349	13320.37
573.71	13381.16
574.071	13302.74
574.432	13383.42
574.794	13344.55
575.155	13387.04
575.516	13313.82
575.877	13402.63
576.238	13397.88
576.599	13380.48
576.96	13361.72
577.32	13404.66
577.681	13395.17
578.042	13434.94
578.403	13346.36
578.763	13312.46
579.124	13349.75
579.485	13401.05
579.845	13405.34
580.206	13556.52
580.566	13418.9
580.927	13447.6
581.287	13533.02
581.648	13436.75
582.008	13553.36
582.368	13468.84
582.728	13532.34
583.089	13426.81
583.449	13484.43
583.809	13494.6
584.169	13480.82
584.529	13379.35
584.889	13429.52
585.249	13370.54
585.609	13364.44
585.969	13359.69
586.329	13317.21
586.688	13427.49
587.048	13306.13
587.408	13269.75
587.768	13243.31
588.127	13316.53
588.487	13338.67
588.846	13354.49
589.206	13253.93
589.565	13277.66
589.925	13279.24
590.284	13287.83
590.643	13302.52
591.003	13234.5
591.362	13354.04
591.721	13185.01
592.08	13223.88
592.44	13323.31
592.799	13232.69
593.158	13263.42
593.517	13191.11
593.876	13285.79
594.235	13099.36
594.593	13254.16
594.952	13297.55
595.311	13296.42
595.67	13218
596.029	13385.45
596.387	13284.89
596.746	13389.07
597.104	13269.52
597.463	13170.32
597.822	13248.73
598.18	13233.14
598.538	13157.66
598.897	13217.32
599.255	13110.43
599.613	13278.79
599.972	13163.31
600.33	13273.37
600.688	13166.02
601.046	13192.69
601.404	13186.36
601.762	13185.01
602.12	13279.69
602.478	13295.29
602.836	13255.29
603.194	13184.33
603.552	13204.67
603.91	13133.48
604.268	13227.49
604.625	13172.35
604.983	13218
605.341	13265.91
605.698	13248.73
606.056	13153.37
606.413	13230.43
606.771	13324.21
607.128	13244.21
607.485	13268.39
607.843	13209.41
608.2	13290.31
608.557	13301.61
608.914	13239.47
609.272	13330.09
609.629	13332.12
609.986	13341.84
610.343	13280.15
610.7	13410.09
611.057	13294.61
611.414	13364.44
611.771	13401.95
612.127	13443.08
612.484	13350.88
612.841	13416.64
613.198	13412.12
613.554	13375.96
613.911	13429.29
614.267	13454.83
614.624	13417.99
614.98	13457.77
615.337	13431.1
615.693	13535.96
616.05	13557.65
616.406	13580.48
616.762	13602.62
617.118	13495.73
617.475	13559.69
617.831	13609.85
618.187	13564.66
618.543	13651.43
618.899	13605.79
619.255	13622.96
619.611	13579.35
619.967	13649.63
620.323	13719.91
620.678	13554.71
621.034	13619.35
621.39	13571.89
621.746	13569.4
622.101	13724.2
622.457	13571.21
622.812	13671.55
623.168	13566.01
623.523	13653.92
623.879	13728.04
624.234	13642.85
624.589	13641.49
624.945	13657.08
625.3	13606.01
625.655	13673.81
626.01	13631.55
626.365	13677.87
626.72	13660.25
627.075	13587.93
627.43	13634.71
627.785	13557.2
628.14	13584.54
628.495	13654.15
628.85	13632.68
629.205	13550.65
629.559	13668.16
629.914	13526.92
630.269	13553.36
630.623	13560.82
630.978	13550.87
631.332	13616.41
631.687	13654.82
632.041	13559.91
632.396	13477.43
632.75	13431.1
633.104	13452.57
633.459	13407.83
633.813	13439.91
634.167	13393.59
634.521	13407.15
634.875	13395.62
635.229	13376.64
635.583	13334.38
635.937	13330.54
636.291	13349.75
636.645	13282.86
636.999	13263.42
637.352	13290.54
637.706	13250.77
638.06	13239.47
638.413	13255.51
638.767	13201.5
639.121	13200.37
639.474	13201.96
639.828	13155.85
640.181	13080.6
640.534	13163.99
640.888	13145.23
641.241	13111.11
641.594	13154.72
641.947	13199.92
642.301	13093.26
642.654	13151.33
643.007	13067.5
643.36	13163.09
643.713	13071.34
644.066	13080.15
644.419	13032.02
644.771	12930.55
645.124	12848.97
645.477	12844.45
645.83	12756.77
646.182	12635.87
646.535	12604
646.888	12681.06
647.24	12522.42
647.593	12590.9
647.945	12627.05
648.298	12521.75
648.65	12493.95
649.002	12582.08
649.355	12624.57
649.707	12627.51
650.059	12649.43
650.411	12803.55
650.763	12763.55
651.115	12926.93
651.467	12781.63
651.819	12881.51
652.171	12926.71
652.523	12800.84
652.875	12801.29
653.227	12806.94
653.578	12894.84
653.93	12877.22
654.282	12711.57
654.633	12778.24
654.985	12824.11
655.337	12738.69
655.688	12800.84
656.039	12895.75
656.391	12684.68
656.742	12738.01
657.094	12851.91
657.445	12810.33
657.796	12806.49
658.147	12811
658.498	12710.67
658.849	12812.81
659.2	12825.69
659.551	12823.66
659.902	12879.48
660.253	12801.29
660.604	12782.76
660.955	12742.76
661.306	12859.82
661.656	12812.36
662.007	12782.98
662.358	12807.84
662.708	12813.49
663.059	12832.7
663.409	12722.42
663.76	12885.81
664.11	12848.74
664.461	12862.53
664.811	12833.6
665.161	12839.03
665.511	12886.71
665.862	12836.09
666.212	12856.43
666.562	12828.63
666.912	12813.49
667.262	12756.32
667.612	12886.71
667.962	12816.88
668.312	12827.5
668.662	12837.9
669.011	12803.1
669.361	12773.72
669.711	12853.94
670.06	12833.6
670.41	12790.89
670.76	12785.69
671.109	12822.76
671.459	12860.72
671.808	12779.14
672.157	12749.99
672.507	12759.25
672.856	12728.97
673.205	12658.01
673.554	12786.37
673.904	12740.27
674.253	12862.3
674.602	12694.85
674.951	12497.57
675.3	12441.98
675.649	12681.97
675.998	12719.93
676.346	12684.45
676.695	12661.63
677.044	12562.42
677.393	12645.36
677.741	12644.46
678.09	12607.62
678.438	12589.99
678.787	12618.02
679.135	12590.67
679.484	12490.34
679.832	12509.54
680.181	12398.13
680.529	12521.75
680.877	12471.8
681.225	12417.34
681.573	12470.67
681.922	12402.88
682.27	12352.49
682.618	12358.59
682.966	12369.43
683.314	12359.27
683.661	12356.78
684.009	12233.62
684.357	12201.76
684.705	12171.7
685.053	12295.99
685.4	12154.3
685.748	12148.88
686.095	12130.12
686.443	12074.53
686.79	12080.4
687.138	11981.87
687.485	12077.46
687.832	11969.9
688.18	12044.25
688.527	11988.65
688.874	11931.25
689.221	11918.37
689.568	11765.38
689.915	11797.92
690.262	11864.59
690.609	11700.98
690.956	11811.26
691.303	11642.22
691.65	11601.77
691.997	11646.52
692.344	11493.3
692.69	11565.39
693.037	11496.24
693.383	11434.54
693.73	11425.28
694.077	11410.14
694.423	11405.17
694.769	11314.55
695.116	11358.61
695.462	11282.23
695.808	11210.6
696.155	11216.7
696.501	11152.97
696.847	11193.19
697.193	11042.46
697.539	11141.9
697.885	11045.63
698.231	10969.92
698.577	11016.93
698.923	10900.09
699.269	10848.34
699.614	10870.04
699.96	10793.66
700.306	10781.91
700.651	10733.55
700.997	10573.32
701.342	10683.6
701.688	10606.54
702.033	10563.83
702.379	10556.15
702.724	10527.22
703.069	10486.55
703.415	10435.02
703.76	10430.95
704.105	10394.8
704.45	10427.11
704.795	10339.43
705.14	10327.68
705.485	10257.17
705.83	10162.71
706.175	10224.63
706.52	10239.77
706.865	10135.37
707.209	10048.14
707.554	10047.46
707.899	10099.21
708.243	10021.02
708.588	9952.1
708.932	9878.88
709.277	9947.35
709.621	9866
709.966	9812.21
710.31	9863.51
710.654	9806.79
710.998	9801.37
711.342	9850.18
711.687	9818.09
712.031	9750.52
712.375	9720.24
712.719	9684.53
713.063	9685.21
713.407	9645.44
713.75	9666.23
714.094	9610.86
714.438	9615.38
714.782	9651.54
715.125	9548.49
715.469	9542.84
715.812	9550.98
716.156	9411.77
716.499	9502.84
716.843	9510.3
717.186	9398.89
717.53	9523.63
717.873	9496.52
718.216	9388.72
718.559	9419
718.902	9314.37
719.246	9338.1
719.589	9313.02
719.932	9326.12
720.275	9356.86
720.617	9265.11
720.96	9301.27
721.303	9262.4
721.646	9293.58
721.989	9268.73
722.331	9190.54
722.674	9160.93
723.016	9227.6
723.359	9148.95
723.701	9187.37
724.044	9152.57
724.386	9121.16
724.729	9163.87
725.071	9152.34
725.413	9168.39
725.755	9094.27
726.097	9113.25
726.439	9019.47
726.782	9099.01
727.124	9060.37
727.465	8997.77
727.807	8985.34
728.149	9011.78
728.491	9051.1
728.833	8986.02
729.175	9087.26
729.516	9019.92
729.858	8979.69
730.199	9012.46
730.541	8972.01
730.882	8975.63
731.224	8976.3
731.565	8955.29
731.906	8988.51
732.248	8995.06
732.589	8934.72
732.93	8944.67
733.271	8900.6
733.612	8955.06
733.953	9016.53
734.294	8887.72
734.635	8878.9
734.976	8913.71
735.317	8914.38
735.658	8930.2
735.999	8930.43
736.339	8923.88
736.68	8949.86
737.021	8987.38
737.361	8898.34
737.702	8924.33
738.042	8999.13
738.383	8941.73
738.723	8980.15
739.063	8994.61
739.404	9062.18
739.744	8926.14
740.084	8978.56
740.424	8955.29
740.764	8937.66
741.104	9021.27
741.444	9060.6
741.784	9038.67
742.124	9030.09
742.464	9050.43
742.804	9080.48
743.143	9063.53
743.483	9096.3
743.823	9109.41
744.162	9129.52
744.502	9198.44
744.841	9139.92
745.181	9175.17
745.52	9220.14
745.86	9277.54
746.199	9329.29
746.538	9343.98
746.877	9383.52
747.216	9377.2
747.556	9463.52
747.895	9477.53
748.234	9468.49
748.573	9562.5
748.911	9575.38
749.25	9601.82
749.589	9618.55
749.928	9738.32
750.267	9895.15
750.605	9847.02
750.944	9981.93
751.283	10085.65
751.621	10133.11
751.96	10182.83
752.298	10236.84
752.636	10339.66
752.975	10366.32
753.313	10469.6
753.651	10630.72
753.989	10666.43
754.327	10811.74
754.666	10860.77
755.004	11011.5
755.342	11117.49
755.679	11202.46
756.017	11278.39
756.355	11471.61
756.693	11546.41
757.031	11680.19
757.368	11725.16
757.706	11882.22
758.044	12035.66
758.381	12161.08
758.719	12362.88
759.056	12532.59
759.394	12638.13
759.731	12692.82
760.068	12877.44
760.405	12919.48
760.743	13129.19
761.08	13325.34
761.417	13447.37
761.754	13551.78
762.091	13749.29
762.428	13885.55
762.765	14020.24
763.102	14156.05
763.438	14281.47
763.775	14398.99
764.112	14568.7
764.449	14818.64
764.785	14917.62
765.122	15001.68
765.458	15122.58
765.795	15350.37
766.131	15509.92
766.467	15676.69
766.804	15741.78
767.14	15773.19
767.476	15968.89
767.812	16072.61
768.148	16204.59
768.485	16321.87
768.821	16384.7
769.157	16441.64
769.492	16701.07
769.828	16715.76
770.164	16757.34
770.5	16932.93
770.836	16998.92
771.171	17114.62
771.507	17294.95
771.842	17220.61
772.178	17392.81
772.513	17449.98
772.849	17414.5
773.184	17491.79
773.519	17610.2
773.855	17624.44
774.19	17707.6
774.525	17720.93
774.86	17843.42
775.195	17923.64
775.53	17986.69
775.865	17957.54
776.2	17930.19
776.535	17936.97
776.87	18033.47
777.205	18031.88
777.539	18071.21
777.874	18179
778.209	18063.07
778.543	18174.71
778.878	18180.36
779.212	18305.78
779.547	18178.77
779.881	18313.23
780.215	18339.9
780.55	18375.15
780.884	18272.78
781.218	18336.06
781.552	18306.23
781.886	18339.45
782.22	18255.61
782.554	18253.12
782.888	18200.69
783.222	18142.16
783.556	18205.89
783.889	18231.43
784.223	18075.5
784.557	17972
784.89	18219.68
785.224	18061.49
785.557	18093.13
785.891	18125.22
786.224	18073.69
786.558	18114.37
786.891	18092.67
787.224	17947.14
787.557	17899.91
787.891	17933.36
788.224	18009.74
788.557	17942.4
788.89	18010.19
789.223	17864.66
789.556	17854.04
789.888	17753.93
790.221	17866.69
790.554	17684.1
790.887	17645.45
791.219	17534.04
791.552	17619.24
791.884	17543.31
792.217	17669.18
792.549	17575.63
792.882	17492.46
793.214	17401.17
793.546	17444.56
793.879	17337.44
794.211	17313.49
794.543	17303.54
794.875	17221.96
795.207	17337.67
795.539	17258.57
795.871	17273.71
796.203	17165.24
796.535	17036.43
796.867	17129.76
797.198	16982.19
797.53	17083.21
797.862	16895.87
798.193	16966.38
798.525	16905.81
798.856	16918.69
799.188	16688.42
799.519	16621.98
799.85	16554.86
800.182	16677.34
800.513	16655.42
800.844	16510.34
801.175	16573.17
801.506	16563.22
801.837	16439.84
802.168	16412.94
802.499	16363.68
802.83	16304.47
803.161	16349.67
803.491	16195.1
803.822	16266.51
804.153	16219.5
804.483	16055.21
804.814	16124.14
805.145	16108.77
805.475	16079.17
805.805	15957.36
806.136	15975.44
806.466	15989.68
806.796	15962.56
807.126	15786.29
807.457	15792.4
807.787	15825.61
808.117	15744.04
808.447	15745.84
808.777	15648.9
809.107	15634.43
809.436	15564.6
809.766	15628.33
810.096	15511.27
810.426	15555.34
810.755	15476.7
811.085	15526.41
811.414	15479.86
811.744	15372.52
812.073	15319.41
812.403	15337.49
812.732	15252.97
813.061	15277.83
813.39	15206.42
813.719	15125.97
814.049	15202.58
814.378	15198.96
814.707	15123.94
815.036	15105.63
815.365	15016.82
815.693	14996.26
816.022	14890.5
816.351	14887.56
816.68	14918.52
817.008	14927.79
817.337	14765.53
817.665	14739.77
817.994	14821.57
818.322	14846.43
818.651	14713.78
818.979	14638.98
819.307	14745.87
819.636	14707.45
819.964	14601.47
820.292	14574.57
820.62	14694.8
820.948	14499.55
821.276	14660.22
821.604	14520.56
821.932	14547.68
822.259	14613.22
822.587	14484.63
822.915	14585.2
823.243	14592.65
823.57	14532.09
823.898	14621.13
824.225	14502.03
824.553	14522.6
824.88	14562.15
825.207	14565.08
825.535	14470.62
825.862	14586.1
826.189	14567.79
826.516	14587.46
826.843	14576.83
827.17	14511.3
827.497	14635.59
827.824	14547.46
828.151	14620
828.478	14540.9
828.805	14614.12
829.131	14623.61
829.458	14573.22
829.785	14510.62
830.111	14579.55
830.438	14619.09
830.764	14494.58
831.09	14638.08
831.417	14535.48
831.743	14615.25
832.069	14506.55
832.395	14525.99
832.722	14529.38
833.048	14465.2
833.374	14504.07
833.7	14411.64
834.026	14464.07
834.351	14538.42
834.677	14452.77
835.003	14436.27
835.329	14433.34
835.654	14427.01
835.98	14347.46
836.306	14323.28
836.631	14305.43
836.956	14317.86
837.282	14402.6
837.607	14251.65
837.932	14234.02
838.258	14252.55
838.583	14239.67
838.908	14237.41
839.233	14166.9
839.558	14120.8
839.883	14122.61
840.208	14130.97
840.533	14158.99
840.858	14088.49
841.182	14047.81
841.507	13987.02
841.832	13917.87
842.156	13981.82
842.481	13958.32
842.805	13901.15
843.13	13891.43
843.454	13785.67
843.778	13753.81
844.103	13775.27
844.427	13675.84
844.751	13802.62
845.075	13714.71
845.399	13709.51
845.723	13547.03
846.047	13567.37
846.371	13510.42
846.695	13605.11
847.019	13297.77
847.343	13373.02
847.666	13222.52
847.99	13223.88
848.313	13270.65
848.637	13111.34
848.96	13087.83
849.284	13120.6
849.607	12970.77
849.931	12970.1
850.254	12836.32
850.577	12698.92
850.9	12722.42
851.223	12745.47
851.546	12683.55
851.869	12619.82
852.192	12613.5
852.515	12514.74
852.838	12501.18
853.161	12468.42
853.483	12409.43
853.806	12321.75
854.129	12289.21
854.451	12277.69
854.774	12261.64
855.096	12162.66
855.419	12153.17
855.741	12034.98
856.063	12045.83
856.385	12059.39
856.708	12067.07
857.03	11944.81
857.352	12025.04
857.674	11958.37
857.996	11831.6
858.318	11877.7
858.64	11817.58
858.961	11767.42
859.283	11814.87
859.605	11658.27
859.926	11688.55
860.248	11620.08
860.57	11550.47
860.891	11592.51
861.212	11478.84
861.534	11488.78
861.855	11543.24
862.176	11526.52
862.498	11456.69
862.819	11451.72
863.14	11338.73
863.461	11368.56
863.782	11432.96
864.103	11300.31
864.424	11366.07
864.745	11373.98
865.065	11323.36
865.386	11200.2
865.707	11196.36
866.027	11233.65
866.348	11233.65
866.668	11238.84
866.989	11189.58
867.309	11075.01
867.63	11145.29
867.95	11070.71
868.27	10986.19
868.59	11034.55
868.91	11035.68
869.23	11068.45
869.55	10986.42
869.87	10977.61
870.19	11031.39
870.51	11013.09
870.83	10936.48
871.15	10882.02
871.469	10859.64
871.789	10867.33
872.109	10913.2
872.428	10830.94
872.748	10793.88
873.067	10834.79
873.386	10815.58
873.706	10761.79
874.025	10725.86
874.344	10647.9
874.663	10744.17
874.982	10724.28
875.301	10775.13
875.62	10644.28
875.939	10670.72
876.258	10714.34
876.577	10572.65
876.896	10598.41
877.214	10534.91
877.533	10599.09
877.852	10484.29
878.17	10508.92
878.489	10452.42
878.807	10554.34
879.125	10439.09
879.444	10464.17
879.762	10404.06
880.08	10425.76
880.398	10465.3
880.716	10391.18
881.034	10377.62
881.352	10355.02
881.67	10347.79
881.988	10334.91
882.306	10260.79
882.624	10245.65
882.941	10223.73
883.259	10188.93
883.577	10151.87
883.894	10158.87
884.212	10181.02
884.529	10177.63
884.846	10136.95
885.164	10081.81
885.481	10014.02
885.798	10034.58
886.115	9953.45
886.432	9994.81
886.75	9930.85
887.067	10009.5
887.383	9919.56
887.7	9916.39
888.017	9858.54
888.334	9848.37
888.651	9802.27
888.967	9776.28
889.284	9826
889.6	9734.48
889.917	9651.31
890.233	9734.48
890.55	9584.65
890.866	9664.2
891.182	9642.5
891.498	9591.65
891.815	9520.92
892.131	9442.73
892.447	9481.37
892.763	9425.56
893.079	9479.12
893.395	9380.36
893.71	9326.12
894.026	9299.23
894.342	9309.4
894.657	9304.66
894.973	9249.52
895.289	9176.52
895.604	9237.09
895.92	9174.49
896.235	9040.03
896.55	9189.41
896.865	9077.54
897.181	9017.88
897.496	9060.82
897.811	9021.05
898.126	8945.57
898.441	8932.01
898.756	8942.63
899.071	8849.53
899.386	8824.67
899.7	8771.34
900.015	8759.81
900.33	8697.89
900.644	8712.13
900.959	8615.41
901.273	8651.11
901.588	8602.53
901.902	8506.94
902.216	8471.68
902.531	8475.98
902.845	8483.44
903.159	8422.87
903.473	8380.61
903.787	8362.08
904.101	8306.26
904.415	8324.57
904.729	8288.64
905.042	8199.15
905.356	8162.54
905.67	8174.52
905.984	8173.16
906.297	8175.87
906.611	8160.73
906.924	8063.33
907.237	8099.94
907.551	8065.37
907.864	7981.53
908.177	7984.69
908.491	7951.25
908.804	7862.89
909.117	7847.52
909.43	7827.18
909.743	7763.91
910.056	7711.93
910.368	7666.73
910.681	7641.2
910.994	7690.69
911.307	7574.98
911.619	7538.6
911.932	7490.92
912.244	7469.9
912.557	7465.83
912.869	7413.86
913.181	7426.51
913.494	7367.76
913.806	7333.63
914.118	7307.42
914.43	7234.65
914.742	7216.58
915.054	7225.16
915.366	7204.15
915.678	7124.6
915.99	7109.23
916.302	7074.88
916.613	7069.69
916.925	7051.61
917.236	7048.44
917.548	7063.59
917.859	7001.89
918.171	6942.68
918.482	6921.89
918.794	6883.48
919.105	6855.23
919.416	6832.41
919.727	6779.3
920.038	6777.27
920.349	6764.16
920.66	6684.84
920.971	6756.7
921.282	6715.57
921.593	6635.8
921.903	6597.83
922.214	6620.66
922.525	6589.47
922.835	6598.06
923.146	6486.2
923.456	6478.29
923.767	6460.66
924.077	6462.02
924.387	6447.56
924.697	6403.49
925.008	6389.03
925.318	6307.45
925.628	6332.53
925.938	6298.41
926.248	6266.09
926.558	6191.74
926.867	6257.28
927.177	6190.16
927.487	6136.38
927.796	6082.82
928.106	6096.83
928.416	6107.68
928.725	6095.93
929.034	6014.8
929.344	6036.27
929.653	5989.26
929.962	5948.59
930.271	5888.7
930.581	5870.62
930.89	5882.15
931.199	5801.92
931.508	5856.39
931.817	5805.77
932.125	5771.19
932.434	5777.97
932.743	5725.32
933.051	5698.2
933.36	5664.75
933.669	5659.1
933.977	5648.71
934.286	5644.41
934.594	5640.12
934.902	5538.65
935.21	5540.46
935.519	5486
935.827	5561.25
936.135	5482.38
936.443	5469.28
936.751	5385.44
937.059	5437.41
937.367	5394.93
937.674	5386.57
937.982	5354.03
938.29	5294.14
938.597	5332.78
938.905	5260.47
939.213	5199.23
939.52	5239.68
939.827	5251.2
940.135	5201.94
940.442	5167.14
940.749	5138.21
941.056	5153.35
941.363	5086.46
941.67	5070.42
941.977	5061.6
942.284	4979.8
942.591	5014.15
942.898	4948.84
943.205	4996.52
943.511	4928.27
943.818	4911.33
944.125	4867.49
944.431	4890.08
944.738	4836.75
945.044	4854.6
945.35	4797.66
945.657	4844.66
945.963	4764.21
946.269	4737.09
946.575	4753.59
946.881	4668.39
947.187	4724.21
947.493	4701.39
947.799	4712.01
948.105	4608.96
948.41	4597.89
948.716	4579.36
949.022	4583.88
949.327	4580.49
949.633	4479.25
949.938	4517.44
950.244	4548.17
950.549	4493.48
950.854	4475.63
951.16	4420.49
951.465	4458.68
951.77	4444.45
952.075	4378.46
952.38	4374.84
952.685	4356.09
952.99	4297.33
953.294	4294.84
953.599	4279.25
953.904	4246.94
954.209	4193.15
954.513	4250.1
954.818	4220.5
955.122	4237.67
955.426	4199.93
955.731	4167.84
956.035	4172.81
956.339	4147.05
956.643	4159.03
956.948	4124.91
957.252	4105.47
957.556	4095.08
957.86	4038.13
958.163	4054.63
958.467	4045.13
958.771	4032.03
959.075	4005.59
959.378	3937.34
959.682	3965.36
959.985	3954.74
960.289	3893.73
960.592	3890.79
960.896	3891.01
961.199	3859.15
961.502	3866.83
961.805	3811.24
962.108	3793.84
962.411	3805.37
962.714	3790.9
963.017	3754.52
963.32	3761.98
963.623	3704.8
963.926	3753.62
964.228	3714.97
964.531	3692.6
964.833	3710
965.136	3636.78
965.438	3640.85
965.741	3598.82
966.043	3583.9
966.345	3603.34
966.648	3578.03
966.95	3571.7
967.252	3503.68
967.554	3501.42
967.856	3513.85
968.158	3491.48
968.46	3502.55
968.761	3485.37
969.063	3466.62
969.365	3437.24
969.666	3457.13
969.968	3416
970.269	3422.1
970.571	3378.48
970.872	3406.51
971.174	3340.07
971.475	3357.47
971.776	3349.11
972.077	3327.64
972.378	3270.01
972.679	3298.49
972.98	3281.31
973.281	3254.65
973.582	3262.78
973.883	3206.06
974.183	3203.8
974.484	3199.96
974.785	3219.39
975.085	3199.28
975.386	3180.98
975.686	3130.81
975.986	3093.52
976.287	3110.7
976.587	3109.57
976.887	3074.99
977.187	3054.43
977.487	3100.53
977.787	3051.04
978.087	3060.53
978.387	3010.13
978.687	3018.95
978.987	2981.43
979.286	2957.25
979.586	2942.56
979.885	2951.83
980.185	2931.04
980.484	2896.01
980.784	2896.46
981.083	2900.76
981.382	2888.33
981.682	2869.57
981.981	2850.14
982.28	2853.3
982.579	2801.32
982.878	2812.85
983.177	2801.78
983.475	2799.52
983.774	2773.08
984.073	2791.83
984.372	2735.34
984.67	2751.38
984.969	2697.37
985.267	2714.1
985.566	2697.37
985.864	2677.94
986.162	2676.58
986.461	2677.26
986.759	2694.66
987.057	2625.06
987.355	2617.6
987.653	2611.95
987.951	2630.03
988.249	2602.69
988.547	2604.72
988.844	2552.97
989.142	2556.81
989.44	2566.53
989.737	2559.52
990.035	2550.03
990.332	2516.13
990.63	2505.74
990.927	2530.15
991.224	2473.2
991.521	2440.2
991.819	2452.41
992.116	2470.26
992.413	2451.96
992.71	2469.58
993.006	2398.85
993.303	2423.93
993.6	2401.79
993.897	2364.73
994.193	2359.75
994.49	2350.26
994.787	2368.34
995.083	2337.16
995.379	2343.26
995.676	2286.76
995.972	2321.56
996.268	2298.06
996.565	2256.71
996.861	2258.29
997.157	2249.93
997.453	2244.5
997.749	2262.58
998.044	2244.5
998.34	2200.21
998.636	2191.4
998.932	2208.35
999.227	2218.29
999.523	2190.72
999.818	2160.44
1000.114	2147.78
1000.409	2134.45
1000.704	2099.87
1001	2118.86
1001.295	2083.15
1001.59	2085.86
1001.885	2103.26
1002.18	2091.51
1002.475	2061.23
1002.77	2013.1
1003.065	2039.99
1003.359	2003.61
1003.654	2004.74
1003.949	1998.18
1004.243	1986.66
1004.538	1976.49
1004.832	1964.74
1005.127	1973.1
1005.421	1969.71
1005.715	1929.03
1006.009	1933.78
1006.304	1904.17
1006.598	1895.59
1006.892	1883.16
1007.186	1904.63
1007.48	1891.97
1007.773	1862.82
1008.067	1833.21
1008.361	1842.03
1008.655	1835.7
1008.948	1842.93
1009.242	1823.95
1009.535	1806.55
1009.829	1796.83
1010.122	1791.41
1010.415	1791.86
1010.708	1760.67
1011.001	1764.74
1011.295	1710.28
1011.588	1724.29
1011.881	1708.02
1012.173	1703.5
1012.466	1663.73
1012.759	1663.28
1013.052	1667.34
1013.344	1646.1
1013.637	1653.33
1013.93	1615.37
1014.222	1628.47
1014.514	1624.41
1014.807	1635.93
1015.099	1575.59
1015.391	1590.28
1015.683	1612.66
1015.976	1588.93
1016.268	1574.24
1016.56	1535.37
1016.851	1567.68
1017.143	1537.18
1017.435	1528.59
1017.727	1539.21
1018.018	1498.08
1018.31	1509.38
1018.602	1473.9
1018.893	1491.53
1019.185	1471.19
1019.476	1465.31
1019.767	1469.38
1020.058	1447.24
1020.35	1426.9
1020.641	1425.09
1020.932	1428.71
1021.223	1431.64
1021.514	1400.68
1021.804	1392.77
1022.095	1380.12
1022.386	1367.01
1022.677	1365.66
1022.967	1364.98
1023.258	1323.85
1023.548	1345.54
1023.839	1348.26
1024.129	1319.78
1024.419	1317.3
1024.709	1304.19
1025	1329.95
1025.29	1287.92
1025.58	1287.01
1025.87	1277.3
1026.16	1244.76
1026.449	1256.05
1026.739	1261.48
1027.029	1271.42
1027.319	1235.72
1027.608	1249.95
1027.898	1217.19
1028.187	1195.27
1028.477	1196.85
1028.766	1187.58
1029.055	1167.92
1029.344	1193.46
1029.634	1168.6
1029.923	1168.6
1030.212	1156.17
1030.501	1135.38
1030.79	1131.54
1031.078	1124.76
1031.367	1154.14
1031.656	1125.44
1031.945	1096.96
1032.233	1090.41
1032.522	1117.98
1032.81	1098.54
1033.099	1099.67
1033.387	1082.5
1033.675	1049.96
1033.963	1079.11
1034.251	1049.51
1034.54	1048.83
1034.828	1048.38
1035.116	1037.98
1035.403	1021.71
1035.691	998.21
1035.979	1003.86
1036.267	1019
1036.554	1022.61
1036.842	975.61
1037.129	979
1037.417	958.89
1037.704	990.98
1037.992	983.29
1038.279	971.54
1038.566	957.76
1038.853	957.76
1039.14	957.76
