Data from hue_150_FLMS001491_00094.txt Node
Date: Tue Feb 07 16:54:47 GMT 2017
User: dcchb
Spectrometer: FLMS00149
Trigger mode: 0
Integration Time (sec): 2.000000E-2
Scans to average: 10
Electric dark correction enabled: true
Nonlinearity correction enabled: false
Boxcar width: 0
XAxis mode: Wavelengths
Number of Pixels in Spectrum: 2048
>>>>>Begin Spectral Data<<<<<
341.393	-3.35
341.776	-3.35
342.16	-3.35
342.543	-70.69
342.927	-70.24
343.31	-70.46
343.693	-64.59
344.077	-64.36
344.46	-45.38
344.843	-68.43
345.226	-46.06
345.61	-39.05
345.993	-18.49
346.376	-20.75
346.759	2.3
347.142	18.12
347.525	43.88
347.908	80.94
348.291	82.07
348.674	101.51
349.057	108.74
349.44	130.89
349.823	148.06
350.206	151.45
350.588	186.25
350.971	196.87
351.354	215.4
351.737	238
352.119	251.79
352.502	257.89
352.884	270.32
353.267	266.7
353.65	269.41
354.032	301.73
354.414	320.03
354.797	294.5
355.179	331.79
355.562	324.33
355.944	315.29
356.326	313.03
356.709	301.5
357.091	315.51
357.473	334.04
357.855	329.3
358.238	343.31
358.62	343.99
359.002	310.99
359.384	342.86
359.766	318.68
360.148	348.51
360.53	353.03
360.912	338.34
361.294	337.66
361.676	314.38
362.057	326.81
362.439	323.65
362.821	319.81
363.203	325.01
363.584	308.73
363.966	323.2
364.348	321.16
364.729	291.56
365.111	325.01
365.493	311.9
365.874	327.27
366.256	318.23
366.637	301.05
367.019	323.42
367.4	316.42
367.781	297.66
368.163	297.66
368.544	283.65
368.925	300.15
369.306	330.88
369.688	338.79
370.069	318.68
370.45	310.99
370.831	290.43
371.212	313.03
371.593	307.15
371.974	311.22
372.355	299.7
372.736	304.67
373.117	311.22
373.498	309.41
373.879	332.69
374.26	311.67
374.641	289.07
375.021	300.83
375.402	312.8
375.783	316.64
376.163	330.88
376.544	315.29
376.925	303.31
377.305	316.42
377.686	315.51
378.066	334.72
378.447	322.97
378.827	317.1
379.208	319.81
379.588	313.71
379.968	331.79
380.349	315.29
380.729	329.98
381.109	322.29
381.489	327.49
381.87	322.75
382.25	319.36
382.63	336.08
383.01	318.9
383.39	314.16
383.77	333.14
384.15	325.23
384.53	323.65
384.91	346.7
385.29	346.25
385.67	332.46
386.049	345.8
386.429	345.34
386.809	339.47
387.189	325.01
387.568	347.38
387.948	326.81
388.328	333.14
388.707	338.34
389.087	343.76
389.466	363.2
389.846	356.42
390.225	349.64
390.605	354.38
390.984	355.51
391.363	362.07
391.743	369.75
392.122	346.25
392.501	356.87
392.881	362.74
393.26	364.1
393.639	371.11
394.018	362.97
394.397	368.17
394.776	364.1
395.155	369.3
395.534	350.99
395.913	371.56
396.292	392.57
396.671	372.69
397.05	371.33
397.429	378.79
397.808	375.17
398.186	365
398.565	373.59
398.944	378.34
399.323	374.5
399.701	358.9
400.08	387.15
400.458	356.64
400.837	387.38
401.215	370.2
401.594	385.12
401.972	399.13
402.351	404.55
402.729	395.74
403.107	382.86
403.486	393.93
403.864	407.04
404.242	388.73
404.62	385.57
404.999	396.19
405.377	390.54
405.755	394.61
406.133	385.57
406.511	418.34
406.889	394.61
407.267	411.11
407.645	418.79
408.023	423.08
408.401	410.43
408.779	416.75
409.156	443.65
409.534	447.04
409.912	445
410.29	413.82
410.667	429.64
411.045	439.35
411.422	447.71
411.8	438.9
412.178	431.9
412.555	430.54
412.933	445.68
413.31	432.8
413.687	437.77
414.065	452.69
414.442	455.62
414.819	446.13
415.197	441.39
415.574	466.47
415.951	454.04
416.328	468.96
416.705	481.39
417.082	484.55
417.46	473.7
417.837	470.31
418.214	483.19
418.591	459.47
418.967	500.82
419.344	474.61
419.721	496.98
420.098	480.93
420.475	505.34
420.852	503.76
421.228	496.98
421.605	516.86
421.982	512.8
422.358	500.37
422.735	515.28
423.111	520.25
423.488	510.54
423.864	526.36
424.241	540.14
424.617	520.03
424.994	525.9
425.37	530.65
425.746	534.72
426.123	539.69
426.499	558.9
426.875	554.6
427.251	549.63
427.627	573.81
428.003	567.49
428.379	572
428.756	558.45
429.132	573.81
429.507	577.65
429.883	587.15
430.259	582.85
430.635	590.31
431.011	619.69
431.387	607.03
431.763	600.7
432.138	616.52
432.514	611.33
432.89	612.68
433.265	604.55
433.641	633.47
434.016	625.56
434.392	647.71
434.767	642.74
435.143	659.23
435.518	647.93
435.894	669.18
436.269	664.88
436.644	663.98
437.02	680.48
437.395	689.97
437.77	694.71
438.145	698.78
438.52	694.94
438.895	723.41
439.271	705.33
439.646	698.78
440.021	731.1
440.395	713.47
440.77	698.33
441.145	727.71
441.52	739.01
441.895	760.93
442.27	749.4
442.645	759.34
443.019	774.71
443.394	785.11
443.769	741.27
444.143	775.16
444.518	772.9
444.892	783.3
445.267	806.12
445.641	809.06
446.016	793.92
446.39	818.1
446.764	775.39
447.139	820.36
447.513	802.28
447.887	818.55
448.262	812.9
448.636	848.16
449.01	817.42
449.384	833.47
449.758	827.59
450.132	856.07
450.506	838.66
450.88	843.18
451.254	856.07
451.628	897.87
452.002	909.62
452.376	886.12
452.75	915.95
453.123	911.43
453.497	889.51
453.871	911.88
454.244	946.01
454.618	949.62
454.992	930.19
455.365	946.01
455.739	967.02
456.112	996.17
456.486	978.55
456.859	1004.76
457.232	1005.21
457.606	1021.94
457.979	1013.8
458.352	1032.33
458.725	1065.33
459.099	1065.33
459.472	1090.86
459.845	1111.65
460.218	1099
460.591	1085.21
460.964	1122.05
461.337	1139.22
461.71	1167.02
462.083	1171.76
462.456	1171.54
462.829	1171.76
463.201	1225.77
463.574	1204.3
463.947	1221.25
464.32	1282.95
464.692	1267.58
465.065	1261.93
465.438	1300.12
465.81	1315.04
466.183	1345.32
466.555	1355.26
466.928	1376.5
467.3	1384.19
467.672	1439.55
468.045	1431.42
468.417	1451.3
468.789	1436.39
469.161	1489.49
469.534	1515.26
469.906	1566.33
470.278	1573.11
470.65	1607.68
471.022	1629.38
471.394	1638.42
471.766	1689.04
472.138	1715.25
472.51	1767.68
472.882	1811.75
473.253	1832.54
473.625	1869.6
473.997	1924.29
474.369	1982.36
474.74	1970.39
475.112	2015.13
475.484	2080.21
475.855	2101.23
476.227	2145.97
476.598	2188.91
476.97	2282.24
477.341	2343.94
477.713	2385.52
478.084	2392.75
478.455	2479.3
478.827	2581.22
479.198	2657.15
479.569	2708.67
479.94	2751.83
480.311	2829.57
480.682	2911.38
481.053	3016.01
481.424	3087.87
481.795	3186.4
482.166	3272.05
482.537	3356.34
482.908	3484.02
483.279	3514.3
483.65	3601.3
484.021	3746.84
484.391	3842.65
484.762	3894.63
485.133	3990.9
485.503	4087.39
485.874	4271.79
486.244	4289.2
486.615	4469.08
486.985	4541.62
487.356	4662.29
487.726	4736.19
488.097	4887.15
488.467	4971.21
488.837	5112.68
489.207	5226.12
489.578	5410.52
489.948	5460.24
490.318	5617.07
490.688	5718.54
491.058	5838.08
491.428	5999.66
491.798	6053.44
492.168	6235.36
492.538	6363.26
492.908	6470.15
493.278	6617.04
493.648	6695.46
494.017	6870.37
494.387	6944.72
494.757	7099.06
495.126	7240.3
495.496	7252.73
495.866	7381.32
496.235	7520.75
496.605	7692.5
496.974	7756.9
497.344	7840.97
497.713	7936.33
498.082	8058.81
498.452	8164.12
498.821	8363.21
499.19	8409.09
499.559	8445.92
499.928	8611.12
500.298	8668.52
500.667	8799.36
501.036	8789.19
501.405	8973.82
501.774	9008.39
502.143	9110.76
502.512	9102.85
502.88	9220.82
503.249	9283.87
503.618	9400.93
503.987	9442.51
504.356	9597.08
504.724	9577.42
505.093	9612.22
505.462	9723.18
505.83	9795.49
506.199	9904.19
506.567	10060.57
506.936	9966.79
507.304	10223.28
507.672	10217.63
508.041	10209.49
508.409	10317.29
508.777	10317.74
509.145	10456.49
509.514	10465.3
509.882	10544.85
510.25	10583.72
510.618	10614.45
510.986	10685.19
511.354	10736.71
511.722	10802.92
512.09	10917.72
512.458	10870.49
512.826	10989.58
513.193	10991.39
513.561	11048.11
513.929	11024.39
514.297	11091.05
514.664	11210.6
515.032	11186.41
515.4	11265.51
515.767	11266.64
516.135	11281.33
516.502	11215.34
516.869	11376.01
517.237	11390.48
517.604	11416.24
517.972	11508.89
518.339	11511.6
518.706	11555.22
519.073	11450.59
519.44	11549.57
519.808	11534.43
520.175	11588.89
520.542	11724.25
520.909	11681.32
521.276	11698.49
521.643	11806.51
522.009	11753.18
522.376	11822.1
522.743	11796.34
523.11	11892.61
523.477	11924.47
523.843	11931.71
524.21	12020.74
524.577	11987.3
524.943	12079.95
525.31	11988.43
525.676	12123.11
526.043	12092.15
526.409	12152.72
526.776	12181.42
527.142	12162.66
527.508	12170.34
527.874	12223.22
528.241	12197.91
528.607	12201.3
528.973	12268.42
529.339	12171.02
529.705	12276.56
530.071	12220.06
530.437	12348.64
530.803	12278.59
531.169	12297.12
531.535	12237.46
531.901	12151.14
532.267	12172.83
532.632	12235.88
532.998	12254.41
533.364	12189.1
533.73	12223
534.095	12266.16
534.461	12236.1
534.826	12180.74
535.192	12139.16
535.557	12190.68
535.923	12127.18
536.288	12099.39
536.653	12087.86
537.019	11993.63
537.384	11972.16
537.749	12001.53
538.114	12028.43
538.479	11934.42
538.845	11891.71
539.21	11842.44
539.575	11832.27
539.94	11820.07
540.305	11877.02
540.67	11666.63
541.034	11680.19
541.399	11753.18
541.764	11662.11
542.129	11747.3
542.494	11678.15
542.858	11581.66
543.223	11545.28
543.587	11479.51
543.952	11544.6
544.316	11414.66
544.681	11419.4
545.045	11407.65
545.41	11380.53
545.774	11382.57
546.138	11320.2
546.503	11283.81
546.867	11278.16
547.231	11240.42
547.595	11307.09
547.959	11224.15
548.324	11215.11
548.688	11180.77
549.052	11051.05
549.416	11124.5
549.779	11033.2
550.143	10986.87
550.507	11049.02
550.871	10955.46
551.235	10949.13
551.599	10999.98
551.962	10919.3
552.326	10816.26
552.689	10897.16
553.053	10741.23
553.417	10828.68
553.78	10820.1
554.143	10763.6
554.507	10748.01
554.87	10781
555.234	10789.82
555.597	10686.32
555.96	10672.76
556.323	10599.31
556.686	10625.75
557.05	10715.01
557.413	10694
557.776	10598.18
558.139	10678.86
558.502	10589.37
558.865	10600.67
559.228	10579.65
559.59	10524.06
559.953	10568.58
560.316	10616.49
560.679	10572.87
561.041	10568.58
561.404	10565.19
561.767	10628.46
562.129	10505.53
562.492	10641.12
562.854	10612.64
563.217	10571.29
563.579	10592.31
563.941	10642.93
564.304	10565.19
564.666	10639.99
565.028	10616.26
565.39	10579.65
565.753	10693.77
566.115	10637.28
566.477	10698.97
566.839	10649.25
567.201	10720.21
567.563	10681.8
567.925	10761.12
568.287	10648.8
568.648	10717.73
569.01	10777.39
569.372	10755.01
569.734	10705.07
570.095	10785.3
570.457	10738.52
570.819	10766.09
571.18	10741.45
571.542	10826.2
571.903	10800.44
572.265	10829.14
572.626	10754.56
572.987	10739.87
573.349	10832.53
573.71	10823.03
574.071	10829.14
574.432	10782.81
574.794	10895.12
575.155	10800.21
575.516	10824.39
575.877	10835.46
576.238	10861.9
576.599	10880.21
576.96	10908.46
577.32	10846.99
577.681	10856.48
578.042	10831.85
578.403	10902.81
578.763	10946.87
579.124	10856.93
579.485	10886.76
579.845	10968.57
580.206	10878.63
580.566	10872.52
580.927	10929.7
581.287	10901.45
581.648	10812.87
582.008	10948
582.368	10871.39
582.728	10883.82
583.089	10841.57
583.449	10893.09
583.809	10806.76
584.169	10810.15
584.529	10743.26
584.889	10853.09
585.249	10780.1
585.609	10755.01
585.969	10829.14
586.329	10772.19
586.688	10743.94
587.048	10778.97
587.408	10686.32
587.768	10791.85
588.127	10655.81
588.487	10681.34
588.846	10752.98
589.206	10696.26
589.565	10694.22
589.925	10748.23
590.284	10676.37
590.643	10690.16
591.003	10699.87
591.362	10733.55
591.721	10690.38
592.08	10638.41
592.44	10624.4
592.799	10690.38
593.158	10668.69
593.517	10701.46
593.876	10697.39
594.235	10593.66
594.593	10590.05
594.952	10620.1
595.311	10645.41
595.67	10630.5
596.029	10698.97
596.387	10681.57
596.746	10636.37
597.104	10633.89
597.463	10632.53
597.822	10567
598.18	10633.21
598.538	10494.46
598.897	10646.77
599.255	10489.71
599.613	10685.41
599.972	10636.37
600.33	10609.93
600.688	10624.62
601.046	10621.91
601.404	10605.41
601.762	10616.71
602.12	10696.94
602.478	10647.45
602.836	10632.31
603.194	10597.73
603.552	10590.05
603.91	10543.49
604.268	10653.1
604.625	10564.51
604.983	10679.31
605.341	10544.85
605.698	10677.73
606.056	10689.93
606.413	10605.87
606.771	10620.78
607.128	10631.63
607.485	10552.99
607.843	10622.81
608.2	10657.16
608.557	10613.1
608.914	10579.43
609.272	10652.19
609.629	10712.53
609.986	10686.09
610.343	10654.9
610.7	10712.98
611.057	10684.06
611.414	10685.19
611.771	10679.54
612.127	10635.69
612.484	10715.69
612.841	10750.49
613.198	10733.77
613.554	10710.27
613.911	10753.21
614.267	10739.87
614.624	10710.04
614.98	10704.17
615.337	10776.03
615.693	10822.36
616.05	10741.91
616.406	10896.25
616.762	10843.83
617.118	10770.15
617.475	10783.71
617.831	10818.97
618.187	10840.21
618.543	10842.47
618.899	10854.9
619.255	10842.92
619.611	10784.62
619.967	10900.32
620.323	10909.59
620.678	10868.68
621.034	10850.6
621.39	10809.02
621.746	10802.24
622.101	10930.38
622.457	10871.62
622.812	10955.23
623.168	10917.5
623.523	10917.27
623.879	10986.42
624.234	10855.58
624.589	10886.54
624.945	10907.78
625.3	10918.85
625.655	10925.63
626.01	10945.07
626.365	10923.82
626.72	10856.71
627.075	10843.37
627.43	10886.76
627.785	10766.76
628.14	10847.21
628.495	10848.34
628.85	10858.29
629.205	10865.29
629.559	10869.59
629.914	10816.93
630.269	10811.96
630.623	10816.93
630.978	10782.58
631.332	10904.39
631.687	10715.47
632.041	10749.36
632.396	10748.91
632.75	10762.92
633.104	10785.97
633.459	10740.1
633.813	10630.72
634.167	10714.56
634.521	10707.11
634.875	10643.6
635.229	10703.72
635.583	10603.83
635.937	10689.03
636.291	10621.01
636.645	10650.61
636.999	10561.35
637.352	10582.59
637.706	10551.63
638.06	10601.12
638.413	10578.75
638.767	10539.2
639.121	10514.12
639.474	10494.23
639.828	10508.69
640.181	10477.73
640.534	10527.45
640.888	10482.25
641.241	10488.35
641.594	10469.37
641.947	10512.53
642.301	10411.75
642.654	10468.47
643.007	10471.41
643.36	10473.89
643.713	10457.62
644.066	10481.35
644.419	10425.98
644.771	10284.52
645.124	10226.89
645.477	10244.52
645.83	10105.77
646.182	10109.61
646.535	10074.35
646.888	10151.64
647.24	10073.68
647.593	10095.14
647.945	10034.58
648.298	10063.96
648.65	10121.36
649.002	10004.3
649.355	10006.11
649.707	10003.17
650.059	10096.05
650.411	10208.81
650.763	10200.23
651.115	10293.56
651.467	10300.11
651.819	10255.82
652.171	10323.16
652.523	10235.48
652.875	10267.57
653.227	10292.2
653.578	10286.78
653.93	10300.79
654.282	10224.86
654.633	10259.66
654.985	10307.12
655.337	10296.95
655.688	10286.1
656.039	10394.35
656.391	10221.92
656.742	10294.23
657.094	10340.79
657.445	10305.76
657.796	10310.96
658.147	10260.11
658.498	10230.96
658.849	10286.55
659.2	10310.05
659.551	10288.36
659.902	10327.91
660.253	10341.24
660.604	10336.27
660.955	10308.92
661.306	10332.88
661.656	10294.01
662.007	10348.92
662.358	10348.02
662.708	10338.53
663.059	10330.17
663.409	10243.39
663.76	10348.47
664.11	10352.99
664.461	10373.78
664.811	10320.22
665.161	10295.36
665.511	10343.95
665.862	10383.95
666.212	10420.11
666.562	10350.73
666.912	10334.69
667.262	10236.38
667.612	10363.16
667.962	10332.65
668.312	10355.7
668.662	10410.39
669.011	10410.62
669.361	10354.12
669.711	10383.05
670.06	10325.19
670.41	10301.69
670.76	10308.47
671.109	10328.36
671.459	10288.36
671.808	10347.79
672.157	10341.92
672.507	10279.09
672.856	10276.38
673.205	10244.52
673.554	10292.88
673.904	10243.16
674.253	10297.85
674.602	10309.6
674.951	10170.62
675.3	9998.88
675.649	10244.29
675.998	10243.61
676.346	10169.72
676.695	10225.31
677.044	10150.74
677.393	10200.9
677.741	10251.3
678.09	10181.7
678.438	10175.82
678.787	10140.11
679.135	10211.75
679.484	10094.47
679.832	10153.67
680.181	10068.93
680.529	10088.59
680.877	10014.69
681.225	10017.86
681.573	10056.73
681.922	9986.45
682.27	9960.68
682.618	9946.9
682.966	10006.56
683.314	9963.62
683.661	9963.62
684.009	9958.42
684.357	9869.84
684.705	9912.55
685.053	9831.42
685.4	9854.7
685.748	9765.21
686.095	9714.14
686.443	9686.34
686.79	9751.65
687.138	9708.04
687.485	9651.99
687.832	9680.47
688.18	9637.53
688.527	9601.6
688.874	9534.48
689.221	9559.11
689.568	9579
689.915	9481.83
690.262	9436.4
690.609	9458.32
690.956	9451.09
691.303	9402.06
691.65	9369.29
691.997	9368.38
692.344	9320.7
692.69	9259.23
693.037	9241.38
693.383	9215.85
693.73	9221.95
694.077	9157.32
694.423	9147.15
694.769	9015.4
695.116	9124.55
695.462	9069.18
695.808	9019.24
696.155	8998.68
696.501	8993.93
696.847	8953.03
697.193	8887.72
697.539	8849.08
697.885	8840.94
698.231	8815.86
698.577	8814.05
698.923	8759.36
699.269	8734.05
699.614	8726.37
699.96	8607.05
700.306	8623.09
700.651	8541.06
700.997	8577.67
701.342	8540.38
701.688	8443.89
702.033	8484.11
702.379	8506.26
702.724	8420.61
703.069	8519.59
703.415	8381.29
703.76	8312.59
704.105	8316.21
704.45	8295.42
704.795	8265.59
705.14	8208.19
705.485	8221.97
705.83	8168.19
706.175	8314.4
706.52	8148.98
706.865	8108.53
707.209	8130.68
707.554	8138.81
707.899	8091.58
708.243	8080.96
708.588	8092.26
708.932	7949.44
709.277	7941.75
709.621	8008.65
709.966	7900.85
710.31	7910.79
710.654	7867.86
710.998	7889.55
711.342	7838.25
711.687	7795.32
712.031	7855.88
712.375	7728.43
712.719	7778.59
713.063	7771.59
713.407	7810.01
713.75	7745.6
714.094	7723.23
714.438	7640.29
714.782	7746.73
715.125	7615.21
715.469	7582.67
715.812	7621.76
716.156	7533.63
716.499	7598.03
716.843	7569.33
717.186	7504.7
717.53	7565.95
717.873	7558.26
718.216	7580.86
718.559	7481.2
718.902	7423.12
719.246	7456.57
719.589	7490.47
719.932	7421.09
720.275	7454.08
720.617	7429
720.96	7412.73
721.303	7413.86
721.646	7440.52
721.989	7414.08
722.331	7432.62
722.674	7416.57
723.016	7424.03
723.359	7349.45
723.701	7430.81
724.044	7367.76
724.386	7302.22
724.729	7354.2
725.071	7400.3
725.413	7347.19
725.755	7292.51
726.097	7264.94
726.439	7306.74
726.782	7259.74
727.124	7331.83
727.465	7304.26
727.807	7306.52
728.149	7285.05
728.491	7286.18
728.833	7265.61
729.175	7226.07
729.516	7242.56
729.858	7231.49
730.199	7282.34
730.541	7252.96
730.882	7186.97
731.224	7284.82
731.565	7221.1
731.906	7272.62
732.248	7291.15
732.589	7245.28
732.93	7268.1
733.271	7279.85
733.612	7306.97
733.953	7274.88
734.294	7227.42
734.635	7243.92
734.976	7330.47
735.317	7215.22
735.658	7282.11
735.999	7261.09
736.339	7264.94
736.68	7248.67
737.021	7312.84
737.361	7155.56
737.702	7311.04
738.042	7251.6
738.383	7302
738.723	7328.21
739.063	7298.38
739.404	7373.41
739.744	7331.15
740.084	7343.58
740.424	7390.36
740.764	7367.31
741.104	7415.89
741.444	7313.97
741.784	7317.59
742.124	7442.56
742.464	7428.77
742.804	7457.7
743.143	7426.74
743.483	7459.73
743.823	7472.16
744.162	7486.17
744.502	7547.87
744.841	7514.65
745.181	7631.71
745.52	7612.05
745.86	7671.93
746.199	7644.81
746.538	7729.1
746.877	7791.25
747.216	7795.09
747.556	7822.44
747.895	7899.95
748.234	7893.39
748.573	7973.84
748.911	8025.37
749.25	8119.83
749.589	8045.25
749.928	8267.62
750.267	8303.33
750.605	8308.3
750.944	8389.43
751.283	8384.68
751.621	8526.82
751.96	8614.73
752.298	8714.62
752.636	8758
752.975	8812.69
753.313	8938.79
753.651	9115.06
753.989	9179.69
754.327	9240.25
754.666	9306.46
755.004	9474.6
755.342	9594.82
755.679	9653.12
756.017	9799.33
756.355	9956.84
756.693	10105.31
757.031	10229.6
757.368	10290.62
757.706	10403.16
758.044	10608.35
758.381	10707.11
758.719	10793.66
759.056	11063.25
759.394	11128.79
759.731	11283.14
760.068	11383.7
760.405	11510.93
760.743	11700.3
761.08	11904.14
761.417	11997.24
761.754	12149.55
762.091	12312.04
762.428	12514.06
762.765	12597.23
763.102	12823.89
763.438	12855.75
763.775	13070.66
764.112	13283.76
764.449	13438.11
764.785	13546.35
765.122	13644.2
765.458	13776.63
765.795	13906.57
766.131	14124.64
766.467	14199.44
766.804	14326.67
767.14	14495.25
767.476	14676.94
767.812	14725.08
768.148	14947.22
768.485	14991.74
768.821	15068.8
769.157	15196.25
769.492	15300.43
769.828	15508.34
770.164	15433.31
770.5	15619.52
770.836	15708.33
771.171	15761.89
771.507	15839.17
771.842	15881.66
772.178	16053.41
772.513	16191.26
772.849	16282.78
773.184	16248.43
773.519	16479.38
773.855	16386.96
774.19	16443.9
774.525	16472.6
774.86	16670.79
775.195	16664.01
775.53	16648.87
775.865	16767.06
776.2	16675.76
776.535	16675.08
776.87	16824.68
777.205	16774.29
777.539	16928.41
777.874	17040.27
778.209	16932.48
778.543	16913.27
778.878	16968.86
779.212	17020.16
779.547	17037.56
779.881	17107.16
780.215	17009.76
780.55	17167.05
780.884	17041.4
781.218	17071.23
781.552	17194.17
781.886	17121.63
782.22	17057
782.554	17135.19
782.888	17033.04
783.222	17032.14
783.556	17081.4
783.889	16966.15
784.223	16920.28
784.557	16941.29
784.89	17078.92
785.224	17001.4
785.557	16906.04
785.891	16904
786.224	16973.38
786.558	16912.82
786.891	16915.98
787.224	16744.23
787.557	16762.77
787.891	16811.35
788.224	16832.14
788.557	16827.85
788.89	16807.51
789.223	16859.71
789.556	16714.63
789.888	16662.2
790.221	16701.3
790.554	16527.74
790.887	16612.71
791.219	16512.38
791.552	16492.26
791.884	16473.06
792.217	16424.47
792.549	16380.18
792.882	16403
793.214	16229.9
793.546	16339.73
793.879	16244.81
794.211	16230.58
794.543	16274.19
794.875	16267.41
795.207	16292.95
795.539	16139.73
795.871	16179.28
796.203	16072.84
796.535	15988.1
796.867	16020.86
797.198	16050.69
797.53	15937.7
797.862	15968.89
798.193	15884.37
798.525	15852.51
798.856	15854.09
799.188	15595.34
799.519	15620.87
799.85	15618.39
800.182	15638.28
800.513	15700.87
800.844	15553.08
801.175	15645.05
801.506	15558.5
801.837	15380.2
802.168	15406.87
802.499	15432.18
802.83	15396.25
803.161	15358.06
803.491	15308.34
803.822	15345.18
804.153	15211.85
804.483	15110.83
804.814	15088.01
805.145	15081
805.475	15089.59
805.805	15055.47
806.136	14974.79
806.466	14963.26
806.796	14987.67
807.126	14901.35
807.457	14860.44
807.787	14842.82
808.117	14831.29
808.447	14745.19
808.777	14806.21
809.107	14745.87
809.436	14721.69
809.766	14612.54
810.096	14663.16
810.426	14533.67
810.755	14615.03
811.085	14570.73
811.414	14513.56
811.744	14401.7
812.073	14394.01
812.403	14431.75
812.732	14318.08
813.061	14397.63
813.39	14250.29
813.719	14337.74
814.049	14301.81
814.378	14250.52
814.707	14222.04
815.036	14255.94
815.365	14137.3
815.693	14015.72
816.022	13986.34
816.351	14003.52
816.68	13908.15
817.008	14053.46
817.337	13848.94
817.665	13895.5
817.994	13911.09
818.322	13861.82
818.651	13787.7
818.979	13743.64
819.307	13907.7
819.636	13730.08
819.964	13700.7
820.292	13817.76
820.62	13729.4
820.948	13760.58
821.276	13734.6
821.604	13768.72
821.932	13730.53
822.259	13749.74
822.587	13657.99
822.915	13680.13
823.243	13690.08
823.57	13590.87
823.898	13679.46
824.225	13656.18
824.553	13652.34
824.88	13712.9
825.207	13741.38
825.535	13599.23
825.862	13662.06
826.189	13686.46
826.516	13717.2
826.843	13740.25
827.17	13762.62
827.497	13817.31
827.824	13785.89
828.151	13788.61
828.478	13763.52
828.805	13824.99
829.131	13737.53
829.458	13664.32
829.785	13603.07
830.111	13684.65
830.438	13778.44
830.764	13694.15
831.09	13802.62
831.417	13708.83
831.743	13784.76
832.069	13693.47
832.395	13629.51
832.722	13709.06
833.048	13631.77
833.374	13663.86
833.7	13636.52
834.026	13610.31
834.351	13695.05
834.677	13594.71
835.003	13613.92
835.329	13562.17
835.654	13597.2
835.98	13532.79
836.306	13514.94
836.631	13455.51
836.956	13594.04
837.282	13556.52
837.607	13420.25
837.932	13481.72
838.258	13449.41
838.583	13398.79
838.908	13341.16
839.233	13375.51
839.558	13369.63
839.883	13272.01
840.208	13262.52
840.533	13250.09
840.858	13274.72
841.182	13285.12
841.507	13255.97
841.832	13149.53
842.156	13134.39
842.481	13164.67
842.805	13118.79
843.13	13070.43
843.454	13049.64
843.778	12962.87
844.103	13016.2
844.427	12922.41
844.751	12885.81
845.075	12848.52
845.399	12855.07
845.723	12806.03
846.047	12798.58
846.371	12722.42
846.695	12746.37
847.019	12658.01
847.343	12535.53
847.666	12504.57
847.99	12412.15
848.313	12471.8
848.637	12399.04
848.96	12336.22
849.284	12350
849.607	12226.84
849.931	12176.67
850.254	12133.06
850.577	12036.79
850.9	12012.16
851.223	11997.69
851.546	11978.03
851.869	11793.63
852.192	11932.61
852.515	11827.75
852.838	11722.67
853.161	11691.94
853.483	11708.66
853.806	11667.76
854.129	11594.99
854.451	11576.69
854.774	11538.04
855.096	11456.24
855.419	11387.54
855.741	11371.04
856.063	11389.35
856.385	11325.39
856.708	11289.46
857.03	11287.2
857.352	11277.26
857.674	11205.17
857.996	11208.56
858.318	11098.96
858.64	11149.35
858.961	11094.44
859.283	11017.38
859.605	10970.6
859.926	11035.01
860.248	10883.82
860.57	10861.68
860.891	10946.65
861.212	10856.25
861.534	10829.36
861.855	10760.21
862.176	10889.47
862.498	10790.27
862.819	10769.48
863.14	10728.57
863.461	10731.96
863.782	10707.11
864.103	10713.21
864.424	10637.05
864.745	10675.47
865.065	10606.09
865.386	10588.24
865.707	10582.36
866.027	10562.02
866.348	10555.25
866.668	10470.73
866.989	10527.68
867.309	10428.69
867.63	10450.62
867.95	10472.99
868.27	10453.78
868.59	10485.19
868.91	10397.06
869.23	10378.53
869.55	10323.39
869.87	10386.66
870.19	10322.26
870.51	10344.86
870.83	10381.92
871.15	10210.62
871.469	10278.42
871.789	10267.12
872.109	10257.17
872.428	10175.37
872.748	10142.37
873.067	10231.19
873.386	10177.63
873.706	10147.35
874.025	10131.08
874.344	10022.6
874.663	10100.12
874.982	10023.96
875.301	10148.02
875.62	10049.95
875.939	10061.02
876.258	9979.89
876.577	9992.77
876.896	9945.77
877.214	9955.94
877.533	9949.61
877.852	9879.56
878.17	9891.99
878.489	9942.15
878.807	9889.73
879.125	9853.57
879.444	9861.7
879.762	9814.25
880.08	9848.82
880.398	9826.9
880.716	9817.86
881.034	9791.42
881.352	9788.49
881.67	9637.3
881.988	9729.28
882.306	9677.53
882.624	9642.05
882.941	9549.4
883.259	9508.27
883.577	9562.28
883.894	9544.42
884.212	9533.13
884.529	9544.2
884.846	9494.93
885.164	9531.54
885.481	9430.75
885.798	9453.81
886.115	9430.98
886.432	9357.31
886.75	9435.5
887.067	9313.24
887.383	9329.74
887.7	9350.98
888.017	9291.32
888.334	9393.47
888.651	9222.4
888.967	9223.75
889.284	9187.15
889.6	9218.33
889.917	9079.35
890.233	9120.71
890.55	9103.08
890.866	9087.94
891.182	9028.73
891.498	9014.27
891.815	8918.23
892.131	8963.87
892.447	8895.4
892.763	8909.86
893.079	8886.59
893.395	8856.31
893.71	8853.59
894.026	8796.2
894.342	8787.38
894.657	8722.75
894.973	8669.64
895.289	8677.1
895.604	8684.11
895.92	8572.47
896.235	8581.96
896.55	8563.66
896.865	8573.83
897.181	8509.88
897.496	8501.74
897.811	8516.2
898.126	8412.48
898.441	8404.34
898.756	8343.33
899.071	8345.13
899.386	8301.97
899.7	8272.37
900.015	8204.35
900.33	8067.63
900.644	8207.28
900.959	8156.89
901.273	8050.9
901.588	8086.61
901.902	8061.98
902.216	8033.05
902.531	8050.9
902.845	8009.1
903.159	7891.36
903.473	7907.63
903.787	7881.64
904.101	7785.15
904.415	7827.86
904.729	7768.43
905.042	7691.14
905.356	7678.48
905.67	7681.65
905.984	7666.06
906.297	7644.59
906.611	7610.46
906.924	7592.16
907.237	7585.83
907.551	7497.92
907.864	7499.28
908.177	7460.41
908.491	7469
908.804	7409.34
909.117	7334.54
909.43	7337.93
909.743	7292.28
910.056	7245.95
910.368	7259.29
910.681	7190.14
910.994	7158.05
911.307	7191.72
911.619	7105.39
911.932	7096.13
912.244	7076.01
912.557	7059.97
912.869	7001.44
913.181	6989.46
913.494	6921.89
913.806	6882.12
914.118	6920.76
914.43	6845.29
914.742	6826.08
915.054	6831.95
915.366	6763.93
915.678	6749.92
915.99	6720.32
916.302	6722.8
916.613	6676.25
916.925	6659.98
917.236	6628.79
917.548	6638.29
917.859	6557.16
918.171	6558.51
918.482	6497.05
918.794	6483.71
919.105	6515.35
919.416	6462.25
919.727	6393.55
920.038	6387.22
920.349	6328.01
920.66	6316.94
920.971	6365.3
921.282	6269.71
921.593	6269.93
921.903	6249.37
922.214	6210.27
922.525	6168.47
922.835	6191.29
923.146	6102.25
923.456	6118.07
923.767	6061.35
924.077	6001.47
924.387	5979.32
924.697	6003.05
925.008	5974.12
925.318	5985.87
925.628	5951.98
925.938	5926.67
926.248	5869.04
926.558	5860.68
926.867	5813.22
927.177	5827.46
927.487	5786.1
927.796	5775.71
928.106	5753.34
928.416	5707.69
928.725	5721.93
929.034	5663.62
929.344	5638.76
929.653	5641.02
929.962	5623.17
930.271	5566.45
930.581	5509.5
930.89	5519.67
931.199	5503.4
931.508	5513.34
931.817	5506.34
932.125	5491.88
932.434	5385.44
932.743	5348.83
933.051	5363.07
933.36	5344.31
933.669	5324.42
933.977	5293.69
934.286	5304.08
934.594	5316.74
934.902	5255.72
935.21	5222.05
935.519	5186.57
935.827	5174.6
936.135	5177.76
936.443	5149.06
936.751	5121.26
937.059	5076.75
937.367	5046.46
937.674	5095.28
937.982	5081.94
938.29	5032.23
938.597	5018.22
938.905	4973.47
939.213	4939.35
939.52	4876.3
939.827	4919.91
940.135	4848.5
940.442	4854.83
940.749	4832.91
941.056	4854.83
941.363	4802.85
941.67	4803.76
941.977	4733.48
942.284	4749.97
942.591	4763.31
942.898	4683.08
943.205	4685.79
943.511	4608.96
943.818	4655.74
944.125	4612.58
944.431	4626.36
944.738	4567.15
945.044	4547.27
945.35	4545.91
945.657	4454.39
945.963	4511.11
946.269	4454.39
946.575	4453.26
946.881	4446.71
947.187	4415.75
947.493	4407.16
947.799	4372.58
948.105	4423.65
948.41	4334.39
948.716	4362.87
949.022	4317.44
949.327	4323.09
949.633	4253.04
949.938	4283.09
950.244	4245.81
950.549	4202.87
950.854	4235.64
951.16	4206.03
951.465	4186.37
951.77	4148.18
952.075	4155.64
952.38	4106.6
952.685	4154.28
952.99	4077.68
953.294	4093.95
953.599	4039.26
953.904	4059.6
954.209	3998.36
954.513	4006.49
954.818	3981.41
955.122	3958.58
955.426	3936.21
955.731	3912.93
956.035	3908.41
956.339	3924.23
956.643	3889.88
956.948	3887.62
957.252	3814.41
957.556	3836.1
957.86	3819.83
958.163	3831.35
958.467	3782.99
958.771	3755.88
959.075	3763.56
959.378	3749.55
959.682	3721.07
959.985	3683.79
960.289	3711.13
960.592	3669.32
960.896	3677.69
961.199	3672.26
961.502	3609.21
961.805	3637.23
962.108	3627.97
962.411	3593.62
962.714	3599.27
963.017	3498.26
963.32	3553.17
963.623	3469.56
963.926	3527.41
964.228	3464.13
964.531	3484.92
964.833	3477.47
965.136	3467.97
965.438	3386.62
965.741	3461.42
966.043	3373.74
966.345	3364.7
966.648	3349.11
966.95	3372.38
967.252	3304.36
967.554	3304.81
967.856	3338.03
968.158	3295.55
968.46	3295.32
968.761	3259.84
969.063	3270.46
969.365	3264.36
969.666	3262.1
969.968	3212.61
970.269	3155.89
970.571	3210.35
970.872	3155.44
971.174	3199.73
971.475	3128.55
971.776	3123.12
972.077	3115.44
972.378	3110.02
972.679	3107.76
972.98	3067.53
973.281	3075.67
973.582	3044.71
973.883	3067.98
974.183	3017.14
974.484	3019.4
974.785	2994.77
975.085	2994.09
975.386	2997.25
975.686	2959.96
975.986	2953.19
976.287	2932.62
976.587	2926.75
976.887	2905.95
977.187	2882.68
977.487	2920.64
977.787	2868.44
978.087	2864.37
978.387	2830.7
978.687	2822.12
978.987	2817.37
979.286	2823.24
979.586	2815.11
979.885	2782.12
980.185	2755.22
980.484	2746.86
980.784	2740.76
981.083	2714.32
981.382	2750.48
981.682	2691.27
981.981	2683.59
982.28	2697.6
982.579	2683.36
982.878	2670.03
983.177	2629.13
983.475	2663.93
983.774	2646.3
984.073	2633.19
984.372	2615.34
984.67	2598.39
984.969	2577.38
985.267	2555.91
985.566	2518.62
985.864	2556.81
986.162	2550.03
986.461	2518.17
986.759	2531.5
987.057	2500.54
987.355	2492.18
987.653	2492.18
987.951	2495.57
988.249	2461.45
988.547	2426.87
988.844	2442.69
989.142	2462.8
989.44	2426.87
989.737	2404.05
990.035	2397.49
990.332	2367.89
990.63	2384.84
990.927	2366.99
991.224	2366.76
991.521	2349.36
991.819	2335.35
992.116	2310.49
992.413	2320.43
992.71	2310.26
993.006	2286.31
993.303	2274.56
993.6	2270.72
993.897	2245.41
994.193	2260.1
994.49	2241.57
994.787	2231.62
995.083	2228.23
995.379	2177.39
995.676	2163.38
995.972	2178.74
996.268	2159.08
996.565	2171.74
996.861	2152.75
997.157	2163.6
997.453	2142.81
997.749	2125.18
998.044	2056.94
998.34	2119.99
998.636	2105.3
998.932	2081.12
999.227	2061.46
999.523	2057.84
999.818	2060.1
1000.114	2032.53
1000.409	2011.74
1000.704	2002.93
1001	1972.42
1001.295	1978.3
1001.59	1974.23
1001.885	1946.43
1002.18	1954.12
1002.475	1916.38
1002.77	1954.34
1003.065	1910.5
1003.359	1937.17
1003.654	1885.42
1003.949	1918.86
1004.243	1882.25
1004.538	1850.62
1004.832	1855.36
1005.127	1852.88
1005.421	1804.29
1005.715	1814.23
1006.009	1801.35
1006.304	1809.26
1006.598	1810.39
1006.892	1790.05
1007.186	1772.65
1007.48	1762.93
1007.773	1757.51
1008.067	1768.13
1008.361	1741.01
1008.655	1718.42
1008.948	1746.66
1009.242	1699.88
1009.535	1713.9
1009.829	1677.96
1010.122	1656.04
1010.415	1669.6
1010.708	1646.55
1011.001	1651.75
1011.295	1630.73
1011.588	1635.93
1011.881	1626.21
1012.173	1593.45
1012.466	1614.24
1012.759	1610.17
1013.052	1574.24
1013.344	1565.42
1013.637	1584.86
1013.93	1568.14
1014.222	1558.19
1014.514	1562.26
1014.807	1572.43
1015.099	1517.74
1015.391	1497.86
1015.683	1512.09
1015.976	1508.03
1016.268	1511.64
1016.56	1483.62
1016.851	1464.18
1017.143	1463.51
1017.435	1449.5
1017.727	1437.07
1018.018	1445.88
1018.31	1417.41
1018.602	1421.93
1018.893	1418.08
1019.185	1397.07
1019.476	1406.11
1019.767	1385.09
1020.058	1362.94
1020.35	1364.07
1020.641	1344.87
1020.932	1358.42
1021.223	1349.16
1021.514	1330.18
1021.804	1313.91
1022.095	1321.14
1022.386	1299.44
1022.677	1327.01
1022.967	1273
1023.258	1299.22
1023.548	1278.2
1023.839	1273.68
1024.129	1272.55
1024.419	1252.66
1024.709	1250.4
1025	1238.88
1025.29	1224.87
1025.58	1226.9
1025.87	1207.92
1026.16	1223.74
1026.449	1191.42
1026.739	1177.19
1027.029	1183.51
1027.319	1175.38
1027.608	1169.05
1027.898	1140.8
1028.187	1173.8
1028.477	1165.44
1028.766	1149.62
1029.055	1158.66
1029.344	1105.55
1029.634	1092.89
1029.923	1127.47
1030.212	1115.49
1030.501	1083.18
1030.79	1090.64
1031.078	1073.46
1031.367	1107.81
1031.656	1034.14
1031.945	1083.18
1032.233	1058.09
1032.522	1047.7
1032.81	1028.72
1033.099	1043.86
1033.387	1048.38
1033.675	1025.55
1033.963	1019.45
1034.251	1011.09
1034.54	1003.86
1034.828	991.43
1035.116	993.01
1035.403	966.8
1035.691	969.06
1035.979	992.56
1036.267	963.41
1036.554	972.45
1036.842	951.88
1037.129	962.73
1037.417	960.24
1037.704	941.49
1037.992	909.62
1038.279	931.54
1038.566	918.66
1038.853	918.66
1039.14	918.66
