Data from hue_260_FLMS001491_00040.txt Node
Date: Tue Feb 07 15:58:56 GMT 2017
User: dcchb
Spectrometer: FLMS00149
Trigger mode: 0
Integration Time (sec): 2.000000E-2
Scans to average: 10
Electric dark correction enabled: true
Nonlinearity correction enabled: false
Boxcar width: 0
XAxis mode: Wavelengths
Number of Pixels in Spectrum: 2048
>>>>>Begin Spectral Data<<<<<
341.393	9.91
341.776	9.91
342.16	9.91
342.543	-66.47
342.927	-58.33
343.31	-60.82
343.693	-51.1
344.077	-72.34
344.46	-69.18
344.843	-45
345.226	-60.14
345.61	-29.63
345.993	-30.08
346.376	16.02
346.759	-5
347.142	29.12
347.525	27.09
347.908	66.41
348.291	78.39
348.674	114.09
349.057	92.17
349.44	160.65
349.823	128.33
350.206	166.75
350.588	162.91
350.971	195.45
351.354	215.33
351.737	245.16
352.119	247.87
352.502	242
352.884	273.41
353.267	266.63
353.65	278.61
354.032	289.23
354.414	297.59
354.797	309.12
355.179	309.57
355.562	313.41
355.944	305.5
356.326	326.06
356.709	346.86
357.091	320.42
357.473	338.27
357.855	335.1
358.238	337.59
358.62	336.01
359.002	334.65
359.384	314.09
359.766	333.52
360.148	309.79
360.53	326.97
360.912	337.36
361.294	338.95
361.676	324.48
362.057	343.69
362.439	322.9
362.821	314.54
363.203	319.96
363.584	324.71
363.966	307.08
364.348	315.22
364.729	306.86
365.111	305.27
365.493	313.86
365.874	281.32
366.256	308.89
366.637	295.33
367.019	300.75
367.4	323.81
367.781	316.12
368.163	311.83
368.544	291.72
368.925	315.44
369.306	282.45
369.688	301.43
370.069	314.54
370.45	311.15
370.831	312.73
371.212	298.95
371.593	296.91
371.974	298.49
372.355	303.69
372.736	321.77
373.117	314.99
373.498	288.55
373.879	311.15
374.26	325.84
374.641	331.04
375.021	284.48
375.402	323.35
375.783	320.19
376.163	318.38
376.544	312.28
376.925	320.19
377.305	325.39
377.686	303.92
378.066	338.49
378.447	331.94
378.827	315.44
379.208	311.15
379.588	333.52
379.968	334.88
380.349	335.78
380.729	321.77
381.109	330.58
381.489	334.88
381.87	335.33
382.25	333.07
382.63	325.16
383.01	317.48
383.39	355.44
383.77	341.21
384.15	336.46
384.53	336.91
384.91	352.05
385.29	336.46
385.67	328.1
386.049	329.45
386.429	323.13
386.809	324.93
387.189	342.56
387.568	353.86
387.948	352.96
388.328	354.54
388.707	372.39
389.087	361.77
389.466	346.18
389.846	347.31
390.225	349.57
390.605	352.5
390.984	362
391.363	359.28
391.743	355.22
392.122	368.78
392.501	361.32
392.881	360.87
393.26	378.49
393.639	383.92
394.018	387.76
394.397	387.08
394.776	386.4
395.155	380.3
395.534	393.86
395.913	396.57
396.292	380.3
396.671	369.23
397.05	359.96
397.429	398.15
397.808	371.94
398.186	385.05
398.565	383.01
398.944	410.13
399.323	399.96
399.701	391.37
400.08	422.79
400.458	415.1
400.837	409
401.215	414.42
401.594	409.9
401.972	416.01
402.351	426.63
402.729	429.11
403.107	437.02
403.486	425.72
403.864	420.98
404.242	446.51
404.62	418.72
404.999	414.42
405.377	445.38
405.755	462.78
406.133	432.73
406.511	453.75
406.889	448.32
407.267	463.24
407.645	480.64
408.023	462.78
408.401	478.83
408.779	471.82
409.156	475.67
409.534	492.16
409.912	479.51
410.29	491.26
410.667	479.73
411.045	500.75
411.422	507.08
411.8	526.29
412.178	525.38
412.555	534.42
412.933	551.37
413.31	554.08
413.687	575.32
414.065	541.88
414.442	564.48
414.819	574.42
415.197	572.39
415.574	584.82
415.951	584.36
416.328	602.22
416.705	592.05
417.082	635.44
417.46	632.72
417.837	626.4
418.214	627.07
418.591	658.49
418.967	645.83
419.344	651.93
419.721	661.42
420.098	678.15
420.475	676.56
420.852	677.92
421.228	702.33
421.605	711.37
421.982	694.19
422.358	705.26
422.735	723.34
423.111	768.99
423.488	762.44
423.864	740.07
424.241	772.61
424.617	783
424.994	771.25
425.37	799.72
425.746	789.1
426.123	823.68
426.499	843.34
426.875	813.28
427.251	840.4
427.627	872.49
428.003	854.19
428.379	885.37
428.756	887.18
429.132	886.28
429.507	892.6
429.883	908.65
430.259	937.57
430.635	918.37
431.011	926.5
431.387	970.79
431.763	978.48
432.138	1008.98
432.514	1011.7
432.89	1014.18
433.265	1028.87
433.641	1071.36
434.016	1043.56
434.392	1080.4
434.767	1105.48
435.143	1109.1
435.518	1123.78
435.894	1142.54
436.269	1157
436.644	1169.21
437.02	1198.58
437.395	1224.57
437.77	1224.12
438.145	1251.92
438.52	1239.26
438.895	1239.04
439.271	1283.1
439.646	1277.23
440.021	1328.52
440.395	1329.65
440.77	1326.94
441.145	1332.14
441.52	1382.31
441.895	1368.3
442.27	1389.99
442.645	1387.28
443.019	1406.49
443.394	1418.47
443.769	1444.23
444.143	1443.32
444.518	1453.72
444.892	1479.71
445.267	1497.56
445.641	1494.17
446.016	1512.7
446.39	1518.8
446.764	1554.28
447.139	1515.19
447.513	1563.55
447.887	1561.29
448.262	1546.82
448.636	1596.09
449.01	1596.09
449.384	1618.69
449.758	1620.27
450.132	1602.19
450.506	1616.88
450.88	1639.93
451.254	1651.45
451.628	1642.64
452.002	1709.08
452.376	1693.94
452.75	1668.85
453.123	1730.55
453.497	1760.15
453.871	1742.75
454.244	1768.29
454.618	1785.91
454.992	1808.51
455.365	1825.46
455.739	1854.61
456.112	1883.76
456.486	1867.27
456.859	1912.92
457.232	1903.42
457.606	1921.05
457.979	1955.63
458.352	2000.82
458.725	2004.66
459.099	1988.62
459.472	2041.27
459.845	2064.78
460.218	2067.49
460.591	2113.14
460.964	2130.76
461.337	2155.85
461.71	2201.5
462.083	2171.67
462.456	2197.43
462.829	2210.76
463.201	2230.87
463.574	2249.4
463.947	2268.61
464.32	2320.81
464.692	2364.2
465.065	2377.54
465.438	2405.33
465.81	2384.32
466.183	2466.35
466.555	2480.36
466.928	2495.95
467.3	2514.48
467.672	2548.15
468.045	2579.56
468.417	2582.95
468.789	2591.32
469.161	2669.51
469.534	2687.36
469.906	2755.15
470.278	2743.85
470.65	2765.77
471.022	2772.33
471.394	2825.43
471.766	2865.21
472.138	2885.55
472.51	2994.47
472.882	2964.64
473.253	2993.11
473.625	3061.36
473.997	3109.04
474.369	3147.91
474.74	3166.22
475.112	3209.6
475.484	3212.99
475.855	3340.22
476.227	3285.54
476.598	3385.19
476.97	3417.73
477.341	3484.85
477.713	3573.89
478.084	3552.87
478.455	3631.51
478.827	3679.42
479.198	3765.52
479.569	3690.72
479.94	3784.51
480.311	3870.6
480.682	3929.13
481.053	4002.8
481.424	4028.11
481.795	4060.2
482.166	4089.81
482.537	4180.65
482.908	4242.35
483.279	4245.74
483.65	4335.9
484.021	4406.86
484.391	4398.73
484.762	4444.83
485.133	4523.69
485.503	4563.24
485.874	4651.6
486.244	4686.18
486.615	4753.75
486.985	4758.26
487.356	4884.82
487.726	4912.61
488.097	5005.04
488.467	4972.5
488.837	5051.59
489.207	5125.03
489.578	5161.42
489.948	5180.63
490.318	5294.3
490.688	5291.13
491.058	5384.91
491.428	5359.15
491.798	5469.21
492.168	5549.43
492.538	5549.2
492.908	5638.02
493.278	5649.99
493.648	5661.97
494.017	5739.03
494.387	5784.68
494.757	5782.42
495.126	5879.82
495.496	5819.48
495.866	5898.12
496.235	5949.42
496.605	5978.35
496.974	6026.93
497.344	6033.71
497.713	6080.04
498.082	6092.92
498.452	6119.13
498.821	6126.59
499.19	6175.85
499.559	6242.97
499.928	6269.86
500.298	6288.85
500.667	6308.96
501.036	6264.21
501.405	6397.54
501.774	6349.64
502.143	6338.79
502.512	6411.33
502.88	6407.49
503.249	6453.59
503.618	6493.13
503.987	6478.22
504.356	6536.98
504.724	6548.95
505.093	6571.78
505.462	6600.02
505.83	6627.37
506.199	6645.9
506.567	6684.77
506.936	6646.35
507.304	6722.05
507.672	6775.61
508.041	6759.34
508.409	6780.58
508.777	6848.38
509.145	6900.58
509.514	6877.98
509.882	6876.85
510.25	6855.61
510.618	6929.06
510.986	6901.26
511.354	6938.32
511.722	6961.82
512.09	7051.99
512.458	6971.54
512.826	7051.99
513.193	7029.62
513.561	7045.21
513.929	7044.31
514.297	7147.58
514.664	7165.89
515.032	7080.69
515.4	7183.51
515.767	7165.21
516.135	7119.11
516.502	7164.98
516.869	7250.18
517.237	7267.58
517.604	7195.71
517.972	7255.6
518.339	7236.39
518.706	7262.38
519.073	7254.24
519.44	7240.69
519.808	7415.37
520.175	7341.25
520.542	7405.43
520.909	7385.99
521.276	7395.48
521.643	7467.12
522.009	7426.44
522.376	7488.36
522.743	7461.24
523.11	7563.16
523.477	7586.66
523.843	7555.93
524.21	7600.45
524.577	7575.59
524.943	7631.64
525.31	7624.18
525.676	7684.97
526.043	7722.48
526.409	7722.48
526.776	7734.91
527.142	7669.6
527.508	7703.27
527.874	7801.8
528.241	7771.07
528.607	7733.55
528.973	7808.81
529.339	7827.79
529.705	7848.8
530.071	7867.34
530.437	7868.69
530.803	7851.29
531.169	7883.61
531.535	7776.94
531.901	7833.89
532.267	7842.48
532.632	7936.94
532.998	7908.01
533.364	7930.16
533.73	7888.8
534.095	7940.33
534.461	7969.48
534.826	7936.03
535.192	7948.46
535.557	7909.37
535.923	7890.16
536.288	7936.94
536.653	7914.11
537.019	7881.8
537.384	7897.17
537.749	7859.43
538.114	7928.8
538.479	7941.01
538.845	7846.09
539.21	7864.4
539.575	7895.13
539.94	7953.21
540.305	7898.3
540.67	7862.14
541.034	7918.18
541.399	7893.78
541.764	7902.14
542.129	7847.9
542.494	7883.83
542.858	7869.6
543.223	7868.92
543.587	7885.64
543.952	7856.49
544.316	7882.7
544.681	7843.83
545.045	7881.8
545.41	7810.16
545.774	7850.84
546.138	7823.72
546.503	7826.43
546.867	7785.98
547.231	7824.4
547.595	7806.32
547.959	7863.04
548.324	7830.05
548.688	7837.28
549.052	7837.51
549.416	7828.24
549.779	7802.25
550.143	7805.42
550.507	7798.86
550.871	7819.65
551.235	7745.76
551.599	7823.72
551.962	7774.91
552.326	7728.13
552.689	7764.74
553.053	7786.66
553.417	7794.57
553.78	7833.44
554.143	7738.53
554.507	7759.99
554.87	7737.62
555.234	7842.03
555.597	7776.04
555.96	7813.1
556.323	7769.71
556.686	7805.42
557.05	7869.14
557.413	7830.5
557.776	7818.98
558.139	7882.02
558.502	7910.5
558.865	7821.24
559.228	7860.33
559.59	7850.39
559.953	7868.92
560.316	7904.17
560.679	7944.62
561.041	7946.2
561.404	7947.56
561.767	7999.99
562.129	7963.6
562.492	7983.49
562.854	8002.7
563.217	7972.42
563.579	7966.32
563.941	8014.9
564.304	8018.52
564.666	8126.09
565.028	8114.79
565.39	8142.13
565.753	8078.18
566.115	8152.98
566.477	8169.47
566.839	8214.67
567.201	8248.12
567.563	8188.46
567.925	8280.88
568.287	8214.67
568.648	8225.29
569.01	8277.95
569.372	8334.89
569.734	8272.75
570.095	8378.06
570.457	8406.08
570.819	8394.1
571.18	8406.98
571.542	8469.58
571.903	8506.64
572.265	8546.41
572.626	8442.69
572.987	8458.28
573.349	8553.42
573.71	8530.14
574.071	8547.54
574.432	8600.88
574.794	8655.34
575.155	8643.81
575.516	8585.28
575.877	8661.44
576.238	8674.32
576.599	8733.3
576.96	8693.08
577.32	8708.67
577.681	8793.64
578.042	8797.93
578.403	8788.44
578.763	8773.07
579.124	8788.22
579.485	8849
579.845	8878.16
580.206	8865.28
580.566	8874.77
580.927	8936.46
581.287	8966.52
581.648	8941.21
582.008	8970.13
582.368	8973.97
582.728	9027.31
583.089	9009.23
583.449	9045.61
583.809	9051.03
584.169	9026.18
584.529	9038.83
584.889	9160.63
585.249	9063.01
585.609	9083.57
585.969	9084.7
586.329	9159.5
586.688	9112.5
587.048	9117.02
587.408	9149.34
587.768	9119.28
588.127	9123.8
588.487	9163.8
588.846	9178.71
589.206	9142.1
589.565	9156.12
589.925	9262.55
590.284	9187.53
590.643	9259.39
591.003	9326.28
591.362	9333.06
591.721	9322.66
592.08	9321.76
592.44	9339.61
592.799	9286.51
593.158	9321.76
593.517	9270.46
593.876	9323.79
594.235	9364.25
594.593	9326.51
594.952	9344.81
595.311	9337.58
595.67	9393.4
596.029	9459.84
596.387	9389.33
596.746	9401.76
597.104	9395.43
597.463	9368.99
597.822	9516.56
598.18	9416.22
598.538	9451.93
598.897	9437.24
599.255	9385.71
599.613	9532.6
599.972	9430.91
600.33	9479.04
600.688	9468.42
601.046	9465.71
601.404	9483.79
601.762	9467.75
602.12	9517.24
602.478	9588.65
602.836	9558.14
603.194	9538.03
603.552	9543.9
603.91	9497.12
604.268	9531.47
604.625	9505.26
604.983	9579.83
605.341	9505.48
605.698	9535.31
606.056	9546.61
606.413	9532.38
606.771	9593.84
607.128	9561.3
607.485	9594.3
607.843	9591.81
608.2	9584.35
608.557	9590
608.914	9648.76
609.272	9628.19
609.629	9711.81
609.986	9684.91
610.343	9668.19
610.7	9706.16
611.057	9699.83
611.414	9708.87
611.771	9686.72
612.127	9793.61
612.484	9777.34
612.841	9823.67
613.198	9752.48
613.554	9788.64
613.911	9757.91
614.267	9727.17
614.624	9781.86
614.98	9746.61
615.337	9844.01
615.693	9801.3
616.05	9799.71
616.406	9836.1
616.762	9779.38
617.118	9730.56
617.475	9807.62
617.831	9813.27
618.187	9849.66
618.543	9913.84
618.899	9903.67
619.255	9919.48
619.611	9915.42
619.967	9899.37
620.323	9935.53
620.678	9870.22
621.034	9877
621.39	9853.5
621.746	9940.95
622.101	9944.8
622.457	9891.92
622.812	9940.73
623.168	9990.22
623.523	9979.6
623.879	9966.72
624.234	9892.59
624.589	9860.96
624.945	9924.91
625.3	9915.87
625.655	9957.9
626.01	9941.86
626.365	9930.33
626.72	9898.69
627.075	9868.19
627.43	9923.33
627.785	9862.31
628.14	9884.91
628.495	9860.73
628.85	9897.56
629.205	9861.41
629.559	9818.47
629.914	9844.91
630.269	9869.77
630.623	9807.17
630.978	9796.32
631.332	9781.18
631.687	9858.7
632.041	9847.62
632.396	9766.04
632.75	9757.46
633.104	9785.03
633.459	9710.9
633.813	9699.6
634.167	9711.58
634.521	9699.38
634.875	9778.92
635.229	9724.91
635.583	9656.22
635.937	9665.03
636.291	9678.81
636.645	9701.64
636.999	9585.03
637.352	9642.66
637.706	9628.19
638.06	9583.45
638.413	9623.45
638.767	9633.16
639.121	9548.87
639.474	9505.94
639.828	9490.8
640.181	9587.97
640.534	9565.6
640.888	9518.82
641.241	9430.01
641.594	9442.21
641.947	9499.83
642.301	9506.16
642.654	9486.73
643.007	9502.09
643.36	9405.37
643.713	9469.78
644.066	9439.05
644.419	9456.9
644.771	9382.55
645.124	9292.16
645.477	9239.5
645.83	9202.44
646.182	9225.49
646.535	9147.08
646.888	9109.79
647.24	9125.38
647.593	9158.83
647.945	9120.64
648.298	9134.87
648.65	9129.9
649.002	9081.31
649.355	9124.93
649.707	9055.33
650.059	9127.87
650.411	9203.8
650.763	9244.7
651.115	9325.15
651.467	9230.92
651.819	9302.33
652.171	9297.58
652.523	9285.38
652.875	9284.47
653.227	9227.07
653.578	9319.95
653.93	9292.38
654.282	9238.15
654.633	9213.97
654.985	9278.37
655.337	9260.52
655.688	9253.29
656.039	9285.38
656.391	9217.58
656.742	9235.66
657.094	9222.55
657.445	9306.62
657.796	9256.45
658.147	9266.62
658.498	9282.21
658.849	9281.99
659.2	9253.29
659.551	9281.08
659.902	9285.83
660.253	9244.02
660.604	9315.43
660.955	9262.78
661.306	9277.02
661.656	9199.73
662.007	9345.26
662.358	9252.16
662.708	9260.52
663.059	9255.77
663.409	9213.97
663.76	9262.55
664.11	9240.63
664.461	9291.25
664.811	9237.47
665.161	9238.82
665.511	9264.13
665.862	9261.65
666.212	9298.03
666.562	9230.46
666.912	9299.61
667.262	9280.63
667.612	9260.29
667.962	9283.34
668.312	9199.96
668.662	9274.08
669.011	9292.61
669.361	9259.62
669.711	9256.68
670.06	9254.64
670.41	9187.53
670.76	9224.81
671.109	9249.45
671.459	9261.65
671.808	9216.45
672.157	9197.24
672.507	9120.18
672.856	9227.53
673.205	9136.23
673.554	9234.08
673.904	9131.26
674.253	9135.1
674.602	9180.97
674.951	9067.3
675.3	8987.08
675.649	9140.3
675.998	9092.16
676.346	9168.09
676.695	9176.68
677.044	9115.44
677.393	9114.31
677.741	9161.99
678.09	9033.86
678.438	9072.28
678.787	9054.65
679.135	9058.49
679.484	9077.25
679.832	9003.12
680.181	8965.84
680.529	9033.86
680.877	8907.53
681.225	8946.4
681.573	9011.49
681.922	8939.85
682.27	8852.17
682.618	8844.48
682.966	8828.67
683.314	8842
683.661	8805.39
684.009	8796.58
684.357	8822.34
684.705	8854.88
685.053	8754.32
685.4	8759.97
685.748	8733.75
686.095	8682.91
686.443	8691.27
686.79	8638.84
687.138	8673.42
687.485	8648.56
687.832	8617.37
688.18	8602.01
688.527	8531.72
688.874	8603.36
689.221	8513.19
689.568	8491.05
689.915	8497.38
690.262	8489.69
690.609	8444.27
690.956	8457.6
691.303	8405.17
691.65	8319.08
691.997	8296.7
692.344	8287.66
692.69	8329.7
693.037	8252.64
693.383	8225.97
693.73	8257.16
694.077	8180.77
694.423	8209.7
694.769	8132.41
695.116	8153.43
695.462	8113.66
695.808	8050.16
696.155	8091.51
696.501	8043.83
696.847	8000.67
697.193	7923.15
697.539	7939.2
697.885	7861.69
698.231	7870.05
698.577	7843.16
698.923	7824.62
699.269	7828.24
699.614	7711.18
699.96	7748.69
700.306	7710.96
700.651	7676.15
700.997	7651.75
701.342	7682.03
701.688	7612.65
702.033	7650.62
702.379	7624.86
702.724	7541.02
703.069	7534.24
703.415	7466.22
703.76	7423.73
704.105	7493.11
704.45	7498.53
704.795	7443.39
705.14	7385.54
705.485	7353.9
705.83	7440.23
706.175	7328.14
706.52	7314.81
706.865	7273.9
707.209	7303.51
707.554	7273.23
707.899	7202.04
708.243	7166.79
708.588	7244.98
708.932	7157.52
709.277	7172.21
709.621	7163.17
709.966	7039.79
710.31	7099.9
710.654	7089.5
710.998	6993.01
711.342	6998.66
711.687	7020.13
712.031	6964.76
712.375	6935.38
712.719	6973.57
713.063	6922.05
713.407	6933.8
713.75	6938.77
714.094	6884.76
714.438	6915.72
714.782	6836.4
715.125	6817.65
715.469	6816.74
715.812	6844.99
716.156	6828.72
716.499	6764.99
716.843	6758.44
717.186	6754.82
717.53	6750.53
717.873	6767.48
718.216	6757.99
718.559	6755.05
718.902	6686.12
719.246	6698.1
719.589	6698.55
719.932	6628.27
720.275	6672.56
720.617	6673.24
720.96	6685.9
721.303	6696.97
721.646	6719.34
721.989	6666.24
722.331	6657.88
722.674	6615.39
723.016	6661.72
723.359	6673.92
723.701	6649.29
724.044	6591.44
724.386	6594.15
724.729	6602.74
725.071	6585.79
725.413	6546.92
725.755	6527.03
726.097	6532.46
726.439	6499.01
726.782	6521.38
727.124	6536.98
727.465	6562.74
727.807	6540.36
728.149	6519.35
728.491	6489.74
728.833	6507.15
729.175	6496.3
729.516	6524.55
729.858	6567.48
730.199	6499.01
730.541	6475.06
730.882	6486.13
731.224	6504.43
731.565	6445.45
731.906	6467.15
732.248	6522.51
732.589	6456.75
732.93	6428.28
733.271	6412.91
733.612	6490.42
733.953	6537.88
734.294	6430.54
734.635	6497.2
734.976	6414.94
735.317	6417.66
735.658	6459.69
735.999	6455.85
736.339	6498.33
736.68	6494.94
737.021	6431.22
737.361	6393.93
737.702	6425.79
738.042	6460.37
738.383	6507.6
738.723	6406.81
739.063	6432.8
739.404	6458.78
739.744	6523.87
740.084	6475.96
740.424	6475.51
740.764	6503.76
741.104	6532.68
741.444	6468.95
741.784	6499.01
742.124	6582.62
742.464	6571.78
742.804	6539.91
743.143	6533.36
743.483	6474.38
743.823	6529.52
744.162	6569.52
744.502	6580.59
744.841	6625.56
745.181	6665.79
745.52	6650.64
745.86	6706.69
746.199	6646.35
746.538	6715.95
746.877	6758.44
747.216	6828.94
747.556	6794.37
747.895	6847.02
748.234	6898.32
748.573	6898.32
748.911	6949.39
749.25	7003.63
749.589	7014.02
749.928	7076.4
750.267	7168.6
750.605	7201.82
750.944	7238.2
751.283	7255.6
751.621	7317.52
751.96	7396.16
752.298	7478.65
752.636	7503.73
752.975	7502.37
753.313	7611.52
753.651	7718.86
753.989	7785.08
754.327	7842.03
754.666	7872.53
755.004	8050.83
755.342	8132.87
755.679	8174.67
756.017	8233.65
756.355	8351.84
756.693	8430.71
757.031	8535.11
757.368	8616.47
757.706	8756.13
758.044	8830.47
758.381	8987.08
758.719	9112.95
759.056	9118.15
759.394	9358.37
759.731	9391.82
760.068	9527.18
760.405	9608.98
760.743	9702.54
761.08	9870.22
761.417	9889.43
761.754	10021.63
762.091	10190.21
762.428	10266.14
762.765	10383.88
763.102	10573.71
763.438	10688.05
763.775	10671.33
764.112	10911.32
764.449	11134.82
764.785	11026.12
765.122	11120.36
765.458	11292.78
765.795	11399.67
766.131	11526.45
766.467	11684.64
766.804	11811.19
767.14	11844.41
767.476	12013.89
767.812	11954.01
768.148	12158.75
768.485	12183.38
768.821	12289.82
769.157	12325.75
769.492	12471.28
769.828	12586.76
770.164	12556.93
770.5	12699.75
770.836	12754.44
771.171	12792.63
771.507	12901.55
771.842	12969.57
772.178	12970.25
772.513	13103.36
772.849	13238.04
773.184	13210.02
773.519	13312.62
773.855	13283.01
774.19	13332.5
774.525	13339.28
774.86	13491.14
775.195	13451.14
775.53	13519.62
775.865	13609.78
776.2	13506.28
776.535	13526.85
776.87	13599.39
777.205	13607.52
777.539	13596
777.874	13664.7
778.209	13564.13
778.543	13680.06
778.878	13641.65
779.212	13752.6
779.547	13636.9
779.881	13730.68
780.215	13695.66
780.55	13795.32
780.884	13734.53
781.218	13819.27
781.552	13797.8
781.886	13793.28
782.22	13752.83
782.554	13747.86
782.888	13674.87
783.222	13672.38
783.556	13655.88
783.889	13725.49
784.223	13599.84
784.557	13656.34
784.89	13667.63
785.224	13724.36
785.557	13630.57
785.891	13632.38
786.224	13668.09
786.558	13630.12
786.891	13485.72
787.224	13457.02
787.557	13528.88
787.891	13573.4
788.224	13524.14
788.557	13519.16
788.89	13470.8
789.223	13540.18
789.556	13447.53
789.888	13425.61
790.221	13324.59
790.554	13349.9
790.887	13413.4
791.219	13276.23
791.552	13283.24
791.884	13360.3
792.217	13250.02
792.549	13262.45
792.882	13155.56
793.214	13131.6
793.546	13103.36
793.879	13085.5
794.211	13041.89
794.543	13099.06
794.875	13099.51
795.207	13121.66
795.539	12973.19
795.871	13022.45
796.203	12900.2
796.535	12896.36
796.867	12851.16
797.198	12840.09
797.53	12863.59
797.862	12732.52
798.193	12737.04
798.525	12652.97
798.856	12699.3
799.188	12615.23
799.519	12627.66
799.85	12563.48
800.182	12608.68
800.513	12650.26
800.844	12419.31
801.175	12488.91
801.506	12564.16
801.837	12452.53
802.168	12431.06
802.499	12417.27
802.83	12344.96
803.161	12396.93
803.491	12283.26
803.822	12284.17
804.153	12267.9
804.483	12177.05
804.814	12149.26
805.145	12075.13
805.475	12147.67
805.805	12053.21
806.136	12002.37
806.466	12131.63
806.796	12012.54
807.126	11931.41
807.457	12006.44
807.787	11975.02
808.117	11922.6
808.447	11845.31
808.777	11947.68
809.107	11934.57
809.436	11765.76
809.766	11798.31
810.096	11733.67
810.426	11729.83
810.755	11780.45
811.085	11664.75
811.414	11681.02
811.744	11550.63
812.073	11584.3
812.403	11614.13
812.732	11529.84
813.061	11535.04
813.39	11429.05
813.719	11422.04
814.049	11487.35
814.378	11475.6
814.707	11412.33
815.036	11446.68
815.365	11368.26
815.693	11257.08
816.022	11350.18
816.351	11313.57
816.68	11172.79
817.008	11307.7
817.337	11198.77
817.665	11152.22
817.994	11221.82
818.322	11173.01
818.651	11076.52
818.979	11061.83
819.307	11145.67
819.636	11067.48
819.964	11118.1
820.292	11115.84
820.62	11060.92
820.948	11022.96
821.276	11028.38
821.604	11006.01
821.932	11033.81
822.259	11105.89
822.587	11080.36
822.915	11000.81
823.243	11001.26
823.57	11010.98
823.898	10952
824.225	10982.96
824.553	10930.53
824.88	11013.47
825.207	11103.63
825.535	11010.53
825.862	11019.79
826.189	10942.73
826.516	11025.22
826.843	11007.82
827.17	11040.13
827.497	11053.01
827.824	10995.39
828.151	11057.31
828.478	11019.79
828.805	11097.99
829.131	11041.72
829.458	11015.73
829.785	10965.11
830.111	11039.91
830.438	11045.11
830.764	11059.57
831.09	11010.53
831.417	11061.38
831.743	11009.17
832.069	11010.53
832.395	10930.08
832.722	11059.34
833.048	11006.91
833.374	10993.81
833.7	10907.26
834.026	10939.8
834.351	10948.38
834.677	10982.28
835.003	10983.19
835.329	10962.17
835.654	10876.52
835.98	10830.65
836.306	10829.97
836.631	10885.79
836.956	10883.53
837.282	10847.82
837.607	10795.85
837.932	10775.51
838.258	10829.29
838.583	10793.59
838.908	10773.93
839.233	10714.94
839.558	10745.9
839.883	10656.64
840.208	10715.4
840.533	10621.84
840.858	10658.22
841.182	10662.29
841.507	10591.78
841.832	10640.37
842.156	10627.71
842.481	10587.72
842.805	10565.34
843.13	10535.29
843.454	10523.08
843.778	10458.91
844.103	10438.79
844.427	10378.46
844.751	10435.63
845.075	10378.68
845.399	10387.72
845.723	10343.88
846.047	10278.12
846.371	10164.9
846.695	10170.55
847.019	10134.39
847.343	10127.84
847.666	10023.66
847.99	10030.89
848.313	9976.66
848.637	9943.67
848.96	9903.89
849.284	9843.33
849.607	9863.89
849.931	9791.13
850.254	9767.85
850.577	9735.53
850.9	9628.19
851.223	9636.33
851.546	9626.61
851.869	9524.69
852.192	9574.64
852.515	9492.6
852.838	9467.97
853.161	9440.63
853.483	9447.18
853.806	9378.26
854.129	9361.31
854.451	9309.78
854.774	9257.36
855.096	9257.81
855.419	9284.7
855.741	9254.19
856.063	9147.53
856.385	9180.52
856.708	9144.59
857.03	9108.43
857.352	9118.6
857.674	9030.47
857.996	9080.41
858.318	8929.68
858.64	8944.6
858.961	8934.65
859.283	8834.54
859.605	8857.14
859.926	8829.12
860.248	8851.72
860.57	8804.71
860.891	8764.49
861.212	8778.05
861.534	8741.66
861.855	8707.54
862.176	8775.56
862.498	8749.57
862.819	8731.72
863.14	8654.89
863.461	8657.37
863.782	8650.59
864.103	8627.54
864.424	8607.88
864.745	8569.24
865.065	8547.77
865.386	8559.52
865.707	8574.89
866.027	8632.06
866.348	8524.49
866.668	8507.77
866.989	8463.48
867.309	8404.04
867.63	8521.1
867.95	8456.47
868.27	8422.58
868.59	8442.69
868.91	8354.33
869.23	8408.34
869.55	8359.07
869.87	8385.29
870.19	8383.71
870.51	8367.89
870.83	8352.29
871.15	8315.23
871.469	8236.59
871.789	8324.95
872.109	8312.52
872.428	8246.76
872.748	8321.11
873.067	8242.01
873.386	8266.87
873.706	8223.03
874.025	8183.94
874.344	8110.04
874.663	8114.11
874.982	8193.65
875.301	8150.04
875.62	8158.85
875.939	8098.97
876.258	8095.58
876.577	8093.54
876.896	8064.39
877.214	8027.78
877.533	8068.91
877.852	8122.92
878.17	8078.86
878.489	8058.06
878.807	8047.22
879.125	8042.02
879.444	8071.62
879.762	8051.29
880.08	8025.75
880.398	7924.28
880.716	7981.46
881.034	7953.21
881.352	7942.59
881.67	7845.42
881.988	7837.05
882.306	7849.71
882.624	7836.38
882.941	7778.3
883.259	7778.75
883.577	7772.87
883.894	7770.61
884.212	7774.46
884.529	7725.42
884.846	7743.04
885.164	7685.87
885.481	7697.17
885.798	7668.92
886.115	7649.04
886.432	7564.74
886.75	7584.18
887.067	7628.02
887.383	7567.91
887.7	7578.53
888.017	7515.71
888.334	7571.3
888.651	7463.5
888.967	7504.18
889.284	7413.56
889.6	7407.01
889.917	7385.77
890.233	7444.07
890.55	7313.23
890.866	7351.42
891.182	7298.31
891.498	7305.32
891.815	7292.66
892.131	7228.48
892.447	7263.96
892.763	7234.81
893.079	7210.18
893.395	7201.82
893.71	7154.13
894.026	7175.83
894.342	7106.9
894.657	7066
894.973	7113.46
895.289	7071.88
895.604	7021.71
895.92	6996.4
896.235	6987.13
896.55	6936.06
896.865	6923.86
897.181	6874.82
897.496	6902.39
897.811	6922.5
898.126	6867.59
898.441	6858.1
898.756	6767.93
899.071	6703.07
899.386	6766.35
899.7	6717.31
900.015	6724.77
900.33	6614.94
900.644	6608.16
900.959	6627.82
901.273	6623.75
901.588	6569.97
901.902	6530.65
902.216	6462.63
902.531	6542.4
902.845	6486.81
903.159	6421.95
903.473	6384.89
903.787	6360.48
904.101	6385.79
904.415	6299.02
904.729	6311.44
905.042	6290.65
905.356	6238.68
905.67	6258.56
905.984	6263.08
906.297	6245.01
906.611	6188.51
906.924	6158.23
907.237	6159.58
907.551	6125.01
907.864	6171.11
908.177	6101.51
908.491	6065.35
908.804	6037.1
909.117	6024.22
909.43	5982.41
909.743	5941.74
910.056	5902.42
910.368	5908.52
910.681	5895.41
910.994	5889.31
911.307	5832.81
911.619	5807.28
911.932	5807.28
912.244	5766.15
912.557	5722.53
912.869	5709.88
913.181	5679.14
913.494	5672.82
913.806	5674.62
914.118	5675.98
914.43	5605.7
914.742	5618.81
915.054	5563.22
915.366	5567.06
915.678	5542.42
915.99	5468.98
916.302	5439.83
916.613	5432.37
916.925	5392.82
917.236	5418.13
917.548	5404.12
917.859	5401.64
918.171	5330.91
918.482	5340.17
918.794	5280.74
919.105	5292.94
919.416	5217.01
919.727	5199.84
920.038	5242.32
920.349	5151.7
920.66	5202.32
920.971	5119.61
921.282	5128.42
921.593	5095.43
921.903	5118.93
922.214	5063.34
922.525	5049.1
922.835	5046.62
923.146	5008.2
923.456	4973.4
923.767	4980.63
924.077	4964.14
924.387	4946.73
924.697	4895.21
925.008	4853.4
925.318	4911.48
925.628	4830.58
925.938	4807.3
926.248	4853.18
926.558	4842.56
926.867	4816.79
927.177	4750.58
927.487	4717.14
927.796	4738.38
928.106	4702.67
928.416	4719.85
928.725	4707.19
929.034	4627.87
929.344	4624.93
929.653	4621.09
929.962	4594.43
930.271	4573.86
930.581	4511.72
930.89	4534.54
931.199	4522.11
931.508	4513.53
931.817	4526.18
932.125	4502.68
932.434	4510.81
932.743	4429.46
933.051	4461.1
933.36	4344.72
933.669	4377.48
933.977	4364.83
934.286	4329.35
934.594	4339.29
934.902	4325.51
935.21	4286.64
935.519	4240.99
935.827	4269.24
936.135	4245.51
936.443	4257.49
936.751	4173.65
937.059	4190.82
937.367	4182.69
937.674	4181.56
937.982	4156.25
938.29	4106.76
938.597	4120.99
938.905	4051.62
939.213	4055.68
939.52	4095.01
939.827	4044.84
940.135	4017.04
940.442	3950.38
940.749	4001.9
941.056	4027.66
941.363	3941.11
941.67	3967.55
941.977	3931.17
942.284	3842.58
942.591	3875.58
942.898	3861.34
943.205	3810.49
943.511	3821.79
943.818	3819.31
944.125	3788.8
944.431	3830.83
944.738	3743.6
945.044	3748.35
945.35	3720.33
945.657	3702.93
945.963	3685.07
946.269	3698.41
946.575	3677.84
946.881	3650.5
947.187	3639.42
947.493	3634
947.799	3610.27
948.105	3603.94
948.41	3605.07
948.716	3541.12
949.022	3554.45
949.327	3564.17
949.633	3509.03
949.938	3511.52
950.244	3491.18
950.549	3460.45
950.854	3441.46
951.16	3444.63
951.465	3427.68
951.77	3415.48
952.075	3396.49
952.38	3406.21
952.685	3405.31
952.99	3389.26
953.294	3349.94
953.599	3345.87
953.904	3329.15
954.209	3306.33
954.513	3277.4
954.818	3283.05
955.122	3266.1
955.426	3242.6
955.731	3240.11
956.035	3252.32
956.339	3223.16
956.643	3219.1
956.948	3208.93
957.252	3185.88
957.556	3139.1
957.86	3141.36
958.163	3147.01
958.467	3080.57
958.771	3127.57
959.075	3110.4
959.378	3066.56
959.682	3093.45
959.985	3046.22
960.289	3071.53
960.592	3076.28
960.896	2968.03
961.199	2989.72
961.502	2986.33
961.805	2970.06
962.108	2946.11
962.411	2951.53
962.714	2954.92
963.017	2969.61
963.32	2924.19
963.623	2895.49
963.926	2862.27
964.228	2867.02
964.531	2869.95
964.833	2871.53
965.136	2840.58
965.438	2838.32
965.741	2796.96
966.043	2810.52
966.345	2789.05
966.648	2799.22
966.95	2814.59
967.252	2777.98
967.554	2782.05
967.856	2762.16
968.158	2736.4
968.46	2747.92
968.761	2723.52
969.063	2687.13
969.365	2679.68
969.666	2665.89
969.968	2674.7
970.269	2637.64
970.571	2658.88
970.872	2669.73
971.174	2625.44
971.475	2617.76
971.776	2625.89
972.077	2596.29
972.378	2576.4
972.679	2592.9
972.98	2553.35
973.281	2566.01
973.582	2528.94
973.883	2537.76
974.183	2539.34
974.484	2483.3
974.785	2473.35
975.085	2490.75
975.386	2521.94
975.686	2469.74
975.986	2486.91
976.287	2424.31
976.587	2427.93
976.887	2397.42
977.187	2391.32
977.487	2406.46
977.787	2392
978.087	2380.7
978.387	2365.33
978.687	2374.6
978.987	2348.38
979.286	2334.15
979.586	2320.59
979.885	2298.44
980.185	2276.52
980.484	2262.51
980.784	2271.78
981.083	2275.39
981.382	2278.33
981.682	2245.34
981.981	2261.61
982.28	2248.73
982.579	2211.44
982.878	2201.27
983.177	2235.39
983.475	2226.13
983.774	2178.22
984.073	2156.3
984.372	2154.27
984.67	2152.68
984.969	2164.21
985.267	2155.85
985.566	2168.05
985.864	2129.41
986.162	2101.16
986.461	2112.91
986.759	2095.74
987.057	2080.82
987.355	2066.13
987.653	2065.45
987.951	2076.98
988.249	2013.93
988.547	2045.12
988.844	2024.78
989.142	2037.21
989.44	2024.33
989.737	2000.82
990.035	1991.33
990.332	1985.68
990.63	1968.96
990.927	1957.66
991.224	1936.19
991.521	1949.75
991.819	1951.11
992.116	1928.73
992.413	1926.02
992.71	1884.44
993.006	1924.67
993.303	1896.42
993.6	1887.15
993.897	1868.4
994.193	1847.83
994.49	1877.44
994.787	1837.66
995.083	1836.53
995.379	1882.86
995.676	1826.82
995.972	1841.96
996.268	1842.86
996.565	1836.76
996.861	1821.39
997.157	1796.08
997.453	1784.33
997.749	1776.2
998.044	1750.89
998.34	1745.46
998.636	1752.69
998.932	1768.51
999.227	1742.3
999.523	1692.81
999.818	1731.9
1000.114	1724.45
1000.409	1715.18
1000.704	1679.02
1001	1673.15
1001.295	1662.07
1001.59	1665.24
1001.885	1664.79
1002.18	1607.84
1002.475	1633.15
1002.77	1623.43
1003.065	1610.1
1003.359	1593.6
1003.654	1590.89
1003.949	1583.43
1004.243	1606.48
1004.538	1569.87
1004.832	1592.47
1005.127	1574.39
1005.421	1552.7
1005.715	1548.18
1006.009	1505.92
1006.304	1520.16
1006.598	1518.12
1006.892	1484.23
1007.186	1489.88
1007.48	1503.66
1007.773	1483.77
1008.067	1486.49
1008.361	1474.28
1008.655	1462.31
1008.948	1432.93
1009.242	1450.33
1009.535	1440.61
1009.829	1455.75
1010.122	1420.73
1010.415	1410.78
1010.708	1424.12
1011.001	1393.38
1011.295	1380.05
1011.588	1389.99
1011.881	1353.83
1012.173	1371.91
1012.466	1394.74
1012.759	1347.05
1013.052	1355.87
1013.344	1346.6
1013.637	1334.85
1013.93	1325.81
1014.222	1338.92
1014.514	1314.29
1014.807	1308.64
1015.099	1302.08
1015.391	1308.41
1015.683	1271.58
1015.976	1293.27
1016.268	1264.57
1016.56	1261.86
1016.851	1249.43
1017.143	1264.35
1017.435	1210.79
1017.727	1222.76
1018.018	1254.18
1018.31	1208.98
1018.602	1231.8
1018.893	1196.32
1019.185	1197
1019.476	1172.37
1019.767	1185.03
1020.058	1161.75
1020.35	1176.89
1020.641	1162.2
1020.932	1168.75
1021.223	1157.68
1021.514	1152.03
1021.804	1103.45
1022.095	1143.67
1022.386	1088.3
1022.677	1112.03
1022.967	1128.98
1023.258	1095.31
1023.548	1075.65
1023.839	1068.64
1024.129	1055.99
1024.419	1049.89
1024.709	1048.76
1025	1069.1
1025.29	1057.35
1025.58	1049.44
1025.87	1020.96
1026.16	1039.72
1026.449	1041.53
1026.739	1050.11
1027.029	1024.13
1027.319	997.46
1027.608	996.1
1027.898	992.94
1028.187	997.01
1028.477	968.31
1028.766	969.21
1029.055	964.24
1029.344	956.33
1029.634	971.25
1029.923	954.07
1030.212	950.46
1030.501	954.3
1030.79	974.64
1031.078	945.71
1031.367	919.5
1031.656	920.17
1031.945	930.12
1032.233	918.82
1032.522	905.94
1032.81	883.11
1033.099	908.42
1033.387	913.85
1033.675	865.94
1033.963	888.99
1034.251	873.4
1034.54	867.52
1034.828	862.77
1035.116	857.8
1035.403	884.47
1035.691	860.97
1035.979	823
1036.267	853.28
1036.554	839.05
1036.842	830.68
1037.129	835.2
1037.417	802.21
1037.704	815.09
1037.992	814.87
1038.279	813.96
1038.566	771.02
1038.853	771.02
1039.14	771.02
