Data from hue_80_FLMS001491_50.txt Node
Date: Mon Feb 06 15:23:04 GMT 2017
User: dcchb
Spectrometer: FLMS00149
Trigger mode: 0
Integration Time (sec): 2.000000E-2
Scans to average: 10
Electric dark correction enabled: true
Nonlinearity correction enabled: false
Boxcar width: 0
XAxis mode: Wavelengths
Number of Pixels in Spectrum: 2048
>>>>>Begin Spectral Data<<<<<
341.393	2.27
341.776	2.27
342.16	2.27
342.543	-69.36
342.927	-71.4
343.31	-62.81
343.693	-64.16
344.077	-57.16
344.46	-70.49
344.843	-42.02
345.226	-37.95
345.61	-25.75
345.993	-20.32
346.376	-29.59
346.759	14.7
347.142	26
347.525	35.04
347.908	48.6
348.291	70.75
348.674	99.22
349.057	115.94
349.44	128.15
349.823	158.2
350.206	153.68
350.588	198.88
350.971	190.97
351.354	217.86
351.737	243.17
352.119	269.16
352.502	261.02
352.884	266.67
353.267	301.48
353.65	305.32
354.032	301.93
354.414	301.48
354.797	312.55
355.179	319.33
355.562	332.89
355.944	312.32
356.326	324.07
356.709	313.23
357.091	354.81
357.473	342.6
357.855	355.71
358.238	360.91
358.62	354.58
359.002	345.54
359.384	343.73
359.766	349.38
360.148	364.75
360.53	342.15
360.912	372.21
361.294	339.89
361.676	341.47
362.057	351.19
362.439	352.55
362.821	322.72
363.203	330.4
363.584	336.05
363.966	336.05
364.348	330.17
364.729	337.41
365.111	337.41
365.493	323.17
365.874	318.2
366.256	343.51
366.637	297.63
367.019	307.58
367.4	307.12
367.781	326.33
368.163	320.68
368.544	327.01
368.925	308.03
369.306	326.11
369.688	328.59
370.069	337.41
370.45	319.33
370.831	321.36
371.212	342.83
371.593	327.24
371.974	312.55
372.355	318.88
372.736	323.4
373.117	318.2
373.498	320.46
373.879	314.81
374.26	309.84
374.641	339.21
375.021	323.4
375.402	335.15
375.783	316.16
376.163	315.26
376.544	335.82
376.925	341.7
377.305	311.64
377.686	328.14
378.066	327.92
378.447	329.95
378.827	329.05
379.208	343.06
379.588	340.34
379.968	340.57
380.349	334.69
380.729	324.98
381.109	345.54
381.489	340.57
381.87	348.71
382.25	353.45
382.63	356.39
383.01	335.6
383.39	366.11
383.77	334.02
384.15	343.51
384.53	333.11
384.91	363.17
385.29	346.45
385.67	354.81
386.049	370.63
386.429	356.84
386.809	353.23
387.189	347.58
387.568	368.14
387.948	350.29
388.328	368.59
388.707	345.09
389.087	355.26
389.466	369.27
389.846	361.13
390.225	364.98
390.605	370.4
390.984	367.91
391.363	375.15
391.743	365.65
392.122	386.22
392.501	369.5
392.881	360.68
393.26	398.42
393.639	375.82
394.018	357.07
394.397	370.85
394.776	396.84
395.155	386.67
395.534	395.94
395.913	376.05
396.292	384.86
396.671	385.31
397.05	383.73
397.429	391.42
397.808	391.19
398.186	395.71
398.565	392.55
398.944	398.42
399.323	406.78
399.701	394.35
400.08	388.03
400.458	399.33
400.837	400.23
401.215	407.24
401.594	401.36
401.972	412.66
402.351	399.1
402.729	410.4
403.107	402.04
403.486	398.42
403.864	398.42
404.242	417.18
404.62	400
404.999	440.45
405.377	424.86
405.755	410.17
406.133	442.04
406.511	425.09
406.889	438.19
407.267	423.05
407.645	446.33
408.023	444.3
408.401	445.2
408.779	453.56
409.156	441.58
409.534	444.52
409.912	444.97
410.29	461.7
410.667	470.06
411.045	462.83
411.422	457.63
411.8	476.61
412.178	469.83
412.555	474.35
412.933	444.52
413.31	475.03
413.687	466.44
414.065	483.84
414.442	470.74
414.819	463.5
415.197	482.26
415.574	495.82
415.951	490.85
416.328	484.3
416.705	471.87
417.082	497.18
417.46	506.22
417.837	507.8
418.214	520.23
418.591	508.25
418.967	512.32
419.344	516.84
419.721	534.24
420.098	523.16
420.475	528.14
420.852	516.16
421.228	525.2
421.605	535.82
421.982	531.75
422.358	541.47
422.735	546.67
423.111	542.15
423.488	559.77
423.864	569.72
424.241	564.29
424.617	545.31
424.994	574.46
425.37	554.58
425.746	574.69
426.123	559.32
426.499	578.53
426.875	559.77
427.251	574.46
427.627	584.63
428.003	571.98
428.379	629.15
428.756	607.91
429.132	604.74
429.507	604.07
429.883	630.51
430.259	618.53
430.635	632.77
431.011	659.43
431.387	616.5
431.763	657.4
432.138	633.22
432.514	672.54
432.89	654.91
433.265	666.89
433.641	663.73
434.016	665.31
434.392	672.31
434.767	715.93
435.143	676.15
435.518	688.13
435.894	703.5
436.269	714.57
436.644	713.22
437.02	716.15
437.395	705.31
437.77	718.87
438.145	759.32
438.52	723.84
438.895	726.1
439.271	720.9
439.646	758.19
440.021	752.76
440.395	767
440.77	770.62
441.145	768.13
441.52	813.78
441.895	772.2
442.27	809.48
442.645	767
443.019	787.56
443.394	810.39
443.769	772.42
444.143	801.57
444.518	809.94
444.892	819.2
445.267	822.59
445.641	833.21
446.016	848.58
446.39	844.51
446.764	844.74
447.139	856.04
447.513	853.33
447.887	849.26
448.262	860.1
448.636	840.22
449.01	854
449.384	842.93
449.758	880.67
450.132	900.1
450.506	920.89
450.88	902.82
451.254	884.96
451.628	917.96
452.002	945.98
452.376	929.26
452.75	920.22
453.123	946.66
453.497	933.1
453.871	957.96
454.244	976.26
454.618	989.14
454.992	995.92
455.365	986.88
455.739	1003.6
456.112	1039.99
456.486	1034.11
456.859	1050.38
457.232	1060.1
457.606	1064.84
457.979	1057.84
458.352	1077.05
458.725	1087.22
459.099	1109.59
459.472	1144.16
459.845	1114.34
460.218	1139.19
460.591	1179.64
460.964	1153.43
461.337	1184.84
461.71	1196.59
462.083	1205.18
462.456	1235.01
462.829	1230.72
463.201	1242.47
463.574	1249.47
463.947	1279.08
464.32	1312.75
464.692	1324.05
465.065	1327.66
465.438	1315.46
465.81	1349.13
466.183	1372.41
466.555	1425.29
466.928	1415.34
467.3	1437.94
467.672	1488.56
468.045	1496.02
468.417	1489.01
468.789	1528.34
469.161	1550.93
469.534	1619.41
469.906	1614.66
470.278	1619.18
470.65	1658.28
471.022	1683.81
471.394	1751.61
471.766	1768.1
472.138	1790.7
472.51	1827.08
472.882	1856.24
473.253	1900.76
473.625	1925.84
473.997	1977.59
474.369	1987.31
474.74	2043.35
475.112	2087.87
475.484	2129.68
475.855	2175.78
476.227	2242.44
476.598	2318.6
476.97	2319.95
477.341	2409.22
477.713	2467.52
478.084	2499.84
478.455	2615.54
478.827	2639.94
479.198	2768.75
479.569	2759.26
479.94	2870
480.311	2962.42
480.682	3039.48
481.053	3156.99
481.424	3194.28
481.795	3286.03
482.166	3333.94
482.537	3405.35
482.908	3517.21
483.279	3624.78
483.65	3725.11
484.021	3846.24
484.391	3939.8
484.762	4023.41
485.133	4102.51
485.503	4183.41
485.874	4321.48
486.244	4456.39
486.615	4604.41
486.985	4639.67
487.356	4813.45
487.726	4931.86
488.097	5096.38
488.467	5130.05
488.837	5295.69
489.207	5424.96
489.578	5609.81
489.948	5683.25
490.318	5825.62
490.688	5869.24
491.058	6087.31
491.428	6203.92
491.798	6335.89
492.168	6519.62
492.538	6555.77
492.908	6754.19
493.278	6886.16
493.648	7021.3
494.017	7165.25
494.387	7287.05
494.757	7435.52
495.126	7544.22
495.496	7628.74
495.866	7815.63
496.235	7934.04
496.605	8130.65
496.974	8264.2
497.344	8323.41
497.713	8388.27
498.082	8563.63
498.452	8781.03
498.821	8907.8
499.19	8940.34
499.559	9072.32
499.928	9205.42
500.298	9298.98
500.667	9492.87
501.036	9470.27
501.405	9680.66
501.774	9718.18
502.143	9884.27
502.512	9974.89
502.88	10094.89
503.249	10133.31
503.618	10259.63
503.987	10395.22
504.356	10437.48
504.724	10634.08
505.093	10663.01
505.462	10770.13
505.83	10961.99
506.199	11025.49
506.567	11108.2
506.936	11160.62
507.304	11319.26
507.672	11365.37
508.041	11440.39
508.409	11588.64
508.777	11764.45
509.145	11813.04
509.514	11844.9
509.882	11985.91
510.25	11982.52
510.618	12081.96
510.986	12176.19
511.354	12304.32
511.722	12364.43
512.09	12525.11
512.458	12545.22
512.826	12627.7
513.193	12711.77
513.561	12771.2
513.929	12932.33
514.297	13018.43
514.664	13056.85
515.032	13081.48
515.4	13216.39
515.767	13285.09
516.135	13397.18
516.502	13315.82
516.869	13628.13
517.237	13516.72
517.604	13573.89
517.972	13656.6
518.339	13758.3
518.706	13834.45
519.073	13807.56
519.44	13938.18
519.808	14005.07
520.175	14038.52
520.542	14173.2
520.909	14256.14
521.276	14193.54
521.643	14358.51
522.009	14423.14
522.376	14595.11
522.743	14594.88
523.11	14713.3
523.477	14759.85
523.843	14872.84
524.21	14874.43
524.577	15035.1
524.943	15135.44
525.31	15127.07
525.676	15249.78
526.043	15349.22
526.409	15320.06
526.776	15505.82
527.142	15496.1
527.508	15534.07
527.874	15626.95
528.241	15700.39
528.607	15730.22
528.973	15780.16
529.339	15772.25
529.705	15924.12
530.071	15939.26
530.437	16035.98
530.803	16021.74
531.169	16061.06
531.535	16025.13
531.901	16059.25
532.267	16121.85
532.632	16153.71
532.998	16274.39
533.364	16205.69
533.73	16156.88
534.095	16340.83
534.461	16351.67
534.826	16423.31
535.192	16351.22
535.557	16490.2
535.923	16367.04
536.288	16424.44
536.653	16591.22
537.019	16430.32
537.384	16455.63
537.749	16459.24
538.114	16499.92
538.479	16443.2
538.845	16589.86
539.21	16492.91
539.575	16529.3
539.94	16595.74
540.305	16655.62
540.67	16484.78
541.034	16649.52
541.399	16624.44
541.764	16670.76
542.129	16684.77
542.494	16626.02
542.858	16713.92
543.223	16656.75
543.587	16703.98
543.952	16568.84
544.316	16644.55
544.681	16594.15
545.045	16597.54
545.41	16608.39
545.774	16652.68
546.138	16642.74
546.503	16726.13
546.867	16562.74
547.231	16704.43
547.595	16672.8
547.959	16627.37
548.324	16651.33
548.688	16598.67
549.052	16637.32
549.416	16640.48
549.779	16612.68
550.143	16604.78
550.507	16686.81
550.871	16750.08
551.235	16655.85
551.599	16692.23
551.962	16710.08
552.326	16692.91
552.689	16802.28
553.053	16583.31
553.417	16585.79
553.78	16873.92
554.143	16749.86
554.507	16798.44
554.87	16720.48
555.234	16916.41
555.597	16684.32
555.96	16767.48
556.323	16786.69
556.686	16816.3
557.05	16762.06
557.413	16842.06
557.776	16820.81
558.139	16932
558.502	16943.98
558.865	16928.38
559.228	16890.42
559.59	17077.98
559.953	17065.1
560.316	17154.82
560.679	17118.43
561.041	17178.55
561.404	17157.98
561.767	17298.32
562.129	17176.29
562.492	17395.94
562.854	17271.2
563.217	17316.39
563.579	17344.42
563.941	17417.41
564.304	17434.58
564.666	17416.05
565.028	17481.14
565.39	17546.9
565.753	17467.13
566.115	17617.63
566.477	17625.54
566.839	17601.36
567.201	17753.22
567.563	17718.64
567.925	17865.53
568.287	17757.74
568.648	17856.49
569.01	17930.84
569.372	17971.97
569.734	17859.43
570.095	18043.38
570.457	18027.79
570.819	18047.45
571.18	18106.2
571.542	18213.32
571.903	18125.87
572.265	18166.54
572.626	18290.38
572.987	18279.31
573.349	18196.37
573.71	18282.02
574.071	18351.17
574.432	18344.84
574.794	18451.51
575.155	18381
575.516	18267.56
575.877	18435.01
576.238	18392.3
576.599	18527.44
576.96	18494.22
577.32	18523.37
577.681	18538.51
578.042	18619.19
578.403	18566.08
578.763	18565.85
579.124	18553.65
579.485	18651.5
579.845	18639.75
580.206	18595.46
580.566	18626.19
580.927	18557.49
581.287	18690.6
581.648	18603.14
582.008	18695.57
582.368	18616.7
582.728	18668.9
583.089	18544.61
583.449	18584.38
583.809	18591.84
584.169	18657.6
584.529	18624.16
584.889	18776.02
585.249	18631.84
585.609	18486.08
585.969	18586.42
586.329	18566.08
586.688	18667.32
587.048	18703.7
587.408	18572.63
587.768	18581.9
588.127	18551.62
588.487	18501.67
588.846	18648.56
589.206	18455.8
589.565	18575.34
589.925	18666.87
590.284	18466.2
590.643	18509.58
591.003	18672.07
591.362	18657.83
591.721	18543.48
592.08	18505.29
592.44	18594.78
592.799	18629.81
593.158	18470.49
593.517	18572.86
593.876	18537.61
594.235	18437.27
594.593	18583.48
594.952	18572.86
595.311	18459.42
595.67	18550.49
596.029	18684.04
596.387	18623.25
596.746	18573.76
597.104	18586.19
597.463	18542.35
597.822	18597.72
598.18	18562.69
598.538	18437.27
598.897	18589.13
599.255	18389.14
599.613	18573.09
599.972	18597.94
600.33	18579.19
600.688	18530.15
601.046	18553.2
601.404	18613.99
601.762	18630.03
602.12	18665.51
602.478	18654.66
602.836	18745.28
603.194	18582.12
603.552	18595.68
603.91	18533.31
604.268	18627.55
604.625	18669.13
604.983	18678.17
605.341	18602.01
605.698	18679.75
606.056	18676.59
606.413	18671.39
606.771	18737.6
607.128	18758.84
607.485	18682.23
607.843	18647.89
608.2	18835.9
608.557	18796.36
608.914	18750.26
609.272	18819.86
609.629	18835.68
609.986	18990.93
610.343	18782.35
610.7	18949.57
611.057	18919.97
611.414	18978.27
611.771	18863.25
612.127	18999.97
612.484	18989.12
612.841	19087.65
613.198	18985.96
613.554	19009.01
613.911	19041.1
614.267	19103.01
614.624	19094.65
614.98	19141.21
615.337	19293.07
615.693	19104.82
616.05	19070.93
616.406	19317.7
616.762	19339.84
617.118	19238.6
617.475	19184.14
617.831	19286.06
618.187	19189.11
618.543	19359.05
618.899	19397.92
619.255	19374.19
619.611	19331.03
619.967	19365.83
620.323	19482.44
620.678	19355.21
621.034	19339.17
621.39	19281.77
621.746	19304.82
622.101	19434.08
622.457	19362.89
622.812	19455.55
623.168	19493.06
623.523	19410.35
623.879	19506.62
624.234	19353.86
624.589	19455.32
624.945	19440.86
625.3	19431.59
625.655	19419.62
626.01	19498.94
626.365	19470.69
626.72	19468.2
627.075	19488.54
627.43	19567.86
627.785	19445.83
628.14	19476.79
628.495	19429.33
628.85	19558.37
629.205	19350.01
629.559	19433.85
629.914	19389.33
630.269	19498.48
630.623	19370.58
630.978	19305.5
631.332	19369.45
631.687	19430.46
632.041	19283.57
632.396	19300.07
632.75	19177.14
633.104	19388.43
633.459	19181.88
633.813	19179.4
634.167	19244.93
634.521	19193.86
634.875	19148.44
635.229	19199.06
635.583	19025.28
635.937	19091.49
636.291	19042.45
636.645	19148.44
636.999	19004.03
637.352	19112.28
637.706	19017.82
638.06	19088.55
638.413	18967.2
638.767	18977.37
639.121	18909.57
639.474	18842.23
639.828	18931.72
640.181	18891.95
640.534	18884.72
640.888	18861.89
641.241	18813.3
641.594	18752.52
641.947	18933.98
642.301	18795.23
642.654	18811.5
643.007	18845.85
643.36	18778.73
643.713	18749.35
644.066	18770.37
644.419	18633.87
644.771	18608.56
645.124	18454.44
645.477	18296.48
645.83	18304.17
646.182	18332.64
646.535	18170.61
646.888	18212.42
647.24	18125.41
647.593	18230.04
647.945	18194.79
648.298	18127.45
648.65	18093.78
649.002	18008.58
649.355	18121.8
649.707	17987.56
650.059	18190.72
650.411	18410.6
650.763	18406.31
651.115	18551.16
651.467	18558.4
651.819	18547.32
652.171	18459.87
652.523	18424.61
652.875	18510.71
653.227	18383.94
653.578	18572.86
653.93	18392.52
654.282	18349.59
654.633	18371.06
654.985	18390.27
655.337	18413.77
655.688	18413.99
656.039	18584.61
656.391	18314.79
656.742	18419.42
657.094	18494.22
657.445	18580.77
657.796	18359.76
658.147	18376.93
658.498	18422.35
658.849	18452.64
659.2	18367.89
659.551	18366.99
659.902	18385.07
660.253	18388.68
660.604	18471.39
660.955	18291.51
661.306	18516.59
661.656	18464.39
662.007	18458.29
662.358	18491.05
662.708	18511.62
663.059	18461.45
663.409	18387.33
663.76	18498.06
664.11	18526.08
664.461	18531.5
664.811	18507.1
665.161	18562.01
665.511	18528.79
665.862	18430.04
666.212	18510.94
666.562	18561.11
666.912	18508
667.262	18470.26
667.612	18519.98
667.962	18609.69
668.312	18479.08
668.662	18625.06
669.011	18386.88
669.361	18396.59
669.711	18475.46
670.06	18350.49
670.41	18380.32
670.76	18346.65
671.109	18451.73
671.459	18412.64
671.808	18359.31
672.157	18390.49
672.507	18252.19
672.856	18242.92
673.205	18416.25
673.554	18344.16
673.904	18265.75
674.253	18316.14
674.602	18361.34
674.951	18088.58
675.3	17887.91
675.649	18202.02
675.998	18191.4
676.346	18254.22
676.695	18287.44
677.044	18086.54
677.393	18212.87
677.741	18220.33
678.09	18185.3
678.438	18103.94
678.787	18128.8
679.135	18134.45
679.484	18024.85
679.832	18037.28
680.181	17909.6
680.529	18054
680.877	17920.45
681.225	17922.03
681.573	18011.07
681.922	17830.73
682.27	17825.53
682.618	17842.71
682.966	17755.71
683.314	17853.78
683.661	17658.08
684.009	17673.9
684.357	17571.53
684.705	17557.07
685.053	17593.45
685.4	17492.21
685.748	17425.77
686.095	17380.8
686.443	17352.1
686.79	17307.36
687.138	17363.17
687.485	17373.79
687.832	17348.48
688.18	17273.46
688.527	17087.25
688.874	17157.3
689.221	17185.55
689.568	17086.34
689.915	16997.76
690.262	17004.99
690.609	16977.65
690.956	16898.78
691.303	16920.47
691.65	16704.21
691.997	16732.46
692.344	16653.36
692.69	16609.75
693.037	16645.68
693.383	16463.54
693.73	16525.91
694.077	16438.45
694.423	16401.39
694.769	16357.1
695.116	16329.08
695.462	16319.59
695.808	16243.43
696.155	16263.54
696.501	16121.17
696.847	16105.13
697.193	16005.02
697.539	15939.03
697.885	15891.35
698.231	15873.27
698.577	15849.54
698.923	15808.41
699.269	15727.96
699.614	15513.28
699.96	15617.68
700.306	15535.42
700.651	15539.04
700.997	15519.61
701.342	15434.41
701.688	15334.07
702.033	15226.05
702.379	15229.67
702.724	15128.2
703.069	15231.25
703.415	14948.1
703.76	14989
704.105	14959.17
704.45	14918.04
704.795	14835.78
705.14	14749.91
705.485	14732.73
705.83	14762.79
706.175	14800.08
706.52	14643.47
706.865	14562.12
707.209	14627.88
707.554	14598.95
707.899	14551.04
708.243	14513.53
708.588	14519.86
708.932	14349.69
709.277	14347.43
709.621	14350.15
709.966	14241.45
710.31	14276.02
710.654	14227.21
710.998	14211.62
711.342	14130.26
711.687	14110.38
712.031	14132.75
712.375	14006.88
712.719	13996.93
713.063	14048.46
713.407	14082.58
713.75	13983.83
714.094	13970.04
714.438	13877.62
714.782	13929.59
715.125	13819.09
715.469	13835.81
715.812	13740.67
716.156	13720.78
716.499	13738.18
716.843	13694.34
717.186	13677.17
717.53	13676.72
717.873	13687.34
718.216	13625.87
718.559	13568.02
718.902	13454.35
719.246	13528.02
719.589	13444.41
719.932	13456.84
720.275	13457.29
720.617	13455.71
720.96	13374.8
721.303	13338.87
721.646	13384.29
721.989	13263.17
722.331	13380.91
722.674	13279.66
723.016	13273.56
723.359	13260.68
723.701	13296.61
724.044	13300.91
724.386	13148.37
724.729	13216.62
725.071	13189.72
725.413	13190.85
725.755	13180.91
726.097	13132.1
726.439	13130.74
726.782	13076.51
727.124	13130.74
727.465	13041.71
727.807	13110.86
728.149	13079.44
728.491	13020.01
728.833	13065.89
729.175	13012.55
729.516	13036.96
729.858	12934.82
730.199	12990.63
730.541	12970.97
730.882	12986.79
731.224	12967.13
731.565	12921.03
731.906	12959
732.248	12911.31
732.589	12859.34
732.93	12822.73
733.271	12904.53
733.612	12831.09
733.953	12933.46
734.294	12935.72
734.635	12844.42
734.976	12970.97
735.317	12818.66
735.658	12843.74
735.999	12823.18
736.339	12952.22
736.68	12895.95
737.021	12874.48
737.361	12821.82
737.702	12917.41
738.042	12912.67
738.383	12843.52
738.723	12895.49
739.063	12856.4
739.404	12977.07
739.744	12855.95
740.084	12924.65
740.424	12957.19
740.764	12861.6
741.104	13011.88
741.444	12923.06
741.784	12873.8
742.124	13020.91
742.464	12880.58
742.804	12980.92
743.143	13024.08
743.483	13027.02
743.823	12954.48
744.162	13036.28
744.502	13111.31
744.841	13031.31
745.181	13161.93
745.52	13079.22
745.86	13141.36
746.199	13091.87
746.538	13211.19
746.877	13219.33
747.216	13329.16
747.556	13297.29
747.895	13317.18
748.234	13390.17
748.573	13352.88
748.911	13424.52
749.25	13550.84
749.589	13505.2
749.928	13619.99
750.267	13685.53
750.605	13686.43
750.944	13734.34
751.283	13757.17
751.621	13924.62
751.96	13879.65
752.298	13960.33
752.636	14132.98
752.975	14135.69
753.313	14184.73
753.651	14418.17
753.989	14405.06
754.327	14573.42
754.666	14605.28
755.004	14699.51
755.342	14816.57
755.679	14875.56
756.017	14909
756.355	15027.19
756.693	15062.44
757.031	15281.42
757.368	15356.67
757.706	15348.31
758.044	15527.29
758.381	15631.24
758.719	15729.09
759.056	15840.05
759.394	15821.75
759.731	16017.9
760.068	15999.14
760.405	16171.57
760.743	16152.58
761.08	16460.15
761.417	16397.78
761.754	16606.13
762.091	16547.83
762.428	16608.17
762.765	16700.14
763.102	17002.5
763.438	16969.29
763.775	17032.33
764.112	17094.93
764.449	17264.64
764.785	17266.45
765.122	17340.8
765.458	17461.25
765.795	17465.09
766.131	17564.52
766.467	17621.7
766.804	17654.01
767.14	17620.34
767.476	17759.1
767.812	17803.84
768.148	17950.73
768.485	17958.86
768.821	17899.88
769.157	17894.91
769.492	18092.65
769.828	18046.77
770.164	18106.66
770.5	18162.7
770.836	18162.7
771.171	18174
771.507	18193.66
771.842	18186.88
772.178	18163.6
772.513	18223.72
772.849	18200.67
773.184	18239.31
773.519	18310.95
773.855	18277.5
774.19	18277.5
774.525	18345.97
774.86	18263.94
775.195	18245.64
775.53	18194.34
775.865	18116.6
776.2	18188.69
776.535	18074.79
776.87	18150.95
777.205	18136.94
777.539	18104.17
777.874	18193.43
778.209	18084.28
778.543	18027.56
778.878	17968.58
779.212	18059.88
779.547	17912.31
779.881	18008.81
780.215	17917.06
780.55	18015.59
780.884	17807.46
781.218	17781.69
781.552	17821.24
781.886	17773.78
782.22	17748.25
782.554	17706.44
782.888	17616.95
783.222	17642.49
783.556	17426
783.889	17584.86
784.223	17412.44
784.557	17350.74
784.89	17410.63
785.224	17355.94
785.557	17267.13
785.891	17242.72
786.224	17243.18
786.558	17256.96
786.891	17095.16
787.224	17049.06
787.557	17039.11
787.891	16945.33
788.224	16984.65
788.557	16956.18
788.89	16949.17
789.223	16924.99
789.556	16720.93
789.888	16786.92
790.221	16705.11
790.554	16602.06
790.887	16611.78
791.219	16587.6
791.552	16571.33
791.884	16489.3
792.217	16493.82
792.549	16398.23
792.882	16273.48
793.214	16246.59
793.546	16266.93
793.879	16079.82
794.211	16107.84
794.543	16154.39
794.875	16068.74
795.207	16095.64
795.539	16059.48
795.871	15984.45
796.203	15875.53
796.535	15847.28
796.867	15852.48
797.198	15807.96
797.53	15692.93
797.862	15710.34
798.193	15707.85
798.525	15622.2
798.856	15514.63
799.188	15372.27
799.519	15405.48
799.85	15255.66
800.182	15334.07
800.513	15367.29
800.844	15260.86
801.175	15311.02
801.506	15259.27
801.837	15193.74
802.168	15169.11
802.499	15145.38
802.83	14989.45
803.161	15057.92
803.491	15051.37
803.822	14955.33
804.153	14941.54
804.483	14866.74
804.814	14836.46
805.145	14887.08
805.475	14747.42
805.805	14723.02
806.136	14747.2
806.466	14629.91
806.796	14662
807.126	14509.01
807.457	14588.33
807.787	14490.71
808.117	14348.79
808.447	14400.09
808.777	14328.22
809.107	14339.75
809.436	14231.05
809.766	14245.97
810.096	14273.99
810.426	14224.72
810.755	14162.81
811.085	14091.62
811.414	14094.33
811.744	13958.74
812.073	13945.86
812.403	14000.32
812.732	13924.62
813.061	13936.37
813.39	13793.32
813.719	13830.16
814.049	13838.29
814.378	13779.09
814.707	13735.7
815.036	13735.25
815.365	13642.82
815.693	13520.79
816.022	13602.59
816.351	13517.4
816.68	13428.36
817.008	13506.1
817.337	13399.21
817.665	13378.65
817.994	13492.09
818.322	13460.23
818.651	13364.86
818.979	13268.59
819.307	13317.4
819.636	13358.76
819.964	13175.94
820.292	13260.23
820.62	13285.09
820.948	13205.99
821.276	13219.1
821.604	13173.68
821.932	13228.59
822.259	13182.49
822.587	13169.61
822.915	13125.77
823.243	13222.49
823.57	13124.87
823.898	13195.83
824.225	13086.9
824.553	13102.72
824.88	13158.09
825.207	13075.83
825.535	13081.7
825.862	13165.54
826.189	13070.18
826.516	13116.05
826.843	13118.54
827.17	13160.35
827.497	13168.71
827.824	13149.95
828.151	13193.11
828.478	13185.66
828.805	13189.05
829.131	13119.67
829.458	13166.22
829.785	13045.55
830.111	13106.34
830.438	13079.67
830.764	13100.69
831.09	13148.14
831.417	13061.37
831.743	13060.46
832.069	13109.5
832.395	12976.17
832.722	13046.22
833.048	13065.21
833.374	12980.69
833.7	12933.46
834.026	12988.6
834.351	13045.77
834.677	12951.31
835.003	12980.24
835.329	13013.68
835.654	12929.62
835.98	12865.89
836.306	12981.59
836.631	12824.08
836.956	12915.15
837.282	12900.69
837.607	12781.37
837.932	12837.64
838.258	12823.41
838.583	12776.85
838.908	12728.72
839.233	12785.44
839.558	12718.55
839.883	12703.18
840.208	12697.99
840.533	12670.42
840.858	12592
841.182	12599.23
841.507	12610.76
841.832	12556.75
842.156	12545.45
842.481	12532.57
842.805	12466.58
843.13	12399.24
843.454	12395.17
843.778	12353.81
844.103	12395.17
844.427	12372.57
844.751	12338.45
845.075	12305.45
845.399	12325.57
845.723	12144.33
846.047	12219.35
846.371	12001.05
846.695	12137.1
847.019	11976.42
847.343	11955.18
847.666	11843.54
847.99	11780.04
848.313	11822.75
848.637	11733.04
848.96	11738.91
849.284	11724.9
849.607	11587.96
849.931	11562.87
850.254	11455.31
850.577	11429.77
850.9	11335.08
851.223	11396.78
851.546	11364.24
851.869	11204.24
852.192	11336.44
852.515	11189.32
852.838	11185.03
853.161	11217.12
853.483	11050.57
853.806	11014.41
854.129	11000.18
854.451	10980.29
854.774	10994.3
855.096	10921.53
855.419	10885.6
855.741	10805.83
856.063	10790.24
856.385	10788.21
856.708	10730.58
857.03	10646.29
857.352	10735.33
857.674	10672.73
857.996	10598.15
858.318	10574.43
858.64	10632.95
858.961	10525.61
859.283	10492.17
859.605	10417.82
859.926	10470.93
860.248	10416.01
860.57	10327.43
860.891	10421.66
861.212	10339.18
861.534	10330.82
861.855	10294.66
862.176	10364.94
862.498	10282
862.819	10260.54
863.14	10211.05
863.461	10221.44
863.782	10130.14
864.103	10241.33
864.424	10192.74
864.745	10180.09
865.065	10085.4
865.386	10065.74
865.707	10069.35
866.027	10072.74
866.348	10058.51
866.668	10043.14
866.989	10043.59
867.309	9919.98
867.63	9888.57
867.95	9914.78
868.27	9911.17
868.59	9896.93
868.91	9931.05
869.23	9838.85
869.55	9809.93
869.87	9806.08
870.19	9802.02
870.51	9813.54
870.83	9835.46
871.15	9773.32
871.469	9735.58
871.789	9792.53
872.109	9748.91
872.428	9628.69
872.748	9696.48
873.067	9646.31
873.386	9675.24
873.706	9702.81
874.025	9652.87
874.344	9565.64
874.663	9559.99
874.982	9623.26
875.301	9533.1
875.62	9532.64
875.939	9500.78
876.258	9508.01
876.577	9515.47
876.896	9419.65
877.214	9453.55
877.533	9522.48
877.852	9480.89
878.17	9423.72
878.489	9402.03
878.807	9434.34
879.125	9435.7
879.444	9364.97
879.762	9336.49
880.08	9332.65
880.398	9295.59
880.716	9326.77
881.034	9312.99
881.352	9266.89
881.67	9254.91
881.988	9232.99
882.306	9168.59
882.624	9083.39
882.941	9158.19
883.259	9095.14
883.577	9114.35
883.894	9086.55
884.212	9061.7
884.529	9047.23
884.846	8978.54
885.164	9050.17
885.481	8993
885.798	8974.69
886.115	8851.53
886.432	8941.7
886.75	8900.8
887.067	8892.44
887.383	8917.07
887.7	8854.7
888.017	8812.21
888.334	8783.29
888.651	8776.28
888.967	8765.89
889.284	8701.48
889.6	8707.81
889.917	8675.27
890.233	8687.47
890.55	8580.81
890.866	8594.36
891.182	8572.9
891.498	8497.19
891.815	8523.63
892.131	8529.73
892.447	8454.03
892.763	8456.06
893.079	8395.95
893.395	8412.22
893.71	8384.65
894.026	8416.29
894.342	8277.54
894.657	8263.3
894.973	8266.69
895.289	8239.35
895.604	8285.22
895.92	8196.63
896.235	8142.17
896.55	8156.86
896.865	8125.68
897.181	8060.37
897.496	8076.19
897.811	7983.98
898.126	8014.94
898.441	7935.17
898.756	7952.57
899.071	7893.82
899.386	7923.65
899.7	7861.73
900.015	7782.86
900.33	7763.2
900.644	7773.82
900.959	7691.56
901.273	7655.86
901.588	7682.75
901.902	7670.32
902.216	7603.2
902.531	7598.23
902.845	7568.63
903.159	7538.35
903.473	7488.63
903.787	7524.79
904.101	7403.21
904.415	7433.27
904.729	7370.89
905.042	7282.31
905.356	7336.77
905.67	7315.3
905.984	7288.86
906.297	7275.98
906.611	7292.03
906.924	7224
907.237	7188.53
907.551	7158.47
907.864	7158.7
908.177	7158.02
908.491	7090.68
908.804	7046.16
909.117	7028.76
909.43	6985.14
909.743	7000.96
910.056	6969.1
910.368	6961.86
910.681	6823.79
910.994	6845.48
911.307	6815.88
911.619	6800.06
911.932	6786.95
912.244	6708.76
912.557	6720.74
912.869	6648.2
913.181	6646.85
913.494	6694.75
913.806	6608.88
914.118	6608.88
914.43	6543.34
914.742	6560.07
915.054	6487.75
915.366	6488.43
915.678	6477.58
915.99	6436.46
916.302	6415.89
916.613	6387.19
916.925	6407.98
917.236	6346.29
917.548	6293.63
917.859	6339.06
918.171	6256.57
918.482	6206.18
918.794	6173.19
919.105	6254.76
919.416	6137.93
919.727	6149.91
920.038	6120.98
920.349	6048.44
920.66	6036.47
920.971	6031.04
921.282	6012.96
921.593	5955.56
921.903	5936.58
922.214	5912.85
922.525	5889.35
922.835	5874.44
923.146	5848.22
923.456	5799.18
923.767	5823.59
924.077	5768.9
924.387	5763.03
924.697	5710.37
925.008	5729.36
925.318	5720.32
925.628	5675.35
925.938	5638.74
926.248	5607.55
926.558	5628.57
926.867	5568.68
927.177	5541.11
927.487	5581.79
927.796	5454.33
928.106	5491.62
928.416	5443.03
928.725	5449.36
929.034	5407.56
929.344	5420.21
929.653	5365.97
929.962	5368.91
930.271	5339.31
930.581	5356.03
930.89	5224.06
931.199	5284.39
931.508	5262.93
931.817	5248.46
932.125	5225.41
932.434	5200.56
932.743	5107.9
933.051	5131.86
933.36	5084.85
933.669	5093.67
933.977	5062.48
934.286	5079.88
934.594	5038.07
934.902	5040.11
935.21	4980.67
935.519	5010.5
935.827	4940.9
936.135	4924.4
936.443	4889.6
936.751	4874.69
937.059	4873.56
937.367	4859.55
937.674	4843.05
937.982	4812.32
938.29	4765.09
938.597	4730.29
938.905	4753.11
939.213	4728.03
939.52	4700
939.827	4707.69
940.135	4645.32
940.442	4645.09
940.749	4644.19
941.056	4654.36
941.363	4543.62
941.67	4546.11
941.977	4518.99
942.284	4423.85
942.591	4456.62
942.898	4474.7
943.205	4466.56
943.511	4429.5
943.818	4429.95
944.125	4385.21
944.431	4366
944.738	4383.4
945.044	4369.62
945.35	4311.09
945.657	4298.21
945.963	4285.55
946.269	4267.92
946.575	4287.59
946.881	4263.86
947.187	4208.04
947.493	4257.3
947.799	4187.93
948.105	4200.36
948.41	4183.86
948.716	4170.98
949.022	4100.7
949.327	4103.41
949.633	4020.25
949.938	4062.51
950.244	4034.26
950.549	4055.95
950.854	4010.76
951.16	3977.08
951.465	3958.78
951.77	3954.03
952.075	3902.51
952.38	3902.96
952.685	3888.27
952.99	3883.08
953.294	3886.24
953.599	3891.44
953.904	3836.52
954.209	3805.56
954.513	3823.64
954.818	3767.6
955.122	3776.41
955.426	3747.03
955.731	3723.08
956.035	3704.32
956.339	3731.67
956.643	3723.98
956.948	3685.34
957.252	3653.7
957.556	3676.53
957.86	3658
958.163	3622.07
958.467	3595.63
958.771	3628.39
959.075	3583.87
959.378	3524.67
959.682	3551.11
959.985	3484.22
960.289	3493.71
960.592	3493.71
960.896	3493.03
961.199	3481.05
961.502	3405.8
961.805	3444.67
962.108	3398.57
962.411	3416.65
962.714	3386.82
963.017	3370.77
963.32	3346.82
963.623	3400.15
963.926	3341.62
964.228	3339.59
964.531	3288.29
964.833	3311.11
965.136	3284
965.438	3233.6
965.741	3242.64
966.043	3245.58
966.345	3212.13
966.648	3242.19
966.95	3207.84
967.252	3171.91
967.554	3192.92
967.856	3180.5
968.158	3142.3
968.46	3130.78
968.761	3127.84
969.063	3110.44
969.365	3107.28
969.666	3088.07
969.968	3052.36
970.269	3018.47
970.571	3028.86
970.872	3022.76
971.174	2994.06
971.475	2984.57
971.776	2996.09
972.077	2960.39
972.378	2922.2
972.679	2954.51
972.98	2928.52
973.281	2940.5
973.582	2912.71
973.883	2896.66
974.183	2884.01
974.484	2868.41
974.785	2877.9
975.085	2868.41
975.386	2890.56
975.686	2822.76
975.986	2834.29
976.287	2821.18
976.587	2775.31
976.887	2782.09
977.187	2736.67
977.487	2761.3
977.787	2731.69
978.087	2710
978.387	2724.01
978.687	2729.66
978.987	2663.9
979.286	2621.87
979.586	2657.8
979.885	2671.81
980.185	2650.11
980.484	2652.37
980.784	2601.08
981.083	2609.21
981.382	2605.82
981.682	2585.93
981.981	2568.99
982.28	2545.94
982.579	2565.6
982.878	2538.48
983.177	2554.52
983.475	2487.41
983.774	2540.96
984.073	2501.64
984.372	2490.12
984.67	2454.64
984.969	2509.55
985.267	2465.71
985.566	2421.19
985.864	2455.99
986.162	2433.4
986.461	2410.57
986.759	2363.12
987.057	2383.23
987.355	2387.97
987.653	2359.5
987.951	2367.41
988.249	2386.62
988.547	2336.68
988.844	2335.55
989.142	2318.15
989.44	2302.55
989.737	2324.02
990.035	2287.86
990.332	2276.79
990.63	2279.28
990.927	2248.99
991.224	2257.13
991.521	2223.01
991.819	2234.08
992.116	2234.08
992.413	2218.49
992.71	2191.37
993.006	2216.23
993.303	2170.58
993.6	2168.09
993.897	2132.84
994.193	2160.41
994.49	2148.21
994.787	2133.74
995.083	2129.45
995.379	2116.34
995.676	2087.87
995.972	2096
996.268	2091.03
996.565	2065.95
996.861	2052.39
997.157	2013.07
997.453	2039.28
997.749	2034.99
998.044	2014.2
998.34	2019.85
998.636	1985.5
998.932	1980.53
999.227	1963.13
999.523	1964.48
999.818	1946.18
1000.114	1959.96
1000.409	1944.6
1000.704	1922
1001	1921.77
1001.295	1895.11
1001.59	1897.14
1001.885	1880.42
1002.18	1879.96
1002.475	1848.1
1002.77	1838.16
1003.065	1851.94
1003.359	1835.22
1003.654	1806.75
1003.949	1796.58
1004.243	1848.78
1004.538	1805.84
1004.832	1789.8
1005.127	1791.83
1005.421	1751.15
1005.715	1734.43
1006.009	1763.36
1006.304	1735.11
1006.598	1719.74
1006.892	1712.96
1007.186	1704.15
1007.48	1729.01
1007.773	1703.7
1008.067	1698.95
1008.361	1672.96
1008.655	1682.91
1008.948	1660.31
1009.242	1662.57
1009.535	1654.21
1009.829	1639.52
1010.122	1613.31
1010.415	1593.87
1010.708	1604.49
1011.001	1590.93
1011.295	1586.41
1011.588	1602.23
1011.881	1540.31
1012.173	1570.82
1012.466	1560.65
1012.759	1538.73
1013.052	1553.65
1013.344	1522.91
1013.637	1511.16
1013.93	1511.16
1014.222	1517.49
1014.514	1469.13
1014.807	1490.6
1015.099	1468.9
1015.391	1440.2
1015.683	1491.05
1015.976	1462.8
1016.268	1427.32
1016.56	1446.76
1016.851	1432.07
1017.143	1403.14
1017.435	1427.55
1017.727	1371.05
1018.018	1395.23
1018.31	1374.44
1018.602	1372.41
1018.893	1368.11
1019.185	1335.8
1019.476	1323.37
1019.767	1333.54
1020.058	1318.4
1020.35	1329.7
1020.641	1302.58
1020.932	1318.4
1021.223	1273.43
1021.514	1310.49
1021.804	1258.29
1022.095	1278.17
1022.386	1283.37
1022.677	1259.42
1022.967	1269.13
1023.258	1244.73
1023.548	1214.67
1023.839	1224.16
1024.129	1223.03
1024.419	1220.1
1024.709	1194.33
1025	1207.67
1025.29	1162.47
1025.58	1191.62
1025.87	1183.49
1026.16	1152.75
1026.449	1170.38
1026.739	1174.22
1027.029	1143.26
1027.319	1143.94
1027.608	1142.81
1027.898	1126.54
1028.187	1122.24
1028.477	1123.83
1028.766	1122.24
1029.055	1092.19
1029.344	1097.39
1029.634	1071.85
1029.923	1071.62
1030.212	1082.7
1030.501	1066.2
1030.79	1066.2
1031.078	1060.33
1031.367	1050.83
1031.656	1052.42
1031.945	1013.77
1032.233	1016.26
1032.522	1004.51
1032.81	1009.25
1033.099	995.92
1033.387	987.11
1033.675	981.01
1033.963	996.82
1034.251	973.55
1034.54	983.49
1034.828	953.21
1035.116	965.64
1035.403	949.82
1035.691	945.3
1035.979	924.51
1036.267	929.93
1036.554	923.61
1036.842	921.35
1037.129	902.59
1037.417	917.28
1037.704	892.65
1037.992	936.71
1038.279	866.88
1038.566	902.82
1038.853	902.82
1039.14	902.82
