Data from hue_230_FLMS001491_00051.txt Node
Date: Tue Feb 07 16:37:26 GMT 2017
User: dcchb
Spectrometer: FLMS00149
Trigger mode: 0
Integration Time (sec): 2.000000E-2
Scans to average: 10
Electric dark correction enabled: true
Nonlinearity correction enabled: false
Boxcar width: 0
XAxis mode: Wavelengths
Number of Pixels in Spectrum: 2048
>>>>>Begin Spectral Data<<<<<
341.393	-2.42
341.776	-2.42
342.16	-2.42
342.543	-51.68
342.927	-72.92
343.31	-69.08
343.693	-66.82
344.077	-60.49
344.46	-60.04
344.843	-39.25
345.226	-27.5
345.61	-46.26
345.993	-20.72
346.376	-24.79
346.759	11.6
347.142	19.05
347.525	29
347.908	70.35
348.291	66.96
348.674	100.41
349.057	117.58
349.44	118.26
349.823	153.06
350.206	148.09
350.588	189.44
350.971	198.03
351.354	215.21
351.737	227.64
352.119	241.65
352.502	262.89
352.884	271.7
353.267	281.65
353.65	283.9
354.032	277.8
354.414	294.75
354.797	282.1
355.179	297.46
355.562	302.89
355.944	291.14
356.326	314.64
356.709	319.16
357.091	320.06
357.473	329.78
357.855	345.6
358.238	342.43
358.62	345.6
359.002	330.23
359.384	327.97
359.766	334.75
360.148	327.97
360.53	337.91
360.912	336.11
361.294	323.9
361.676	332.94
362.057	326.16
362.439	325.26
362.821	318.71
363.203	329.1
363.584	343.34
363.966	318.71
364.348	306.96
364.729	315.54
365.111	312.83
365.493	287.07
365.874	298.59
366.256	293.62
366.637	300.85
367.019	301.98
367.4	307.41
367.781	298.37
368.163	297.92
368.544	281.65
368.925	297.01
369.306	310.57
369.688	307.41
370.069	301.08
370.45	292.49
370.831	296.56
371.212	299.95
371.593	283.68
371.974	294.75
372.355	309.22
372.736	298.82
373.117	300.4
373.498	292.94
373.879	307.41
374.26	301.76
374.641	287.29
375.021	317.12
375.402	305.83
375.783	307.18
376.163	329.33
376.544	308.31
376.925	315.09
377.305	325.03
377.686	320.06
378.066	310.12
378.447	311.02
378.827	326.84
379.208	330.46
379.588	316.67
379.968	323
380.349	313.73
380.729	317.58
381.109	323
381.489	308.99
381.87	329.1
382.25	340.4
382.63	320.97
383.01	314.41
383.39	346.95
383.77	320.06
384.15	339.95
384.53	318.25
384.91	332.49
385.29	329.78
385.67	332.04
386.049	349.44
386.429	328.2
386.809	341.76
387.189	356.67
387.568	372.49
387.948	364.58
388.328	335.66
388.707	359.38
389.087	340.4
389.466	338.14
389.846	348.76
390.225	367.29
390.605	342.43
390.984	367.29
391.363	333.85
391.743	373.17
392.122	369.78
392.501	358.25
392.881	355.54
393.26	366.39
393.639	364.58
394.018	374.98
394.397	365.03
394.776	367.29
395.155	375.88
395.534	370.23
395.913	374.3
396.292	369.55
396.671	377.24
397.05	412.72
397.429	379.95
397.808	381.3
398.186	388.53
398.565	370
398.944	396.67
399.323	392.83
399.701	404.13
400.08	395.09
400.458	422.43
400.837	397.35
401.215	395.99
401.594	399.83
401.972	421.75
402.351	413.17
402.729	410.46
403.107	407.74
403.486	413.17
403.864	425.6
404.242	418.36
404.62	428.99
404.999	440.96
405.377	445.26
405.755	428.53
406.133	452.94
406.511	441.87
406.889	443
407.267	439.83
407.645	440.06
408.023	458.14
408.401	475.76
408.779	478.02
409.156	466.5
409.534	494.97
409.912	497.23
410.29	500.4
410.667	477.8
411.045	488.42
411.422	484.13
411.8	518.48
412.178	511.47
412.555	517.35
412.933	526.16
413.31	536.55
413.687	554.41
414.065	556.44
414.442	569.77
414.819	559.38
415.197	572.71
415.574	576.33
415.951	593.5
416.328	587.85
416.705	579.26
417.082	579.49
417.46	605.48
417.837	616.33
418.214	620.85
418.591	654.06
418.967	627.85
419.344	625.36
419.721	665.36
420.098	660.39
420.475	673.05
420.852	671.01
421.228	695.19
421.605	693.61
421.982	702.88
422.358	730.9
422.735	721.63
423.111	739.03
423.488	741.29
423.864	741.07
424.241	767.28
424.617	794.85
424.994	775.87
425.37	778.81
425.746	805.47
426.123	815.87
426.499	817
426.875	839.14
427.251	827.85
427.627	849.77
428.003	846.6
428.379	847.51
428.756	903.32
429.132	889.76
429.507	904.91
429.883	915.07
430.259	935.87
430.635	945.58
431.011	938.8
431.387	963.66
431.763	990.78
432.138	966.82
432.514	991.01
432.89	1005.02
433.265	1038.69
433.641	1048.86
434.016	1060.16
434.392	1067.84
434.767	1106.71
435.143	1105.35
435.518	1111.23
435.894	1143.77
436.269	1155.52
436.644	1174.5
437.02	1176.76
437.395	1186.25
437.77	1205.01
438.145	1218.12
438.52	1228.96
438.895	1274.16
439.271	1272.13
439.646	1289.75
440.021	1303.99
440.395	1326.14
440.77	1315.97
441.145	1333.59
441.52	1421.05
441.895	1374.05
442.27	1393.93
442.645	1402.29
443.019	1453.14
443.394	1450.88
443.769	1420.6
444.143	1462.63
444.518	1453.14
444.892	1443.65
445.267	1480.26
445.641	1471.67
446.016	1501.27
446.39	1518.45
446.764	1541.05
447.139	1516.41
447.513	1544.66
447.887	1558.67
448.262	1566.13
448.636	1569.07
449.01	1595.96
449.384	1626.02
449.758	1634.83
450.132	1636.41
450.506	1616.07
450.88	1652.23
451.254	1671.89
451.628	1661.5
452.002	1668.5
452.376	1729.29
452.75	1712.57
453.123	1749.18
453.497	1768.16
453.871	1781.27
454.244	1810.87
454.618	1819.01
454.992	1847.48
455.365	1846.12
455.739	1883.86
456.112	1899.23
456.486	1899.68
456.859	1899.68
457.232	1954.14
457.606	1942.84
457.979	1946.91
458.352	2009.28
458.725	2029.85
459.099	2009.28
459.472	2077.08
459.845	2103.29
460.218	2089.06
460.591	2153.69
460.964	2125.21
461.337	2130.86
461.71	2230.52
462.083	2230.52
462.456	2206.79
462.829	2239.33
463.201	2276.39
463.574	2294.25
463.947	2311.65
464.32	2367.24
464.692	2428.26
465.065	2386
465.438	2444.53
465.81	2494.69
466.183	2459.89
466.555	2528.82
466.928	2521.81
467.3	2528.37
467.672	2589.83
468.045	2633.45
468.417	2609.49
468.789	2694.92
469.161	2709.83
469.534	2760
469.906	2779.21
470.278	2790.51
470.65	2849.71
471.022	2842.71
471.394	2920.9
471.766	2923.61
472.138	2989.82
472.51	3026.43
472.882	3075.47
473.253	3090.38
473.625	3165.19
473.997	3171.06
474.369	3204.73
474.74	3223.26
475.112	3304.39
475.484	3310.94
475.855	3390.72
476.227	3432.75
476.598	3470.49
476.97	3516.59
477.341	3558.4
477.713	3674.1
478.084	3654.44
478.455	3747.99
478.827	3796.35
479.198	3836.58
479.569	3825.73
479.94	3930.59
480.311	4004.26
480.682	4050.36
481.053	4105.73
481.424	4173.29
481.795	4237.25
482.166	4281.77
482.537	4292.84
482.908	4380.29
483.279	4418.03
483.65	4476.34
484.021	4637.91
484.391	4619.61
484.762	4637.24
485.133	4649.21
485.503	4762.43
485.874	4853.5
486.244	4837.46
486.615	4914.07
486.985	5023.44
487.356	5091.01
487.726	5096.43
488.097	5201.29
488.467	5201.29
488.837	5312.02
489.207	5341.63
489.578	5398.8
489.948	5460.04
490.318	5500.26
490.688	5527.83
491.058	5575.74
491.428	5678.79
491.798	5690.77
492.168	5805.57
492.538	5814.61
492.908	5862.52
493.278	5866.58
493.648	5913.14
494.017	5974.83
494.387	6014.6
494.757	6078.78
495.126	6146.35
495.496	6171.66
495.866	6225.22
496.235	6235.61
496.605	6313.58
496.974	6237.65
497.344	6293.92
497.713	6403.07
498.082	6447.58
498.452	6414.82
498.821	6485.1
499.19	6461.82
499.559	6587.02
499.928	6565.1
500.298	6548.37
500.667	6640.57
501.036	6603.29
501.405	6660.69
501.774	6720.8
502.143	6708.82
502.512	6711.08
502.88	6787.91
503.249	6790.63
503.618	6810.06
503.987	6816.16
504.356	6892.32
504.724	6880.34
505.093	6936.16
505.462	7001.02
505.83	6975.71
506.199	7005.76
506.567	7081.69
506.936	7066.33
507.304	7107.91
507.672	7160.56
508.041	7103.61
508.409	7139.09
508.777	7236.26
509.145	7226.77
509.514	7182.93
509.882	7305.42
510.25	7244.85
510.618	7289.6
510.986	7302.7
511.354	7378.41
511.722	7385.19
512.09	7474
512.458	7465.64
512.826	7441
513.193	7495.69
513.561	7448.24
513.929	7524.84
514.297	7555.13
514.664	7573.88
515.032	7580.21
515.4	7551.06
515.767	7649.81
516.135	7566.2
516.502	7521.23
516.869	7589.7
517.237	7650.26
517.604	7615.24
517.972	7659.98
518.339	7707.44
518.706	7689.81
519.073	7697.95
519.44	7732.07
519.808	7760.54
520.175	7751.73
520.542	7796.93
520.909	7824.72
521.276	7805.97
521.643	7813.42
522.009	7874.44
522.376	7833.76
522.743	7914.89
523.11	7923.25
523.477	7979.97
523.843	8031.95
524.21	8027.88
524.577	8083.02
524.943	8018.84
525.31	8072.17
525.676	8087.54
526.043	8147.88
526.409	8116.24
526.776	8164.38
527.142	8152.17
527.508	8190.36
527.874	8205.28
528.241	8131.38
528.607	8098.16
528.973	8231.72
529.339	8156.24
529.705	8303.36
530.071	8267.42
530.437	8250.02
530.803	8250.93
531.169	8292.28
531.535	8234.2
531.901	8282.34
532.267	8218.39
532.632	8237.59
532.998	8308.55
533.364	8312.17
533.73	8288.67
534.095	8266.75
534.461	8305.61
534.826	8299.51
535.192	8223.81
535.557	8301.32
535.923	8214.32
536.288	8252.06
536.653	8228.1
537.019	8155.11
537.384	8214.54
537.749	8229.01
538.114	8242.57
538.479	8164.15
538.845	8205.96
539.21	8162.12
539.575	8149.91
539.94	8204.37
540.305	8196.24
540.67	8155.11
541.034	8102.46
541.399	8126.64
541.764	8101.55
542.129	8127.09
542.494	8151.04
542.858	8125.05
543.223	8098.39
543.587	8095.9
543.952	8017.71
544.316	8024.04
544.681	8014.78
545.045	8011.61
545.41	8083.02
545.774	8043.7
546.138	7978.39
546.503	7994.21
546.867	7931.16
547.231	7997.6
547.595	7989.24
547.959	7972.97
548.324	7989.24
548.688	7927.32
549.052	7913.76
549.416	7903.59
549.779	7908.79
550.143	7896.13
550.507	7827.66
550.871	7882.8
551.235	7836.93
551.599	7895
551.962	7868.56
552.326	7856.81
552.689	7857.72
553.053	7783.59
553.417	7756.02
553.78	7938.39
554.143	7786.76
554.507	7813.42
554.87	7834.44
555.234	7857.27
555.597	7820.43
555.96	7795.35
556.323	7840.54
556.686	7776.14
557.05	7852.07
557.413	7805.29
557.776	7800.09
558.139	7831.73
558.502	7792.41
558.865	7759.19
559.228	7822.69
559.59	7862.46
559.953	7799.41
560.316	7877.83
560.679	7846.42
561.041	7856.14
561.404	7918.51
561.767	7903.82
562.129	7875.57
562.492	7920.77
562.854	7929.81
563.217	7921.22
563.579	7864.5
563.941	7907.43
564.304	7991.72
564.666	7990.82
565.028	8003.25
565.39	7984.49
565.753	8042.35
566.115	8005.74
566.477	8014.1
566.839	8035.79
567.201	8097.03
567.563	8056.81
567.925	8102
568.287	8161.21
568.648	8146.98
569.01	8142.46
569.372	8177.93
569.734	8161.21
570.095	8187.88
570.457	8174.77
570.819	8266.75
571.18	8252.06
571.542	8241.44
571.903	8265.39
572.265	8336.57
572.626	8282.56
572.987	8318.04
573.349	8259.29
573.71	8380.42
574.071	8349.46
574.432	8333.18
574.794	8391.94
575.155	8406.63
575.516	8376.57
575.877	8466.06
576.238	8489.34
576.599	8519.85
576.96	8454.31
577.32	8493.41
577.681	8518.04
578.042	8600.75
578.403	8533.18
578.763	8560.98
579.124	8628.09
579.485	8579.05
579.845	8650.69
580.206	8638.04
580.566	8666.96
580.927	8639.62
581.287	8720.29
581.648	8660.41
582.008	8680.29
582.368	8699.28
582.728	8792.83
583.089	8728.2
583.449	8707.19
583.809	8697.7
584.169	8746.96
584.529	8709.9
584.889	8864.47
585.249	8795.32
585.609	8754.19
585.969	8882.55
586.329	8824.25
586.688	8852.27
587.048	8849.78
587.408	8832.15
587.768	8829.89
588.127	8851.82
588.487	8869.67
588.846	8903.11
589.206	8874.87
589.565	8901.76
589.925	8984.69
590.284	8932.04
590.643	8925.94
591.003	8955.32
591.362	8936.11
591.721	9101.53
592.08	8999.38
592.44	8967.07
592.799	8955.77
593.158	8972.49
593.517	9039.38
593.876	9017.23
594.235	8986.5
594.593	9011.81
594.952	9035.54
595.311	9007.07
595.67	9033.28
596.029	9100.62
596.387	9101.3
596.746	9087.29
597.104	9040.74
597.463	9103.56
597.822	9089.78
598.18	9084.8
598.538	9114.18
598.897	9202.09
599.255	9057.46
599.613	9130.45
599.972	9145.82
600.33	9173.84
600.688	9059.95
601.046	9183.33
601.404	9152.37
601.762	9141.98
602.12	9234.18
602.478	9169.55
602.836	9270.11
603.194	9128.19
603.552	9174.74
603.91	9165.93
604.268	9230.34
604.625	9200.96
604.983	9224.01
605.341	9218.81
605.698	9242.09
606.056	9195.99
606.413	9231.24
606.771	9250.22
607.128	9242.09
607.485	9206.61
607.843	9217.23
608.2	9252.48
608.557	9293.84
608.914	9291.13
609.272	9319.83
609.629	9304.91
609.986	9339.71
610.343	9320.05
610.7	9420.16
611.057	9337.9
611.414	9332.48
611.771	9363.21
612.127	9419.03
612.484	9422.2
612.841	9387.17
613.198	9388.52
613.554	9400.05
613.911	9380.61
614.267	9386.26
614.624	9416.77
614.98	9516.2
615.337	9476.21
615.693	9448.86
616.05	9464.68
616.406	9556.88
616.762	9514.62
617.118	9441.63
617.475	9471.69
617.831	9600.5
618.187	9577.9
618.543	9533.38
618.899	9557.33
619.255	9526.83
619.611	9593.94
619.967	9522.31
620.323	9604.11
620.678	9489.99
621.034	9517.79
621.39	9527.96
621.746	9492.02
622.101	9594.85
622.457	9580.84
622.812	9555.98
623.168	9551.91
623.523	9593.94
623.879	9589.87
624.234	9529.09
624.589	9556.2
624.945	9604.34
625.3	9559.37
625.655	9601.63
626.01	9550.78
626.365	9575.64
626.72	9519.14
627.075	9500.84
627.43	9594.85
627.785	9480.27
628.14	9548.75
628.495	9580.38
628.85	9576.77
629.205	9466.26
629.559	9503.32
629.914	9465.81
630.269	9385.13
630.623	9468.52
630.978	9456.55
631.332	9522.08
631.687	9491.8
632.041	9507.84
632.396	9470.78
632.75	9461.06
633.104	9411.8
633.459	9416.55
633.813	9384
634.167	9396.43
634.521	9425.59
634.875	9422.42
635.229	9364.57
635.583	9333.16
635.937	9351.69
636.291	9356.66
636.645	9317.57
636.999	9358.24
637.352	9301.29
637.706	9305.36
638.06	9283.22
638.413	9337.23
638.767	9243.44
639.121	9302.88
639.474	9231.69
639.828	9198.25
640.181	9252.93
640.534	9227.4
640.888	9181.52
641.241	9130.68
641.594	9146.27
641.947	9235.08
642.301	9170.45
642.654	9189.89
643.007	9191.47
643.36	9107.4
643.713	9119.15
644.066	9160.28
644.419	9092.49
644.771	9074.41
645.124	8993.51
645.477	8967.07
645.83	8906.05
646.182	8900.4
646.535	8853.62
646.888	8828.09
647.24	8849.33
647.593	8842.32
647.945	8809.1
648.298	8773.4
648.65	8793.96
649.002	8768.43
649.355	8903.11
649.707	8831.25
650.059	8877.58
650.411	8934.3
650.763	8959.16
651.115	9024.24
651.467	9004.81
651.819	9051.13
652.171	9024.47
652.523	9002.32
652.875	9003.22
653.227	8948.31
653.578	8956.9
653.93	9058.36
654.282	8910.12
654.633	8968.2
654.985	9005.94
655.337	9048.42
655.688	8952.6
656.039	9016.33
656.391	8934.98
656.742	9002.77
657.094	9045.26
657.445	9027.4
657.796	9011.59
658.147	8972.49
658.498	9009.1
658.849	8982.21
659.2	8968.42
659.551	9003.9
659.902	9050
660.253	9004.81
660.604	8986.95
660.955	8988.99
661.306	9002.55
661.656	8944.92
662.007	8979.5
662.358	9004.13
662.708	9017.69
663.059	8997.8
663.409	8946.95
663.76	9080.06
664.11	9030.34
664.461	9025.82
664.811	9077.8
665.161	8986.28
665.511	8992.15
665.862	9010
666.212	9061.3
666.562	8959.38
666.912	9019.49
667.262	8955.54
667.612	9018.14
667.962	9021.98
668.312	8989.44
668.662	9075.54
669.011	8987.86
669.361	8964.35
669.711	8986.5
670.06	9049.55
670.41	9000.06
670.76	8941.08
671.109	9087.06
671.459	8947.63
671.808	8972.49
672.157	8955.54
672.507	8862.66
672.856	8898.14
673.205	8906.73
673.554	8912.83
673.904	8936.78
674.253	8965.03
674.602	8933.17
674.951	8858.59
675.3	8763.23
675.649	8871.48
675.998	8843.23
676.346	8821.99
676.695	8904.02
677.044	8793.29
677.393	8775.43
677.741	8842.1
678.09	8844.58
678.438	8788.77
678.787	8844.13
679.135	8825.15
679.484	8734.08
679.832	8873.51
680.181	8737.47
680.529	8732.27
680.877	8702.21
681.225	8665.15
681.573	8717.81
681.922	8666.06
682.27	8669.67
682.618	8645.72
682.966	8631.48
683.314	8626.51
683.661	8627.19
684.009	8586.51
684.357	8576.57
684.705	8498.6
685.053	8553.97
685.4	8544.48
685.748	8458.83
686.095	8452.05
686.443	8435.33
686.79	8390.36
687.138	8393.52
687.485	8419.28
687.832	8392.62
688.18	8391.71
688.527	8351.04
688.874	8307.2
689.221	8296.8
689.568	8314.88
689.915	8220.87
690.262	8262.68
690.609	8189.46
690.956	8175.9
691.303	8186.52
691.65	8178.16
691.997	8237.37
692.344	8113.53
692.69	8102.91
693.037	8079.86
693.383	8022.91
693.73	7991.95
694.077	7944.04
694.423	7918.73
694.769	7906.98
695.116	7949.92
695.462	7879.64
695.808	7805.06
696.155	7819.98
696.501	7778.85
696.847	7808.68
697.193	7749.92
697.539	7772.07
697.885	7749.25
698.231	7701.79
698.577	7668.8
698.923	7607.78
699.269	7633.77
699.614	7589.02
699.96	7544.05
700.306	7544.05
700.651	7468.57
700.997	7423.83
701.342	7478.07
701.688	7417.05
702.033	7421.12
702.379	7385.19
702.724	7403.72
703.069	7374.57
703.415	7262.93
703.76	7171.63
704.105	7264.51
704.45	7233.33
704.795	7200.79
705.14	7159.66
705.485	7153.1
705.83	7124.18
706.175	7111.52
706.52	7123.95
706.865	7048.25
707.209	7064.97
707.554	7014.12
707.899	7054.12
708.243	7023.84
708.588	6988.81
708.932	6908.36
709.277	6902.49
709.621	6955.82
709.966	6895.03
710.31	6851.64
710.654	6881.7
710.998	6843.96
711.342	6788.82
711.687	6817.74
712.031	6802.38
712.375	6731.87
712.719	6766.45
713.063	6763.51
713.407	6726.45
713.75	6697.52
714.094	6710.63
714.438	6648.48
714.782	6718.99
715.125	6700.91
715.469	6686.9
715.812	6646.68
716.156	6653
716.499	6611.2
716.843	6600.8
717.186	6583.4
717.53	6621.59
717.873	6604.42
718.216	6563.51
718.559	6527.36
718.902	6500.24
719.246	6567.81
719.589	6511.54
719.932	6466.34
720.275	6545.21
720.617	6511.09
720.96	6440.58
721.303	6453.91
721.646	6475.83
721.989	6455.72
722.331	6463.4
722.674	6491.88
723.016	6470.41
723.359	6465.89
723.701	6465.44
724.044	6416.4
724.386	6387.47
724.729	6406.23
725.071	6463.63
725.413	6446.91
725.755	6366
726.097	6376.17
726.439	6365.78
726.782	6332.33
727.124	6384.99
727.465	6342.05
727.807	6362.39
728.149	6317.64
728.491	6363.75
728.833	6337.53
729.175	6404.42
729.516	6327.81
729.858	6353.8
730.199	6326.01
730.541	6360.81
730.882	6310.19
731.224	6340.47
731.565	6300.24
731.906	6336.4
732.248	6317.64
732.589	6340.47
732.93	6267.7
733.271	6298.21
733.612	6340.92
733.953	6380.24
734.294	6321.94
734.635	6326.01
734.976	6309.74
735.317	6314.25
735.658	6352.45
735.999	6312.22
736.339	6323.52
736.68	6310.87
737.021	6351.77
737.361	6322.62
737.702	6341.37
738.042	6332.11
738.383	6336.4
738.723	6339.34
739.063	6308.61
739.404	6384.99
739.744	6350.41
740.084	6336.18
740.424	6392.22
740.764	6373.24
741.104	6397.64
741.444	6391.77
741.784	6383.41
742.124	6412.11
742.464	6407.59
742.804	6410.3
743.143	6421.37
743.483	6408.26
743.823	6406.91
744.162	6447.36
744.502	6518.09
744.841	6533.23
745.181	6554.7
745.52	6552.44
745.86	6518.54
746.199	6567.81
746.538	6652.55
746.877	6640.57
747.216	6680.8
747.556	6710.85
747.895	6696.84
748.234	6740.01
748.573	6759.21
748.911	6767.35
749.25	6902.71
749.589	6914.69
749.928	6984.75
750.267	7016.16
750.605	7053.22
750.944	7192.42
751.283	7121.01
751.621	7261.12
751.96	7245.08
752.298	7333.89
752.636	7424.73
752.975	7415.02
753.313	7500.21
753.651	7662.69
753.989	7687.33
754.327	7758.96
754.666	7776.14
755.004	7957.83
755.342	8003.7
755.679	8088.9
756.017	8180.65
756.355	8283.24
756.693	8362.79
757.031	8471.26
757.368	8568.88
757.706	8662.89
758.044	8814.98
758.381	8888.65
758.719	8972.94
759.056	9121.19
759.394	9186.04
759.731	9278.02
760.068	9462.42
760.405	9541.06
760.743	9586.71
761.08	9751.45
761.417	9792.13
761.754	10028.06
762.091	10058.56
762.428	10178.11
762.765	10343.08
763.102	10417.42
763.438	10520.47
763.775	10593.46
764.112	10829.16
764.449	10918.2
764.785	10931.31
765.122	11007.69
765.458	11051.31
765.795	11224.41
766.131	11388.7
766.467	11429.6
766.804	11583.04
767.14	11604.74
767.476	11723.15
767.812	11892.41
768.148	11905.75
768.485	11961.11
768.821	12013.54
769.157	12174.89
769.492	12277.04
769.828	12324.27
770.164	12401.1
770.5	12387.09
770.836	12507.54
771.171	12565.62
771.507	12640.64
771.842	12658.72
772.178	12700.98
772.513	12810.13
772.849	12835.67
773.184	12808.55
773.519	12912.27
773.855	12913.63
774.19	12969
774.525	12982.78
774.86	13124.02
775.195	13216.22
775.53	13147.3
775.865	13183.68
776.2	13159.95
776.535	13174.19
776.87	13223.68
777.205	13135.32
777.539	13232.49
777.874	13290.34
778.209	13226.16
778.543	13267.52
778.878	13240.4
779.212	13225.26
779.547	13261.42
779.881	13427.51
780.215	13272.72
780.55	13411.24
780.884	13246.28
781.218	13367.63
781.552	13293.28
781.886	13332.15
782.22	13257.35
782.554	13235.43
782.888	13246.73
783.222	13301.87
783.556	13221.19
783.889	13194.98
784.223	13130.8
784.557	13107.3
784.89	13171.25
785.224	13090.12
785.557	13108.88
785.891	13121.31
786.224	13102.32
786.558	13109.78
786.891	13062.1
787.224	12966.51
787.557	12989.56
787.891	13080.18
788.224	13026.62
788.557	13027.07
788.89	13021.2
789.223	12948.88
789.556	12878.83
789.888	12946.62
790.221	12902.33
790.554	12809
790.887	12823.91
791.219	12760.64
791.552	12796.8
791.884	12674.54
792.217	12785.5
792.549	12679.51
792.882	12677.93
793.214	12573.07
793.546	12619.85
793.879	12557.93
794.211	12565.16
794.543	12594.77
794.875	12521.78
795.207	12591.83
795.539	12571.49
795.871	12440.87
796.203	12398.16
796.535	12315.23
796.867	12421.89
797.198	12325.62
797.53	12361.78
797.862	12309.13
798.193	12197.04
798.525	12206.08
798.856	12215.79
799.188	12077.27
799.519	12151.62
799.85	12044.73
800.182	12059.64
800.513	11982.13
800.844	12000.66
801.175	12092.63
801.506	12003.6
801.837	11977.38
802.168	11925.18
802.499	11833.43
802.83	11911.4
803.161	11792.75
803.491	11756.82
803.822	11741.23
804.153	11752.53
804.483	11698.52
804.814	11629.14
805.145	11718.41
805.475	11646.09
805.805	11582.36
806.136	11629.37
806.466	11608.8
806.796	11580.11
807.126	11519.09
807.457	11516.15
807.787	11459.66
808.117	11447.23
808.447	11465.98
808.777	11445.87
809.107	11424.18
809.436	11338.3
809.766	11269.15
810.096	11263.05
810.426	11238.65
810.755	11244.29
811.085	11228.02
811.414	11138.76
811.744	11080.91
812.073	11102.6
812.403	11139.44
812.732	11043.4
813.061	11054.92
813.39	11006.79
813.719	10993
814.049	11002.27
814.378	10961.59
814.707	10957.52
815.036	11008.37
815.365	10906.9
815.693	10862.61
816.022	10887.69
816.351	10775.38
816.68	10673.01
817.008	10752.33
817.337	10688.38
817.665	10712.78
817.994	10707.59
818.322	10703.29
818.651	10631.66
818.979	10648.6
819.307	10645.44
819.636	10652.67
819.964	10571.09
820.292	10567.25
820.62	10604.76
820.948	10605.22
821.276	10614.71
821.604	10506.01
821.932	10597.08
822.259	10599.34
822.587	10560.24
822.915	10439.12
823.243	10564.76
823.57	10497.87
823.898	10514.37
824.225	10485.44
824.553	10450.64
824.88	10539.45
825.207	10523.64
825.535	10571.09
825.862	10606.57
826.189	10502.17
826.516	10534.03
826.843	10542.84
827.17	10583.07
827.497	10600.02
827.824	10579.68
828.151	10613.8
828.478	10589.62
828.805	10595.27
829.131	10582.39
829.458	10539.45
829.785	10577.87
830.111	10593.92
830.438	10618.77
830.764	10577.42
831.09	10641.37
831.417	10531.09
831.743	10589.85
832.069	10557.76
832.395	10564.09
832.722	10539.68
833.048	10510.75
833.374	10573.58
833.7	10479.34
834.026	10482.51
834.351	10498.33
834.677	10472.11
835.003	10501.72
835.329	10473.47
835.654	10494.71
835.98	10431.66
836.306	10441.15
836.631	10381.72
836.956	10463.75
837.282	10396.86
837.607	10340.36
837.932	10365.9
838.258	10358.67
838.583	10381.72
838.908	10247.26
839.233	10273.25
839.558	10240.71
839.883	10249.74
840.208	10191.89
840.533	10209.97
840.858	10257.65
841.182	10237.77
841.507	10189.41
841.832	10125.91
842.156	10128.84
842.481	10177.88
842.805	10098.34
843.13	10100.6
843.454	10061.95
843.778	10026.02
844.103	9966.36
844.427	9949.19
844.751	9988.73
845.075	9917.78
845.399	9943.99
845.723	9875.29
846.047	9863.54
846.371	9846.59
846.695	9824.45
847.019	9742.87
847.343	9711.45
847.666	9695.18
847.99	9625.81
848.313	9578.8
848.637	9560.72
848.96	9561.63
849.284	9492.25
849.607	9404.8
849.931	9452.03
850.254	9380.39
850.577	9299.04
850.9	9259.49
851.223	9284.8
851.546	9247.51
851.869	9146.72
852.192	9151.69
852.515	9154.41
852.838	9096.78
853.161	9114.41
853.483	8997.12
853.806	8999.83
854.129	9013.17
854.451	8978.37
854.774	8883.45
855.096	8864.02
855.419	8860.18
855.741	8802.78
856.063	8769.11
856.385	8802.33
856.708	8693.63
857.03	8737.69
857.352	8739.5
857.674	8736.11
857.996	8642.1
858.318	8661.76
858.64	8591.03
858.961	8555.1
859.283	8569.11
859.605	8518.26
859.926	8499.96
860.248	8485.05
860.57	8488.89
860.891	8448.89
861.212	8426.52
861.534	8431.26
861.855	8385.16
862.176	8335.22
862.498	8431.26
862.819	8358.04
863.14	8382.22
863.461	8311.26
863.782	8330.02
864.103	8223.36
864.424	8274.66
864.745	8289.12
865.065	8159.63
865.386	8196.47
865.707	8239.4
866.027	8207.09
866.348	8177.93
866.668	8173.87
866.989	8117.37
867.309	8117.82
867.63	8088.45
867.95	8100.2
868.27	8033.08
868.59	8044.83
868.91	8019.29
869.23	8058.16
869.55	8038.28
869.87	8031.95
870.19	8001.67
870.51	8007.32
870.83	7982.23
871.15	7918.28
871.469	7953.76
871.789	7994.21
872.109	7968.22
872.428	7864.27
872.748	7951.05
873.067	7914.44
873.386	7917.15
873.706	7831.28
874.025	7836.93
874.344	7830.37
874.663	7854.78
874.982	7817.27
875.301	7798.51
875.62	7814.33
875.939	7778.85
876.258	7770.49
876.577	7773.65
876.896	7735.01
877.214	7727.78
877.533	7753.31
877.852	7712.41
878.17	7775.46
878.489	7723.03
878.807	7644.84
879.125	7675.12
879.444	7656.37
879.762	7619.98
880.08	7616.14
880.398	7497.27
880.716	7612.07
881.034	7553.54
881.352	7610.72
881.67	7596.26
881.988	7563.94
882.306	7538.63
882.624	7511.06
882.941	7490.5
883.259	7490.5
883.577	7493.21
883.894	7531.17
884.212	7421.57
884.529	7402.81
884.846	7407.79
885.164	7393.55
885.481	7328.24
885.798	7348.35
886.115	7303.83
886.432	7341.12
886.75	7257.73
887.067	7286.88
887.383	7254.57
887.7	7316.71
888.017	7225.87
888.334	7189.03
888.651	7212.99
888.967	7165.98
889.284	7187.9
889.6	7146.78
889.917	7044.63
890.233	7085.76
890.55	7081.24
890.866	7037.17
891.182	7051.41
891.498	7025.87
891.815	6987.01
892.131	6963.96
892.447	6967.57
892.763	6933.9
893.079	6871.98
893.395	6839.89
893.71	6867.46
894.026	6842.15
894.342	6831.76
894.657	6800.12
894.973	6817.07
895.289	6731.19
895.604	6788.37
895.92	6715.15
896.235	6675.38
896.55	6621.59
896.865	6668.14
897.181	6620.46
897.496	6662.04
897.811	6566
898.126	6583.4
898.441	6531.65
898.756	6572.1
899.071	6508.6
899.386	6506.57
899.7	6462.95
900.015	6434.48
900.33	6366.23
900.644	6358.32
900.959	6333.01
901.273	6372.33
901.588	6320.36
901.902	6263.63
902.216	6271.77
902.531	6274.26
902.845	6212.11
903.159	6196.74
903.473	6215.5
903.787	6128.72
904.101	6111.32
904.415	6086.46
904.729	6066.8
905.042	6083.53
905.356	6022.74
905.67	6091.44
905.984	6001.04
906.297	6027.71
906.611	5966.24
906.924	5985
907.237	5916.53
907.551	5900.25
907.864	5878.11
908.177	5863.65
908.491	5841.72
908.804	5825.23
909.117	5758.79
909.43	5745
909.743	5746.36
910.056	5763.99
910.368	5637.44
910.681	5700.03
910.994	5653.71
911.307	5579.36
911.619	5568.29
911.932	5559.92
912.244	5563.31
912.557	5552.69
912.869	5478.57
913.181	5433.15
913.494	5503.2
913.806	5398.57
914.118	5449.87
914.43	5434.05
914.742	5450.55
915.054	5331.91
915.366	5317.22
915.678	5338.24
915.99	5314.73
916.302	5250.55
916.613	5190.22
916.925	5310.44
917.236	5223.89
917.548	5186.6
917.859	5221.63
918.171	5163.55
918.482	5106.15
918.794	5137.79
919.105	5112.03
919.416	5063.21
919.727	5082.42
920.038	5098.24
920.349	4989.09
920.66	4990.22
920.971	5003.78
921.282	4947.29
921.593	4943.67
921.903	4894.86
922.214	4865.25
922.525	4837.23
922.835	4885.37
923.146	4801.98
923.456	4843.11
923.767	4806.95
924.077	4820.73
924.387	4736.22
924.697	4765.82
925.008	4724.24
925.318	4703.68
925.628	4692.6
925.938	4661.19
926.248	4627.75
926.558	4659.16
926.867	4663.68
927.177	4559.5
927.487	4557.24
927.796	4580.29
928.106	4542.1
928.416	4536.45
928.725	4528.31
929.034	4460.29
929.344	4480.63
929.653	4422.1
929.962	4382.78
930.271	4398.15
930.581	4340.97
930.89	4379.84
931.199	4312.95
931.508	4311.82
931.817	4331.48
932.125	4335.78
932.434	4317.25
932.743	4267.76
933.051	4272.95
933.36	4271.6
933.669	4230.69
933.977	4194.31
934.286	4185.5
934.594	4149.79
934.902	4132.62
935.21	4136.91
935.519	4121.09
935.827	4126.06
936.135	4064.82
936.443	4071.83
936.751	4075.67
937.059	4076.12
937.367	4007.87
937.674	4004.71
937.982	4007.42
938.29	4001.1
938.597	3965.16
938.905	3887.65
939.213	3915.45
939.52	3890.14
939.827	3905.96
940.135	3856.24
940.442	3874.77
940.749	3881.55
941.056	3837.48
941.363	3828.22
941.67	3793.64
941.977	3785.06
942.284	3751.61
942.591	3795.45
942.898	3748.45
943.205	3696.7
943.511	3690.6
943.818	3692.63
944.125	3672.97
944.431	3670.03
944.738	3652.4
945.044	3623.03
945.35	3607.89
945.657	3592.74
945.963	3554.55
946.269	3560.2
946.575	3578.96
946.881	3549.81
947.187	3509.13
947.493	3512.75
947.799	3539.64
948.105	3486.53
948.41	3450.15
948.716	3499.64
949.022	3428
949.327	3462.58
949.633	3378.51
949.938	3383.26
950.244	3421.9
950.549	3363.37
950.854	3328.57
951.16	3360.21
951.465	3364.5
951.77	3315.92
952.075	3315.92
952.38	3288.12
952.685	3298.29
952.99	3262.13
953.294	3258.52
953.599	3246.76
953.904	3228.46
954.209	3183.94
954.513	3207.44
954.818	3174.68
955.122	3134.23
955.426	3193.88
955.731	3141
956.035	3138.29
956.339	3099.65
956.643	3116.82
956.948	3071.63
957.252	3096.26
957.556	3085.64
957.86	3020.78
958.163	3019.88
958.467	3040.89
958.771	3022.82
959.075	2990.27
959.378	2945.08
959.682	2997.51
959.985	2956.6
960.289	2927.45
960.592	2946.66
960.896	2915.25
961.199	2911.63
961.502	2894.91
961.805	2874.57
962.108	2881.8
962.411	2869.83
962.714	2822.14
963.017	2828.7
963.32	2831.41
963.623	2791.18
963.926	2830.5
964.228	2771.52
964.531	2812.88
964.833	2768.36
965.136	2758.42
965.438	2762.26
965.741	2748.25
966.043	2724.52
966.345	2676.61
966.648	2708.02
966.95	2667.12
967.252	2702.15
967.554	2642.94
967.856	2672.09
968.158	2659.66
968.46	2628.25
968.761	2610.62
969.063	2630.74
969.365	2617.4
969.666	2636.61
969.968	2589.83
970.269	2549.38
970.571	2570.4
970.872	2557.07
971.174	2561.81
971.475	2548.03
971.776	2516.16
972.077	2492.21
972.378	2473.45
972.679	2480.91
972.98	2484.3
973.281	2471.42
973.582	2425.77
973.883	2455.83
974.183	2436.62
974.484	2461.47
974.785	2386.45
975.085	2421.02
975.386	2402.27
975.686	2394.58
975.986	2392.32
976.287	2373.12
976.587	2388.93
976.887	2314.36
977.187	2371.76
977.487	2357.75
977.787	2324.3
978.087	2290.41
978.387	2319.33
978.687	2269.84
978.987	2285.66
979.286	2255.83
979.586	2228.03
979.885	2233.91
980.185	2263.51
980.484	2199.79
980.784	2252.67
981.083	2174.93
981.382	2204.98
981.682	2191.88
981.981	2175.38
982.28	2179.45
982.579	2154.82
982.878	2150.3
983.177	2168.38
983.475	2139.9
983.774	2129.73
984.073	2110.75
984.372	2107.59
984.67	2094.93
984.969	2117.53
985.267	2069.85
985.566	2086.12
985.864	2081.15
986.162	2062.16
986.461	2040.47
986.759	2028.04
987.057	2011.09
987.355	2016.06
987.653	2019
987.951	2015.16
988.249	1978.1
988.547	1995.5
988.844	1987.59
989.142	1968.38
989.44	1940.58
989.737	1928.83
990.035	1953.01
990.332	1918.44
990.63	1935.61
990.927	1920.25
991.224	1916.86
991.521	1895.61
991.819	1885.44
992.116	1866.01
992.413	1875.05
992.71	1883.41
993.006	1882.51
993.303	1831.21
993.6	1854.03
993.897	1822.4
994.193	1867.59
994.49	1813.36
994.787	1812.45
995.083	1819.23
995.379	1788.5
995.676	1781.94
995.972	1772.91
996.268	1788.05
996.565	1761.83
996.861	1737.43
997.157	1753.7
997.453	1729.52
997.749	1717.77
998.044	1705.11
998.34	1706.24
998.636	1704.66
998.932	1714.6
999.227	1677.09
999.523	1676.18
999.818	1660.14
1000.114	1673.7
1000.409	1651.55
1000.704	1667.15
1001	1619.01
1001.295	1624.43
1001.59	1629.41
1001.885	1634.83
1002.18	1608.39
1002.475	1593.02
1002.77	1593.7
1003.065	1611.55
1003.359	1596.19
1003.654	1583.76
1003.949	1558.67
1004.243	1534.27
1004.538	1530.65
1004.832	1550.54
1005.127	1527.71
1005.421	1493.36
1005.715	1521.61
1006.009	1508.28
1006.304	1494.04
1006.598	1491.33
1006.892	1476.87
1007.186	1428.96
1007.48	1456.76
1007.773	1451.78
1008.067	1434.84
1008.361	1438.22
1008.655	1440.71
1008.948	1428.51
1009.242	1403.88
1009.535	1405.68
1009.829	1393.48
1010.122	1397.1
1010.415	1386.7
1010.708	1383.09
1011.001	1390.54
1011.295	1362.29
1011.588	1389.19
1011.881	1319.13
1012.173	1351
1012.466	1332.01
1012.759	1314.61
1013.052	1329.3
1013.344	1319.13
1013.637	1308.96
1013.93	1296.08
1014.222	1297.89
1014.514	1286.36
1014.807	1281.39
1015.099	1280.71
1015.391	1253.82
1015.683	1279.13
1015.976	1271.22
1016.268	1246.82
1016.56	1227.61
1016.851	1245.24
1017.143	1224.45
1017.435	1219.25
1017.727	1195.52
1018.018	1201.62
1018.31	1176.99
1018.602	1197.33
1018.893	1174.95
1019.185	1178.34
1019.476	1167.05
1019.767	1197.1
1020.058	1175.86
1020.35	1152.36
1020.641	1126.82
1020.932	1142.64
1021.223	1117.56
1021.514	1120.95
1021.804	1109.19
1022.095	1105.58
1022.386	1096.54
1022.677	1062.87
1022.967	1069.87
1023.258	1071
1023.548	1066.03
1023.839	1046.6
1024.129	1066.71
1024.419	1048.4
1024.709	1043.88
1025	1031.46
1025.29	1018.35
1025.58	1042.76
1025.87	1044.11
1026.16	1038.24
1026.449	1033.49
1026.739	1014.51
1027.029	995.07
1027.319	1007.28
1027.608	977.22
1027.898	987.62
1028.187	969.54
1028.477	975.19
1028.766	960.95
1029.055	963.89
1029.344	935.19
1029.634	944
1029.923	935.19
1030.212	930.44
1030.501	942.19
1030.79	941.06
1031.078	927.05
1031.367	889.54
1031.656	902.87
1031.945	899.26
1032.233	886.37
1032.522	893.15
1032.81	876.66
1033.099	900.61
1033.387	868.52
1033.675	885.92
1033.963	864.91
1034.251	877.56
1034.54	840.05
1034.828	868.97
1035.116	839.82
1035.403	833.27
1035.691	833.27
1035.979	816.55
1036.267	825.59
1036.554	834.62
1036.842	803.21
1037.129	799.6
1037.417	815.19
1037.704	803.44
1037.992	794.4
1038.279	790.78
1038.566	781.52
1038.853	781.52
1039.14	781.52
