Data from hue_26_FLMS001491_00066.txt Node
Date: Tue Feb 07 17:14:21 GMT 2017
User: dcchb
Spectrometer: FLMS00149
Trigger mode: 0
Integration Time (sec): 2.000000E-2
Scans to average: 10
Electric dark correction enabled: true
Nonlinearity correction enabled: false
Boxcar width: 0
XAxis mode: Wavelengths
Number of Pixels in Spectrum: 2048
>>>>>Begin Spectral Data<<<<<
341.393	-18.01
341.776	-18.01
342.16	-18.01
342.543	-61.4
342.927	-53.26
343.31	-82.41
343.693	-57.78
344.077	-62.53
344.46	-63.88
344.843	-73.83
345.226	-36.99
345.61	-51
345.993	-43.32
346.376	6.62
346.759	7.75
347.142	47.98
347.525	47.08
347.908	74.64
348.291	71.26
348.674	90.46
349.057	125.94
349.44	113.29
349.823	154.42
350.206	167.75
350.588	219.27
350.971	220.63
351.354	233.74
351.737	243.68
352.119	249.56
352.502	291.36
352.884	278.93
353.267	291.36
353.65	295.43
354.032	309.44
354.414	323.9
354.797	313.96
355.179	337.69
355.562	343.56
355.944	349.21
356.326	334.53
356.709	351.93
357.091	348.54
357.473	346.05
357.855	345.37
358.238	354.19
358.62	356.45
359.002	366.39
359.384	335.66
359.766	373.85
360.148	360.29
360.53	339.5
360.912	348.76
361.294	344.92
361.676	331.59
362.057	330.91
362.439	331.14
362.821	334.07
363.203	335.88
363.584	336.56
363.966	345.15
364.348	314.19
364.729	341.76
365.111	337.46
365.493	322.1
365.874	339.72
366.256	313.96
366.637	322.1
367.019	330.46
367.4	340.17
367.781	327.29
368.163	331.59
368.544	330.68
368.925	319.38
369.306	345.15
369.688	320.97
370.069	327.97
370.45	312.6
370.831	349.21
371.212	322.1
371.593	316.9
371.974	335.88
372.355	323.9
372.736	341.3
373.117	329.78
373.498	336.78
373.879	337.01
374.26	318.93
374.641	317.35
375.021	339.04
375.402	340.17
375.783	332.72
376.163	349.67
376.544	361.87
376.925	338.14
377.305	331.59
377.686	325.94
378.066	335.66
378.447	339.5
378.827	348.54
379.208	342.43
379.588	364.81
379.968	355.09
380.349	332.94
380.729	347.18
381.109	343.11
381.489	337.91
381.87	366.39
382.25	388.08
382.63	351.25
383.01	346.28
383.39	375.43
383.77	355.32
384.15	352.15
384.53	362.32
384.91	360.74
385.29	384.69
385.67	366.61
386.049	385.37
386.429	351.93
386.809	370
387.189	360.29
387.568	370.23
387.948	377.01
388.328	365.48
388.707	360.29
389.087	365.26
389.466	381.76
389.846	384.69
390.225	387.63
390.605	379.04
390.984	412.94
391.363	374.07
391.743	372.49
392.122	395.54
392.501	374.3
392.881	400.06
393.26	390.12
393.639	407.29
394.018	396.67
394.397	397.57
394.776	403.9
395.155	419.72
395.534	401.19
395.913	390.34
396.292	403
396.671	416.1
397.05	422.21
397.429	433.96
397.808	434.41
398.186	425.82
398.565	431.92
398.944	424.92
399.323	427.4
399.701	420.85
400.08	425.14
400.458	455.43
400.837	461.75
401.215	453.39
401.594	427.63
401.972	440.74
402.351	435.09
402.729	438.25
403.107	457.69
403.486	452.04
403.864	438.93
404.242	456.56
404.62	456.1
404.999	469.21
405.377	457.23
405.755	467.18
406.133	453.62
406.511	475.54
406.889	489.78
407.267	494.07
407.645	474.41
408.023	464.01
408.401	490.68
408.779	503.56
409.156	498.81
409.534	488.42
409.912	498.36
410.29	500.62
410.667	497.01
411.045	499.27
411.422	530.45
411.8	508.31
412.178	506.95
412.555	525.03
412.933	543.79
413.31	545.59
413.687	527.74
414.065	535.42
414.442	544.01
414.819	559.38
415.197	560.06
415.574	561.64
415.951	557.12
416.328	559.15
416.705	572.48
417.082	587.85
417.46	568.64
417.837	586.72
418.214	596.44
418.591	572.26
418.967	578.13
419.344	571.36
419.721	586.72
420.098	606.61
420.475	601.64
420.852	611.13
421.228	623.11
421.605	600.96
421.982	607.96
422.358	619.94
422.735	609.09
423.111	642.77
423.488	635.31
423.864	645.93
424.241	652.71
424.617	644.12
424.994	655.87
425.37	674.86
425.746	635.53
426.123	671.01
426.499	687.51
426.875	659.49
427.251	656.78
427.627	701.75
428.003	694.29
428.379	701.97
428.756	715.53
429.132	680.73
429.507	711.69
429.883	720.73
430.259	725.93
430.635	708.3
431.011	728.64
431.387	734.51
431.763	758.02
432.138	772.71
432.514	746.72
432.89	780.39
433.265	780.16
433.641	792.37
434.016	770.22
434.392	785.36
434.767	831.24
435.143	815.42
435.518	824.23
435.894	821.97
436.269	834.85
436.644	832.14
437.02	831.46
437.395	844.34
437.77	848.18
438.145	882.99
438.52	861.06
438.895	886.6
439.271	878.01
439.646	887.28
440.021	885.02
440.395	900.16
440.77	897.22
441.145	915.07
441.52	934.96
441.895	925.24
442.27	918.24
442.645	916.88
443.019	942.87
443.394	933.38
443.769	948.29
444.143	934.96
444.518	982.19
444.892	969.76
445.267	965.47
445.641	978.58
446.016	983.77
446.39	960.5
446.764	983.1
447.139	992.13
447.513	1008.41
447.887	996.2
448.262	1012.25
448.636	1009.76
449.01	1033.26
449.384	1043.88
449.758	1035.52
450.132	1036.88
450.506	1032.36
450.88	1050.44
451.254	1082.98
451.628	1100.83
452.002	1084.11
452.376	1101.74
452.75	1096.99
453.123	1094.05
453.497	1141.51
453.871	1147.61
454.244	1137.22
454.618	1164.33
454.992	1134.05
455.365	1171.34
455.739	1181.06
456.112	1215.86
456.486	1224.67
456.859	1238.46
457.232	1241.62
457.606	1239.81
457.979	1251.11
458.352	1265.57
458.725	1282.07
459.099	1302.18
459.472	1327.49
459.845	1335.4
460.218	1345.35
460.591	1379.7
460.964	1370.2
461.337	1401.62
461.71	1390.77
462.083	1421.5
462.456	1403.2
462.829	1437.55
463.201	1459.47
463.574	1458.79
463.947	1469.41
464.32	1528.17
464.692	1524.55
465.065	1517.77
465.438	1553.02
465.81	1581.72
466.183	1577.43
466.555	1636.64
466.928	1617.43
467.3	1648.39
467.672	1649.29
468.045	1689.97
468.417	1703.75
468.789	1734.04
469.161	1722.06
469.534	1754.83
469.906	1794.15
470.278	1822.62
470.65	1859.23
471.022	1866.91
471.394	1934.48
471.766	1934.03
472.138	1948.27
472.51	2015.84
472.882	2001.15
473.253	2061.94
473.625	2060.13
473.997	2090.64
474.369	2137.42
474.74	2153.69
475.112	2223.29
475.484	2242.27
475.855	2305.09
476.227	2314.81
476.598	2356.84
476.97	2418.76
477.341	2445.2
477.713	2505.32
478.084	2519.78
478.455	2589.61
478.827	2603.84
479.198	2658.08
479.569	2693.56
479.94	2772.65
480.311	2780.11
480.682	2863.27
481.053	2926.77
481.424	3014.45
481.795	3007.45
482.166	3037.28
482.537	3160.21
482.908	3194.56
483.279	3237.73
483.65	3309.36
484.021	3347.78
484.391	3424.39
484.762	3450.6
485.133	3482.24
485.503	3545.51
485.874	3661.22
486.244	3683.82
486.615	3787.32
486.985	3832.29
487.356	3943.02
487.726	3906.41
488.097	4030.47
488.467	4031.6
488.837	4135.78
489.207	4239.06
489.578	4244.7
489.948	4327.19
490.318	4389.33
490.688	4406.96
491.058	4501.65
491.428	4576.45
491.798	4643.11
492.168	4708.65
492.538	4744.35
492.908	4801.53
493.278	4934.4
493.648	4929.21
494.017	4915.2
494.387	5044.46
494.757	5058.47
495.126	5148.64
495.496	5154.51
495.866	5224.11
496.235	5233.15
496.605	5289.42
496.974	5389.08
497.344	5420.27
497.713	5444.22
498.082	5481.28
498.452	5513.82
498.821	5566.48
499.19	5577.78
499.559	5662.29
499.928	5709.07
500.298	5740.94
500.667	5784.1
501.036	5812.12
501.405	5861.84
501.774	5877.43
502.143	5950.42
502.512	6001.95
502.88	5989.97
503.249	6007.37
503.618	6076.07
503.987	6123.53
504.356	6195.61
504.724	6236.06
505.093	6302.73
505.462	6226.8
505.83	6275.84
506.199	6320.36
506.567	6398.55
506.936	6387.02
507.304	6523.06
507.672	6479.22
508.041	6558.32
508.409	6631.31
508.777	6642.83
509.145	6641.7
509.514	6683.06
509.882	6738.65
510.25	6727.58
510.618	6823.39
510.986	6856.84
511.354	6860.46
511.722	6911.53
512.09	7006.21
512.458	6951.07
512.826	6944.07
513.193	7016.61
513.561	7090.96
513.929	7100.45
514.297	7203.5
514.664	7228.81
515.032	7232.42
515.4	7312.65
515.767	7304.96
516.135	7347.22
516.502	7255.7
516.869	7423.6
517.237	7462.7
517.604	7411.63
517.972	7531.62
518.339	7588.12
518.706	7558.52
519.073	7586.99
519.44	7638.29
519.808	7705.63
520.175	7658.85
520.542	7782.69
520.909	7821.33
521.276	7827.21
521.643	7902.01
522.009	7965.51
522.376	7983.82
522.743	8025.62
523.11	8072.17
523.477	8144.72
523.843	8169.57
524.21	8282.79
524.577	8323.47
524.943	8356.69
525.31	8403.69
525.676	8423.35
526.043	8545.83
526.409	8534.31
526.776	8548.55
527.142	8552.39
527.508	8645.27
527.874	8729.56
528.241	8786.28
528.607	8748.54
528.973	8864.47
529.339	8888.65
529.705	8963.9
530.071	9028.99
530.437	9047.29
530.803	9138.59
531.169	9174.07
531.535	9131.58
531.901	9223.56
532.267	9217.91
532.632	9293.16
532.998	9364.8
533.364	9393.95
533.73	9428.98
534.095	9490.67
534.461	9537.9
534.826	9584
535.192	9572.02
535.557	9661.06
535.923	9636.2
536.288	9699.02
536.653	9749.19
537.019	9739.25
537.384	9808.4
537.749	9897.89
538.114	9894.05
538.479	9930.2
538.845	9871.22
539.21	9988.96
539.575	10075.06
539.94	10040.94
540.305	10110.99
540.67	10126.58
541.034	10072.8
541.399	10220.59
541.764	10289.74
542.129	10348.95
542.494	10428.5
542.858	10343.3
543.223	10444.09
543.587	10471.89
543.952	10504.43
544.316	10501.94
544.681	10559.34
545.045	10588.72
545.41	10666
545.774	10705.78
546.138	10776.96
546.503	10770.18
546.867	10884.3
547.231	10909.16
547.595	10929.27
547.959	10966.79
548.324	10979.22
548.688	10999.1
549.052	11023.74
549.416	11070.74
549.779	11059.21
550.143	11145.09
550.507	11261.24
550.871	11278.19
551.235	11307.57
551.599	11394.12
551.962	11345.08
552.326	11396.38
552.689	11412.43
553.053	11388.02
553.417	11400.9
553.78	11649.03
554.143	11481.12
554.507	11633.89
554.87	11634.11
555.234	11736.94
555.597	11592.08
555.96	11715.24
556.323	11812.19
556.686	11736.49
557.05	11920.66
557.413	12004.05
557.776	12068
558.139	12032.97
558.502	12074.56
558.865	12196.59
559.228	12322.68
559.59	12221.22
559.953	12256.47
560.316	12415.34
560.679	12304.61
561.041	12509.57
561.404	12464.38
561.767	12599.29
562.129	12489.23
562.492	12663.47
562.854	12588.21
563.217	12627.99
563.579	12705.5
563.941	12736.68
564.304	12843.8
564.666	12862.78
565.028	12884.03
565.39	12912.05
565.753	13030.91
566.115	13022.78
566.477	13157.69
566.839	13133.06
567.201	13292.38
567.563	13289.44
567.925	13380.28
568.287	13385.03
568.648	13505.48
569.01	13439.72
569.372	13491.92
569.734	13437.01
570.095	13618.24
570.457	13666.38
570.819	13787.5
571.18	13772.36
571.542	13887.16
571.903	13881.97
572.265	13983.21
572.626	14011.45
572.987	14100.49
573.349	14241.96
573.71	14188.17
574.071	14318.79
574.432	14379.58
574.794	14477.43
575.155	14492.12
575.516	14545
575.877	14690.31
576.238	14690.31
576.599	14902.73
576.96	14916.06
577.32	14923.29
577.681	15141.59
578.042	15276.05
578.403	15281.48
578.763	15386.11
579.124	15534.58
579.485	15663.16
579.845	15824.74
580.206	15911.74
580.566	15982.02
580.927	16152.64
581.287	16298.17
581.648	16362.58
582.008	16674.43
582.368	16657.03
582.728	16989
583.089	17035.78
583.449	17246.62
583.809	17457.69
584.169	17598.48
584.529	17731.81
584.889	18153.49
585.249	18196.43
585.609	18322.07
585.969	18640.71
586.329	18816.07
586.688	19129.51
587.048	19357.75
587.408	19630.97
587.768	19665.77
588.127	19905.31
588.487	20323.38
588.846	20687.66
589.206	20862.35
589.565	21118.61
589.925	21580.29
590.284	21727.41
590.643	21963.33
591.003	22324.23
591.362	22701.62
591.721	22916.53
592.08	23314.26
592.44	23644.42
592.799	23905.2
593.158	24247.57
593.517	24505.19
593.876	24894.33
594.235	25205.28
594.593	25495.67
594.952	25907.86
595.311	26107.41
595.67	26528.41
596.029	27044.11
596.387	27281.61
596.746	27680.7
597.104	27880.24
597.463	28185.77
597.822	28626.21
598.18	28907.79
598.538	29143.71
598.897	29659.86
599.255	29754.54
599.613	30510.91
599.972	30515.2
600.33	31018.46
600.688	31189.53
601.046	31567.15
601.404	32160.81
601.762	32276.51
602.12	32763.95
602.478	33017.28
602.836	33354
603.194	33475.8
603.552	33873.98
603.91	34019.52
604.268	34441.65
604.625	34605.94
604.983	35040.05
605.341	35353.94
605.698	35684.1
606.056	36046.35
606.413	36264.2
606.771	36518.88
607.128	36846.33
607.485	36985.31
607.843	37364.29
608.2	37765.63
608.557	37978.06
608.914	38166.98
609.272	38540.3
609.629	38762.89
609.986	39238.36
610.343	39215.76
610.7	39773.04
611.057	39655.98
611.414	40007.38
611.771	40253.7
612.127	40615.05
612.484	40727.36
612.841	41029.05
613.198	41085.77
613.554	41237.63
613.911	41698.18
614.267	41867.44
614.624	41945.18
614.98	42064.95
615.337	42581.32
615.693	42597.14
616.05	42756.91
616.406	42994.87
616.762	43075.1
617.118	43262.21
617.475	43439.15
617.831	43639.38
618.187	43899.26
618.543	43960.04
618.899	44317.55
619.255	44347.15
619.611	44388.28
619.967	44662.4
620.323	44835.5
620.678	44840.25
621.034	44847.03
621.39	44938.1
621.746	45081.6
622.101	45631.19
622.457	45486.56
622.812	45468.03
623.168	45746.44
623.523	45775.82
623.879	46039.09
624.234	45838.41
624.589	46051.06
624.945	46073.89
625.3	46161.57
625.655	46327.21
626.01	46398.17
626.365	46505.74
626.72	46565.85
627.075	46570.15
627.43	46583.48
627.785	46584.61
628.14	46757.49
628.495	46887.88
628.85	46810.82
629.205	46803.81
629.559	46944.37
629.914	46834.55
630.269	46978.04
630.623	46971.49
630.978	47012.62
631.332	47046.52
631.687	47044.94
632.041	47058.04
632.396	47212.84
632.75	47118.83
633.104	47161.32
633.459	47057.82
633.813	47085.16
634.167	47082
634.521	47129.23
634.875	47221.65
635.229	47112.96
635.583	47031.83
635.937	47155.21
636.291	47096.91
636.645	47137.59
636.999	47095.1
637.352	47145.5
637.706	46993.41
638.06	47192.73
638.413	47183.01
638.767	47114.76
639.121	47282.67
639.474	47027.76
639.828	47049.45
640.181	47072.28
640.534	47122.22
640.888	47051.71
641.241	46806.52
641.594	46931.94
641.947	47146.63
642.301	46955.67
642.654	47113.86
643.007	47037.25
643.36	46804.49
643.713	46988.67
644.066	47143.92
644.419	46847.2
644.771	46548.9
645.124	46162.7
645.477	46165.64
645.83	45920.22
646.182	45804.06
646.535	45678.64
646.888	45937.85
647.24	45633
647.593	45885.64
647.945	45836.83
648.298	45551.87
648.65	45429.38
649.002	45425.77
649.355	45781.92
649.707	45587.12
650.059	45639.1
650.411	46305.52
650.763	46311.17
651.115	46660.76
651.467	46479.3
651.819	46471.62
652.171	46406.31
652.523	46353.65
652.875	46331.51
653.227	46162.92
653.578	46436.82
653.93	46340.77
654.282	46335.35
654.633	46200.89
654.985	46331.28
655.337	46293.09
655.688	46282.02
656.039	46557.72
656.391	45989.14
656.742	46051.52
657.094	46154.34
657.445	46366.31
657.796	46370.38
658.147	46254.9
658.498	46257.39
658.849	46210.16
659.2	46151.4
659.551	46102.36
659.902	46258.29
660.253	45960.9
660.604	46169.25
660.955	46008.58
661.306	46061.68
661.656	45933.55
662.007	46014.45
662.358	46124.51
662.708	46079.76
663.059	46024.4
663.409	45744.63
663.76	45996.6
664.11	46018.97
664.461	46047.67
664.811	46096.26
665.161	45990.95
665.511	45777.17
665.862	45886.55
666.212	46011.52
666.562	45984.17
666.912	45899.88
667.262	45878.19
667.612	45973.78
667.962	46017.62
668.312	45927.9
668.662	46122.02
669.011	45871.41
669.361	45832.31
669.711	45823.5
670.06	45789.15
670.41	45837.74
670.76	45712.77
671.109	45830.96
671.459	45764.74
671.808	45756.61
672.157	45865.76
672.507	45668.25
672.856	45584.41
673.205	45625.31
673.554	45757.96
673.904	45586.44
674.253	45706.89
674.602	45628.02
674.951	45112.56
675.3	44793.92
675.649	45594.13
675.998	45439.78
676.346	45630.96
676.695	45580.57
677.044	45308.94
677.393	45423.74
677.741	45502.15
678.09	45244.98
678.438	45277.52
678.787	45255.15
679.135	45392.55
679.484	45186.23
679.832	45221.93
680.181	44920.25
680.529	45173.12
680.877	44902.84
681.225	45021.03
681.573	45158.43
681.922	44947.36
682.27	44862.39
682.618	44818.55
682.966	44689.97
683.314	44858.55
683.661	44718.89
684.009	44416.08
684.357	44390.77
684.705	44309.19
685.053	44430.31
685.4	44334.5
685.748	44082.75
686.095	44186.25
686.443	43955.3
686.79	44007.28
687.138	44132.7
687.485	43938.12
687.832	43767.96
688.18	43817.68
688.527	43712.37
688.874	43565.93
689.221	43523.67
689.568	43424.69
689.915	43363
690.262	43316.9
690.609	43198.71
690.956	42985.38
691.303	43054.08
691.65	42869.45
691.997	43045.27
692.344	42594.88
692.69	42675.33
693.037	42604.37
693.383	42385.85
693.73	42459.52
694.077	42264.27
694.423	42258.85
694.769	42103.6
695.116	42083.94
695.462	42112.18
695.808	41786.54
696.155	41855.47
696.501	41611.18
696.847	41657.51
697.193	41427.91
697.539	41518.98
697.885	41154.47
698.231	41093.23
698.577	41304.52
698.923	41221.81
699.269	40919.9
699.614	40673.58
699.96	40557.65
700.306	40575.95
700.651	40434.49
700.997	40302.06
701.342	40196.3
701.688	40181.39
702.033	40158.11
702.379	40090.99
702.724	40007.61
703.069	40091.45
703.415	39692.36
703.76	39695.52
704.105	39631.34
704.45	39493.04
704.795	39296.66
705.14	39196.78
705.485	39122.21
705.83	38987.75
706.175	39130.57
706.52	39050.8
706.865	38863
707.209	38808.99
707.554	38673.18
707.899	38723.12
708.243	38468.21
708.588	38283.13
708.932	38146.86
709.277	38203.36
709.621	38237.94
709.966	37963.82
710.31	38011.05
710.654	37756.14
710.998	37711.62
711.342	37879.53
711.687	37666.42
712.031	37528.58
712.375	37467.33
712.719	37428.92
713.063	37413.55
713.407	37575.35
713.75	37240.9
714.094	37171.52
714.438	37074.8
714.782	37052.43
715.125	36875.71
715.469	37022.6
715.812	36770.63
716.156	36554.14
716.499	36524.31
716.843	36648.15
717.186	36326.8
717.53	36738.09
717.873	36738.77
718.216	36454.25
718.559	36462.39
718.902	36142.4
719.246	36296.29
719.589	36088.61
719.932	35983.31
720.275	35954.15
720.617	35827.6
720.96	35902.4
721.303	35821.95
721.646	35783.31
721.989	35573.15
722.331	35687.27
722.674	35593.94
723.016	35574.5
723.359	35471.45
723.701	35446.14
724.044	35355.75
724.386	35172.48
724.729	35398.01
725.071	35329.31
725.413	35226.94
725.755	35149.88
726.097	34967.74
726.439	34847.29
726.782	34821.53
727.124	34974.07
727.465	34676.22
727.807	34726.84
728.149	34638.93
728.491	34722.32
728.833	34681.42
729.175	34452.95
729.516	34413.86
729.858	34458.37
730.199	34487.75
730.541	34466.96
730.882	34298.6
731.224	34390.58
731.565	34212.96
731.906	34231.71
732.248	34191.49
732.589	33965.96
732.93	33893.19
733.271	33927.77
733.612	33920.99
733.953	33954.43
734.294	33753.08
734.635	33747.43
734.976	33784.27
735.317	33653.65
735.658	33652.75
735.999	33444.61
736.339	33573.65
736.68	33599.87
737.021	33509.47
737.361	33361.23
737.702	33382.24
738.042	33276.71
738.383	33320.55
738.723	33439.64
739.063	33118.75
739.404	33368.68
739.744	33082.82
740.084	32954.91
740.424	33121.01
740.764	32977.51
741.104	33085.08
741.444	32984.29
741.784	32774.58
742.124	32842.14
742.464	32721.7
742.804	32619.78
743.143	32505.66
743.483	32578.42
743.823	32427.24
744.162	32422.72
744.502	32481.25
744.841	32353.57
745.181	32423.4
745.52	32340.92
745.86	32380.24
746.199	32134.82
746.538	32200.58
746.877	32210.98
747.216	32164.42
747.556	32035.16
747.895	32118.1
748.234	32009.62
748.573	31973.92
748.911	31949.74
749.25	31837.43
749.589	31733.7
749.928	31739.35
750.267	31901.83
750.605	31730.54
750.944	31619.58
751.283	31563.53
751.621	31715.17
751.96	31441.5
752.298	31398.12
752.636	31425.01
752.975	31254.62
753.313	31165.35
753.651	31415.06
753.989	31003.32
754.327	31161.51
754.666	30843.78
755.004	31079.48
755.342	30981.63
755.679	30921.97
756.017	30769.66
756.355	30841.52
756.693	30537.12
757.031	30600.17
757.368	30529.21
757.706	30388.65
758.044	30237.02
758.381	30404.24
758.719	30268.43
759.056	30392.49
759.394	30166.51
759.731	29991.6
760.068	29917.93
760.405	29971.03
760.743	29845.16
761.08	29845.61
761.417	29592.06
761.754	29544.83
762.091	29502.12
762.428	29476.58
762.765	29265.29
763.102	29451.5
763.438	29172.41
763.775	29126.08
764.112	29040.89
764.449	29019.42
764.785	28935.81
765.122	28743.5
765.458	28727.68
765.795	28533.78
766.131	28643.39
766.467	28466.67
766.804	28265.99
767.14	28356.16
767.476	28122.72
767.812	27950.75
768.148	28095.15
768.485	27869.62
768.821	27713.47
769.157	27865.78
769.492	27678.44
769.828	27592.34
770.164	27414.27
770.5	27256.76
770.836	27257.66
771.171	27092.24
771.507	27109.64
771.842	26971.34
772.178	26923.2
772.513	26793.94
772.849	26786.03
773.184	26671.69
773.519	26593.5
773.855	26553.72
774.19	26351.24
774.525	26234.64
774.86	26125.49
775.195	26222.43
775.53	26116.67
775.865	25962.78
776.2	25763.46
776.535	25596.46
776.87	25618.38
777.205	25556.46
777.539	25490.93
777.874	25405.05
778.209	25377.26
778.543	25276.92
778.878	25020.66
779.212	25004.38
779.547	24900.66
779.881	24892.3
780.215	24737.5
780.55	24768.46
780.884	24661.34
781.218	24552.19
781.552	24465.87
781.886	24290.96
782.22	24195.37
782.554	24159.44
782.888	23889.16
783.222	23954.69
783.556	23918.31
783.889	23826.79
784.223	23556.97
784.557	23564.2
784.89	23586.12
785.224	23467.02
785.557	23314.03
785.891	23202.4
786.224	23029.3
786.558	23171.44
786.891	23050.09
787.224	22856.87
787.557	22848.06
787.891	22775.74
788.224	22710.43
788.557	22685.12
788.89	22639.7
789.223	22575.07
789.556	22408.29
789.888	22327.62
790.221	22264.34
790.554	22147.96
790.887	22046.27
791.219	22050.11
791.552	22037.01
791.884	21872.72
792.217	21897.12
792.549	21674.98
792.882	21661.65
793.214	21500.07
793.546	21588.88
793.879	21350.24
794.211	21246.97
794.543	21358.83
794.875	21338.04
795.207	21363.12
795.539	21092.4
795.871	21146.41
796.203	20919.75
796.535	20764.5
796.867	20809.69
797.198	20747.77
797.53	20733.76
797.862	20589.81
798.193	20681.79
798.525	20459.65
798.856	20570.6
799.188	20228.69
799.519	20220.33
799.85	20120.22
800.182	20183.95
800.513	20077.06
800.844	19927.46
801.175	20057.4
801.506	20024.4
801.837	19844.52
802.168	19855.37
802.499	19772.21
802.83	19653.11
803.161	19624.41
803.491	19622.15
803.822	19564.53
804.153	19466.68
804.483	19332.22
804.814	19284.54
805.145	19322.73
805.475	19273.69
805.805	19100.36
806.136	19179.45
806.466	19079.57
806.796	19098.55
807.126	18914.15
807.457	18950.53
807.787	18837.09
808.117	18799.8
808.447	18617.43
808.777	18877.54
809.107	18684.1
809.436	18540.6
809.766	18551.45
810.096	18524.1
810.426	18376.99
810.755	18359.81
811.085	18382.41
811.414	18256.77
811.744	18142.64
812.073	18159.37
812.403	18063.1
812.732	18073.04
813.061	18092.48
813.39	17934.97
813.719	17869.21
814.049	17932.25
814.378	17892.93
814.707	17776.55
815.036	17801.41
815.365	17670.57
815.693	17555.32
816.022	17618.36
816.351	17425.15
816.68	17443.68
817.008	17482.77
817.337	17295.89
817.665	17384.92
817.994	17389.44
818.322	17381.99
818.651	17290.46
818.979	17131.15
819.307	17189
819.636	17152.84
819.964	16962.79
820.292	16997.59
820.62	17110.81
820.948	17047.76
821.276	17119.39
821.604	16946.07
821.932	17039.17
822.259	17051.6
822.587	16956.91
822.915	16993.3
823.243	16974.99
823.57	16915.78
823.898	16923.02
824.225	16890.02
824.553	16845.73
824.88	16847.09
825.207	16930.47
825.535	16900.64
825.862	16905.84
826.189	16900.64
826.516	16951.04
826.843	17006.86
827.17	16890.7
827.497	16934.99
827.824	16853.86
828.151	16954.65
828.478	16918.72
828.805	16959.4
829.131	16791.95
829.458	16797.82
829.785	16804.6
830.111	16769.12
830.438	16975.67
830.764	16838.05
831.09	16876.24
831.417	16778.39
831.743	16803.7
832.069	16684.83
832.395	16772.28
832.722	16893.41
833.048	16659.07
833.374	16631.95
833.7	16652.06
834.026	16679.63
834.351	16660.88
834.677	16626.3
835.003	16689.58
835.329	16694.09
835.654	16617.49
835.98	16570.26
836.306	16531.61
836.631	16488
836.956	16507.89
837.282	16482.12
837.607	16404.39
837.932	16471.5
838.258	16427.66
838.583	16360.54
838.908	16273.54
839.233	16450.94
839.558	16293.65
839.883	16359.64
840.208	16257.72
840.533	16218.18
840.858	16231.06
841.182	16232.19
841.507	16079.2
841.832	16088.24
842.156	16109.48
842.481	16078.52
842.805	16063.15
843.13	15949.48
843.454	15902.7
843.778	15857.51
844.103	15758.3
844.427	15822.25
844.751	15779.54
845.075	15760.33
845.399	15648.7
845.723	15557.63
846.047	15608.25
846.371	15488.25
846.695	15497.52
847.019	15359.89
847.343	15372.1
847.666	15192.44
847.99	15152.44
848.313	15188.15
848.637	15017.3
848.96	15064.53
849.284	15123.97
849.607	14850.53
849.931	14900.7
850.254	14765.33
850.577	14702.51
850.9	14624.32
851.223	14542.97
851.546	14467.94
851.869	14395.85
852.192	14478.56
852.515	14324.67
852.838	14255.06
853.161	14290.54
853.483	14218.45
853.806	14107.72
854.129	14115.63
854.451	14029.98
854.774	14024.11
855.096	13958.57
855.419	13922.42
855.741	13921.29
856.063	13813.72
856.385	13792.7
856.708	13821.63
857.03	13731.91
857.352	13747.28
857.674	13657.34
857.996	13540.28
858.318	13496.21
858.64	13472.71
858.961	13496.89
859.283	13401.98
859.605	13413.5
859.926	13373.96
860.248	13281.53
860.57	13247.18
860.891	13305.94
861.212	13253.06
861.534	13260.74
861.855	13187.97
862.176	13189.55
862.498	13060.52
862.819	13175.54
863.14	13102.78
863.461	13008.99
863.782	12993.85
864.103	12959.73
864.424	13000.63
864.745	13002.89
865.065	12927.19
865.386	12820.3
865.707	12855.55
866.027	12801.99
866.348	12840.18
866.668	12851.71
866.989	12818.72
867.309	12672.05
867.63	12698.95
867.95	12743.46
868.27	12628.44
868.59	12630.7
868.91	12598.61
869.23	12620.08
869.55	12518.16
869.87	12603.81
870.19	12541.66
870.51	12571.04
870.83	12598.16
871.15	12472.29
871.469	12467.77
871.789	12491.95
872.109	12434.09
872.428	12341.89
872.748	12414.21
873.067	12358.62
873.386	12379.41
873.706	12296.02
874.025	12345.51
874.344	12260.09
874.663	12335.11
874.982	12209.24
875.301	12205.63
875.62	12203.14
875.939	12159.98
876.258	12134.67
876.577	12155.68
876.896	12078.62
877.214	12044.27
877.533	12016.48
877.852	12004.5
878.17	12018.06
878.489	12028
878.807	12016.93
879.125	11954.78
879.444	11911.4
879.762	11842.92
880.08	11826.2
880.398	11862.81
880.716	11911.85
881.034	11792.75
881.352	11826.2
881.67	11723.38
881.988	11757.73
882.306	11689.93
882.624	11698.29
882.941	11570.84
883.259	11630.5
883.577	11635.47
883.894	11637.28
884.212	11604.29
884.529	11631.86
884.846	11474.12
885.164	11465.98
885.481	11402.03
885.798	11507.79
886.115	11357.96
886.432	11334.46
886.75	11332.65
887.067	11290.4
887.383	11292.66
887.7	11300.34
888.017	11172.21
888.334	11226.89
888.651	11130.17
888.967	11129.95
889.284	11077.07
889.6	11097.41
889.917	11068.48
890.233	11060.8
890.55	10978.76
890.866	10988.26
891.182	10887.02
891.498	10926.34
891.815	10795.27
892.131	10832.78
892.447	10769.73
892.763	10764.31
893.079	10742.39
893.395	10619.68
893.71	10678.89
894.026	10601.15
894.342	10665.33
894.657	10513.01
894.973	10502.62
895.289	10523.41
895.604	10458.33
895.92	10441.6
896.235	10376.97
896.55	10390.08
896.865	10351.89
897.181	10277.77
897.496	10272.57
897.811	10205.23
898.126	10186.7
898.441	10170.2
898.756	10072.57
899.071	10106.92
899.386	10120.26
899.7	9970.66
900.015	9917.55
900.33	9956.42
900.644	9880.04
900.959	9909.64
901.273	9859.25
901.588	9764.33
901.902	9760.27
902.216	9633.72
902.531	9735.41
902.845	9624.22
903.159	9729.08
903.473	9633.26
903.787	9536.77
904.101	9499.26
904.415	9505.36
904.729	9469.88
905.042	9436.88
905.356	9374.97
905.67	9345.14
905.984	9322.99
906.297	9311.69
906.611	9245.25
906.924	9228.75
907.237	9199.15
907.551	9195.99
907.864	9122.32
908.177	9122.09
908.491	9112.6
908.804	9030.57
909.117	8969.33
909.43	8923.68
909.743	8831.02
910.056	8856.33
910.368	8774.53
910.681	8803.23
910.994	8728.2
911.307	8723.91
911.619	8633.06
911.932	8670.58
912.244	8623.8
912.557	8555.78
912.869	8550.35
913.181	8440.53
913.494	8496.57
913.806	8396.91
914.118	8443.69
914.43	8323.92
914.742	8350.36
915.054	8303.36
915.366	8303.36
915.678	8260.64
915.99	8186.07
916.302	8135
916.613	8105.39
916.925	8042.35
917.236	8105.62
917.548	8001.44
917.859	7998.73
918.171	7918.05
918.482	7903.82
918.794	7896.59
919.105	7915.57
919.416	7805.52
919.727	7764.84
920.038	7782.24
920.349	7762.13
920.66	7603.26
920.971	7700.21
921.282	7625.63
921.593	7588.12
921.903	7552.19
922.214	7511.96
922.525	7514.22
922.835	7452.76
923.146	7364.17
923.456	7403.04
923.767	7350.39
924.077	7333.21
924.387	7300.22
924.697	7209.6
925.008	7264.96
925.318	7175.02
925.628	7171.86
925.938	7152.65
926.248	7072.2
926.558	7071.3
926.867	7042.6
927.177	7012.32
927.487	6972.32
927.796	6938.42
928.106	6942.71
928.416	6898.65
928.725	6821.36
929.034	6809.16
929.344	6890.06
929.653	6820.68
929.962	6777.29
930.271	6723.96
930.581	6721.93
930.89	6668.14
931.199	6625.21
931.508	6544.31
931.817	6572.55
932.125	6521.03
932.434	6523.06
932.743	6493.23
933.051	6434.93
933.36	6380.69
933.669	6384.76
933.977	6349.06
934.286	6333.01
934.594	6319.68
934.902	6274.71
935.21	6201.49
935.519	6248.04
935.827	6178.67
936.135	6192.9
936.443	6135.73
936.751	6118.1
937.059	6112.68
937.367	6021.38
937.674	6100.93
937.982	6006.01
938.29	6001.72
938.597	5989.74
938.905	5954.49
939.213	5945.23
939.52	5901.61
939.827	5888.96
940.135	5844.44
940.442	5816.87
940.749	5833.14
941.056	5757.89
941.363	5744.1
941.67	5686.02
941.977	5689.86
942.284	5619.58
942.591	5620.04
942.898	5625.23
943.205	5585.23
943.511	5532.58
943.818	5634.95
944.125	5520.38
944.431	5517.21
944.738	5499.59
945.044	5456.42
945.35	5436.31
945.657	5383.43
945.963	5378.46
946.269	5351.79
946.575	5368.52
946.881	5282.19
947.187	5273.83
947.493	5266.15
947.799	5273.83
948.105	5287.16
948.41	5185.7
948.716	5202.42
949.022	5141.86
949.327	5175.53
949.633	5044.91
949.938	5062.08
950.244	5102.08
950.549	5002.65
950.854	4994.52
951.16	4993.39
951.465	4965.59
951.77	4959.26
952.075	4957.68
952.38	4920.17
952.685	4935.76
952.99	4855.08
953.294	4832.94
953.599	4839.72
953.904	4811.47
954.209	4784.35
954.513	4759.04
954.818	4731.02
955.122	4752.94
955.426	4695.54
955.731	4697.57
956.035	4644.69
956.339	4657.8
956.643	4636.56
956.948	4508.2
957.252	4575.54
957.556	4585.03
957.86	4526.73
958.163	4498.94
958.467	4514.75
958.771	4454.64
959.075	4494.64
959.378	4456
959.682	4444.25
959.985	4429.33
960.289	4374.42
960.592	4377.58
960.896	4355.44
961.199	4369.9
961.502	4338.49
961.805	4264.14
962.108	4252.39
962.411	4273.4
962.714	4204.48
963.017	4195.89
963.32	4222.78
963.623	4175.78
963.926	4135.56
964.228	4100.75
964.531	4140.53
964.833	4123.13
965.136	4091.04
965.438	4073.86
965.741	4026.41
966.043	4063.24
966.345	4040.64
966.648	4021.89
966.95	3966.29
967.252	3940.98
967.554	3917.03
967.856	3945.73
968.158	3881.32
968.46	3891.49
968.761	3869.8
969.063	3868.44
969.365	3869.8
969.666	3815.56
969.968	3808.78
970.269	3816.24
970.571	3758.39
970.872	3752.29
971.174	3755
971.475	3690.14
971.776	3706.87
972.077	3707.77
972.378	3695.79
972.679	3699.63
972.98	3647.21
973.281	3637.49
973.582	3598.85
973.883	3603.82
974.183	3579.19
974.484	3588.9
974.785	3555.68
975.085	3545.06
975.386	3570.15
975.686	3517.94
975.986	3491.5
976.287	3456.25
976.587	3432.3
976.887	3458.74
977.187	3442.47
977.487	3425.52
977.787	3378.74
978.087	3416.93
978.387	3357.95
978.687	3379.64
978.987	3343.94
979.286	3281.79
979.586	3314.79
979.885	3258.74
980.185	3281.79
980.484	3227.1
980.784	3271.4
981.083	3222.58
981.382	3230.95
981.682	3213.32
981.981	3192.53
982.28	3169.93
982.579	3151.4
982.878	3163.38
983.177	3125.64
983.475	3127.9
983.774	3108.46
984.073	3105.98
984.372	3096.94
984.67	3073.66
984.969	3038.86
985.267	3079.76
985.566	3038.86
985.864	3014.91
986.162	3021.23
986.461	2950.73
986.759	2962.7
987.057	2937.85
987.355	2933.33
987.653	2943.72
987.951	2912.76
988.249	2904.63
988.547	2907.34
988.844	2873.67
989.142	2865.98
989.44	2792.54
989.737	2830.28
990.035	2831.18
990.332	2805.65
990.63	2759.55
990.927	2755.93
991.224	2741.24
991.521	2769.94
991.819	2713.22
992.116	2750.28
992.413	2703.73
992.71	2673.22
993.006	2705.99
993.303	2677.29
993.6	2672.32
993.897	2684.52
994.193	2684.29
994.49	2600.45
994.787	2619.89
995.083	2601.36
995.379	2557.97
995.676	2579.21
995.972	2567.69
996.268	2536.05
996.565	2541.47
996.861	2546.9
997.157	2494.24
997.453	2511.87
997.749	2498.76
998.044	2463.28
998.34	2432.78
998.636	2450.63
998.932	2423.74
999.227	2408.82
999.523	2411.76
999.818	2412.89
1000.114	2382.83
1000.409	2394.36
1000.704	2349.16
1001	2371.99
1001.295	2315.04
1001.59	2341.48
1001.885	2315.94
1002.18	2291.54
1002.475	2294.93
1002.77	2250.63
1003.065	2263.74
1003.359	2258.09
1003.654	2235.72
1003.949	2199.56
1004.243	2219
1004.538	2204.08
1004.832	2205.21
1005.127	2198.2
1005.421	2166.12
1005.715	2148.26
1006.009	2125.66
1006.304	2130.18
1006.598	2115.5
1006.892	2125.89
1007.186	2081.82
1007.48	2075.95
1007.773	2059.9
1008.067	2072.78
1008.361	2019
1008.655	2026.23
1008.948	2022.16
1009.242	2027.81
1009.535	1996.18
1009.829	1963.63
1010.122	1977.87
1010.415	2007.25
1010.708	1976.74
1011.001	1944.43
1011.295	1930.64
1011.588	1909.17
1011.881	1939.91
1012.173	1879.34
1012.466	1900.36
1012.759	1861.49
1013.052	1861.94
1013.344	1870.53
1013.637	1842.28
1013.93	1823.07
1014.222	1824.2
1014.514	1803.86
1014.807	1792.11
1015.099	1798.22
1015.391	1797.09
1015.683	1776.07
1015.976	1742.17
1016.268	1761.61
1016.56	1715.96
1016.851	1680.25
1017.143	1688.16
1017.435	1687.71
1017.727	1710.53
1018.018	1690.2
1018.31	1657.88
1018.602	1673.92
1018.893	1640.03
1019.185	1637.32
1019.476	1618.33
1019.767	1618.11
1020.058	1616.98
1020.35	1621.27
1020.641	1564.1
1020.932	1576.98
1021.223	1565.45
1021.514	1545.11
1021.804	1532.23
1022.095	1550.09
1022.386	1530.88
1022.677	1502.63
1022.967	1527.26
1023.258	1459.02
1023.548	1499.47
1023.839	1481.84
1024.129	1449.07
1024.419	1448.85
1024.709	1440.94
1025	1440.48
1025.29	1409.3
1025.58	1417.21
1025.87	1398.45
1026.16	1399.58
1026.449	1356.42
1026.739	1337.66
1027.029	1362.07
1027.319	1376.53
1027.608	1348.51
1027.898	1340.6
1028.187	1332.46
1028.477	1336.53
1028.766	1312.8
1029.055	1306.02
1029.344	1287.04
1029.634	1275.97
1029.923	1289.53
1030.212	1274.84
1030.501	1277.78
1030.79	1252.92
1031.078	1223.77
1031.367	1246.59
1031.656	1231.9
1031.945	1241.85
1032.233	1199.14
1032.522	1189.42
1032.81	1201.62
1033.099	1196.2
1033.387	1166.59
1033.675	1178.12
1033.963	1154.39
1034.251	1178.12
1034.54	1163.2
1034.828	1159.14
1035.116	1126.59
1035.403	1125.69
1035.691	1092.7
1035.979	1111.68
1036.267	1105.35
1036.554	1086.6
1036.842	1098.8
1037.129	1063.55
1037.417	1082.98
1037.704	1073.49
1037.992	1059.7
1038.279	1046.82
1038.566	1042.76
1038.853	1042.76
1039.14	1042.76
