Data from hue_90_FLMS001491_29.txt Node
Date: Mon Feb 06 15:24:55 GMT 2017
User: dcchb
Spectrometer: FLMS00149
Trigger mode: 0
Integration Time (sec): 2.000000E-2
Scans to average: 10
Electric dark correction enabled: true
Nonlinearity correction enabled: false
Boxcar width: 0
XAxis mode: Wavelengths
Number of Pixels in Spectrum: 2048
>>>>>Begin Spectral Data<<<<<
341.393	-21.43
341.776	-21.43
342.16	-21.43
342.543	-46.06
342.927	-85.15
343.31	-68.66
343.693	-49.67
344.077	-66.4
344.46	-54.19
344.843	-36.11
345.226	-36.34
345.61	-39.96
345.993	-8.77
346.376	-29.79
346.759	10.21
347.142	29.87
347.525	24.45
347.908	44.56
348.291	72.58
348.674	88.85
349.057	119.36
349.44	115.75
349.823	155.29
350.206	187.83
350.588	173.82
350.971	219.7
351.354	222.64
351.737	236.87
352.119	277.78
352.502	264.44
352.884	282.29
353.267	276.87
353.65	262.63
354.032	292.92
354.414	315.97
354.797	321.84
355.179	333.82
355.562	346.7
355.944	344.67
356.326	328.85
356.709	339.02
357.091	347.6
357.473	355.29
357.855	331.79
358.238	339.69
358.62	354.84
359.002	342.18
359.384	341.73
359.766	364.55
360.148	331.79
360.53	336.76
360.912	322.75
361.294	350.77
361.676	344.21
362.057	330.2
362.439	328.62
362.821	350.77
363.203	331.11
363.584	333.14
363.966	320.71
364.348	333.14
364.729	332.01
365.111	330.2
365.493	320.03
365.874	313.71
366.256	312.58
366.637	334.95
367.019	318.9
367.4	322.97
367.781	317.32
368.163	317.77
368.544	341.05
368.925	320.26
369.306	324.1
369.688	322.07
370.069	332.24
370.45	303.31
370.831	324.78
371.212	312.35
371.593	303.09
371.974	318.45
372.355	333.59
372.736	325.46
373.117	316.42
373.498	318.9
373.879	318.9
374.26	309.19
374.641	332.01
375.021	338.34
375.402	329.53
375.783	346.93
376.163	339.69
376.544	343.54
376.925	334.72
377.305	338.11
377.686	348.28
378.066	344.21
378.447	309.19
378.827	331.56
379.208	322.07
379.588	316.19
379.968	337.66
380.349	332.46
380.729	343.76
381.109	350.32
381.489	343.08
381.87	356.19
382.25	332.69
382.63	343.76
383.01	351.45
383.39	350.54
383.77	340.15
384.15	356.87
384.53	377.66
384.91	361.39
385.29	371.78
385.67	384.21
386.049	358
386.429	359.58
386.809	378.11
387.189	378.56
387.568	363.2
387.948	364.33
388.328	348.96
388.707	368.62
389.087	349.64
389.466	388.51
389.846	360.26
390.225	384.67
390.605	386.25
390.984	382.86
391.363	387.38
391.743	380.15
392.122	384.44
392.501	367.72
392.881	371.78
393.26	403.87
393.639	388.96
394.018	371.56
394.397	388.73
394.776	373.14
395.155	391.9
395.534	382.41
395.913	396.19
396.292	386.92
396.671	379.24
397.05	405.68
397.429	414.49
397.808	407.72
398.186	390.09
398.565	389.18
398.944	371.78
399.323	401.61
399.701	411.56
400.08	399.13
400.458	418.56
400.837	408.62
401.215	402.74
401.594	405.68
401.972	434.61
402.351	434.83
402.729	422.18
403.107	420.14
403.486	434.61
403.864	435.96
404.242	439.13
404.62	425.57
404.999	415.17
405.377	443.65
405.755	430.99
406.133	440.93
406.511	441.16
406.889	456.75
407.267	467.37
407.645	441.16
408.023	435.29
408.401	462.4
408.779	462.4
409.156	460.14
409.534	475.28
409.912	467.83
410.29	489.07
410.667	481.16
411.045	474.15
411.422	499.69
411.8	494.04
412.178	483.65
412.555	469.86
412.933	486.13
413.31	502.4
413.687	506.02
414.065	497.88
414.442	491.55
414.819	519.35
415.197	519.58
415.574	496.75
415.951	532.68
416.328	541.95
416.705	534.04
417.082	541.72
417.46	519.58
417.837	522.97
418.214	519.58
418.591	542.18
418.967	529.97
419.344	557.99
419.721	537.88
420.098	522.51
420.475	535.85
420.852	548.95
421.228	578.56
421.605	561.38
421.982	577.43
422.358	586.47
422.735	564.32
423.111	587.6
423.488	579.69
423.864	599.8
424.241	596.64
424.617	588.95
424.994	600.25
425.37	600.03
425.746	596.64
426.123	594.83
426.499	625.79
426.875	633.92
427.251	621.49
427.627	617.2
428.003	619.69
428.379	635.05
428.756	631.66
429.132	635.96
429.507	683.19
429.883	654.49
430.259	652
430.635	674.83
431.011	672.12
431.387	697.43
431.763	681.83
432.138	692.45
432.514	698.56
432.89	708.72
433.265	726.58
433.641	735.39
434.016	733.81
434.392	732.9
434.767	729.29
435.143	735.39
435.518	731.55
435.894	766.35
436.269	742.17
436.644	782.17
437.02	776.29
437.395	790.3
437.77	792.79
438.145	788.27
438.52	810.42
438.895	795.5
439.271	801.15
439.646	792.79
440.021	866.01
440.395	833.69
440.77	851.55
441.145	842.51
441.52	854.26
441.895	867.82
442.27	869.17
442.645	846.35
443.019	863.75
443.394	884.09
443.769	857.19
444.143	872.56
444.518	910.98
444.892	876.63
445.267	912.79
445.641	891.77
446.016	925.22
446.39	919.34
446.764	924.31
447.139	912.79
447.513	924.31
447.887	934.93
448.262	940.81
448.636	963.86
449.01	973.35
449.384	975.16
449.758	966.8
450.132	986.46
450.506	992.78
450.88	976.74
451.254	996.4
451.628	1023.97
452.002	1024.87
452.376	1010.64
452.75	1048.6
453.123	1051.09
453.497	1072.33
453.871	1056.74
454.244	1088.83
454.618	1084.31
454.992	1111.2
455.365	1086.57
455.739	1137.87
456.112	1143.52
456.486	1138.32
456.859	1167.92
457.232	1154.14
457.606	1188.03
457.979	1188.26
458.352	1221.03
458.725	1226
459.099	1240.91
459.472	1273.46
459.845	1256.28
460.218	1293.57
460.591	1318.88
460.964	1301.7
461.337	1332.66
461.71	1364.53
462.083	1353.91
462.456	1405.66
462.829	1382.6
463.201	1385.77
463.574	1413.56
463.947	1425.99
464.32	1473.45
464.692	1489.27
465.065	1512.77
465.438	1486.56
465.81	1525.2
466.183	1533.34
466.555	1605.65
466.928	1607.46
467.3	1618.98
467.672	1661.69
468.045	1672.54
468.417	1708.47
468.789	1722.03
469.161	1739.21
469.534	1791.18
469.906	1797.74
470.278	1835.93
470.65	1863.5
471.022	1909.37
471.394	1939.43
471.766	1962.48
472.138	2001.12
472.51	2064.39
472.882	2071.4
473.253	2117.27
473.625	2142.13
473.997	2203.37
474.369	2217.39
474.74	2252.19
475.112	2333.77
475.484	2375.12
475.855	2456.7
476.227	2452.63
476.598	2559.75
476.97	2622.8
477.341	2683.81
477.713	2731.95
478.084	2785.51
478.455	2877.03
478.827	2919.06
479.198	3027.08
479.569	3032.96
479.94	3173.97
480.311	3250.8
480.682	3344.59
481.053	3419.84
481.424	3524.7
481.795	3545.94
482.166	3653.05
482.537	3715.2
482.908	3814.18
483.279	3959.26
483.65	4048.98
484.021	4176.66
484.391	4248.74
484.762	4332.58
485.133	4406.25
485.503	4498
485.874	4684.44
486.244	4788.84
486.615	4874.04
486.985	4998.56
487.356	5152
487.726	5247.59
488.097	5398.54
488.467	5493.46
488.837	5613
489.207	5744.75
489.578	5921.47
489.948	5984.52
490.318	6143.84
490.688	6227.68
491.058	6395.81
491.428	6487.1
491.798	6615.91
492.168	6844.38
492.538	6891.16
492.908	7055.22
493.278	7204.6
493.648	7280.75
494.017	7414.54
494.387	7526.17
494.757	7684.59
495.126	7757.8
495.496	7908.99
495.866	8004.35
496.235	8146.95
496.605	8185.14
496.974	8354.17
497.344	8482.31
497.713	8619.7
498.082	8772.92
498.452	8857.44
498.821	8929.07
499.19	9026.02
499.559	9117.54
499.928	9188.73
500.298	9330.42
500.667	9456.29
501.036	9456.29
501.405	9636.63
501.774	9663.29
502.143	9790.29
502.512	9866.9
502.88	10004.3
503.249	10037.74
503.618	10103.51
503.987	10165.2
504.356	10256.72
504.724	10403.16
505.093	10402.25
505.462	10506.21
505.83	10559.76
506.199	10686.77
506.567	10856.93
506.936	10822.81
507.304	10950.04
507.672	11038.4
508.041	11113.42
508.409	11193.42
508.777	11214.21
509.145	11368.56
509.514	11378.27
509.882	11367.65
510.25	11410.59
510.618	11529.68
510.986	11554.09
511.354	11703.24
511.722	11788.66
512.09	11844.93
512.458	11908.88
512.826	12006.28
513.193	12053.51
513.561	12027.97
513.929	12118.14
514.297	12222.55
514.664	12220.96
515.032	12259.38
515.4	12320.62
515.767	12325.59
516.135	12394.07
516.502	12298.93
516.869	12491.69
517.237	12530.79
517.604	12441.98
517.972	12599.03
518.339	12717.67
518.706	12709.54
519.073	12729.65
519.44	12759.03
519.808	12889.87
520.175	12908.63
520.542	12999.25
520.909	13049.19
521.276	13034.73
521.643	13107.04
522.009	13064.11
522.376	13157.89
522.743	13214.38
523.11	13256.19
523.477	13326.02
523.843	13385.45
524.21	13471.55
524.577	13448.05
524.943	13522.85
525.31	13562.17
525.676	13620.02
526.043	13684.2
526.409	13702.73
526.776	13759
527.142	13674.94
527.508	13791.77
527.874	13905.89
528.241	13852.11
528.607	13873.12
528.973	13903.86
529.339	13858.89
529.705	13950.86
530.071	13912.22
530.437	14043.51
530.803	14000.58
531.169	14078.09
531.535	14003.52
531.901	14050.75
532.267	14062.95
532.632	14104.76
532.998	13994.48
533.364	14031.76
533.73	14070.63
534.095	14092.55
534.461	14056.85
534.826	14162.83
535.192	14138.88
535.557	14126
535.923	14082.61
536.288	14090.29
536.653	14112.44
537.019	14028.6
537.384	14117.86
537.749	14035.61
538.114	14051.2
538.479	14020.01
538.845	13944.31
539.21	13908.15
539.575	13914.7
539.94	13961.48
540.305	14003.29
540.67	13815.05
541.034	13904.31
541.399	13859.34
541.764	13827.02
542.129	13875.61
542.494	13838.77
542.858	13896.85
543.223	13771.43
543.587	13800.13
543.952	13714.94
544.316	13707.7
544.681	13730.98
545.045	13688.27
545.41	13722.39
545.774	13670.42
546.138	13678.55
546.503	13719
546.867	13649.63
547.231	13703.18
547.595	13641.49
547.959	13558.33
548.324	13516.98
548.688	13604.2
549.052	13541.83
549.416	13526.47
549.779	13393.59
550.143	13456.41
550.507	13451.89
550.871	13424.77
551.235	13406.24
551.599	13540.48
551.962	13478.56
552.326	13388.39
552.689	13403.76
553.053	13331.44
553.417	13339.35
553.78	13407.37
554.143	13400.37
554.507	13429.29
554.87	13366.24
555.234	13399.01
555.597	13246.7
555.96	13279.92
556.323	13269.07
556.686	13235.85
557.05	13269.3
557.413	13287.6
557.776	13246.93
558.139	13338.67
558.502	13333.25
558.865	13213.48
559.228	13368.96
559.59	13323.76
559.953	13353.14
560.316	13403.98
560.679	13502.06
561.041	13428.84
561.404	13412.12
561.767	13487.37
562.129	13402.63
562.492	13464.77
562.854	13416.41
563.217	13414.15
563.579	13461.61
563.941	13495.96
564.304	13573.92
564.666	13577.76
565.028	13527.82
565.39	13599.91
565.753	13569.4
566.115	13613.7
566.477	13616.18
566.839	13601.72
567.201	13632.45
567.563	13665.9
567.925	13726.46
568.287	13713.13
568.648	13642.62
569.01	13726.69
569.372	13694.82
569.734	13702.28
570.095	13847.14
570.457	13890.3
570.819	13878.77
571.18	13865.89
571.542	13897.3
571.903	13941.14
572.265	13929.62
572.626	13941.14
572.987	13978.43
573.349	14009.17
573.71	13901.6
574.071	13961.03
574.432	14052.33
574.794	14080.58
575.155	14118.54
575.516	13933.46
575.877	14094.36
576.238	14068.37
576.599	14070.18
576.96	14068.37
577.32	14081.03
577.681	14223.62
578.042	14149.73
578.403	14184.08
578.763	14139.78
579.124	14145.21
579.485	14184.53
579.845	14248.93
580.206	14149.05
580.566	14118.77
580.927	14196.28
581.287	14247.13
581.648	14219.78
582.008	14213
582.368	14213.91
582.728	14210.97
583.089	14175.94
583.449	14135.94
583.809	14148.82
584.169	14196.51
584.529	14096.85
584.889	14141.14
585.249	14170.29
585.609	14112.67
585.969	14144.08
586.329	14025.21
586.688	14131.2
587.048	14129.61
587.408	14128.71
587.768	14136.17
588.127	14117.64
588.487	14102.27
588.846	14068.82
589.206	14005.78
589.565	14008.26
589.925	14096.62
590.284	14055.72
590.643	14039
591.003	14081.25
591.362	14053.91
591.721	14047.58
592.08	13942.27
592.44	14035.38
592.799	13999
593.158	14074.47
593.517	14030.18
593.876	13984.76
594.235	13937.08
594.593	13971.43
594.952	13983.63
595.311	13933.01
595.67	14004.87
596.029	14015.04
596.387	13965.78
596.746	13978.66
597.104	13966.68
597.463	13966
597.822	13996.51
598.18	13963.07
598.538	13965.55
598.897	13909.96
599.255	13939.79
599.613	14008.94
599.972	13950.86
600.33	14012.1
600.688	13929.62
601.046	13905.67
601.404	14022.72
601.762	13989.28
602.12	13962.39
602.478	13967.36
602.836	14011.43
603.194	13943.4
603.552	13951.99
603.91	13893.46
604.268	14004.65
604.625	13923.07
604.983	14044.19
605.341	13899.79
605.698	13956.29
606.056	14034.7
606.413	13962.84
606.771	14056.17
607.128	14029.5
607.485	13977.3
607.843	13974.36
608.2	14018.43
608.557	14046.68
608.914	14007.58
609.272	14065.66
609.629	14093.01
609.986	14226.56
610.343	13985.66
610.7	14210.52
611.057	14168.48
611.414	14075.83
611.771	14099.33
612.127	14245.54
612.484	14162.16
612.841	14280.34
613.198	14182.95
613.554	14109.05
613.911	14207.35
614.267	14214.81
614.624	14219.56
614.98	14210.74
615.337	14305.43
615.693	14287.8
616.05	14239.67
616.406	14237.41
616.762	14239.67
617.118	14346.33
617.475	14327.8
617.831	14325.54
618.187	14367.35
618.543	14321.25
618.899	14356.73
619.255	14417.29
619.611	14315.37
619.967	14428.14
620.323	14455.48
620.678	14384.3
621.034	14387.46
621.39	14435.82
621.746	14365.77
622.101	14438.53
622.457	14356.28
622.812	14506.78
623.168	14414.13
623.523	14355.15
623.879	14426.1
624.234	14384.3
624.589	14424.07
624.945	14474.46
625.3	14420.23
625.655	14454.13
626.01	14411.87
626.365	14452.09
626.72	14476.72
627.075	14420
627.43	14438.76
627.785	14408.93
628.14	14468.36
628.495	14491.41
628.85	14361.92
629.205	14303.4
629.559	14449.15
629.914	14358.31
630.269	14347.46
630.623	14406.67
630.978	14368.7
631.332	14480.11
631.687	14335.94
632.041	14299.55
632.396	14324.19
632.75	14241.25
633.104	14250.06
633.459	14271.76
633.813	14166
634.167	14146.56
634.521	14193.79
634.875	14196.96
635.229	14202.61
635.583	14113.8
635.937	14078.09
636.291	14023.63
636.645	14025.66
636.999	14020.69
637.352	14133
637.706	14052.78
638.06	14069.28
638.413	13974.59
638.767	13970.52
639.121	13947.7
639.474	13920.13
639.828	13858.44
640.181	13906.34
640.534	13813.46
640.888	13911.09
641.241	13764.88
641.594	13864.99
641.947	13922.61
642.301	13864.54
642.654	13797.65
643.007	13817.76
643.36	13803.75
643.713	13819.57
644.066	13883.29
644.419	13754.48
644.771	13725.56
645.124	13527.6
645.477	13522.62
645.83	13530.53
646.182	13395.85
646.535	13453.47
646.888	13358.11
647.24	13407.15
647.593	13451.21
647.945	13331.22
648.298	13346.36
648.65	13288.28
649.002	13301.16
649.355	13315.17
649.707	13314.49
650.059	13359.24
650.411	13563.75
650.763	13514.49
651.115	13606.01
651.467	13614.15
651.819	13530.76
652.171	13554.26
652.523	13661.38
652.875	13567.37
653.227	13570.08
653.578	13619.12
653.93	13580.25
654.282	13548.39
654.633	13507.03
654.985	13520.82
655.337	13547.48
655.688	13558.56
656.039	13620.48
656.391	13487.6
656.742	13534.15
657.094	13578.22
657.445	13541.61
657.796	13556.75
658.147	13562.4
658.498	13557.2
658.849	13531.21
659.2	13547.71
659.551	13477.88
659.902	13554.49
660.253	13532.79
660.604	13483.76
660.955	13523.98
661.306	13554.49
661.656	13434.27
662.007	13652.34
662.358	13575.5
662.708	13575.73
663.059	13504.09
663.409	13434.04
663.76	13588.84
664.11	13524.21
664.461	13623.41
664.811	13647.14
665.161	13562.62
665.511	13535.73
665.862	13577.31
666.212	13667.48
666.562	13620.48
666.912	13640.36
667.262	13678.33
667.612	13584.77
667.962	13636.52
668.312	13630.19
668.662	13618.22
669.011	13621.15
669.361	13535.05
669.711	13480.14
670.06	13509.29
670.41	13593.58
670.76	13563.75
671.109	13603.07
671.459	13504.09
671.808	13450.08
672.157	13491.44
672.507	13449.41
672.856	13479.69
673.205	13452.57
673.554	13479.91
673.904	13429.97
674.253	13515.62
674.602	13389.07
674.951	13280.37
675.3	13165.57
675.649	13367.37
675.998	13440.14
676.346	13444.43
676.695	13417.77
677.044	13358.79
677.393	13392.23
677.741	13417.54
678.09	13251.22
678.438	13308.39
678.787	13358.79
679.135	13316.98
679.484	13171.67
679.832	13246.47
680.181	13166.93
680.529	13122.41
680.877	13180.94
681.225	13081.73
681.573	13249.64
681.922	13087.16
682.27	13076.53
682.618	13057.1
682.966	13026.59
683.314	13048.96
683.661	12994.05
684.009	12850.55
684.357	12879.25
684.705	12845.58
685.053	12846.71
685.4	12855.3
685.748	12866.82
686.095	12821.85
686.443	12776.88
686.79	12777.11
687.138	12776.66
687.485	12749.54
687.832	12634.51
688.18	12756.54
688.527	12631.35
688.874	12608.98
689.221	12542.09
689.568	12531.24
689.915	12539.37
690.262	12449.21
690.609	12470.45
690.956	12356.1
691.303	12340.96
691.65	12299.38
691.997	12273.17
692.344	12172.38
692.69	12218.48
693.037	12118.82
693.383	12052.83
693.73	12116.56
694.077	12007.41
694.423	12022.33
694.769	11991.37
695.116	11926.06
695.462	11884.93
695.808	11821.2
696.155	11825.27
696.501	11763.8
696.847	11769.68
697.193	11656.23
697.539	11692.16
697.885	11541.43
698.231	11543.69
698.577	11625.5
698.923	11520.19
699.269	11410.82
699.614	11378.27
699.96	11310.71
700.306	11283.59
700.651	11292.4
700.997	11290.59
701.342	11246.75
701.688	11219.18
702.033	11047.89
702.379	11112.74
702.724	11094.67
703.069	11127.66
703.415	11043.82
703.76	11000.21
704.105	10898.51
704.45	10987.1
704.795	10863.71
705.14	10875.69
705.485	10832.53
705.83	10789.14
706.175	10747.78
706.52	10714.11
706.865	10724.51
707.209	10662.13
707.554	10632.53
707.899	10659.65
708.243	10611.97
708.588	10535.36
708.932	10507.79
709.277	10470.05
709.621	10425.3
709.966	10394.8
710.31	10388.02
710.654	10339.66
710.998	10306.66
711.342	10243.61
711.687	10337.62
712.031	10261.92
712.375	10218.3
712.719	10251.52
713.063	10129.72
713.407	10202.49
713.75	10172.66
714.094	10225.08
714.438	10099.44
714.782	10205.42
715.125	10108.25
715.469	10065.77
715.812	10087.69
716.156	10009.95
716.499	10002.72
716.843	10009.5
717.186	9946
717.53	9990.06
717.873	9942.38
718.216	10035.94
718.559	9914.13
718.902	9880.01
719.246	9882.72
719.589	9861.25
719.932	9766.79
720.275	9817.64
720.617	9808.6
720.96	9835.49
721.303	9804.98
721.646	9819.67
721.989	9720.69
722.331	9742.16
722.674	9781.93
723.016	9753.91
723.359	9666.23
723.701	9700.58
724.044	9680.69
724.386	9637.53
724.729	9614.7
725.071	9715.72
725.413	9588.94
725.755	9609.96
726.097	9575.61
726.439	9544.42
726.782	9525.44
727.124	9646.12
727.465	9541.94
727.807	9562.05
728.149	9538.32
728.491	9558.89
728.833	9585.55
729.175	9560.02
729.516	9511.88
729.858	9473.92
730.199	9482.73
730.541	9536.97
730.882	9486.57
731.224	9556.63
731.565	9501.94
731.906	9469.62
732.248	9451.32
732.589	9452.9
732.93	9434.82
733.271	9430.75
733.612	9463.07
733.953	9447.93
734.294	9454.48
734.635	9383.52
734.976	9407.7
735.317	9369.97
735.658	9433.92
735.999	9397.31
736.339	9419.68
736.68	9463.07
737.021	9448.16
737.361	9368.61
737.702	9394.82
738.042	9459.68
738.383	9407.03
738.723	9488.61
739.063	9414.94
739.404	9447.03
739.744	9482.05
740.084	9397.31
740.424	9441.38
740.764	9483.18
741.104	9522.5
741.444	9465.33
741.784	9526.12
742.124	9551.2
742.464	9515.95
742.804	9492.45
743.143	9522.96
743.483	9581.49
743.823	9534.93
744.162	9574.93
744.502	9651.77
744.841	9593.69
745.181	9664.2
745.52	9641.37
745.86	9701.71
746.199	9768.37
746.538	9791.2
746.877	9796.39
747.216	9854.7
747.556	9857.64
747.895	9889.05
748.234	9896.73
748.573	9957.07
748.911	9964.75
749.25	10085.88
749.589	10084.75
749.928	10147.8
750.267	10188.7
750.605	10245.65
750.944	10318.19
751.283	10400.45
751.621	10412.65
751.96	10531.29
752.298	10593.89
752.636	10736.94
752.975	10764.73
753.313	10789.14
753.651	10939.42
753.989	10977.83
754.327	11018.51
754.666	11188.67
755.004	11246.07
755.342	11444.04
755.679	11455.79
756.017	11535.33
756.355	11746.17
756.693	11724.93
757.031	11905.27
757.368	12020.74
757.706	12095.09
758.044	12160.4
758.381	12435.65
758.719	12505.93
759.056	12557.45
759.394	12774.4
759.731	12857.78
760.068	12909.08
760.405	13058.68
760.743	13238.34
761.08	13413.7
761.417	13454.15
761.754	13653.92
762.091	13728.04
762.428	13816.18
762.765	13984.31
763.102	14115.6
763.438	14211.87
763.775	14316.95
764.112	14560.56
764.449	14709.26
764.785	14724.63
765.122	14808.47
765.458	15039.19
765.795	15207.55
766.131	15228.79
766.467	15419.75
766.804	15398.06
767.14	15511.05
767.476	15712.4
767.812	15880.08
768.148	15917.59
768.485	15918.72
768.821	16089.79
769.157	16227.86
769.492	16282.1
769.828	16348.77
770.164	16374.53
770.5	16478.71
770.836	16660.85
771.171	16534.07
771.507	16728.19
771.842	16763.9
772.178	16931.35
772.513	16909.88
772.849	16946.26
773.184	17018.35
773.519	17153.26
773.855	17193.04
774.19	17160.27
774.525	17308.97
774.86	17245.24
775.195	17328.4
775.53	17326.59
775.865	17359.59
776.2	17409.08
776.535	17336.08
776.87	17485.46
777.205	17414.05
777.539	17480.71
777.874	17576.76
778.209	17539.92
778.543	17602.07
778.878	17439.36
779.212	17609.3
779.547	17458.79
779.881	17674.38
780.215	17509.19
780.55	17605.91
780.884	17532.69
781.218	17604.33
781.552	17664.44
781.886	17503.31
782.22	17538.11
782.554	17488.62
782.888	17381.51
783.222	17488.17
783.556	17303.99
783.889	17441.62
784.223	17374.5
784.557	17344.9
784.89	17424.44
785.224	17368.4
785.557	17308.97
785.891	17343.77
786.224	17325.46
786.558	17369.08
786.891	17132.02
787.224	17201.62
787.557	17208.63
787.891	17170.21
788.224	17156.65
788.557	17145.35
788.89	17114.17
789.223	17056.54
789.556	17018.35
789.888	17065.13
790.221	16929.77
790.554	16918.47
790.887	16863.33
791.219	16881.63
791.552	16782.43
791.884	16699.72
792.217	16666.95
792.549	16743.56
792.882	16598.93
793.214	16530.68
793.546	16637.12
793.879	16511.92
794.211	16417.24
794.543	16491.59
794.875	16485.71
795.207	16590.79
795.539	16359.84
795.871	16374.98
796.203	16208.66
796.535	16234.19
796.867	16242.55
797.198	16217.02
797.53	16134.76
797.862	16150.35
798.193	16071.94
798.525	16016.8
798.856	16059.96
799.188	15866.97
799.519	15833.98
799.85	15745.39
800.182	15813.64
800.513	15829.23
800.844	15673.3
801.175	15792.17
801.506	15735.45
801.837	15637.82
802.168	15560.99
802.499	15615.68
802.83	15462.23
803.161	15407.77
803.491	15464.49
803.822	15382.01
804.153	15395.12
804.483	15331.16
804.814	15236.93
805.145	15233.77
805.475	15274.89
805.805	15245.07
806.136	15160.55
806.466	15259.3
806.796	15160.32
807.126	15000.55
807.457	14981.12
807.787	15096.14
808.117	14899.54
808.447	14922.14
808.777	14933.44
809.107	14901.8
809.436	14899.99
809.766	14812.53
810.096	14834.45
810.426	14729.82
810.755	14730.95
811.085	14693.44
811.414	14652.54
811.744	14512.43
812.073	14575.7
812.403	14498.42
812.732	14463.39
813.061	14475.37
813.39	14421.58
813.719	14400.57
814.049	14450.74
814.378	14339.78
814.707	14339.1
815.036	14361.02
815.365	14276.73
815.693	14176.84
816.022	14160.8
816.351	14135.04
816.68	14009.39
817.008	14119.45
817.337	14042.39
817.665	13978.88
817.994	14053.91
818.322	13956.96
818.651	13967.36
818.979	13935.95
819.307	13993.35
819.636	13914.03
819.964	13832
820.292	13911.77
820.62	13890.07
820.948	13785.22
821.276	13889.39
821.604	13810.98
821.932	13762.62
822.259	13831.09
822.587	13759.68
822.915	13726.01
823.243	13836.74
823.57	13746.57
823.898	13803.07
824.225	13718.55
824.553	13784.76
824.88	13793.13
825.207	13794.71
825.535	13768.95
825.862	13754.26
826.189	13752.68
826.516	13783.18
826.843	13825.44
827.17	13855.27
827.497	13742.96
827.824	13778.44
828.151	13846.46
828.478	13822.5
828.805	13902.28
829.131	13682.62
829.458	13691.21
829.785	13696.86
830.111	13702.05
830.438	13829.28
830.764	13754.03
831.09	13844.65
831.417	13725.33
831.743	13784.54
832.069	13742.28
832.395	13634.03
832.722	13783.41
833.048	13743.18
833.374	13748.61
833.7	13731.66
834.026	13622.74
834.351	13712.9
834.677	13696.63
835.003	13686.24
835.329	13650.3
835.654	13691.66
835.98	13538.44
836.306	13677.42
836.631	13508.84
836.956	13624.99
837.282	13568.27
837.607	13589.74
837.932	13502.96
838.258	13488.95
838.583	13472
838.908	13428.39
839.233	13366.02
839.558	13390.2
839.883	13446.47
840.208	13293.48
840.533	13314.04
840.858	13272.01
841.182	13296.42
841.507	13249.64
841.832	13212.8
842.156	13169.87
842.481	13168.96
842.805	13193.59
843.13	13119.47
843.454	13067.04
843.778	13075.4
844.103	12980.49
844.427	12998.12
844.751	12979.36
845.075	13003.77
845.399	12957.44
845.723	12801.06
846.047	12851.91
846.371	12698.69
846.695	12825.69
847.019	12682.87
847.343	12648.75
847.666	12549.32
847.99	12601.52
848.313	12510.9
848.637	12415.08
848.96	12387.74
849.284	12383.67
849.607	12260.96
849.931	12244.69
850.254	12142.55
850.577	12063
850.9	12010.12
851.223	12005.6
851.546	11939.62
851.869	11943.23
852.192	11875.89
852.515	11902.78
852.838	11755.21
853.161	11810.13
853.483	11791.37
853.806	11632.28
854.129	11593.18
854.451	11600.19
854.774	11537.37
855.096	11568.78
855.419	11482.9
855.741	11408.78
856.063	11367.65
856.385	11374.21
856.708	11332.4
857.03	11308.67
857.352	11280.2
857.674	11266.86
857.996	11151.61
858.318	11150.71
858.64	11098.73
858.961	11097.83
859.283	11104.16
859.605	10995.46
859.926	10994.33
860.248	11036.14
860.57	10946.2
860.891	11051.73
861.212	10926.53
861.534	10797.27
861.855	10803.15
862.176	10910.26
862.498	10891.96
862.819	10864.84
863.14	10777.84
863.461	10822.36
863.782	10765.64
864.103	10764.05
864.424	10654.9
864.745	10747.1
865.065	10703.49
865.386	10636.15
865.707	10533.32
866.027	10594.79
866.348	10558.18
866.668	10593.21
866.989	10585.75
867.309	10404.29
867.63	10529.26
867.95	10495.36
868.27	10390.73
868.59	10491.52
868.91	10444.29
869.23	10404.06
869.55	10415.14
869.87	10351.86
870.19	10360.67
870.51	10352.54
870.83	10339.21
871.15	10268.7
871.469	10309.83
871.789	10374.68
872.109	10285.2
872.428	10163.84
872.748	10254.01
873.067	10258.76
873.386	10280
873.706	10219.43
874.025	10103.05
874.344	10079.33
874.663	10247
874.982	10143.28
875.301	10124.75
875.62	10094.24
875.939	10061.92
876.258	10049.5
876.577	10022.15
876.896	9975.83
877.214	9984.19
877.533	10035.03
877.852	9912.78
878.17	9963.62
878.489	9986.22
878.807	9985.77
879.125	9883.17
879.444	9904.19
879.762	9867.58
880.08	9860.12
880.398	9803.85
880.716	9853.79
881.034	9777.86
881.352	9786.23
881.67	9732.89
881.988	9765.44
882.306	9767.92
882.624	9721.14
882.941	9669.62
883.259	9650.86
883.577	9614.7
883.894	9630.07
884.212	9564.54
884.529	9550.53
884.846	9536.06
885.164	9518.89
885.481	9530.87
885.798	9491.77
886.115	9374.03
886.432	9452.9
886.75	9339.46
887.067	9411.55
887.383	9382.17
887.7	9288.84
888.017	9276.86
888.334	9266.01
888.651	9235.05
888.967	9236.41
889.284	9227.82
889.6	9205
889.917	9121.84
890.233	9153.47
890.55	9080.93
890.866	9134.27
891.182	9067.6
891.498	9018.34
891.815	9012.01
892.131	8984.44
892.447	8957.55
892.763	8902.63
893.079	8894.27
893.395	8835.97
893.71	8772.92
894.026	8793.26
894.342	8808.85
894.657	8731.79
894.973	8724.11
895.289	8701.96
895.604	8718.23
895.92	8646.59
896.235	8592.81
896.55	8606.37
896.865	8562.98
897.181	8527.73
897.496	8508.29
897.811	8541.74
898.126	8449.31
898.441	8447.28
898.756	8391.69
899.071	8345.36
899.386	8370.44
899.7	8250.45
900.015	8217.68
900.33	8208.41
900.644	8134.29
900.959	8206.38
901.273	8176.78
901.588	8132.48
901.902	8048.87
902.216	8030.11
902.531	8042.99
902.845	7957.8
903.159	7963.22
903.473	7959.16
903.787	7877.58
904.101	7820.63
904.415	7892.94
904.729	7828.31
905.042	7739.5
905.356	7737.01
905.67	7706.28
905.984	7676.9
906.297	7723.46
906.611	7662.67
906.924	7598.94
907.237	7537.92
907.551	7518.71
907.864	7517.81
908.177	7529.56
908.491	7454.08
908.804	7372.5
909.117	7341.32
909.43	7356.46
909.743	7356.23
910.056	7336.12
910.368	7252.73
910.681	7177.71
910.994	7222.9
911.307	7188.55
911.619	7114.66
911.932	7085.96
912.244	7092.96
912.557	7083.47
912.869	7027.2
913.181	7031.5
913.494	6996.02
913.806	6939.97
914.118	6965.73
914.43	6843.25
914.742	6888.45
915.054	6832.86
915.366	6790.6
915.678	6810.26
915.99	6811.16
916.302	6704.27
916.613	6739.53
916.925	6712.18
917.236	6649.36
917.548	6633.77
917.859	6635.8
918.171	6605.74
918.482	6552.64
918.794	6523.94
919.105	6445.52
919.416	6473.32
919.727	6497.72
920.038	6432.64
920.349	6392.19
920.66	6369.37
920.971	6402.13
921.282	6361.23
921.593	6279.43
921.903	6317.39
922.214	6226.32
922.525	6220.67
922.835	6190.39
923.146	6168.24
923.456	6176.15
923.767	6137.51
924.077	6111.97
924.387	6057.06
924.697	6082.37
925.008	6009.38
925.318	6007.12
925.628	6003.95
925.938	5973.22
926.248	5959.66
926.558	5922.37
926.867	5862.04
927.177	5844.41
927.487	5836.5
927.796	5788.82
928.106	5784.75
928.416	5699.1
928.725	5745.88
929.034	5729.16
929.344	5703.62
929.653	5646.67
929.962	5668.59
930.271	5631.08
930.581	5605.54
930.89	5602.61
931.199	5523.96
931.508	5474.47
931.817	5504.3
932.125	5449.84
932.434	5479.67
932.743	5401.71
933.051	5353.8
933.36	5420.92
933.669	5338.89
933.977	5320.35
934.286	5338.43
934.594	5323.97
934.902	5259.79
935.21	5210.98
935.519	5253.46
935.827	5277.87
936.135	5201.04
936.443	5160.58
936.751	5128.27
937.059	5162.84
937.367	5098.89
937.674	5143.64
937.982	5060.93
938.29	5068.16
938.597	5049.85
938.905	4980.48
939.213	4965.79
939.52	4950.65
939.827	4967.6
940.135	4952
940.442	4852.12
940.749	4863.87
941.056	4915.17
941.363	4834.49
941.67	4824.1
941.977	4782.06
942.284	4777.09
942.591	4693.93
942.898	4694.38
943.205	4695.06
943.511	4697.09
943.818	4667.04
944.125	4657.1
944.431	4603.09
944.738	4608.28
945.044	4590.88
945.35	4570.77
945.657	4495.52
945.963	4533.26
946.269	4476.76
946.575	4450.09
946.881	4489.87
947.187	4399.25
947.493	4401.73
947.799	4446.93
948.105	4382.53
948.41	4399.25
948.716	4352.02
949.022	4324.22
949.327	4365.8
949.633	4252.36
949.938	4278.35
950.244	4273.15
950.549	4262.08
950.854	4223.89
951.16	4207.62
951.465	4196.77
951.77	4169.42
952.075	4183.44
952.38	4112.93
952.685	4115.64
952.99	4129.43
953.294	4099.37
953.599	4077.9
953.904	4065.02
954.209	4060.73
954.513	4042.2
954.818	4022.76
955.122	3972.37
955.426	4002.87
955.731	3980.73
956.035	3926.49
956.339	3939.37
956.643	3909.54
956.948	3897.12
957.252	3860.73
957.556	3884.69
957.86	3827.96
958.163	3832.71
958.467	3821.86
958.771	3803.33
959.075	3834.52
959.378	3770.11
959.682	3761.3
959.985	3722.2
960.289	3695.76
960.592	3668.19
960.896	3688.53
961.199	3675.65
961.502	3668.19
961.805	3641.98
962.108	3629.1
962.411	3613.73
962.714	3566.05
963.017	3592.72
963.32	3621.64
963.623	3579.84
963.926	3527.86
964.228	3522.44
964.531	3492.61
964.833	3505.71
965.136	3501.65
965.438	3430.01
965.741	3425.26
966.043	3421.42
966.345	3397.24
966.648	3380.29
966.95	3372.16
967.252	3335.77
967.554	3376.68
967.856	3313.85
968.158	3282.44
968.46	3319.96
968.761	3291.03
969.063	3276.79
969.365	3274.31
969.666	3234.31
969.968	3204.03
970.269	3202.67
970.571	3236.57
970.872	3190.92
971.174	3188.43
971.475	3157.7
971.776	3164.03
972.077	3138.49
972.378	3109.79
972.679	3106.4
972.98	3122.67
973.281	3106.4
973.582	3094.88
973.883	3047.87
974.183	3046.97
974.484	3061.88
974.785	2997.7
975.085	3028.66
975.386	3025.5
975.686	2990.25
975.986	2964.71
976.287	2954.54
976.587	2918.16
976.887	2926.97
977.187	2946.63
977.487	2882
977.787	2909.34
978.087	2865.96
978.387	2853.3
978.687	2814.88
978.987	2820.08
979.286	2796.35
979.586	2811.49
979.885	2810.36
980.185	2777.82
980.484	2762.46
980.784	2738.95
981.083	2752.74
981.382	2767.2
981.682	2737.15
981.981	2711.84
982.28	2721.33
982.579	2657.6
982.878	2689.01
983.177	2669.35
983.475	2646.3
983.774	2667.54
984.073	2610.82
984.372	2608.11
984.67	2620.99
984.969	2603.36
985.267	2604.04
985.566	2613.76
985.864	2593.19
986.162	2559.07
986.461	2517.94
986.759	2519.52
987.057	2516.13
987.355	2512.74
987.653	2482.69
987.951	2481.33
988.249	2490.6
988.547	2487.21
988.844	2462.8
989.142	2440.88
989.44	2426.19
989.737	2416.93
990.035	2423.71
990.332	2377.83
990.63	2384.61
990.927	2359.75
991.224	2364.5
991.521	2326.31
991.819	2322.47
992.116	2309.36
992.413	2310.94
992.71	2301.45
993.006	2285.86
993.303	2300.77
993.6	2275.91
993.897	2283.37
994.193	2264.84
994.49	2230.72
994.787	2241.11
995.083	2244.28
995.379	2205.86
995.676	2195.46
995.972	2199.53
996.268	2196.14
996.565	2171.96
996.861	2147.56
997.157	2149.59
997.453	2155.01
997.749	2128.35
998.044	2091.51
998.34	2091.74
998.636	2129.93
998.932	2087.9
999.227	2083.6
999.523	2078.86
999.818	2068.24
1000.114	2055.13
1000.409	2022.59
1000.704	2040.67
1001	2028.24
1001.295	1999.54
1001.59	2009.93
1001.885	1982.59
1002.18	1970.84
1002.475	1961.35
1002.77	1969.71
1003.065	1969.03
1003.359	1951.4
1003.654	1920.67
1003.949	1901.01
1004.243	1906.43
1004.538	1896.04
1004.832	1910.27
1005.127	1862.59
1005.421	1887.68
1005.715	1879.09
1006.009	1854.23
1006.304	1833.21
1006.598	1817.62
1006.892	1835.02
1007.186	1790.96
1007.48	1808.36
1007.773	1754.35
1008.067	1771.52
1008.361	1745.76
1008.655	1742.82
1008.948	1734.69
1009.242	1732.88
1009.535	1730.84
1009.829	1719.55
1010.122	1703.05
1010.415	1689.49
1010.708	1670.05
1011.001	1675.48
1011.295	1646.1
1011.588	1663.05
1011.881	1661.92
1012.173	1619.21
1012.466	1628.93
1012.759	1624.41
1013.052	1610.62
1013.344	1623.95
1013.637	1597.29
1013.93	1574.69
1014.222	1574.69
1014.514	1562.26
1014.807	1542.15
1015.099	1560.23
1015.391	1543.96
1015.683	1520.45
1015.976	1520.91
1016.268	1520.91
1016.56	1490.85
1016.851	1501.92
1017.143	1485.2
1017.435	1482.26
1017.727	1467.35
1018.018	1453.11
1018.31	1427.12
1018.602	1438.65
1018.893	1426.45
1019.185	1422.15
1019.476	1392.77
1019.767	1395.94
1020.058	1378.76
1020.35	1385.32
1020.641	1382.83
1020.932	1342.38
1021.223	1346.22
1021.514	1348.93
1021.804	1366.33
1022.095	1347.58
1022.386	1352.55
1022.677	1310.52
1022.967	1294.02
1023.258	1308.26
1023.548	1282.95
1023.839	1242.72
1024.129	1295.83
1024.419	1266.22
1024.709	1233.23
1025	1262.83
1025.29	1267.58
1025.58	1221.93
1025.87	1249.73
1026.16	1227.13
1026.449	1250.86
1026.739	1203.17
1027.029	1193.01
1027.319	1185.55
1027.608	1180.58
1027.898	1164.53
1028.187	1187.58
1028.477	1157.3
1028.766	1150.97
1029.055	1115.04
1029.344	1141.71
1029.634	1137.87
1029.923	1123.85
1030.212	1097.41
1030.501	1109.62
1030.79	1108.94
1031.078	1079.11
1031.367	1083.18
1031.656	1082.73
1031.945	1061.94
1032.233	1077.75
1032.522	1068.94
1032.81	1048.38
1033.099	1067.81
1033.387	1024.2
1033.675	1030.98
1033.963	1038.43
1034.251	1020.35
1034.54	1007.93
1034.828	993.46
1035.116	990.07
1035.403	986.68
1035.691	980.81
1035.979	973.35
1036.267	996.17
1036.554	976.97
1036.842	961.82
1037.129	953.01
1037.417	950.53
1037.704	940.58
1037.992	932.22
1038.279	954.37
1038.566	916.85
1038.853	916.85
1039.14	916.85
