Data from hue_100_FLMS001491_00088.txt Node
Date: Tue Feb 07 17:03:47 GMT 2017
User: dcchb
Spectrometer: FLMS00149
Trigger mode: 0
Integration Time (sec): 2.000000E-2
Scans to average: 10
Electric dark correction enabled: true
Nonlinearity correction enabled: false
Boxcar width: 0
XAxis mode: Wavelengths
Number of Pixels in Spectrum: 2048
>>>>>Begin Spectral Data<<<<<
341.393	-6.91
341.776	-6.91
342.16	-6.91
342.543	-62.27
342.927	-71.31
343.31	-86.23
343.693	-57.3
344.077	-72.67
344.46	-54.81
344.843	-47.81
345.226	-52.33
345.61	-21.82
345.993	-26.34
346.376	8.23
346.759	22.92
347.142	30.83
347.525	45.75
347.908	51.62
348.291	59.31
348.674	70.38
349.057	130.26
349.44	127.55
349.823	134.11
350.206	154.67
350.588	188.12
350.971	198.06
351.354	238.74
351.737	241.22
352.119	251.17
352.502	270.15
352.884	299.75
353.267	287.77
353.65	305.85
354.032	296.81
354.414	320.99
354.797	307.21
355.179	329.36
355.562	319.19
355.944	350.15
356.326	314.21
356.709	319.41
357.091	344.5
357.473	341.11
357.855	350.6
358.238	371.84
358.62	356.93
359.002	325.29
359.384	352.63
359.766	322.58
360.148	361.22
360.53	342.69
360.912	321.45
361.294	341.33
361.676	323.93
362.057	330.26
362.439	327.32
362.821	307.89
363.203	341.56
363.584	332.07
363.966	325.74
364.348	353.31
364.729	325.06
365.111	330.94
365.493	321.9
365.874	320.09
366.256	310.37
366.637	323.71
367.019	320.32
367.4	304.95
367.781	315.12
368.163	308.57
368.544	320.99
368.925	302.69
369.306	330.03
369.688	313.08
370.069	318.28
370.45	317.38
370.831	324.38
371.212	339.07
371.593	295.46
371.974	302.46
372.355	317.38
372.736	311.28
373.117	301.56
373.498	339.52
373.879	330.94
374.26	317.6
374.641	311.96
375.021	322.12
375.402	339.98
375.783	320.77
376.163	318.96
376.544	337.94
376.925	322.8
377.305	326.42
377.686	344.95
378.066	320.99
378.447	347.21
378.827	344.72
379.208	347.43
379.588	348.34
379.968	349.02
380.349	345.85
380.729	341.11
381.109	318.96
381.489	336.59
381.87	356.93
382.25	367.09
382.63	347.21
383.01	356.93
383.39	352.63
383.77	371.61
384.15	335.01
384.53	369.13
384.91	351.28
385.29	350.82
385.67	358.96
386.049	369.35
386.429	377.72
386.809	374.1
387.189	370.71
387.568	366.19
387.948	389.24
388.328	381.56
388.707	386.53
389.087	366.42
389.466	376.59
389.846	355.34
390.225	386.3
390.605	372.97
390.984	386.98
391.363	376.36
391.743	370.94
392.122	391.28
392.501	372.52
392.881	394.21
393.26	380.43
393.639	415.23
394.018	386.98
394.397	386.3
394.776	385.17
395.155	396.02
395.534	404.38
395.913	412.74
396.292	419.52
396.671	413.87
397.05	420.65
397.429	413.65
397.808	417.94
398.186	395.34
398.565	417.94
398.944	417.94
399.323	418.84
399.701	408
400.08	405.51
400.458	424.49
400.837	448.9
401.215	422.69
401.594	417.04
401.972	432.18
402.351	425.62
402.729	412.97
403.107	444.38
403.486	431.95
403.864	444.15
404.242	438.73
404.62	451.39
404.999	464.04
405.377	451.61
405.755	464.49
406.133	461.78
406.511	449.13
406.889	447.54
407.267	446.41
407.645	471.72
408.023	455.91
408.401	484.15
408.779	458.84
409.156	489.58
409.534	469.47
409.912	483.7
410.29	493.42
410.667	495
411.045	501.1
411.422	513.31
411.8	500.65
412.178	505.17
412.555	534.77
412.933	504.27
413.31	527.32
413.687	524.83
414.065	533.64
414.442	521.44
414.819	555.56
415.197	533.87
415.574	530.93
415.951	555.34
416.328	555.56
416.705	539.29
417.082	550.59
417.46	559.63
417.837	561.89
418.214	574.32
418.591	552.4
418.967	598.95
419.344	577.71
419.721	577.94
420.098	613.87
420.475	574.77
420.852	589.01
421.228	601.44
421.605	602.34
421.982	620.87
422.358	590.59
422.735	623.59
423.111	605.51
423.488	612.96
423.864	622.23
424.241	640.08
424.617	623.59
424.994	657.26
425.37	667.65
425.746	649.35
426.123	647.99
426.499	672.62
426.875	635.79
427.251	676.01
427.627	698.39
428.003	682.57
428.379	712.62
428.756	694.32
429.132	690.25
429.507	715.56
429.883	726.18
430.259	711.94
430.635	715.33
431.011	737.48
431.387	761.43
431.763	725.96
432.138	770.93
432.514	787.42
432.89	773.41
433.265	767.08
433.641	781.77
434.016	767.31
434.392	798.72
434.767	808.89
435.143	805.73
435.518	802.11
435.894	815.67
436.269	805.95
436.644	856.8
437.02	818.83
437.395	859.51
437.77	857.03
438.145	849.34
438.52	880.75
438.895	877.36
439.271	882.56
439.646	885.05
440.021	876.01
440.395	909.23
440.77	891.37
441.145	907.42
441.52	930.7
441.895	927.53
442.27	931.6
442.645	939.06
443.019	948.1
443.394	951.71
443.769	963.24
444.143	944.93
444.518	968.21
444.892	954.42
445.267	977.47
445.641	981.32
446.016	1013.86
446.39	1022.44
446.764	994.65
447.139	1018.6
447.513	1018.38
447.887	1017.47
448.262	1014.54
448.636	1015.44
449.01	1021.31
449.384	1048.21
449.758	1067.19
450.132	1040.75
450.506	1065.83
450.88	1074.42
451.254	1064.03
451.628	1090.69
452.002	1103.35
452.376	1136.11
452.75	1101.54
453.123	1106.96
453.497	1158.26
453.871	1184.93
454.244	1195.1
454.618	1182.89
454.992	1224.47
455.365	1183.8
455.739	1242.78
456.112	1270.57
456.486	1248.65
456.859	1252.04
457.232	1272.38
457.606	1287.75
457.979	1300.4
458.352	1344.02
458.725	1343.11
459.099	1348.99
459.472	1393.96
459.845	1373.4
460.218	1431.7
460.591	1427.41
460.964	1399.16
461.337	1476.44
461.71	1491.81
462.083	1513.73
462.456	1511.7
462.829	1507.4
463.201	1545.82
463.574	1578.14
463.947	1599.6
464.32	1616.1
464.692	1650.68
465.065	1647.06
465.438	1692.48
465.81	1714.4
466.183	1701.07
466.555	1755.08
466.928	1808.41
467.3	1768.64
467.672	1824.68
468.045	1887.28
468.417	1899.03
468.789	1916.66
469.161	1925.7
469.534	1977.22
469.906	2018.12
470.278	2054.28
470.65	2079.37
471.022	2089.08
471.394	2158.46
471.766	2177.89
472.138	2232.58
472.51	2269.42
472.882	2348.96
473.253	2375.4
473.625	2429.19
473.997	2470.77
474.369	2545.12
474.74	2581.73
475.112	2639.35
475.484	2689.75
475.855	2774.94
476.227	2827.6
476.598	2866.46
476.97	2923.41
477.341	3039.79
477.713	3056.52
478.084	3119.11
478.455	3261.93
478.827	3310.52
479.198	3441.14
479.569	3472.55
479.94	3586.67
480.311	3648.82
480.682	3787.57
481.053	3930.39
481.424	4012.42
481.795	4047.45
482.166	4133.78
482.537	4273.88
482.908	4392.75
483.279	4519.53
483.65	4636.14
484.021	4771.05
484.391	4920.65
484.762	4965.17
485.133	5077.03
485.503	5222.56
485.874	5316.12
486.244	5499.84
486.615	5603.57
486.985	5723.11
487.356	5910.9
487.726	6058.47
488.097	6240.16
488.467	6267.96
488.837	6490.1
489.207	6647.61
489.578	6795.85
489.948	6950.65
490.318	7060.48
490.688	7148.84
491.058	7353.8
491.428	7526.68
491.798	7634.7
492.168	7944.07
492.538	7978.19
492.908	8138.42
493.278	8379.77
493.648	8414.11
494.017	8624.96
494.387	8734.78
494.757	8885.51
495.126	9014.1
495.496	9069.24
495.866	9243.7
496.235	9427.42
496.605	9609.56
496.974	9732.5
497.344	9818.15
497.713	9993.28
498.082	10143.79
498.452	10280.05
498.821	10347.17
499.19	10435.76
499.559	10579.26
499.928	10714.17
500.298	10884.56
500.667	10955.07
501.036	11053.82
501.405	11177.88
501.774	11249.97
502.143	11336.3
502.512	11508.04
502.88	11534.48
503.249	11604.54
503.618	11771.77
503.987	11846.57
504.356	11930.63
504.724	12026
505.093	12138.08
505.462	12211.76
505.83	12310.06
506.199	12421.69
506.567	12639.54
506.936	12577.62
507.304	12749.37
507.672	12808.12
508.041	12886.77
508.409	13014.67
508.777	13136.02
509.145	13214.21
509.514	13239.3
509.882	13311.84
510.25	13468.9
510.618	13420.76
510.986	13472.29
511.354	13625.05
511.722	13711.38
512.09	13749.34
512.458	13784.14
512.826	13951.37
513.193	13999.96
513.561	14030.69
513.929	14141.2
514.297	14173.74
514.664	14258.26
515.032	14278.82
515.4	14394.97
515.767	14446.95
516.135	14475.88
516.502	14387.74
516.869	14603.56
517.237	14664.12
517.604	14536.89
517.972	14696.44
518.339	14818.69
518.706	14721.07
519.073	14826.6
519.44	14849.88
519.808	15012.81
520.175	14959.93
520.542	15115.41
520.909	15161.51
521.276	15207.38
521.643	15270.21
522.009	15266.82
522.376	15409.86
522.743	15407.6
523.11	15521.95
523.477	15519.69
523.843	15604.21
524.21	15708.39
524.577	15740.93
524.943	15743.87
525.31	15789.97
525.676	15904.09
526.043	15959.45
526.409	16002.62
526.776	16106.79
527.142	16031.54
527.508	16166.23
527.874	16095.49
528.241	16208.26
528.607	16169.17
528.973	16267.47
529.339	16071.09
529.705	16294.81
530.071	16339.78
530.437	16367.8
530.803	16272.44
531.169	16356.73
531.535	16375.49
531.901	16399.89
532.267	16391.08
532.632	16368.03
532.998	16378.2
533.364	16470.17
533.73	16383.17
534.095	16494.81
534.461	16406
534.826	16457.97
535.192	16457.52
535.557	16527.8
535.923	16387.24
536.288	16455.49
536.653	16399.22
537.019	16359.89
537.384	16364.41
537.749	16258.43
538.114	16385.43
538.479	16336.84
538.845	16343.62
539.21	16148.37
539.575	16249.39
539.94	16252.1
540.305	16244.42
540.67	16187.7
541.034	16209.62
541.399	16152.22
541.764	16160.13
542.129	16159.45
542.494	16210.52
542.858	16136.62
543.223	16068.83
543.587	16051.65
543.952	15972.11
544.316	16058.89
544.681	15914.71
545.045	16031.32
545.41	15983.86
545.774	15956.74
546.138	15928.27
546.503	15894.6
546.867	15794.94
547.231	15916.52
547.595	15818.89
547.959	15785.9
548.324	15894.37
548.688	15700.93
549.052	15733.7
549.416	15704.32
549.779	15730.53
550.143	15677.65
550.507	15732.34
550.871	15599.01
551.235	15505.23
551.599	15681.95
551.962	15577.32
552.326	15521.72
552.689	15622.96
553.053	15439.92
553.417	15474.72
553.78	15562.4
554.143	15539.35
554.507	15392.24
554.87	15560.14
555.234	15575.96
555.597	15332.13
555.96	15389.75
556.323	15440.37
556.686	15409.19
557.05	15384.1
557.413	15436.08
557.776	15377.77
558.139	15468.84
558.502	15360.82
558.865	15423.2
559.228	15529.63
559.59	15543.64
559.953	15438.56
560.316	15608.73
560.679	15474.49
561.041	15489.18
561.404	15578.67
561.767	15608.95
562.129	15482.86
562.492	15555.4
562.854	15490.99
563.217	15457.55
563.579	15515.85
563.941	15575.06
564.304	15636.07
564.666	15719.91
565.028	15681.95
565.39	15661.16
565.753	15630.87
566.115	15677.88
566.477	15743.41
566.839	15783.19
567.201	15805.78
567.563	15738.89
567.925	15894.14
568.287	15820.93
568.648	15791.1
569.01	15918.55
569.372	15943.18
569.734	15933.24
570.095	15970.98
570.457	16011.43
570.819	16013.92
571.18	15943.86
571.542	16043.07
571.903	16054.14
572.265	16051.43
572.626	16129.39
572.987	16111.31
573.349	16168.26
573.71	16196.96
574.071	16088.94
574.432	16193.35
574.794	16243.51
575.155	16164.42
575.516	16113.35
575.877	16227.47
576.238	16240.58
576.599	16251.42
576.96	16149.05
577.32	16245.55
577.681	16402.83
578.042	16373.68
578.403	16365.09
578.763	16347.69
579.124	16304.98
579.485	16388.14
579.845	16390.4
580.206	16340.69
580.566	16378.2
580.927	16336.39
581.287	16326.45
581.648	16347.24
582.008	16370.74
582.368	16325.09
582.728	16320.35
583.089	16280.57
583.449	16330.29
583.809	16296.17
584.169	16311.08
584.529	16195.83
584.889	16294.36
585.249	16247.13
585.609	16237.19
585.969	16361.02
586.329	16227.02
586.688	16284.19
587.048	16252.55
587.408	16267.02
587.768	16239.22
588.127	16094.82
588.487	16170.75
588.846	16302.04
589.206	16116.74
589.565	16096.4
589.925	16171.65
590.284	16155.83
590.643	16175.94
591.003	16177.75
591.362	16286.22
591.721	16196.28
592.08	16142.05
592.44	16125.78
592.799	16134.14
593.158	16091.43
593.517	16151.99
593.876	16110.86
594.235	16069.73
594.593	16055.95
594.952	16107.92
595.311	16059.79
595.67	16060.24
596.029	16196.96
596.387	16139.56
596.746	16113.8
597.104	16106.34
597.463	16077.42
597.822	16142.05
598.18	15993.35
598.538	16021.6
598.897	16155.61
599.255	15907.03
599.613	16095.27
599.972	16029.28
600.33	16146.79
600.688	15974.82
601.046	16071.77
601.404	16099.34
601.762	16040.36
602.12	16128.71
602.478	16133.91
602.836	16168.26
603.194	15958.32
603.552	16100.92
603.91	15997.64
604.268	16093.24
604.625	16076.51
604.983	16102.27
605.341	16006.46
605.698	16105.89
606.056	16088.49
606.413	15993.35
606.771	16161.26
607.128	16151.31
607.485	16053.24
607.843	16001.94
608.2	16112.67
608.557	16173.23
608.914	16150.86
609.272	16227.24
609.629	16298.65
609.986	16299.11
610.343	16182.27
610.7	16324.42
611.057	16202.38
611.414	16235.83
611.771	16211.65
612.127	16323.74
612.484	16241.25
612.841	16370.74
613.198	16263.4
613.554	16296.85
613.911	16449.84
614.267	16394.47
614.624	16310.18
614.98	16370.97
615.337	16462.94
615.693	16405.09
616.05	16404.64
616.406	16443.96
616.762	16332.32
617.118	16501.36
617.475	16445.32
617.831	16553.11
618.187	16571.87
618.543	16420.23
618.899	16503.39
619.255	16603.5
619.611	16448.93
619.967	16596.27
620.323	16557.18
620.678	16589.72
621.034	16587.69
621.39	16531.87
621.746	16591.53
622.101	16623.62
622.457	16489.61
622.812	16505.43
623.168	16624.29
623.523	16626.78
623.879	16672.65
624.234	16495.71
624.589	16573.45
624.945	16622.71
625.3	16630.4
625.655	16636.95
626.01	16594.69
626.365	16580.91
626.72	16513.34
627.075	16581.58
627.43	16608.48
627.785	16561.92
628.14	16551.98
628.495	16535.71
628.85	16558.08
629.205	16482.6
629.559	16615.93
629.914	16512.66
630.269	16459.33
630.623	16490.51
630.978	16479.67
631.332	16437.18
631.687	16538.2
632.041	16460.23
632.396	16487.57
632.75	16413.68
633.104	16455.03
633.459	16389.27
633.813	16313.12
634.167	16321.93
634.521	16362.61
634.875	16362.38
635.229	16247.13
635.583	16170.07
635.937	16227.02
636.291	16225.43
636.645	16010.98
636.999	16147.47
637.352	16137.08
637.706	16081.94
638.06	16217.98
638.413	16164.19
638.767	16151.31
639.121	16108.38
639.474	15973.46
639.828	16059.56
640.181	16019.56
640.534	16107.7
640.888	16059.79
641.241	15972.56
641.594	15971.66
641.947	15952.67
642.301	15950.64
642.654	15985.89
643.007	15961.71
643.36	15932.11
643.713	15848.72
644.066	16029.73
644.419	15814.15
644.771	15729.18
645.124	15667.03
645.477	15555.62
645.83	15490.54
646.182	15421.39
646.535	15340.26
646.888	15344.78
647.24	15265.91
647.593	15381.16
647.945	15356.53
648.298	15295.74
648.65	15347.49
649.002	15261.84
649.355	15301.17
649.707	15334.16
650.059	15463.65
650.411	15721.27
650.763	15626.13
651.115	15716.97
651.467	15674.26
651.819	15718.56
652.171	15644.66
652.523	15561.72
652.875	15588.84
653.227	15552.01
653.578	15746.8
653.93	15711.32
654.282	15554.04
654.633	15495.74
654.985	15679.01
655.337	15653.02
655.688	15645.56
656.039	15778.89
656.391	15540.48
656.742	15668.84
657.094	15651.89
657.445	15723.53
657.796	15676.97
658.147	15601.04
658.498	15616.19
658.849	15685.56
659.2	15688.05
659.551	15621.84
659.902	15727.37
660.253	15643.3
660.604	15657.31
660.955	15630.65
661.306	15690.08
661.656	15733.24
662.007	15653.02
662.358	15672.46
662.708	15720.36
663.059	15611.67
663.409	15627.26
663.76	15683.98
664.11	15666.35
664.461	15751.1
664.811	15687.14
665.161	15751.32
665.511	15594.04
665.862	15639.91
666.212	15651.21
666.562	15683.08
666.912	15742.51
667.262	15685.11
667.612	15705
667.962	15634.72
668.312	15709.97
668.662	15776.18
669.011	15743.41
669.361	15636.98
669.711	15691.44
670.06	15650.99
670.41	15511.56
670.76	15613.7
671.109	15626.58
671.459	15631.78
671.808	15551.55
672.157	15623.42
672.507	15570.08
672.856	15519.46
673.205	15626.35
673.554	15608.28
673.904	15547.26
674.253	15560.14
674.602	15571.89
674.951	15311.11
675.3	15270.21
675.649	15480.82
675.998	15425.91
676.346	15398.11
676.695	15515.62
677.044	15375.97
677.393	15393.59
677.741	15544.55
678.09	15333.48
678.438	15363.99
678.787	15485.12
679.135	15410.54
679.484	15178
679.832	15282.63
680.181	15292.35
680.529	15289.87
680.877	15205.57
681.225	15206.48
681.573	15254.84
681.922	15255.29
682.27	15096.65
682.618	15159.93
682.966	15135.97
683.314	15104.79
683.661	15033.15
684.009	15000.61
684.357	14982.08
684.705	14921.74
685.053	14936.43
685.4	14884.91
685.748	14776.89
686.095	14809.2
686.443	14749.09
686.79	14622.99
687.138	14731.91
687.485	14783.21
687.832	14578.25
688.18	14634.74
688.527	14499.15
688.874	14515.65
689.221	14453.05
689.568	14498.47
689.915	14393.17
690.262	14414.41
690.609	14379.61
690.956	14312.26
691.303	14250.12
691.65	14165.15
691.997	14130.35
692.344	14015.55
692.69	14075.43
693.037	14069.11
693.383	13999.28
693.73	13995.66
694.077	13806.74
694.423	13819.4
694.769	13880.19
695.116	13779.62
695.462	13805.16
695.808	13641.55
696.155	13716.35
696.501	13662.56
696.847	13598.16
697.193	13546.41
697.539	13565.62
697.885	13500.31
698.231	13452.63
698.577	13448.11
698.923	13387.77
699.269	13278.39
699.614	13221.9
699.96	13178.74
700.306	13152.3
700.651	13052.41
700.997	12956.82
701.342	12924.96
701.688	12928.12
702.033	12912.98
702.379	12816.03
702.724	12867.33
703.069	12840.44
703.415	12714.57
703.76	12696.04
704.105	12655.13
704.45	12647.22
704.795	12481.35
705.14	12522.26
705.485	12517.74
705.83	12441.81
706.175	12434.35
706.52	12409.49
706.865	12388.47
707.209	12329.72
707.554	12249.72
707.899	12335.37
708.243	12207.46
708.588	12155.94
708.932	12041.14
709.277	12090.4
709.621	12015.83
709.966	12010.4
710.31	11977.64
710.654	11872.33
710.998	11927.47
711.342	11962.95
711.687	11883.85
712.031	11787.13
712.375	11701.26
712.719	11784.87
713.063	11798.21
713.407	11792.78
713.75	11711.88
714.094	11672.56
714.438	11652.9
714.782	11694.25
715.125	11615.16
715.469	11660.36
715.812	11649.51
716.156	11494.49
716.499	11492.9
716.843	11498.33
717.186	11477.54
717.53	11493.36
717.873	11492.23
718.216	11393.25
718.559	11407.26
718.902	11274.83
719.246	11326.81
719.589	11337.2
719.932	11226.24
720.275	11329.29
720.617	11327.71
720.96	11277.09
721.303	11248.62
721.646	11236.64
721.989	11168.62
722.331	11299.01
722.674	11197.32
723.016	11213.36
723.359	11169.75
723.701	11179.69
724.044	11125.23
724.386	11164.55
724.729	11148.28
725.071	11190.99
725.413	11073.71
725.755	11165.46
726.097	10943.54
726.439	11004.33
726.782	11053.59
727.124	11087.49
727.465	10994.16
727.807	11042.52
728.149	10952.81
728.491	10997.32
728.833	11018.57
729.175	10945.8
729.516	10895.41
729.858	10959.36
730.199	10924.33
730.541	10900.38
730.882	10928.4
731.224	10932.01
731.565	10945.12
731.906	10962.97
732.248	10891.11
732.589	10916.42
732.93	10860.15
733.271	10913.03
733.612	10937.66
733.953	10896.99
734.294	10920.49
734.635	10894.28
734.976	10925.01
735.317	10882.98
735.658	10894.5
735.999	10855.63
736.339	10930.21
736.68	10979.25
737.021	10886.14
737.361	10896.76
737.702	10911
738.042	10889.53
738.383	10916.42
738.723	10965.01
739.063	10885.91
739.404	10964.33
739.744	10911
740.084	11010.88
740.424	10917.78
740.764	10939.47
741.104	11015.18
741.444	11041.16
741.784	10976.99
742.124	11000.71
742.464	11005.23
742.804	11039.58
743.143	11052.46
743.483	11062.41
743.823	11052.01
744.162	11054.27
744.502	11202.97
744.841	11134.04
745.181	11184.66
745.52	11198.45
745.86	11240.93
746.199	11290.65
746.538	11388.05
746.877	11414.71
747.216	11467.82
747.556	11458.33
747.895	11576.07
748.234	11576.52
748.573	11634.6
748.911	11675.95
749.25	11726.12
749.589	11771.77
749.928	11878.66
750.267	12019.22
750.605	12036.84
750.944	12115.94
751.283	12120.91
751.621	12354.8
751.96	12366.55
752.298	12351.41
752.636	12529.94
752.975	12604.74
753.313	12684.06
753.651	12805.64
753.989	12915.01
754.327	12996.82
754.666	13130.38
755.004	13293.76
755.342	13380.31
755.679	13531.95
756.017	13568.78
756.355	13781.66
756.693	13921.31
757.031	14040.41
757.368	14142.1
757.706	14224.81
758.044	14433.62
758.381	14714.06
758.719	14792.25
759.056	14984.11
759.394	15085.35
759.731	15229.3
760.068	15289.64
760.405	15477.88
760.743	15623.42
761.08	15836.74
761.417	15876.29
761.754	16220.92
762.091	16300.69
762.428	16477.18
762.765	16490.51
763.102	16759.43
763.438	16946.55
763.775	17060.67
764.112	17256.59
764.449	17470.83
764.785	17563.03
765.122	17646.64
765.458	17813.19
765.795	17934.99
766.131	18031.26
766.467	18264.7
766.804	18381.99
767.14	18481.65
767.476	18730.68
767.812	18698.82
768.148	18887.06
768.485	18946.04
768.821	19089.77
769.157	19278.91
769.492	19337.9
769.828	19433.71
770.164	19367.73
770.5	19497.67
770.836	19600.49
771.171	19677.77
771.507	19816.75
771.842	19824.44
772.178	20007.26
772.513	20086.12
772.849	20131.55
773.184	20113.69
773.519	20305.78
773.855	20175.16
774.19	20268.72
774.525	20279.79
774.86	20496.51
775.195	20529.95
775.53	20475.72
775.865	20510.75
776.2	20447.24
776.535	20489.28
776.87	20555.72
777.205	20514.59
777.539	20517.53
777.874	20656.73
778.209	20591.42
778.543	20571.99
778.878	20539.45
779.212	20664.87
779.547	20608.6
779.881	20745.99
780.215	20531.54
780.55	20771.53
780.884	20672.78
781.218	20635.49
781.552	20713.9
781.886	20633.68
782.22	20546.68
782.554	20606.34
782.888	20543.74
783.222	20585.32
783.556	20468.04
783.889	20546.68
784.223	20380.58
784.557	20361.82
784.89	20343.07
785.224	20432.56
785.557	20247.48
785.891	20376.51
786.224	20343.52
786.558	20241.37
786.891	20135.84
787.224	20124.09
787.557	20148.5
787.891	20069.18
788.224	20094.71
788.557	20153.02
788.89	20153.24
789.223	20097.2
789.556	19895.62
789.888	19991.66
790.221	19901.27
790.554	19720.71
790.887	19898.11
791.219	19766.81
791.552	19797.32
791.884	19617.89
792.217	19668.73
792.549	19608.85
792.882	19482.75
793.214	19493.6
793.546	19569.53
793.879	19350.1
794.211	19308.52
794.543	19405.24
794.875	19355.97
795.207	19363.21
795.539	19276.65
795.871	19303.77
796.203	19214.28
796.535	19010.67
796.867	19069.88
797.198	19026.94
797.53	19024.68
797.862	18915.99
798.193	18903.33
798.525	18832.15
798.856	18857
799.188	18684.13
799.519	18618.59
799.85	18564.81
800.182	18571.59
800.513	18538.82
800.844	18488.43
801.175	18482.78
801.506	18480.97
801.837	18423.12
802.168	18352.84
802.499	18317.58
802.83	18232.39
803.161	18210.24
803.491	18195.33
803.822	18176.8
804.153	18090.02
804.483	18000.98
804.814	17921.21
805.145	17860.42
805.475	17953.98
805.805	17828.1
806.136	17840.99
806.466	17842.12
806.796	17780.42
807.126	17616.81
807.457	17666.3
807.787	17634.44
808.117	17507.66
808.447	17512.86
808.777	17542.91
809.107	17484.38
809.436	17415.69
809.766	17390.38
810.096	17327.33
810.426	17340.66
810.755	17271.51
811.085	17294.33
811.414	17237.39
811.744	17182.25
812.073	17102.47
812.403	17024.96
812.732	16942.25
813.061	16971.18
813.39	16929.6
813.719	16789.26
814.049	16950.16
814.378	16889.37
814.707	16790.39
815.036	16669.27
815.365	16621.13
815.693	16582.26
816.022	16660.45
816.351	16499.55
816.68	16464.98
817.008	16519.44
817.337	16374.36
817.665	16366
817.994	16491.19
818.322	16463.17
818.651	16307.92
818.979	16243.74
819.307	16402.83
819.636	16266.56
819.964	16196.96
820.292	16324.19
820.62	16252.1
820.948	16134.36
821.276	16294.36
821.604	16195.61
821.932	16236.06
822.259	16276.73
822.587	16201.25
822.915	16144.31
823.243	16147.02
823.57	16197.41
823.898	16207.58
824.225	16151.31
824.553	16191.99
824.88	16179.33
825.207	16241.48
825.535	16154.25
825.862	16147.47
826.189	16110.41
826.516	16162.39
826.843	16213.01
827.17	16111.31
827.497	16163.97
827.824	16111.99
828.151	16231.08
828.478	16094.36
828.805	16237.64
829.131	16120.58
829.458	16097.98
829.785	16043.52
830.111	16132.78
830.438	16309.05
830.764	16176.4
831.09	16239.45
831.417	16100.47
831.743	16155.38
832.069	16130.3
832.395	16079.22
832.722	16210.75
833.048	16076.06
833.374	16092.11
833.7	16066.8
834.026	16080.81
834.351	16063.63
834.677	15963.97
835.003	16001.94
835.329	15949.28
835.654	15902.73
835.98	15869.74
836.306	15963.07
836.631	15915.39
836.956	15950.41
837.282	15864.77
837.607	15884.2
837.932	15841.26
838.258	15846.24
838.583	15730.76
838.908	15706.35
839.233	15681.49
839.558	15571.89
839.883	15595.17
840.208	15605.79
840.533	15611.89
840.858	15543.64
841.182	15558.11
841.507	15516.75
841.832	15465
842.156	15470.88
842.481	15508.62
842.805	15408.51
843.13	15415.74
843.454	15291.45
843.778	15238.79
844.103	15203.31
844.427	15103.43
844.751	15205.35
845.075	15116.99
845.399	15133.03
845.723	15004
846.047	15027.5
846.371	14964.23
846.695	14927.16
847.019	14771.91
847.343	14813.27
847.666	14742.31
847.99	14647.17
848.313	14624.8
848.637	14548.42
848.96	14563.56
849.284	14502.54
849.607	14334.41
849.931	14359.72
850.254	14248.99
850.577	14204.92
850.9	14133.96
851.223	14042.89
851.546	13942.11
851.869	13921.31
852.192	14000.86
852.515	13886.29
852.838	13804.03
853.161	13826.4
853.483	13627.31
853.806	13637.93
854.129	13633.19
854.451	13576.47
854.774	13474.77
855.096	13505.96
855.419	13453.98
855.741	13379.86
856.063	13361.78
856.385	13258.96
856.708	13240.88
857.03	13209.02
857.352	13272.74
857.674	13147.78
857.996	13134.22
858.318	13060.77
858.64	12995.01
858.961	13029.36
859.283	12941
859.605	12908.23
859.926	12954.33
860.248	12826.65
860.57	12841.12
860.891	12821
861.212	12849.48
861.534	12698.52
861.855	12653.1
862.176	12623.95
862.498	12596.6
862.819	12707.79
863.14	12611.97
863.461	12572.88
863.782	12598.64
864.103	12593.89
864.424	12483.39
864.745	12515.7
865.065	12426.89
865.386	12397.74
865.707	12381.02
866.027	12444.29
866.348	12315.48
866.668	12353.45
866.989	12334.46
867.309	12256.73
867.63	12337.85
867.95	12322.26
868.27	12281.81
868.59	12256.5
868.91	12250.17
869.23	12168.14
869.55	12127.69
869.87	12129.27
870.19	12101.02
870.51	12182.83
870.83	12192.77
871.15	12046.11
871.469	12173.11
871.789	12082.95
872.109	12093.79
872.428	11899
872.748	11948.49
873.067	11958.65
873.386	12016.28
873.706	11925.89
874.025	11884.31
874.344	11813.35
874.663	11849.73
874.982	11830.52
875.301	11792.78
875.62	11815.61
875.939	11759.79
876.258	11757.53
876.577	11699.45
876.896	11750.75
877.214	11756.17
877.533	11653.35
877.852	11615.61
878.17	11607.93
878.489	11687.48
878.807	11631.66
879.125	11595.27
879.444	11583.98
879.762	11492.23
880.08	11576.07
880.398	11417.2
880.716	11535.84
881.034	11423.53
881.352	11425.11
881.67	11394.15
881.988	11368.61
882.306	11341.72
882.624	11300.14
882.941	11296.53
883.259	11256.07
883.577	11244.77
883.894	11200.03
884.212	11240.71
884.529	11214.49
884.846	11193.7
885.164	11143.99
885.481	11076.87
885.798	11153.25
886.115	11006.59
886.432	10992.58
886.75	10966.59
887.067	10988.74
887.383	10908.06
887.7	10899.7
888.017	10891.11
888.334	10845.92
888.651	10934.5
888.967	10844.11
889.284	10749.19
889.6	10753.94
889.917	10705.81
890.233	10666.94
890.55	10620.84
890.866	10600.5
891.182	10566.37
891.498	10610.67
891.815	10511.69
892.131	10480.5
892.447	10480.73
892.763	10400.73
893.079	10406.38
893.395	10419.26
893.71	10357.57
894.026	10398.47
894.342	10303.78
894.657	10191.24
894.973	10166.39
895.289	10244.8
895.604	10153.73
895.92	10095.43
896.235	10044.35
896.55	10062.21
896.865	10057.01
897.181	10043.45
897.496	9957.35
897.811	9903.34
898.126	9972.27
898.441	9872.38
898.756	9773.4
899.071	9860.86
899.386	9799.16
899.7	9664.03
900.015	9632.16
900.33	9559.85
900.644	9594.87
900.959	9630.13
901.273	9511.71
901.588	9545.38
901.902	9430.81
902.216	9471.94
902.531	9368.67
902.845	9364.15
903.159	9299.74
903.473	9322.79
903.787	9253.41
904.101	9187.43
904.415	9192.85
904.729	9089.35
905.042	9090.48
905.356	9064.95
905.67	9057.94
905.984	9018.62
906.297	9011.61
906.611	8890.94
906.924	8906.76
907.237	8916.47
907.551	8847.1
907.864	8835.12
908.177	8790.38
908.491	8738.4
908.804	8654.11
909.117	8667.22
909.43	8604.39
909.743	8551.29
910.056	8572.3
910.368	8457.73
910.681	8497.28
910.994	8428.8
911.307	8441.01
911.619	8325.53
911.932	8346.55
912.244	8286.66
912.557	8281.92
912.869	8205.76
913.181	8179.54
913.494	8152.65
913.806	8124.18
914.118	8180.22
914.43	8095.03
914.742	8063.16
915.054	7992.88
915.366	7972.77
915.678	7925.77
915.99	7909.95
916.302	7838.54
916.613	7823.62
916.925	7808.03
917.236	7783.4
917.548	7715.15
917.859	7758.09
918.171	7682.83
918.482	7634.93
918.794	7587.47
919.105	7576.4
919.416	7496.4
919.727	7523.06
920.038	7464.99
920.349	7471.77
920.66	7406.91
920.971	7432.67
921.282	7382.05
921.593	7310.42
921.903	7249.17
922.214	7193.58
922.525	7247.14
922.835	7267.7
923.146	7203.75
923.456	7177.54
923.767	7139.35
924.077	7116.07
924.387	7057.77
924.697	7030.87
925.008	6946.81
925.318	7051.66
925.628	6992.91
925.938	6914.72
926.248	6903.42
926.558	6895.28
926.867	6844.66
927.177	6832.01
927.487	6774.38
927.796	6739.36
928.106	6684.67
928.416	6728.51
928.725	6690.77
929.034	6624.78
929.344	6647.83
929.653	6562.41
929.962	6596.54
930.271	6499.14
930.581	6495.97
930.89	6457.56
931.199	6391.12
931.508	6421.85
931.817	6414.39
932.125	6368.74
932.434	6363.1
932.743	6303.89
933.051	6284.45
933.36	6283.55
933.669	6275.87
933.977	6225.7
934.286	6217.34
934.594	6135.76
934.902	6152.48
935.21	6098.47
935.519	6090.79
935.827	6052.82
936.135	5963.33
936.443	5996.55
936.751	5964.69
937.059	5973.05
937.367	5921.53
937.674	5920.85
937.982	5827.06
938.29	5846.95
938.597	5847.63
938.905	5743.68
939.213	5775.54
939.52	5711.14
939.827	5723.79
940.135	5667.52
940.442	5667.97
940.749	5658.03
941.056	5614.41
941.363	5595.21
941.67	5589.78
941.977	5503.91
942.284	5526.73
942.591	5537.13
942.898	5477.69
943.205	5482.89
943.511	5480.41
943.818	5424.59
944.125	5357.02
944.431	5371.48
944.738	5358.83
945.044	5329.45
945.35	5291.49
945.657	5284.03
945.963	5252.62
946.269	5230.47
946.575	5222.79
946.881	5208.78
947.187	5149.79
947.493	5139.85
947.799	5116.8
948.105	5064.6
948.41	5032.51
948.716	5047.65
949.022	5055.33
949.327	4967.2
949.633	5002.23
949.938	4928.1
950.244	4954.54
950.549	4909.8
950.854	4865.96
951.16	4942.57
951.465	4854.66
951.77	4808.33
952.075	4835.9
952.38	4789.58
952.685	4775.34
952.99	4728.34
953.294	4780.09
953.599	4701.22
953.904	4663.03
954.209	4652.18
954.513	4626.42
954.818	4637.72
955.122	4618.73
955.426	4585.06
955.731	4573.09
956.035	4529.7
956.339	4547.78
956.643	4492.64
956.948	4470.72
957.252	4497.61
957.556	4479.08
957.86	4432.98
958.163	4394.33
958.467	4391.4
958.771	4400.21
959.075	4367.67
959.378	4354.56
959.682	4355.92
959.985	4299.42
960.289	4257.84
960.592	4265.75
960.896	4255.58
961.199	4216.49
961.502	4208.58
961.805	4197.73
962.108	4189.82
962.411	4136.71
962.714	4113.66
963.017	4131.52
963.32	4125.41
963.623	4089.48
963.926	4061.24
964.228	3993.44
964.531	4001.8
964.833	4045.19
965.136	3937.85
965.438	3964.74
965.741	3936.94
966.043	3929.49
966.345	3954.12
966.648	3913.89
966.95	3915.25
967.252	3866.66
967.554	3867.34
967.856	3871.64
968.158	3816.04
968.46	3831.18
968.761	3775.59
969.063	3755.71
969.365	3767.46
969.666	3785.08
969.968	3743.05
970.269	3667.8
970.571	3678.19
970.872	3704.18
971.174	3672.09
971.475	3605.88
971.776	3640.91
972.077	3625.09
972.378	3656.95
972.679	3614.02
972.98	3609.04
973.281	3541.47
973.582	3559.33
973.883	3558.88
974.183	3548.25
974.484	3509.16
974.785	3491.76
975.085	3460.57
975.386	3450.4
975.686	3432.78
975.986	3431.65
976.287	3411.31
976.587	3378.77
976.887	3381.25
977.187	3334.25
977.487	3341.25
977.787	3300.35
978.087	3345.32
978.387	3290.63
978.687	3307.36
978.987	3256.74
979.286	3215.38
979.586	3229.39
979.885	3243.86
980.185	3191.65
980.484	3188.94
980.784	3178.55
981.083	3171.31
981.382	3124.08
981.682	3126.12
981.981	3149.62
982.28	3077.53
982.579	3085.44
982.878	3077.08
983.177	3077.53
983.475	3106.46
983.774	3038.21
984.073	3001.38
984.372	2971.09
984.67	3002.96
984.969	3013.58
985.267	2956.86
985.566	2969.74
985.864	2937.42
986.162	2903.07
986.461	2926.58
986.759	2909.85
987.057	2830.31
987.355	2850.65
987.653	2862.17
987.951	2843.87
988.249	2800.7
988.547	2845.45
988.844	2819.69
989.142	2823.75
989.44	2743.53
989.737	2756.41
990.035	2746.69
990.332	2707.6
990.63	2739.46
990.927	2722.74
991.224	2719.8
991.521	2704.89
991.819	2701.04
992.116	2703.76
992.413	2660.82
992.71	2669.18
993.006	2607.94
993.303	2614.49
993.6	2621.72
993.897	2598.67
994.193	2580.82
994.49	2569.75
994.787	2564.1
995.083	2565.68
995.379	2506.7
995.676	2527.26
995.972	2506.7
996.268	2509.19
996.565	2448.4
996.861	2492.24
997.157	2457.89
997.453	2441.39
997.749	2435.97
998.044	2421.28
998.34	2425.12
998.636	2369.75
998.932	2391.45
999.227	2362.97
999.523	2394.84
999.818	2358.45
1000.114	2333.37
1000.409	2312.81
1000.704	2323.2
1001	2269.64
1001.295	2301.96
1001.59	2281.62
1001.885	2270.77
1002.18	2225.13
1002.475	2245.46
1002.77	2235.07
1003.065	2200.27
1003.359	2184.67
1003.654	2193.94
1003.949	2201.62
1004.243	2186.26
1004.538	2159.36
1004.832	2146.71
1005.127	2145.58
1005.421	2123.21
1005.715	2104.45
1006.009	2074.17
1006.304	2097.44
1006.598	2068.29
1006.892	2046.6
1007.186	2068.97
1007.48	2043.66
1007.773	2027.84
1008.067	2018.8
1008.361	2013.15
1008.655	1956.88
1008.948	2013.83
1009.242	1960.95
1009.535	1947.84
1009.829	1936.32
1010.122	1932.48
1010.415	1906.72
1010.708	1905.13
1011.001	1898.81
1011.295	1887.51
1011.588	1888.18
1011.881	1872.82
1012.173	1819.26
1012.466	1832.14
1012.759	1846.6
1013.052	1817.23
1013.344	1801.86
1013.637	1781.52
1013.93	1776.78
1014.222	1780.39
1014.514	1772.93
1014.807	1768.64
1015.099	1753.95
1015.391	1765.7
1015.683	1755.08
1015.976	1736.78
1016.268	1695.42
1016.56	1680.28
1016.851	1677.57
1017.143	1649.55
1017.435	1658.81
1017.727	1649.77
1018.018	1628.98
1018.31	1649.32
1018.602	1626.5
1018.893	1611.58
1019.185	1614.29
1019.476	1622.2
1019.767	1604.8
1020.058	1546.5
1020.35	1549.89
1020.641	1529.1
1020.932	1539.72
1021.223	1512.6
1021.514	1535.88
1021.804	1510.34
1022.095	1521.64
1022.386	1494.52
1022.677	1470.79
1022.967	1462.21
1023.258	1443.9
1023.548	1472.15
1023.839	1439.16
1024.129	1438.71
1024.419	1443.68
1024.709	1419.04
1025	1402.1
1025.29	1378.14
1025.58	1368.2
1025.87	1344.24
1026.16	1369.78
1026.449	1335.88
1026.739	1334.53
1027.029	1350.12
1027.319	1325.94
1027.608	1338.82
1027.898	1310.12
1028.187	1313.28
1028.477	1271.7
1028.766	1283.23
1029.055	1270.57
1029.344	1283.68
1029.634	1248.2
1029.923	1259.5
1030.212	1242.78
1030.501	1256.11
1030.79	1220.63
1031.078	1228.09
1031.367	1209.33
1031.656	1184.47
1031.945	1190.12
1032.233	1180.86
1032.522	1151.26
1032.81	1173.4
1033.099	1160.29
1033.387	1167.07
1033.675	1143.8
1033.963	1113.74
1034.251	1137.7
1034.54	1153.29
1034.828	1116.91
1035.116	1101.09
1035.403	1122.33
1035.691	1095.66
1035.979	1093.86
1036.267	1083.91
1036.554	1050.47
1036.842	1057.7
1037.129	1036.23
1037.417	1073.52
1037.704	1016.57
1037.992	1023.12
1038.279	1035.78
1038.566	1019.06
1038.853	1019.06
1039.14	1019.06
