Data from hue_340_FLMS001491_32.txt Node
Date: Mon Feb 06 15:43:01 GMT 2017
User: dcchb
Spectrometer: FLMS00149
Trigger mode: 0
Integration Time (sec): 2.000000E-2
Scans to average: 10
Electric dark correction enabled: true
Nonlinearity correction enabled: false
Boxcar width: 0
XAxis mode: Wavelengths
Number of Pixels in Spectrum: 2048
>>>>>Begin Spectral Data<<<<<
341.393	0.2
341.776	0.2
342.16	0.2
342.543	-75.28
342.927	-63.3
343.31	-64.21
343.693	-64.89
344.077	-58.11
344.46	-59.69
344.843	-57.65
345.226	-31.67
345.61	-30.76
345.993	-22.17
346.376	-29.63
346.759	7.66
347.142	18.05
347.525	27.54
347.908	62.79
348.291	86.3
348.674	107.31
349.057	109.12
349.44	138.95
349.823	158.39
350.206	176.92
350.588	178.95
350.971	216.46
351.354	223.92
351.737	244.94
352.119	254.43
352.502	249.68
352.884	254.88
353.267	267.99
353.65	303.01
354.032	305.95
354.414	291.26
354.797	330.58
355.179	319.96
355.562	297.82
355.944	319.74
356.326	326.29
356.709	330.81
357.091	337.36
357.473	331.94
357.855	347.76
358.238	324.48
358.62	360.19
359.002	309.79
359.384	343.24
359.766	322.22
360.148	338.49
360.53	348.89
360.912	317.7
361.294	319.51
361.676	324.93
362.057	344.37
362.439	314.99
362.821	326.97
363.203	331.26
363.584	339.4
363.966	320.19
364.348	326.29
364.729	322.22
365.111	313.18
365.493	324.03
365.874	302.56
366.256	312.05
366.637	301.21
367.019	292.62
367.4	318.61
367.781	305.73
368.163	314.09
368.544	308.89
368.925	316.57
369.306	309.12
369.688	304.6
370.069	300.53
370.45	303.24
370.831	300.98
371.212	317.93
371.593	288.78
371.974	316.8
372.355	300.53
372.736	315.44
373.117	305.5
373.498	315.67
373.879	300.98
374.26	326.52
374.641	298.95
375.021	315.22
375.402	321.32
375.783	318.38
376.163	319.96
376.544	320.64
376.925	325.16
377.305	317.25
377.686	319.51
378.066	317.93
378.447	308.44
378.827	339.4
379.208	336.23
379.588	332.84
379.968	320.87
380.349	329
380.729	326.97
381.109	312.73
381.489	305.95
381.87	321.55
382.25	325.39
382.63	331.94
383.01	318.16
383.39	331.49
383.77	326.97
384.15	331.26
384.53	338.72
384.91	323.35
385.29	332.62
385.67	347.08
386.049	351.37
386.429	330.81
386.809	364.48
387.189	339.85
387.568	348.21
387.948	338.49
388.328	348.89
388.707	350.25
389.087	355.22
389.466	332.62
389.846	349.34
390.225	352.96
390.605	344.82
390.984	334.2
391.363	352.28
391.743	350.02
392.122	366.97
392.501	366.97
392.881	357.93
393.26	357.93
393.639	375.56
394.018	368.1
394.397	369.68
394.776	339.85
395.155	356.35
395.534	374.43
395.913	357.7
396.292	373.52
396.671	373.75
397.05	366.29
397.429	379.62
397.808	369.68
398.186	372.39
398.565	362.9
398.944	383.69
399.323	397.48
399.701	377.14
400.08	395.67
400.458	370.36
400.837	385.27
401.215	382.11
401.594	399.96
401.972	409.9
402.351	409.68
402.729	392.73
403.107	398.61
403.486	393.18
403.864	417.36
404.242	388.44
404.62	399.96
404.999	416.46
405.377	396.35
405.755	425.05
406.133	388.66
406.511	396.57
406.889	402.22
407.267	413.97
407.645	413.29
408.023	435.44
408.401	425.5
408.779	431.15
409.156	403.58
409.534	439.73
409.912	428.66
410.29	406.51
410.667	437.93
411.045	448.32
411.422	452.84
411.8	464.37
412.178	453.52
412.555	475.67
412.933	479.96
413.31	472.28
413.687	486.06
414.065	469.34
414.442	486.96
414.819	507.76
415.197	491.48
415.574	512.5
415.951	510.69
416.328	486.96
416.705	521.31
417.082	511.82
417.46	518.6
417.837	512.27
418.214	512.73
418.591	518.6
418.967	530.13
419.344	539.84
419.721	524.03
420.098	520.41
420.475	551.14
420.852	545.27
421.228	550.69
421.605	547.08
421.982	556.79
422.358	522.22
422.735	572.39
423.111	572.16
423.488	569.9
423.864	571.03
424.241	589.56
424.617	601.54
424.994	587.3
425.37	603.12
425.746	593.4
426.123	607.41
426.499	627.75
426.875	597.47
427.251	615.77
427.627	626.85
428.003	642.21
428.379	637.47
428.756	620.52
429.132	644.02
429.507	652.61
429.883	653.97
430.259	653.74
430.635	653.51
431.011	651.25
431.387	679.73
431.763	682.67
432.138	693.74
432.514	693.51
432.89	718.6
433.265	734.42
433.641	738.03
434.016	725.83
434.392	727.41
434.767	750.46
435.143	725.38
435.518	745.04
435.894	766.51
436.269	750.23
436.644	771.93
437.02	768.31
437.395	779.16
437.77	784.81
438.145	797.24
438.52	809.22
438.895	793.17
439.271	783.23
439.646	806.5
440.021	839.5
440.395	804.92
440.77	804.24
441.145	822.77
441.52	838.37
441.895	826.84
442.27	837.92
442.645	858.93
443.019	861.64
443.394	853.28
443.769	877.24
444.143	865.71
444.518	858.25
444.892	877.46
445.267	888.54
445.641	894.86
446.016	883.34
446.39	883.11
446.764	874.75
447.139	874.75
447.513	874.07
447.887	896.22
448.262	905.03
448.636	902.09
449.01	911.59
449.384	932.38
449.758	913.39
450.132	923.79
450.506	940.74
450.88	953.84
451.254	926.95
451.628	937.8
452.002	933.51
452.376	976.22
452.75	937.35
453.123	964.69
453.497	1005.82
453.871	1006.5
454.244	985.26
454.618	1032.26
454.992	1008.98
455.365	984.8
455.739	1023.22
456.112	1021.19
456.486	1016.44
456.859	1050.34
457.232	1077.01
457.606	1050.11
457.979	1053.96
458.352	1081.07
458.725	1088.53
459.099	1074.07
459.472	1114.07
459.845	1115.2
460.218	1107.29
460.591	1128.08
460.964	1138.92
461.337	1149.32
461.71	1149.55
462.083	1193.16
462.456	1188.42
462.829	1175.76
463.201	1186.16
463.574	1203.1
463.947	1213.5
464.32	1198.58
464.692	1235.19
465.065	1224.35
465.438	1252.14
465.81	1303.21
466.183	1302.08
466.555	1310.67
466.928	1324.23
467.3	1311.35
467.672	1326.49
468.045	1352.25
468.417	1346.15
468.789	1329.65
469.161	1392.7
469.534	1388.86
469.906	1408.07
470.278	1425.92
470.65	1434.28
471.022	1421.4
471.394	1472.25
471.766	1475.41
472.138	1498.01
472.51	1501.18
472.882	1573.72
473.253	1570.1
473.625	1602.42
473.997	1622.3
474.369	1613.94
474.74	1625.92
475.112	1643.54
475.484	1696.42
475.855	1687.61
476.227	1723.77
476.598	1744.56
476.97	1774.39
477.341	1819.36
477.713	1816.2
478.084	1822.97
478.455	1883.99
478.827	1863.65
479.198	1937.32
479.569	1927.38
479.94	1973.71
480.311	1976.64
480.682	2022.52
481.053	2058.9
481.424	2065.68
481.795	2137.32
482.166	2141.16
482.537	2172.57
482.908	2212.79
483.279	2217.77
483.65	2252.34
484.021	2333.7
484.391	2302.96
484.762	2315.17
485.133	2353.81
485.503	2417.76
485.874	2445.33
486.244	2484.2
486.615	2476.74
486.985	2536.4
487.356	2560.81
487.726	2596.97
488.097	2646.91
488.467	2671.09
488.837	2683.07
489.207	2728.26
489.578	2737.07
489.948	2761.03
490.318	2803.06
490.688	2826.79
491.058	2846
491.428	2873.34
491.798	2929.39
492.168	2951.98
492.538	2984.53
492.908	3009.61
493.278	3052.77
493.648	3024.07
494.017	3062.49
494.387	3102.94
494.757	3146.33
495.126	3179.78
495.496	3132.32
495.866	3199.89
496.235	3241.24
496.605	3222.94
496.974	3294.12
497.344	3289.83
497.713	3334.12
498.082	3337.06
498.452	3371.86
498.821	3410.28
499.19	3418.64
499.559	3364.63
499.928	3421.35
500.298	3421.58
500.667	3507.22
501.036	3487.56
501.405	3509.94
501.774	3517.85
502.143	3558.75
502.512	3578.63
502.88	3569.82
503.249	3587.45
503.618	3589.48
503.987	3596.04
504.356	3655.02
504.724	3627.67
505.093	3624.06
505.462	3654.79
505.83	3689.82
506.199	3735.47
506.567	3717.61
506.936	3732.98
507.304	3790.83
507.672	3814.11
508.041	3781.34
508.409	3794
508.777	3830.61
509.145	3858.18
509.514	3884.39
509.882	3920.09
510.25	3915.58
510.618	3882.36
510.986	3889.59
511.354	3937.72
511.722	3933.88
512.09	3958.74
512.458	3986.08
512.826	3974.78
513.193	3991.73
513.561	4033.54
513.929	4042.13
514.297	4111.28
514.664	4083.48
515.032	4052.07
515.4	4063.82
515.767	4147.43
516.135	4097.94
516.502	4111.5
516.869	4160.99
517.237	4160.31
517.604	4123.25
517.972	4197.83
518.339	4200.09
518.706	4192.63
519.073	4206.64
519.44	4254.78
519.808	4238.96
520.175	4245.28
520.542	4298.62
520.909	4348.11
521.276	4325.73
521.643	4335.68
522.009	4375.9
522.376	4376.58
522.743	4415
523.11	4396.69
523.477	4388.1
523.843	4438.5
524.21	4486.41
524.577	4494.09
524.943	4502
525.31	4565.28
525.676	4542.68
526.043	4633.3
526.409	4664.26
526.776	4650.47
527.142	4680.3
527.508	4674.65
527.874	4672.17
528.241	4706.06
528.607	4719.85
528.973	4786.51
529.339	4742.9
529.705	4792.61
530.071	4848.43
530.437	4888.2
530.803	4892.27
531.169	4903.35
531.535	4864.25
531.901	4936.34
532.267	4978.6
532.632	4992.16
532.998	5015.21
533.364	5034.19
533.73	5003
534.095	5076.67
534.461	5082.32
534.826	5140.85
535.192	5100.85
535.557	5130.68
535.923	5156.45
536.288	5143.34
536.653	5236.9
537.019	5219.72
537.384	5193.73
537.749	5280.28
538.114	5257.23
538.479	5301.75
538.845	5327.06
539.21	5263.79
539.575	5334.52
539.94	5318.93
540.305	5386.27
540.67	5354.86
541.034	5403.9
541.399	5436.66
541.764	5448.42
542.129	5451.58
542.494	5507.4
542.858	5512.14
543.223	5558.92
543.587	5579.03
543.952	5574.74
544.316	5565.02
544.681	5588.98
545.045	5645.92
545.41	5731.12
545.774	5763.44
546.138	5680.73
546.503	5715.98
546.867	5729.31
547.231	5795.3
547.595	5832.36
547.959	5857.9
548.324	5854.73
548.688	5897.67
549.052	5850.21
549.416	5883.43
549.779	5919.36
550.143	5865.35
550.507	5954.84
550.871	5953.26
551.235	6009.08
551.599	6011.34
551.962	6052.47
552.326	6039.36
552.689	6081.62
553.053	6059.25
553.417	6084.11
553.78	6110.09
554.143	6146.25
554.507	6162.75
554.87	6132.92
555.234	6245.91
555.597	6197.55
555.96	6180.37
556.323	6285.68
556.686	6296.53
557.05	6314.83
557.413	6311.9
557.776	6280.94
558.139	6338.11
558.502	6372.69
558.865	6384.44
559.228	6404.32
559.59	6440.93
559.953	6472.34
560.316	6469.41
560.679	6487.71
561.041	6480.71
561.404	6568.84
561.767	6538.56
562.129	6583.53
562.492	6575.62
562.854	6599.35
563.217	6578.56
563.579	6658.33
563.941	6652.9
564.304	6690.42
564.666	6742.85
565.028	6719.57
565.39	6713.92
565.753	6753.92
566.115	6815.84
566.477	6836.63
566.839	6812.9
567.201	6922.05
567.563	6909.62
567.925	6923.86
568.287	6920.47
568.648	6994.82
569.01	7022.84
569.372	7118.88
569.734	7002.05
570.095	7076.62
570.457	7141.93
570.819	7144.87
571.18	7164.08
571.542	7226
571.903	7238.88
572.265	7268.71
572.626	7309.61
572.987	7396.61
573.349	7363.39
573.71	7374.92
574.071	7439.78
574.432	7468.48
574.794	7593.22
575.155	7609.26
575.516	7571.07
575.877	7749.6
576.238	7775.81
576.599	7900.1
576.96	7900.78
577.32	7959.54
577.681	8049.93
578.042	8084.28
578.403	8177.84
578.763	8308.91
579.124	8300.09
579.485	8381.22
579.845	8496.92
580.206	8543.7
580.566	8713.87
580.927	8810.59
581.287	8947.76
581.648	8998.38
582.008	9124.93
582.368	9288.09
582.728	9400.4
583.089	9531.92
583.449	9687.85
583.809	9808.53
584.169	10038.8
584.529	10119.48
584.889	10326.71
585.249	10447.83
585.609	10563.54
585.969	10768.05
586.329	10904.09
586.688	11178.89
587.048	11331.43
587.408	11504.3
587.768	11754.69
588.127	11916.95
588.487	12116.72
588.846	12454.79
589.206	12515.35
589.565	12801.22
589.925	13018.16
590.284	13275.55
590.643	13535.21
591.003	13826.27
591.362	14084.8
591.721	14310.56
592.08	14489.31
592.44	14800.94
592.799	15083.19
593.158	15184.21
593.517	15498.55
593.876	15833.45
594.235	16056.72
594.593	16274.12
594.952	16643.83
595.311	16892.18
595.67	17131.27
596.029	17519.74
596.387	17773.52
596.746	18131.92
597.104	18224.58
597.463	18579.6
597.822	18918.12
598.18	19026.82
598.538	19399.69
598.897	19632
599.255	19719.45
599.613	20436.27
599.972	20492.99
600.33	20818.63
600.688	21015.69
601.046	21347.89
601.404	21577.94
601.762	21829.45
602.12	22167.3
602.478	22365.49
602.836	22602.32
603.194	22786.94
603.552	23086.6
603.91	23222.86
604.268	23626.47
604.625	23659.91
604.983	24142.84
605.341	24230.97
605.698	24563.17
606.056	24764.52
606.413	25001.12
606.771	25303.94
607.128	25582.8
607.485	25704.83
607.843	25772.4
608.2	26147.08
608.557	26532.16
608.914	26547.75
609.272	26719.27
609.629	27043.55
609.986	27395.41
610.343	27383.43
610.7	27743.88
611.057	27885.79
611.414	28077.65
611.771	28290.3
612.127	28493.91
612.484	28520.58
612.841	28907.01
613.198	28931.87
613.554	29068.81
613.911	29473.32
614.267	29546.31
614.624	29522.36
614.98	29879.64
615.337	30206.18
615.693	30141.78
616.05	30307.65
616.406	30666.06
616.762	30528.66
617.118	30684.36
617.475	30872.61
617.831	30934.98
618.187	31093.62
618.543	31358.47
618.899	31494.28
619.255	31670.1
619.611	31755.52
619.967	31872.81
620.323	32191.67
620.678	32016.98
621.034	31991.45
621.39	32214.27
621.746	32268.95
622.101	32616.74
622.457	32450.87
622.812	32732.67
623.168	32759.34
623.523	32829.17
623.879	33029.16
624.234	33024.41
624.589	33123.17
624.945	33152.32
625.3	33349.6
625.655	33406.55
626.01	33601.57
626.365	33534.91
626.72	33662.59
627.075	33608.81
627.43	33722.7
627.785	33724.51
628.14	33803.38
628.495	33793.66
628.85	33829.82
629.205	33807.44
629.559	34008.34
629.914	33869.59
630.269	33997.5
630.623	33935.8
630.978	33967.21
631.332	34046.08
631.687	34202.91
632.041	34067.1
632.396	34266.42
632.75	34150.71
633.104	34303.02
633.459	34179.86
633.813	34159.53
634.167	34177.15
634.521	34244.27
634.875	34286.08
635.229	34354.1
635.583	34108.91
635.937	34145.29
636.291	34148.68
636.645	34319.07
636.999	34183.48
637.352	34428.45
637.706	34125.63
638.06	34334.66
638.413	34267.32
638.767	34184.84
639.121	34264.16
639.474	34213.76
639.828	34148.23
640.181	34163.82
640.534	34176.47
640.888	34019.87
641.241	34017.38
641.594	33984.84
641.947	34266.87
642.301	34149.81
642.654	34220.54
643.007	34291.73
643.36	34110.04
643.713	34166.53
644.066	34202.24
644.419	34016.7
644.771	33766.09
645.124	33504.63
645.477	33497.85
645.83	33231.87
646.182	33090.4
646.535	33181.47
646.888	33229.83
647.24	32883.85
647.593	33196.39
647.945	33091.08
648.298	32971.08
648.65	32917.07
649.002	32841.14
649.355	32998.88
649.707	32820.58
650.059	33112.77
650.411	33435.7
650.763	33438.19
651.115	33822.36
651.467	33793.66
651.819	33743.72
652.171	33715.47
652.523	33661.01
652.875	33638.64
653.227	33558.86
653.578	33770.38
653.93	33683.38
654.282	33568.35
654.633	33457.85
654.985	33562.48
655.337	33657.84
655.688	33475.7
656.039	33638.41
656.391	33410.17
656.742	33529.49
657.094	33453.78
657.445	33579.43
657.796	33427.34
658.147	33380.11
658.498	33396.83
658.849	33426.89
659.2	33448.13
659.551	33323.39
659.902	33577.17
660.253	33488.13
660.604	33431.64
660.955	33408.13
661.306	33403.84
661.656	33398.42
662.007	33406.1
662.358	33274.35
662.708	33365.2
663.059	33430.96
663.409	33207.46
663.76	33495.14
664.11	33265.09
664.461	33422.37
664.811	33313.67
665.161	33359.77
665.511	33253.79
665.862	33326.1
666.212	33338.3
666.562	33365.42
666.912	33334.91
667.262	33256.27
667.612	33192.55
667.962	33271.19
668.312	33300.57
668.662	33356.83
669.011	33156.84
669.361	33193.45
669.711	33250.4
670.06	33163.62
670.41	33122.49
670.76	33123.62
671.109	33286.78
671.459	33311.41
671.808	33227.57
672.157	33203.84
672.507	32967.92
672.856	32908.26
673.205	33099.67
673.554	33168.59
673.904	32986.45
674.253	33257.85
674.602	33009.95
674.951	32575.16
675.3	32507.82
675.649	33126.33
675.998	32959.56
676.346	33041.14
676.695	33038.2
677.044	32803.63
677.393	32877.07
677.741	33015.15
678.09	32773.8
678.438	32842.27
678.787	32855.83
679.135	32844.31
679.484	32589.85
679.832	32718.43
680.181	32527.03
680.529	32797.08
680.877	32581.94
681.225	32489.51
681.573	32692.9
681.922	32410.42
682.27	32358.44
682.618	32406.8
682.966	32330.2
683.314	32337.43
683.661	32220.82
684.009	32103.99
684.357	31978.34
684.705	32060.15
685.053	31965.68
685.4	31956.19
685.748	31897.44
686.095	31816.54
686.443	31783.77
686.79	31782.64
687.138	31861.05
687.485	31744.67
687.832	31570.67
688.18	31681.62
688.527	31501.97
688.874	31392.14
689.221	31427.62
689.568	31234.63
689.915	31212.71
690.262	31267.4
690.609	31139.27
690.956	31097.23
691.303	31052.49
691.65	30930.91
691.997	31013.17
692.344	30742.89
692.69	30693.85
693.037	30636.91
693.383	30456.57
693.73	30621.09
694.077	30413.41
694.423	30472.39
694.769	30333.41
695.116	30221.78
695.462	30186.3
695.808	30048.9
696.155	30144.72
696.501	29926.42
696.847	29898.39
697.193	29688.46
697.539	29834.22
697.885	29686.2
698.231	29511.51
698.577	29406.43
698.923	29514.45
699.269	29107.45
699.614	29116.04
699.96	29026.55
700.306	29149.26
700.651	29017.29
700.997	29061.13
701.342	28914.47
701.688	28791.31
702.033	28871.98
702.379	28769.16
702.724	28609.39
703.069	28688.48
703.415	28358.77
703.76	28420.24
704.105	28407.36
704.45	28329.62
704.795	28236.74
705.14	28085.11
705.485	27984.09
705.83	27922.63
706.175	28056.41
706.52	28013.25
706.865	27776.87
707.209	27858.45
707.554	27759.92
707.899	27787.04
708.243	27551.11
708.588	27710.2
708.932	27325.58
709.277	27342.08
709.621	27354.51
709.966	27081.07
710.31	27251.01
710.654	26969.21
710.998	27118.81
711.342	26940.05
711.687	26951.13
712.031	26872.71
712.375	26716.11
712.719	26834.07
713.063	26766.95
713.407	26767.63
713.75	26728.53
714.094	26663.45
714.438	26513.85
714.782	26632.04
715.125	26389.56
715.469	26450.12
715.812	26347.75
716.156	26158.83
716.499	26186.4
716.843	26236.34
717.186	26126.29
717.53	26206.74
717.873	26163.13
718.216	26052.85
718.559	26028.89
718.902	25844.72
719.246	25849.24
719.589	25879.29
719.932	25659.18
720.275	25826.64
720.617	25701.89
720.96	25733.08
721.303	25584.16
721.646	25630.03
721.989	25488.79
722.331	25543.93
722.674	25525.63
723.016	25447.44
723.359	25462.81
723.701	25439.98
724.044	25152.08
724.386	25096.94
724.729	25225.52
725.071	25115.7
725.413	25092.19
725.755	25178.29
726.097	25039.99
726.439	24933.33
726.782	24894.46
727.124	24977.39
727.465	24823.5
727.807	24757.29
728.149	24688.36
728.491	24737.63
728.833	24800
729.175	24600.45
729.516	24522.04
729.858	24499.67
730.199	24641.58
730.541	24463.28
730.882	24513.45
731.224	24585.77
731.565	24506.22
731.906	24361.14
732.248	24505.32
732.589	24199.79
732.93	24104.87
733.271	24255.38
733.612	24264.42
733.953	24160.47
734.294	24167.02
734.635	24048.83
734.976	24110.07
735.317	24040.7
735.658	24012.67
735.999	24084.76
736.339	23992.34
736.68	24045.67
737.021	24030.53
737.361	23780.36
737.702	24037.76
738.042	23869.63
738.383	23844.54
738.723	23771.32
739.063	23745.79
739.404	23724.55
739.744	23652.23
740.084	23597.54
740.424	23660.37
740.764	23507.6
741.104	23658.11
741.444	23527.04
741.784	23394.84
742.124	23387.38
742.464	23352.8
742.804	23418.34
743.143	23329.08
743.483	23372.92
743.823	23195.29
744.162	23236.87
744.502	23309.19
744.841	23226.48
745.181	23143.54
745.52	23026.71
745.86	23167.72
746.199	23106.93
746.538	23090.44
746.877	23023.32
747.216	23035.52
747.556	22924.11
747.895	22970.67
748.234	22892.93
748.573	22833.72
748.911	22840.05
749.25	22796.43
749.589	22695.87
749.928	22725.93
750.267	22757.34
750.605	22685.93
750.944	22676.21
751.283	22586.72
751.621	22665.59
751.96	22459.04
752.298	22463.56
752.636	22469.21
752.975	22274.64
753.313	22226.73
753.651	22392.6
753.989	22197.81
754.327	22168.65
754.666	22101.99
755.004	22059.96
755.342	22236.9
755.679	22023.12
756.017	21859.74
756.355	22122.78
756.693	21781.77
757.031	21895.44
757.368	21754.65
757.706	21651.61
758.044	21672.62
758.381	21707.88
758.719	21573.87
759.056	21612.06
759.394	21486.64
759.731	21360.99
760.068	21361.9
760.405	21273.08
760.743	21200.77
761.08	21186.08
761.417	21102.69
761.754	21061.79
762.091	21011.85
762.428	20915.13
762.765	20884.39
763.102	20936.6
763.438	20811.18
763.775	20659.54
764.112	20698.64
764.449	20760.56
764.785	20593.1
765.122	20445.08
765.458	20366.44
765.795	20366.22
766.131	20392.2
766.467	20208.71
766.804	20161.48
767.14	20064.53
767.476	20001.03
767.812	20018.2
768.148	20065.66
768.485	19834.48
768.821	19777.98
769.157	19882.16
769.492	19708.61
769.828	19787.02
770.164	19508.84
770.5	19460.93
770.836	19362.63
771.171	19336.64
771.507	19318.56
771.842	19164.67
772.178	19206.7
772.513	19166.47
772.849	19057.1
773.184	18944.11
773.519	18971.68
773.855	18899.36
774.19	18786.37
774.525	18683.77
774.86	18717.9
775.195	18571.23
775.53	18543.44
775.865	18371.69
776.2	18464.8
776.535	18185.26
776.87	18274.52
777.205	18124.24
777.539	18077.69
777.874	18168.08
778.209	17879.28
778.543	17836.79
778.878	17860.29
779.212	17803.8
779.547	17671.6
779.881	17645.84
780.215	17524.93
780.55	17569.68
780.884	17501.43
781.218	17385.28
781.552	17402.9
781.886	17314.77
782.22	17277.48
782.554	17203.59
782.888	17112.06
783.222	16979.86
783.556	16915.46
783.889	16866.65
784.223	16722.24
784.557	16757.72
784.89	16828
785.224	16711.17
785.557	16561.34
785.891	16550.95
786.224	16529.25
786.558	16534.23
786.891	16316.15
787.224	16374.46
787.557	16196.16
787.891	16198.64
788.224	16110.96
788.557	16234.57
788.89	16052.43
789.223	16072.77
789.556	15984.86
789.888	15940.8
790.221	15710.07
790.554	15769.27
790.887	15745.32
791.219	15645.21
791.552	15696.73
791.884	15606.34
792.217	15543.74
792.549	15431.66
792.882	15387.36
793.214	15295.39
793.546	15233.7
793.879	15161.61
794.211	15171.32
794.543	15129.29
794.875	15059.46
795.207	15097.88
795.539	15021.95
795.871	15008.39
796.203	14904.66
796.535	14779.02
796.867	14825.57
797.198	14827.15
797.53	14725.23
797.862	14664.44
798.193	14630.32
798.525	14514.62
798.856	14515.97
799.188	14452.25
799.519	14403.43
799.85	14334.74
800.182	14310.33
800.513	14280.5
800.844	14236.89
801.175	14246.6
801.506	14163.89
801.837	14119.83
802.168	14127.06
802.499	13993.5
802.83	13889.1
803.161	13916.44
803.491	13912.6
803.822	13958.7
804.153	13844.35
804.483	13757.12
804.814	13718.93
805.145	13645.49
805.475	13644.58
805.805	13592.38
806.136	13612.95
806.466	13554.87
806.796	13531.37
807.126	13408.43
807.457	13384.93
807.787	13403.01
808.117	13358.04
808.447	13290.02
808.777	13347.87
809.107	13175.22
809.436	13301.99
809.766	13214.09
810.096	13114.43
810.426	13055.9
810.755	13127.31
811.085	13106.97
811.414	13030.36
811.744	12944.72
812.073	12862.68
812.403	12938.39
812.732	12844.83
813.061	12942
813.39	12784.27
813.719	12691.84
814.049	12810.03
814.378	12779.52
814.707	12590.38
815.036	12681.22
815.365	12532.3
815.693	12507.21
816.022	12483.26
816.351	12437.84
816.68	12409.81
817.008	12450.72
817.337	12308.57
817.665	12290.04
817.994	12358.97
818.322	12318.07
818.651	12206.43
818.979	12209.82
819.307	12263.83
819.636	12194.68
819.964	12053.44
820.292	12137.28
820.62	12150.16
820.948	12024.29
821.276	12187.67
821.604	12019.77
821.932	12062.71
822.259	12096.83
822.587	12084.63
822.915	11991.97
823.243	12080.56
823.57	12043.5
823.898	12066.32
824.225	12001.01
824.553	11954.46
824.88	12067
825.207	12084.17
825.535	11944.97
825.862	12044.4
826.189	11999.2
826.516	11937.28
826.843	12066.1
827.17	12035.81
827.497	12113.55
827.824	12050.5
828.151	12081.24
828.478	12061.8
828.805	12054.57
829.131	11951.3
829.458	11940
829.785	11891.41
830.111	11954.23
830.438	12035.81
830.764	11949.04
831.09	11946.55
831.417	11954.01
831.743	12003.72
832.069	11914.91
832.395	11900.22
832.722	11914.69
833.048	11920.56
833.374	11901.58
833.7	11851.86
834.026	11882.15
834.351	11929.6
834.677	11922.37
835.003	11852.54
835.329	11884.18
835.654	11809.15
835.98	11749.72
836.306	11834.01
836.631	11737.29
836.956	11802.6
837.282	11773.45
837.607	11739.78
837.932	11699.78
838.258	11665.2
838.583	11620.91
838.908	11721.25
839.233	11604.64
839.558	11579.78
839.883	11550.4
840.208	11590.85
840.533	11591.53
840.858	11523.74
841.182	11509.73
841.507	11535.04
841.832	11399.9
842.156	11401.93
842.481	11324.19
842.805	11389.73
843.13	11297.53
843.454	11267.02
843.778	11206.91
844.103	11234.03
844.427	11203.74
844.751	11215.72
845.075	11204.87
845.399	11146.57
845.723	11078.1
846.047	11110.87
846.371	11022.51
846.695	11011.21
847.019	10978.67
847.343	10813.02
847.666	10809.18
847.99	10781.61
848.313	10780.93
848.637	10664.1
848.96	10705.23
849.284	10639.92
849.607	10568.06
849.931	10547.72
850.254	10478.34
850.577	10407.61
850.9	10323.09
851.223	10426.59
851.546	10328.74
851.869	10227.27
852.192	10302.75
852.515	10226.82
852.838	10134.62
853.161	10151.12
853.483	10112.93
853.806	10040.39
854.129	10057.33
854.451	9993.16
854.774	9972.59
855.096	9890.79
855.419	9840.62
855.741	9905.25
856.063	9804.46
856.385	9819.83
856.708	9741.41
857.03	9705.25
857.352	9696.21
857.674	9748.42
857.996	9705.03
858.318	9644.69
858.64	9634.75
858.961	9566.73
859.283	9557.69
859.605	9539.83
859.926	9489.44
860.248	9488.76
860.57	9397.69
860.891	9433.62
861.212	9404.24
861.534	9407.18
861.855	9366.05
862.176	9351.36
862.498	9360.4
862.819	9423
863.14	9230.01
863.461	9272.04
863.782	9200.41
864.103	9251.03
864.424	9202.22
864.745	9268.65
865.065	9240.18
865.386	9131.94
865.707	9158.83
866.027	9214.19
866.348	9110.92
866.668	9136.91
866.989	9059.17
867.309	9004.71
867.63	9031.82
867.95	9034.54
868.27	8988.66
868.59	8999.06
868.91	8991.6
869.23	9030.69
869.55	8945.5
869.87	8985.5
870.19	8964.93
870.51	8930.58
870.83	8969
871.15	8864.15
871.469	8889.91
871.789	8881.55
872.109	8856.24
872.428	8852.85
872.748	8831.38
873.067	8863.69
873.386	8778.72
873.706	8786.86
874.025	8726.52
874.344	8702.12
874.663	8757.93
874.982	8710.03
875.301	8692.4
875.62	8644.04
875.939	8615.34
876.258	8654.21
876.577	8620.08
876.896	8649.46
877.214	8604.27
877.533	8589.58
877.852	8585.28
878.17	8599.52
878.489	8553.42
878.807	8559.07
879.125	8518.84
879.444	8489.24
879.762	8453.53
880.08	8509.35
880.398	8500.99
880.716	8452.86
881.034	8488.56
881.352	8399.07
881.67	8407.43
881.988	8401.78
882.306	8382.8
882.624	8379.41
882.941	8350.71
883.259	8321.33
883.577	8294.89
883.894	8242.24
884.212	8291.05
884.529	8224.61
884.846	8225.29
885.164	8231.85
885.481	8126.76
885.798	8142.13
886.115	8133.77
886.432	8151.17
886.75	8091.74
887.067	8078.4
887.383	8056.26
887.7	8011.74
888.017	8012.87
888.334	8044.73
888.651	8009.48
888.967	7941.91
889.284	7924.74
889.6	7970.38
889.917	7878.63
890.233	7853.78
890.55	7821.24
890.866	7857.39
891.182	7808.13
891.498	7800.22
891.815	7709.83
892.131	7691.52
892.447	7751.41
892.763	7684.29
893.079	7700.56
893.395	7652.2
893.71	7687.68
894.026	7611.3
894.342	7582.6
894.657	7510.73
894.973	7532.43
895.289	7501.02
895.604	7509.83
895.92	7513.9
896.235	7452.66
896.55	7419.66
896.865	7428.48
897.181	7401.36
897.496	7402.26
897.811	7364.3
898.126	7339.89
898.441	7229.84
898.756	7211.31
899.071	7204.3
899.386	7218.76
899.7	7167.92
900.015	7136.06
900.33	7086.11
900.644	7089.73
900.959	7133.12
901.273	7078.66
901.588	7000.24
901.902	6998.88
902.216	6971.77
902.531	6940.81
902.845	6929.51
903.159	6875.72
903.473	6837.53
903.787	6860.36
904.101	6812.22
904.415	6817.19
904.729	6769.06
905.042	6706.24
905.356	6724.09
905.67	6671.21
905.984	6653.81
906.297	6687.93
906.611	6634.37
906.924	6590.08
907.237	6606.13
907.551	6556.18
907.864	6536.07
908.177	6494.94
908.491	6487.03
908.804	6449.07
909.117	6428.5
909.43	6342.18
909.743	6351.67
910.056	6338.56
910.368	6340.82
910.681	6286.81
910.994	6307.83
911.307	6233.03
911.619	6214.5
911.932	6256.3
912.244	6199.13
912.557	6163.2
912.869	6139.47
913.181	6174.72
913.494	6110.32
913.806	6030.1
914.118	6025.58
914.43	6026.03
914.742	6004.11
915.054	5908.97
915.366	5942.87
915.678	5929.08
915.99	5891.34
916.302	5878.91
916.613	5841.4
916.925	5805.02
917.236	5785.13
917.548	5786.71
917.859	5776.99
918.171	5727.5
918.482	5700.61
918.794	5687.96
919.105	5665.81
919.416	5609.99
919.727	5614.51
920.038	5574.51
920.349	5605.7
920.66	5561.41
920.971	5509.43
921.282	5507.85
921.593	5396.21
921.903	5412.71
922.214	5360.73
922.525	5370.23
922.835	5340.85
923.146	5343.79
923.456	5331.36
923.767	5256.33
924.077	5269.21
924.387	5273.51
924.697	5228.31
925.008	5217.69
925.318	5237.57
925.628	5155.09
925.938	5145.37
926.248	5132.27
926.558	5125.49
926.867	5076.9
927.177	5013.4
927.487	5017.47
927.796	5027.64
928.106	4989.45
928.416	4997.13
928.725	5010.01
929.034	4955.55
929.344	4944.25
929.653	4864.93
929.962	4907.64
930.271	4868.09
930.581	4847.75
930.89	4812.5
931.199	4767.3
931.508	4771.37
931.817	4710.36
932.125	4770.24
932.434	4772.73
932.743	4707.19
933.051	4656.57
933.36	4645.5
933.669	4620.64
933.977	4613.18
934.286	4613.64
934.594	4614.54
934.902	4542.23
935.21	4532.73
935.519	4507.42
935.827	4533.19
936.135	4458.16
936.443	4491.15
936.751	4450.02
937.059	4438.5
937.367	4404.38
937.674	4394.21
937.982	4359.18
938.29	4320.76
938.597	4349.69
938.905	4297.49
939.213	4306.75
939.52	4282.8
939.827	4268.56
940.135	4231.95
940.442	4220.2
940.749	4229.92
941.056	4171.39
941.363	4188.11
941.67	4129.13
941.977	4082.12
942.284	4121.9
942.591	4102.46
942.898	4110.15
943.205	4104.72
943.511	4038.74
943.818	4020.88
944.125	4015.23
944.431	3990.6
944.738	3942.24
945.044	3977.72
945.35	3918.74
945.657	3951.28
945.963	3913.54
946.269	3913.99
946.575	3893.2
946.881	3858.63
947.187	3845.52
947.493	3828.35
947.799	3795.13
948.105	3813.2
948.41	3817.27
948.716	3751.51
949.022	3756.48
949.327	3779.31
949.633	3713.77
949.938	3673.55
950.244	3709.25
950.549	3689.14
950.854	3648.69
951.16	3633.1
951.465	3645.53
951.77	3591.74
952.075	3592.19
952.38	3596.26
952.685	3588.58
952.99	3524.62
953.294	3539.99
953.599	3535.92
953.904	3476.72
954.209	3479.43
954.513	3464.51
954.818	3445.98
955.122	3436.94
955.426	3435.14
955.731	3428.81
956.035	3407.34
956.339	3408.47
956.643	3398.53
956.948	3375.25
957.252	3325.31
957.556	3336.38
957.86	3301.35
958.163	3271.07
958.467	3259.1
958.771	3272.43
959.075	3279.89
959.378	3260
959.682	3236.27
959.985	3243.5
960.289	3211.41
960.592	3210.28
960.896	3131.64
961.199	3170.96
961.502	3165.09
961.805	3152.88
962.108	3123.51
962.411	3069.27
962.714	3045.99
963.017	3078.76
963.32	3081.92
963.623	3088.25
963.926	3062.94
964.228	3022.49
964.531	3024.3
964.833	3015.49
965.136	2995.15
965.438	2997.86
965.741	2972.77
966.043	2963.51
966.345	2937.75
966.648	2941.59
966.95	2930.74
967.252	2888.26
967.554	2879.22
967.856	2864.3
968.158	2879.9
968.46	2894.81
968.761	2845.09
969.063	2809.84
969.365	2796.06
969.666	2802.61
969.968	2782.72
970.269	2773.01
970.571	2777.75
970.872	2720.58
971.174	2747.24
971.475	2751.09
971.776	2688.04
972.077	2707.02
972.378	2683.97
972.679	2716.28
972.98	2662.5
973.281	2695.49
973.582	2650.98
973.883	2662.27
974.183	2615.95
974.484	2631.31
974.785	2588.6
975.085	2588.15
975.386	2618.89
975.686	2582.5
975.986	2540.7
976.287	2558.1
976.587	2537.31
976.887	2582.95
977.187	2533.24
977.487	2530.3
977.787	2517.87
978.087	2469.51
978.387	2470.87
978.687	2493.47
978.987	2498.66
979.286	2467.48
979.586	2448.04
979.885	2425.9
980.185	2436.29
980.484	2392
980.784	2398.55
981.083	2390.19
981.382	2395.39
981.682	2364.43
981.981	2378.89
982.28	2374.82
982.579	2345.22
982.878	2363.07
983.177	2321.27
983.475	2286.69
983.774	2241.72
984.073	2275.39
984.372	2268.84
984.67	2265.22
984.969	2287.14
985.267	2260.25
985.566	2241.04
985.864	2216.64
986.162	2196.75
986.461	2192
986.759	2222.29
987.057	2201.5
987.355	2198.11
987.653	2192.91
987.951	2200.37
988.249	2166.47
988.547	2151.78
988.844	2130.31
989.142	2119.01
989.44	2090.31
989.737	2107.26
990.035	2109.97
990.332	2097.32
990.63	2074.27
990.927	2061.16
991.224	2062.74
991.521	2060.93
991.819	2044.21
992.116	2050.77
992.413	2020.26
992.71	2015.96
993.006	2001.95
993.303	1982.07
993.6	1994.27
993.897	1982.07
994.193	1960.6
994.49	1956.76
994.787	1939.36
995.083	1948.85
995.379	1922.18
995.676	1936.19
995.972	1918.11
996.268	1894.61
996.565	1877.89
996.861	1860.94
997.157	1895.52
997.453	1870.21
997.749	1873.59
998.044	1861.84
998.34	1805.35
998.636	1838.79
998.932	1791.11
999.227	1826.14
999.523	1813.71
999.818	1767.38
1000.114	1783.88
1000.409	1790.21
1000.704	1781.39
1001	1774.39
1001.295	1735.75
1001.59	1735.97
1001.885	1741.17
1002.18	1719.25
1002.475	1727.38
1002.77	1716.08
1003.065	1708.85
1003.359	1718.57
1003.654	1703.88
1003.949	1698.91
1004.243	1664.11
1004.538	1678.8
1004.832	1676.99
1005.127	1632.47
1005.421	1640.38
1005.715	1648.29
1006.009	1634.96
1006.304	1619.59
1006.598	1601.06
1006.892	1593.15
1007.186	1554.73
1007.48	1571.46
1007.773	1547.73
1008.067	1549.54
1008.361	1505.69
1008.655	1534.17
1008.948	1514.06
1009.242	1505.24
1009.535	1476.54
1009.829	1512.93
1010.122	1494.17
1010.415	1489.65
1010.708	1498.92
1011.001	1487.16
1011.295	1443.78
1011.588	1461.63
1011.881	1433.15
1012.173	1431.12
1012.466	1430.67
1012.759	1416.88
1013.052	1410.78
1013.344	1411.23
1013.637	1390.9
1013.93	1414.85
1014.222	1377.34
1014.514	1375.08
1014.807	1366.04
1015.099	1340.95
1015.391	1344.34
1015.683	1371.24
1015.976	1337.56
1016.268	1337.11
1016.56	1347.05
1016.851	1342.76
1017.143	1311.58
1017.435	1327.17
1017.727	1308.64
1018.018	1283.78
1018.31	1294.18
1018.602	1298.47
1018.893	1283.78
1019.185	1248.3
1019.476	1275.42
1019.767	1244.23
1020.058	1218.7
1020.35	1222.99
1020.641	1234.74
1020.932	1223.44
1021.223	1208.53
1021.514	1194.29
1021.804	1211.69
1022.095	1207.85
1022.386	1168.53
1022.677	1182.77
1022.967	1153.61
1023.258	1130.56
1023.548	1128.76
1023.839	1150.68
1024.129	1146.38
1024.419	1114.29
1024.709	1133.95
1025	1084.01
1025.29	1103.67
1025.58	1118.81
1025.87	1090.56
1026.16	1073.16
1026.449	1094.86
1026.739	1067.06
1027.029	1048.53
1027.319	1064.58
1027.608	1038.14
1027.898	1072.26
1028.187	1032.71
1028.477	1029.78
1028.766	1012.37
1029.055	1039.49
1029.344	1009.21
1029.634	1018.7
1029.923	1002.66
1030.212	999.95
1030.501	1000.17
1030.79	947.29
1031.078	968.53
1031.367	993.39
1031.656	964.24
1031.945	952.04
1032.233	942.55
1032.522	936.67
1032.81	949.1
1033.099	949.55
1033.387	942.09
1033.675	915.2
1033.963	924.24
1034.251	919.95
1034.54	935.77
1034.828	916.78
1035.116	905.94
1035.403	891.25
1035.691	881.53
1035.979	899.38
1036.267	853.96
1036.554	881.08
1036.842	864.13
1037.129	868.88
1037.417	876.11
1037.704	859.61
1037.992	849.44
1038.279	847.63
1038.566	822.77
1038.853	822.77
1039.14	822.77
