Data from hue_250_FLMS001491_00082.txt Node
Date: Tue Feb 07 16:01:34 GMT 2017
User: dcchb
Spectrometer: FLMS00149
Trigger mode: 0
Integration Time (sec): 2.000000E-2
Scans to average: 10
Electric dark correction enabled: true
Nonlinearity correction enabled: false
Boxcar width: 0
XAxis mode: Wavelengths
Number of Pixels in Spectrum: 2048
>>>>>Begin Spectral Data<<<<<
341.393	-9.08
341.776	-9.08
342.16	-9.08
342.543	-49.31
342.927	-72.81
343.31	-67.61
343.693	-70.77
344.077	-65.8
344.46	-37.78
344.843	-51.79
345.226	-46.14
345.61	-36.43
345.993	-27.84
346.376	-12.25
346.759	15.32
347.142	8.32
347.525	60.52
347.908	74.98
348.291	65.94
348.674	81.54
349.057	109.79
349.44	117.24
349.823	161.31
350.206	152.95
350.588	207.41
350.971	200.18
351.354	211.03
351.737	239.95
352.119	236.56
352.502	248.31
352.884	254.41
353.267	272.94
353.65	281.76
354.032	275.66
354.414	298.25
354.797	303.68
355.179	327.86
355.562	341.64
355.944	312.27
356.326	318.14
356.709	333.73
357.091	338.25
357.473	328.99
357.855	326.5
358.238	322.44
358.62	331.93
359.002	330.12
359.384	335.77
359.766	333.28
360.148	321.76
360.53	322.44
360.912	313.85
361.294	326.28
361.676	331.47
362.057	314.98
362.439	337.58
362.821	300.06
363.203	318.37
363.584	313.4
363.966	321.31
364.348	319.95
364.729	321.08
365.111	328.76
365.493	291.25
365.874	304.13
366.256	311.81
366.637	285.6
367.019	287.18
367.4	296.45
367.781	316.11
368.163	291.02
368.544	303
368.925	293.96
369.306	310.46
369.688	307.29
370.069	323.11
370.45	326.05
370.831	293.28
371.212	314.3
371.593	299.84
371.974	295.77
372.355	307.75
372.736	314.75
373.117	301.42
373.498	312.94
373.879	304.36
374.26	319.72
374.641	316.56
375.021	298.03
375.402	319.72
375.783	328.54
376.163	338.25
376.544	324.69
376.925	340.51
377.305	299.61
377.686	298.71
378.066	322.44
378.447	330.12
378.827	316.56
379.208	326.73
379.588	351.81
379.968	330.8
380.349	335.09
380.729	326.95
381.109	332.6
381.489	326.5
381.87	338.25
382.25	354.75
382.63	333.28
383.01	352.04
383.39	336.22
383.77	310.01
384.15	349.1
384.53	315.43
384.91	339.84
385.29	326.05
385.67	341.87
386.049	364.92
386.429	339.84
386.809	343.23
387.189	363.11
387.568	348.65
387.948	344.81
388.328	359.95
388.707	368.54
389.087	362.89
389.466	354.75
389.846	347.07
390.225	368.31
390.605	364.24
390.984	366.05
391.363	361.76
391.743	366.05
392.122	369.89
392.501	358.14
392.881	386.39
393.26	377.35
393.639	368.31
394.018	374.41
394.397	366.73
394.776	368.99
395.155	372.38
395.534	386.39
395.913	375.77
396.292	375.31
396.671	392.26
397.05	416.67
397.429	382.32
397.808	396.11
398.186	379.38
398.565	383.22
398.944	390.91
399.323	421.19
399.701	404.69
400.08	395.88
400.458	397.46
400.837	414.41
401.215	431.58
401.594	395.2
401.972	422.77
402.351	418.25
402.729	435.88
403.107	401.08
403.486	439.04
403.864	443.56
404.242	435.2
404.62	438.14
404.999	423.45
405.377	415.99
405.755	458.93
406.133	449.89
406.511	445.82
406.889	437.01
407.267	468.42
407.645	469.32
408.023	469.32
408.401	470.45
408.779	477.46
409.156	498.7
409.534	482.66
409.912	486.27
410.29	503.22
410.667	495.54
411.045	516.1
411.422	528.76
411.8	499.83
412.178	536.44
412.555	531.24
412.933	553.16
413.31	558.36
413.687	552.03
414.065	568.08
414.442	548.87
414.819	574.41
415.197	557.46
415.574	589.77
415.951	587.06
416.328	614.86
416.705	602.2
417.082	601.07
417.46	588.87
417.837	607.4
418.214	645.59
418.591	635.42
418.967	622.09
419.344	623.22
419.721	660.96
420.098	654.18
420.475	646.27
420.852	662.31
421.228	693.27
421.605	694.85
421.982	697.34
422.358	698.7
422.735	710.45
423.111	716.55
423.488	713.39
423.864	734.63
424.241	737.11
424.617	776.43
424.994	749.99
425.37	790.9
425.746	780.73
426.123	821.86
426.499	788.41
426.875	802.2
427.251	828.18
427.627	861.18
428.003	853.04
428.379	848.75
428.756	853.27
429.132	879.48
429.507	898.69
429.883	882.42
430.259	926.71
430.635	910.22
431.011	931.68
431.387	946.6
431.763	934.85
432.138	957.45
432.514	976.43
432.89	992.25
433.265	988.41
433.641	1032.25
434.016	1024.79
434.392	1053.94
434.767	1066.82
435.143	1074.05
435.518	1076.09
435.894	1102.3
436.269	1121.06
436.644	1144.11
437.02	1163.99
437.395	1160.83
437.77	1164.9
438.145	1187.05
438.52	1213.26
438.895	1192.47
439.271	1246.93
439.646	1250.09
440.021	1289.64
440.395	1253.26
440.77	1251.45
441.145	1281.28
441.52	1328.51
441.895	1308.17
442.27	1316.53
442.645	1334.61
443.019	1408.51
443.394	1354.95
443.769	1393.82
444.143	1342.97
444.518	1410.09
444.892	1368.74
445.267	1413.03
445.641	1435.85
446.016	1435.4
446.39	1438.56
446.764	1467.04
447.139	1473.82
447.513	1473.14
447.887	1483.53
448.262	1475.17
448.636	1498.22
449.01	1539.8
449.384	1522.4
449.758	1555.4
450.132	1579.8
450.506	1594.49
450.88	1583.42
451.254	1578.67
451.628	1580.03
452.002	1625.68
452.376	1609.41
452.75	1652.8
453.123	1664.77
453.497	1703.42
453.871	1712
454.244	1709.52
454.618	1762.4
454.992	1765.79
455.365	1774.83
455.739	1840.59
456.112	1822.51
456.486	1814.15
456.859	1852.34
457.232	1855.95
457.606	1874.94
457.979	1881.26
458.352	1926.46
458.725	1918.78
459.099	1947.93
459.472	1969.4
459.845	1992.67
460.218	2020.92
460.591	2022.5
460.964	2028.83
461.337	2109.51
461.71	2125.1
462.083	2159
462.456	2094.37
462.829	2156.06
463.201	2166.23
463.574	2225.66
463.947	2246.68
464.32	2264.53
464.692	2250.75
465.065	2294.59
465.438	2330.74
465.81	2353.57
466.183	2352.89
466.555	2397.63
466.928	2414.36
467.3	2428.59
467.672	2452.32
468.045	2555.14
468.417	2525.77
468.789	2544.3
469.161	2539.1
469.534	2610.06
469.906	2635.82
470.278	2699.1
470.65	2676.27
471.022	2756.72
471.394	2787.68
471.766	2824.06
472.138	2848.02
472.51	2876.04
472.882	2912.65
473.253	2915.14
473.625	2966.89
473.997	3019.31
474.369	3051.18
474.74	3044.4
475.112	3150.84
475.484	3145.41
475.855	3219.76
476.227	3244.39
476.598	3293.88
476.97	3377.27
477.341	3373.2
477.713	3434.22
478.084	3464.05
478.455	3564.61
478.827	3593.31
479.198	3648.45
479.569	3669.01
479.94	3741.33
480.311	3810.03
480.682	3853.64
481.053	3920.31
481.424	3973.41
481.795	3997.14
482.166	4047.31
482.537	4111.94
482.908	4183.12
483.279	4204.14
483.65	4275.78
484.021	4332.05
484.391	4396.68
484.762	4423.57
485.133	4436.23
485.503	4499.27
485.874	4599.84
486.244	4598.25
486.615	4730.91
486.985	4735.65
487.356	4819.72
487.726	4825.14
488.097	4932.48
488.467	4943.33
488.837	5048.64
489.207	5095.42
489.578	5162.08
489.948	5157.56
490.318	5250.89
490.688	5198.24
491.058	5360.95
491.428	5348.07
491.798	5387.61
492.168	5450.89
492.538	5505.8
492.908	5612.01
493.278	5660.15
493.648	5637.32
494.017	5671.22
494.387	5735.17
494.757	5750.09
495.126	5845.45
495.496	5850.2
495.866	5881.16
496.235	5988.27
496.605	5978.78
496.974	6037.54
497.344	6076.86
497.713	6059.91
498.082	6129.06
498.452	6165.22
498.821	6130.42
499.19	6168.38
499.559	6215.39
499.928	6298.1
500.298	6287.7
500.667	6289.96
501.036	6291.09
501.405	6383.07
501.774	6348.72
502.143	6418.32
502.512	6411.54
502.88	6444.31
503.249	6463.29
503.618	6511.65
503.987	6536.28
504.356	6530.41
504.724	6558.2
505.093	6623.96
505.462	6628.03
505.83	6640.01
506.199	6690.18
506.567	6759.78
506.936	6736.96
507.304	6781.25
507.672	6825.54
508.041	6789.38
508.409	6868.48
508.777	6928.59
509.145	6961.36
509.514	6924.97
509.882	6933.11
510.25	6945.54
510.618	7032.54
510.986	7075.25
511.354	7030.51
511.722	7001.13
512.09	7078.87
512.458	7130.84
512.826	7129.26
513.193	7182.59
513.561	7178.98
513.929	7250.39
514.297	7256.04
514.664	7317.05
515.032	7250.16
515.4	7285.87
515.767	7290.84
516.135	7320.9
516.502	7285.64
516.869	7319.99
517.237	7380.78
517.604	7346.66
517.972	7489.48
518.339	7414
518.706	7442.02
519.073	7450.84
519.44	7471.85
519.808	7554.79
520.175	7524.28
520.542	7554.11
520.909	7577.39
521.276	7543.94
521.643	7602.7
522.009	7663.94
522.376	7645.63
522.743	7668.23
523.11	7657.84
523.477	7787.32
523.843	7768.79
524.21	7848.56
524.577	7849.92
524.943	7884.27
525.31	7878.39
525.676	7947.77
526.043	7954.1
526.409	7919.07
526.776	7979.86
527.142	7936.25
527.508	7976.7
527.874	7981.89
528.241	8064.15
528.607	8002.01
528.973	8030.48
529.339	7975.12
529.705	8072.29
530.071	8135.56
530.437	8099.18
530.803	8119.07
531.169	8126.52
531.535	8129.69
531.901	8213.75
532.267	8162
532.632	8183.47
532.998	8154.55
533.364	8236.13
533.73	8206.07
534.095	8211.49
534.461	8227.09
534.826	8197.26
535.192	8240.87
535.557	8267.08
535.923	8225.96
536.288	8171.04
536.653	8246.97
537.019	8173.53
537.384	8195.9
537.749	8269.8
538.114	8267.08
538.479	8152.29
538.845	8169.46
539.21	8166.07
539.575	8246.29
539.94	8216.46
540.305	8195.22
540.67	8254.2
541.034	8149.35
541.399	8196.8
541.764	8275.45
542.129	8180.08
542.494	8248.33
542.858	8152.29
543.223	8129.91
543.587	8214.66
543.952	8144.15
544.316	8149.57
544.681	8136.47
545.045	8186.86
545.41	8178.27
545.774	8165.39
546.138	8152.06
546.503	8140.99
546.867	8129.46
547.231	8187.99
547.595	8173.75
547.959	8154.77
548.324	8171.72
548.688	8087.65
549.052	8141.44
549.416	8141.89
549.779	8079.75
550.143	8127.2
550.507	8173.3
550.871	8158.16
551.235	8103.7
551.599	8164.04
551.962	8129.01
552.326	8116.58
552.689	8151.61
553.053	8050.59
553.417	8136.01
553.78	8171.49
554.143	8180.53
554.507	8195.67
554.87	8196.13
555.234	8183.92
555.597	8158.61
555.96	8203.13
556.323	8225.73
556.686	8226.41
557.05	8187.54
557.413	8221.21
557.776	8222.79
558.139	8310.47
558.502	8192.06
558.865	8237.26
559.228	8240.19
559.59	8248.1
559.953	8295.56
560.316	8348.89
560.679	8305.95
561.041	8356.57
561.404	8392.96
561.767	8430.47
562.129	8413.07
562.492	8472.05
562.854	8419.4
563.217	8324.94
563.579	8408.32
563.941	8432.96
564.304	8495.33
564.666	8492.84
565.028	8479.96
565.39	8555.21
565.753	8564.7
566.115	8609.45
566.477	8601.09
566.839	8563.8
567.201	8615.55
567.563	8694.87
567.925	8717.92
568.287	8657.13
568.648	8752.27
569.01	8774.87
569.372	8760.18
569.734	8800.86
570.095	8846.73
570.457	8904.13
570.819	8859.16
571.18	8842.21
571.542	8924.47
571.903	8922.66
572.265	8929.44
572.626	8947.07
572.987	8951.59
573.349	8948.2
573.71	9012.15
574.071	9070.23
574.432	9092.37
574.794	9122.88
575.155	9119.94
575.516	9119.49
575.877	9145.48
576.238	9163.56
576.599	9255.76
576.96	9201.07
577.32	9177.57
577.681	9266.38
578.042	9258.47
578.403	9255.99
578.763	9327.62
579.124	9330.79
579.485	9366.94
579.845	9392.03
580.206	9415.76
580.566	9404.46
580.927	9369.65
581.287	9387.96
581.648	9424.34
582.008	9434.96
582.368	9428.41
582.728	9519.71
583.089	9533.72
583.449	9438.81
583.809	9494.85
584.169	9486.04
584.529	9458.01
584.889	9548.63
585.249	9468.18
585.609	9552.93
585.969	9598.8
586.329	9596.77
586.688	9659.59
587.048	9607.84
587.408	9606.71
587.768	9605.35
588.127	9637.22
588.487	9622.76
588.846	9710.21
589.206	9665.01
589.565	9636.77
589.925	9710.66
590.284	9653.72
590.643	9699.14
591.003	9730.55
591.362	9741.17
591.721	9699.14
592.08	9771.23
592.44	9760.38
592.799	9799.93
593.158	9796.54
593.517	9763.77
593.876	9774.16
594.235	9760.38
594.593	9800.83
594.952	9849.19
595.311	9767.38
595.67	9820.72
596.029	9929.64
596.387	9865.23
596.746	9929.64
597.104	9880.6
597.463	9838.34
597.822	9899.36
598.18	9871.34
598.538	9866.82
598.897	9866.36
599.255	9756.76
599.613	9972.58
599.972	9907.49
600.33	9964.22
600.688	9828.85
601.046	9917.89
601.404	9976.42
601.762	9945.01
602.12	9973.93
602.478	9939.58
602.836	10014.16
603.194	9980.03
603.552	9912.01
603.91	9955.85
604.268	10003.08
604.625	9910.66
604.983	9954.27
605.341	9930.77
605.698	10010.09
606.056	10044.21
606.413	9981.16
606.771	10014.61
607.128	10014.84
607.485	9974.84
607.843	10058
608.2	10108.62
608.557	10095.51
608.914	10061.16
609.272	10132.57
609.629	10151.1
609.986	10055.74
610.343	10062.29
610.7	10210.31
611.057	10126.02
611.414	10147.94
611.771	10236.52
612.127	10211.21
612.484	10183.64
612.841	10267.94
613.198	10159.24
613.554	10206.24
613.911	10272.68
614.267	10302.74
614.624	10172.35
614.98	10275.39
615.337	10272.68
615.693	10248.28
616.05	10317.2
616.406	10278.56
616.762	10218.9
617.118	10235.62
617.475	10305.68
617.831	10270.87
618.187	10269.74
618.543	10243.76
618.899	10364.2
619.255	10349.29
619.611	10295.73
619.967	10366.92
620.323	10383.87
620.678	10335.28
621.034	10356.3
621.39	10308.84
621.746	10317.65
622.101	10441.94
622.457	10353.58
622.812	10325.56
623.168	10454.6
623.523	10374.83
623.879	10453.24
624.234	10367.14
624.589	10339.57
624.945	10391.32
625.3	10428.16
625.655	10358.1
626.01	10357.88
626.365	10371.66
626.72	10333.47
627.075	10368.5
627.43	10425.45
627.785	10337.76
628.14	10279.24
628.495	10345.67
628.85	10329.4
629.205	10330.53
629.559	10292.57
629.914	10256.19
630.269	10326.47
630.623	10239.46
630.978	10237.88
631.332	10282.17
631.687	10293.7
632.041	10219.58
632.396	10257.77
632.75	10255.51
633.104	10270.42
633.459	10197.2
633.813	10156.53
634.167	10194.04
634.521	10186.58
634.875	10186.58
635.229	10149.3
635.583	10088.05
635.937	10087.6
636.291	10132.8
636.645	10108.39
636.999	10070.88
637.352	10068.62
637.706	10073.82
638.06	9953.59
638.413	10082.18
638.767	10030.2
639.121	9965.35
639.474	9984.33
639.828	9928.51
640.181	9982.97
640.534	10079.47
640.888	9936.19
641.241	9935.52
641.594	9939.13
641.947	9982.97
642.301	9858.91
642.654	9962.86
643.007	9906.14
643.36	9861.85
643.713	9914.27
644.066	9901.39
644.419	9865.46
644.771	9804.9
645.124	9677.9
645.477	9754.96
645.83	9610.33
646.182	9576.2
646.535	9576.43
646.888	9601.51
647.24	9544.34
647.593	9618.24
647.945	9568.07
648.298	9514.96
648.65	9475.41
649.002	9468.64
649.355	9543.44
649.707	9537.11
650.059	9492.82
650.411	9593.6
650.763	9634.96
651.115	9761.28
651.467	9797.44
651.819	9766.25
652.171	9695.97
652.523	9661.17
652.875	9672.7
653.227	9637.9
653.578	9697.1
653.93	9681.51
654.282	9708.63
654.633	9685.8
654.985	9687.61
655.337	9693.04
655.688	9714.05
656.039	9671.12
656.391	9656.2
656.742	9648.52
657.094	9667.05
657.445	9726.03
657.796	9644.68
658.147	9676.54
658.498	9625.69
658.849	9709.08
659.2	9700.95
659.551	9653.72
659.902	9625.24
660.253	9625.24
660.604	9616.88
660.955	9602.19
661.306	9675.86
661.656	9621.17
662.007	9669.99
662.358	9592.02
662.708	9577.33
663.059	9594.96
663.409	9578.69
663.76	9602.19
664.11	9671.79
664.461	9631.79
664.811	9637.67
665.161	9628.41
665.511	9603.09
665.862	9572.59
666.212	9676.09
666.562	9665.01
666.912	9675.64
667.262	9632.7
667.612	9635.18
667.962	9688.06
668.312	9632.47
668.662	9726.26
669.011	9612.81
669.361	9632.92
669.711	9673.83
670.06	9557.45
670.41	9632.7
670.76	9601.97
671.109	9617.11
671.459	9611.46
671.808	9573.94
672.157	9554.73
672.507	9519.03
672.856	9589.76
673.205	9592.25
673.554	9583.89
673.904	9502.76
674.253	9582.98
674.602	9501.63
674.951	9339.83
675.3	9316.32
675.649	9495.53
675.998	9490.1
676.346	9470.22
676.695	9501.4
677.044	9455.53
677.393	9446.94
677.741	9435.42
678.09	9429.54
678.438	9418.02
678.787	9438.35
679.135	9410.33
679.484	9310
679.832	9379.6
680.181	9362.65
680.529	9331.69
680.877	9306.38
681.225	9307.06
681.573	9355.42
681.922	9271.8
682.27	9265.25
682.618	9234.29
682.966	9254.4
683.314	9253.73
683.661	9188.64
684.009	9207.17
684.357	9158.13
684.705	9173.73
685.053	9123.11
685.4	9073.17
685.748	9116.78
686.095	9088.53
686.443	9098.7
686.79	9001.98
687.138	9066.39
687.485	9048.76
687.832	9034.97
688.18	9015.31
688.527	8952.04
688.874	8908.2
689.221	8945.94
689.568	8870.46
689.915	8809.44
690.262	8861.65
690.609	8815.32
690.956	8788.2
691.303	8726.51
691.65	8744.36
691.997	8714.98
692.344	8612.16
692.69	8690.8
693.037	8624.36
693.383	8623.46
693.73	8581.2
694.077	8527.42
694.423	8554.31
694.769	8480.64
695.116	8496.68
695.462	8413.75
695.808	8438.61
696.155	8423.24
696.501	8389.12
696.847	8351.15
697.193	8243.58
697.539	8340.3
697.885	8263.47
698.231	8274.54
698.577	8223.02
698.923	8157.03
699.269	8149.35
699.614	8118.16
699.96	8145.28
700.306	8085.85
700.651	8033.42
700.997	8053.98
701.342	8032.06
701.688	7975.12
702.033	7984.38
702.379	7957.04
702.724	7924.72
703.069	7814.44
703.415	7837.04
703.76	7864.38
704.105	7874.33
704.45	7869.36
704.795	7792.97
705.14	7702.35
705.485	7731.73
705.83	7700.77
706.175	7710.72
706.52	7658.29
706.865	7691.96
707.209	7592.98
707.554	7575.35
707.899	7566.99
708.243	7474.34
708.588	7548.23
708.932	7492.19
709.277	7541.45
709.621	7546.43
709.966	7437.05
710.31	7456.71
710.654	7392.31
710.998	7420.55
711.342	7388.01
711.687	7342.36
712.031	7361.35
712.375	7289.71
712.719	7310.27
713.063	7320.67
713.407	7320.9
713.75	7281.35
714.094	7288.13
714.438	7205.87
714.782	7253.78
715.125	7198.19
715.469	7176.94
715.812	7149.83
716.156	7139.2
716.499	7178.75
716.843	7133.56
717.186	7069.6
717.53	7147.79
717.873	7101.01
718.216	7083.61
718.559	7049.49
718.902	7024.86
719.246	7035.93
719.589	7034.35
719.932	6997.97
720.275	6957.06
720.617	7055.14
720.96	6982.82
721.303	7039.32
721.646	6984.63
721.989	6909.83
722.331	6931.75
722.674	6924.52
723.016	6967.01
723.359	6919.55
723.701	6925.65
724.044	6905.99
724.386	6878.87
724.729	6908.7
725.071	6864.64
725.413	6879.32
725.755	6881.58
726.097	6867.35
726.439	6816.28
726.782	6811.76
727.124	6829.83
727.465	6850.17
727.807	6844.3
728.149	6869.38
728.491	6874.58
728.833	6869.83
729.175	6781.7
729.516	6777.41
729.858	6813.34
730.199	6806.56
730.541	6820.34
730.882	6783.51
731.224	6811.76
731.565	6804.75
731.906	6783.51
732.248	6759.78
732.589	6743.06
732.93	6719.78
733.271	6775.82
733.612	6737.86
733.953	6731.76
734.294	6739.89
734.635	6754.13
734.976	6760.46
735.317	6718.88
735.658	6735.37
735.999	6770.4
736.339	6697.41
736.68	6713
737.021	6700.8
737.361	6769.95
737.702	6761.36
738.042	6706.67
738.383	6728.82
738.723	6779.21
739.063	6797.29
739.404	6740.12
739.744	6756.39
740.084	6766.56
740.424	6774.92
740.764	6730.85
741.104	6742.61
741.444	6771.53
741.784	6795.94
742.124	6779.44
742.464	6779.21
742.804	6743.96
743.143	6807.24
743.483	6855.82
743.823	6753.9
744.162	6838.42
744.502	6787.12
744.841	6823.51
745.181	6840.91
745.52	6869.83
745.86	6931.75
746.199	6904.86
746.538	6942.83
746.877	6936.27
747.216	7014.24
747.556	7045.65
747.895	7090.39
748.234	7031.86
748.573	7113.89
748.911	7143.95
749.25	7195.25
749.589	7184.63
749.928	7258.07
750.267	7308.69
750.605	7336.94
750.944	7371.74
751.283	7381.01
751.621	7482.7
751.96	7495.35
752.298	7563.6
752.636	7585.97
752.975	7641.79
753.313	7730.6
753.651	7796.59
753.989	7795.23
754.327	7903.93
754.666	8019.63
755.004	8081.78
755.342	8205.39
755.679	8232.06
756.017	8296.69
756.355	8403.13
756.693	8441.54
757.031	8629.56
757.368	8644.48
757.706	8710.69
758.044	8851.25
758.381	8903.9
758.719	8960.63
759.056	9153.84
759.394	9193.61
759.731	9346.15
760.068	9364.91
760.405	9452.36
760.743	9570.55
761.08	9697.78
761.417	9770.32
761.754	9850.32
762.091	9962.86
762.428	10076.08
762.765	10149.75
763.102	10259.57
763.438	10324.43
763.775	10417.08
764.112	10572.56
764.449	10653.46
764.785	10687.59
765.122	10872.67
765.458	10891.65
765.795	11011.19
766.131	11121.02
766.467	11227.91
766.804	11202.37
767.14	11270.17
767.476	11405.76
767.812	11429.04
768.148	11577.28
768.485	11682.14
768.821	11705.19
769.157	11733.43
769.492	11827.67
769.828	12031.05
770.164	11868.35
770.5	12027.44
770.836	12082.13
771.171	12035.12
771.507	12069.92
771.842	12158.73
772.178	12308.56
772.513	12357.15
772.849	12390.14
773.184	12455.68
773.519	12473.98
773.855	12468.78
774.19	12424.94
774.525	12477.82
774.86	12512.85
775.195	12632.17
775.53	12613.64
775.865	12597.37
776.2	12591.26
776.535	12558.5
776.87	12614.77
777.205	12663.58
777.539	12672.84
777.874	12744.03
778.209	12633.75
778.543	12723.24
778.878	12630.59
779.212	12693.18
779.547	12622.45
779.881	12712.62
780.215	12712.84
780.55	12727.98
780.884	12677.82
781.218	12634.2
781.552	12805.04
781.886	12760.98
782.22	12681.43
782.554	12660.19
782.888	12583.36
783.222	12589.01
783.556	12547.65
783.889	12479.18
784.223	12582.9
784.557	12495.45
784.89	12684.82
785.224	12528.44
785.557	12536.13
785.891	12481.66
786.224	12526.63
786.558	12498.39
786.891	12455.22
787.224	12386.75
787.557	12403.93
787.891	12467.2
788.224	12352.18
788.557	12384.72
788.89	12364.15
789.223	12315.57
789.556	12311.72
789.888	12312.63
790.221	12289.35
790.554	12192.41
790.887	12133.42
791.219	12102.01
791.552	12196.02
791.884	12130.03
792.217	12101.79
792.549	12143.59
792.882	12055.23
793.214	11950.6
793.546	12070.15
793.879	11876.48
794.211	11862.02
794.543	12016.14
794.875	11897.5
795.207	11902.7
795.539	11881.91
795.871	11911.28
796.203	11852.3
796.535	11795.35
796.867	11742.25
797.198	11737.5
797.53	11751.06
797.862	11575.25
798.193	11628.8
798.525	11534.34
798.856	11591.97
799.188	11502.71
799.519	11466.55
799.85	11416.15
800.182	11448.02
800.513	11407.34
800.844	11270.4
801.175	11448.02
801.506	11361.92
801.837	11348.59
802.168	11381.58
802.499	11273.79
802.83	11282.82
803.161	11183.62
803.491	11206.22
803.822	11225.65
804.153	11131.42
804.483	11071.76
804.814	11093.9
805.145	11055.26
805.475	11099.1
805.805	10954.47
806.136	10937.07
806.466	10951.08
806.796	10949.27
807.126	10886
807.457	10899.56
807.787	10922.61
808.117	10824.31
808.447	10833.12
808.777	10874.93
809.107	10839.9
809.436	10834.02
809.766	10756.28
810.096	10691.43
810.426	10727.81
810.755	10661.15
811.085	10657.08
811.414	10597.42
811.744	10545.44
812.073	10583.41
812.403	10544.54
812.732	10477.65
813.061	10573.01
813.39	10475.39
813.719	10414.83
814.049	10466.35
814.378	10420.02
814.707	10434.03
815.036	10435.39
815.365	10357.43
815.693	10265.45
816.022	10297.31
816.351	10292.34
816.68	10256.41
817.008	10279.69
817.337	10149.07
817.665	10184.55
817.994	10215.96
818.322	10177.32
818.651	10162.63
818.979	10060.26
819.307	10197.66
819.636	10150.65
819.964	10097.77
820.292	10110.43
820.62	10123.08
820.948	10025
821.276	10161.95
821.604	10033.82
821.932	10014.84
822.259	10105.68
822.587	10014.38
822.915	10020.49
823.243	10035.17
823.57	10002.86
823.898	10005.57
824.225	10029.52
824.553	9928.28
824.88	9971.22
825.207	10131.67
825.535	9974.16
825.862	9984.55
826.189	10014.38
826.516	9987.04
826.843	10075.85
827.17	10019.13
827.497	10114.04
827.824	10001.95
828.151	10086.47
828.478	10024.55
828.805	10081.27
829.131	10057.32
829.458	10007.6
829.785	9959.47
830.111	9996.3
830.438	10101.84
830.764	10078.11
831.09	10032.24
831.417	9991.33
831.743	9964.44
832.069	10018.68
832.395	9993.82
832.722	9985.01
833.048	9978.68
833.374	9996.76
833.7	9969.19
834.026	9893.48
834.351	9953.82
834.677	9888.51
835.003	10005.34
835.329	9931.9
835.654	9891.67
835.98	9876.08
836.306	9948.4
836.631	9875.18
836.956	9912.69
837.282	9856.87
837.607	9850.32
837.932	9759.02
838.258	9866.59
838.583	9849.42
838.908	9728.29
839.233	9784.11
839.558	9778.46
839.883	9707.5
840.208	9732.36
840.533	9707.05
840.858	9664.79
841.182	9735.97
841.507	9693.71
841.832	9659.14
842.156	9594.51
842.481	9614.39
842.805	9611.46
843.13	9589.31
843.454	9537.56
843.778	9449.43
844.103	9511.57
844.427	9511.8
844.751	9496.21
845.075	9484
845.399	9441.29
845.723	9366.49
846.047	9393.61
846.371	9256.44
846.695	9333.95
847.019	9248.98
847.343	9171.47
847.666	9137.34
847.99	9103.22
848.313	9131.92
848.637	9120.4
848.96	9030.91
849.284	9037.91
849.607	8940.97
849.931	8962.66
850.254	8903.9
850.577	8854.87
850.9	8758.37
851.223	8771.7
851.546	8707.98
851.869	8659.39
852.192	8716.56
852.515	8660.52
852.838	8628.88
853.161	8614.87
853.483	8568.77
853.806	8512.73
854.129	8551.15
854.451	8507.3
854.774	8446.29
855.096	8463.69
855.419	8466.85
855.741	8432.05
856.063	8319.74
856.385	8364.94
856.708	8328.78
857.03	8305.73
857.352	8342.11
857.674	8243.58
857.996	8248.33
858.318	8159.52
858.64	8169.69
858.961	8150.25
859.283	8165.62
859.605	8069.35
859.926	8114.77
860.248	8099.63
860.57	7958.62
860.891	8030.93
861.212	8023.7
861.534	8005.17
861.855	7940.09
862.176	7929.47
862.498	8006.3
862.819	7910.03
863.14	7946.19
863.461	7916.81
863.782	7912.29
864.103	7843.82
864.424	7849.92
864.745	7805.18
865.065	7817.15
865.386	7799.53
865.707	7813.76
866.027	7798.62
866.348	7807.44
866.668	7743.93
866.989	7773.99
867.309	7689.7
867.63	7753.43
867.95	7667.33
868.27	7658.51
868.59	7680.66
868.91	7667.55
869.23	7673.65
869.55	7603.15
869.87	7650.6
870.19	7622.81
870.51	7624.62
870.83	7662.13
871.15	7592.75
871.469	7522.02
871.789	7585.75
872.109	7562.7
872.428	7546.65
872.748	7549.14
873.067	7478.63
873.386	7526.77
873.706	7519.08
874.025	7481.12
874.344	7437.28
874.663	7432.53
874.982	7461.91
875.301	7442.93
875.62	7390.95
875.939	7385.75
876.258	7453.09
876.577	7401.12
876.896	7363.15
877.214	7377.16
877.533	7402.02
877.852	7305.75
878.17	7316.6
878.489	7348.01
878.807	7361.57
879.125	7335.58
879.444	7294
879.762	7208.81
880.08	7303.72
880.398	7246.77
880.716	7252.42
881.034	7215.81
881.352	7244.51
881.67	7184.18
881.988	7167
882.306	7170.62
882.624	7134.69
882.941	7121.35
883.259	7140.33
883.577	7126.32
883.894	7065.99
884.212	7057.85
884.529	7053.33
884.846	6967.91
885.164	7038.42
885.481	7021.92
885.798	7007.91
886.115	6940.34
886.432	7004.75
886.75	6925.88
887.067	6933.79
887.383	6899.89
887.7	6864.64
888.017	6865.99
888.334	6855.82
888.651	6832.32
888.967	6808.82
889.284	6805.88
889.6	6804.98
889.917	6717.97
890.233	6745.99
890.55	6751.64
890.866	6721.81
891.182	6681.59
891.498	6673.45
891.815	6651.08
892.131	6608.15
892.447	6621.93
892.763	6574.02
893.079	6597.75
893.395	6568.82
893.71	6544.19
894.026	6542.38
894.342	6531.76
894.657	6502.16
894.973	6481.6
895.289	6436.17
895.604	6491.31
895.92	6405.44
896.235	6414.93
896.55	6364.31
896.865	6336.06
897.181	6346.68
897.496	6307.14
897.811	6317.76
898.126	6262.62
898.441	6289.96
898.756	6247.25
899.071	6201.15
899.386	6186.01
899.7	6117.54
900.015	6119.57
900.33	6082.28
900.644	6050.42
900.959	6066.92
901.273	6005.68
901.588	6023.3
901.902	5992.34
902.216	5972.91
902.531	5922.51
902.845	5878.9
903.159	5890.88
903.473	5882.29
903.787	5857.66
904.101	5777.43
904.415	5822.86
904.729	5765.46
905.042	5762.07
905.356	5731.33
905.67	5727.26
905.984	5680.26
906.297	5699.69
906.611	5618.34
906.924	5676.42
907.237	5638.91
907.551	5630.32
907.864	5644.78
908.177	5587.38
908.491	5590.77
908.804	5518.46
909.117	5474.84
909.43	5494.05
909.743	5484.11
910.056	5452.24
910.368	5431.23
910.681	5413.15
910.994	5396.88
911.307	5324.79
911.619	5277.56
911.932	5279.37
912.244	5314.39
912.557	5309.42
912.869	5303.77
913.181	5181.74
913.494	5220.61
913.806	5168.86
914.118	5190.56
914.43	5131.8
914.742	5095.87
915.054	5131.57
915.366	5073.5
915.678	5107.85
915.99	5010.9
916.302	5014.06
916.613	4990.11
916.925	5011.8
917.236	5047.96
917.548	4975.65
917.859	4984.01
918.171	4917.57
918.482	4898.36
918.794	4902.43
919.105	4910.56
919.416	4851.58
919.727	4807.51
920.038	4790.11
920.349	4818.14
920.66	4800.06
920.971	4739.49
921.282	4778.36
921.593	4741.75
921.903	4673.51
922.214	4678.25
922.525	4671.7
922.835	4649.33
923.146	4615.2
923.456	4625.6
923.767	4539.5
924.077	4578.37
924.387	4572.04
924.697	4505.38
925.008	4503.12
925.318	4468.09
925.628	4491.36
925.938	4488.65
926.248	4485.04
926.558	4431.93
926.867	4453.85
927.177	4368.2
927.487	4337.24
927.796	4290.47
928.106	4339.73
928.416	4281.43
928.725	4295.89
929.034	4272.61
929.344	4294.53
929.653	4269.45
929.962	4246.85
930.271	4224.48
930.581	4187.87
930.89	4147.42
931.199	4129.79
931.508	4146.52
931.817	4093.18
932.125	4108.78
932.434	4118.27
932.743	4083.47
933.051	4040.76
933.36	4048.89
933.669	4036.01
933.977	4033.07
934.286	3996.46
934.594	3972.06
934.902	3969.57
935.21	3955.33
935.519	3965.5
935.827	3935.45
936.135	3891.38
936.443	3883.02
936.751	3864.26
937.059	3889.12
937.367	3840.99
937.674	3850.7
937.982	3788.56
938.29	3808.45
938.597	3785.17
938.905	3755.57
939.213	3798.95
939.52	3717.6
939.827	3721.22
940.135	3713.53
940.442	3687.54
940.749	3645.51
941.056	3690.26
941.363	3664.27
941.67	3635.34
941.977	3593.99
942.284	3611.39
942.591	3600.54
942.898	3603.7
943.205	3595.12
943.511	3576.13
943.818	3524.84
944.125	3528
944.431	3511.28
944.738	3473.54
945.044	3467.89
945.35	3449.36
945.657	3452.97
945.963	3438.06
946.269	3443.26
946.575	3428.12
946.881	3381.56
947.187	3370.04
947.493	3377.72
947.799	3375.46
948.105	3322.13
948.41	3302.24
948.716	3286.2
949.022	3294.79
949.327	3302.47
949.633	3261.57
949.938	3259.53
950.244	3237.84
950.549	3196.94
950.854	3209.14
951.16	3204.17
951.465	3207.33
951.77	3158.74
952.075	3162.36
952.38	3155.35
952.685	3132.53
952.99	3116.94
953.294	3067.9
953.599	3086.43
953.904	3090.05
954.209	3067.22
954.513	3091.18
954.818	2988.81
955.122	3006.88
955.426	2955.13
955.731	3007.56
956.035	2956.04
956.339	2959.65
956.643	2968.47
956.948	2958.52
957.252	2933.67
957.556	2899.54
957.86	2897.28
958.163	2927.79
958.467	2906.32
958.771	2841.24
959.075	2879.43
959.378	2835.14
959.682	2859.32
959.985	2808.25
960.289	2813.89
960.592	2790.17
960.896	2798.75
961.199	2748.13
961.502	2761.47
961.805	2739.09
962.108	2759.66
962.411	2727.8
962.714	2752.65
963.017	2732.54
963.32	2739.55
963.623	2698.87
963.926	2704.29
964.228	2649.15
964.531	2649.61
964.833	2643.5
965.136	2655.26
965.438	2648.02
965.741	2619.1
966.043	2627.01
966.345	2590.62
966.648	2618.87
966.95	2585.65
967.252	2586.56
967.554	2549.95
967.856	2533
968.158	2518.99
968.46	2517.41
968.761	2516.28
969.063	2511.76
969.365	2511.53
969.666	2501.59
969.968	2428.82
970.269	2499.78
970.571	2444.87
970.872	2449.61
971.174	2457.29
971.475	2437.18
971.776	2420.91
972.077	2355.83
972.378	2403.51
972.679	2376.62
972.98	2374.58
973.281	2359.9
973.582	2352.66
973.883	2350.63
974.183	2354.02
974.484	2301.14
974.785	2301.59
975.085	2329.84
975.386	2310.86
975.686	2298.2
975.986	2290.52
976.287	2265.89
976.587	2231.99
976.887	2249.39
977.187	2254.59
977.487	2230.86
977.787	2243.51
978.087	2202.84
978.387	2212.55
978.687	2153.35
978.987	2187.7
979.286	2143.18
979.586	2152.9
979.885	2147.47
980.185	2126
980.484	2115.61
980.784	2130.07
981.083	2140.01
981.382	2086.46
981.682	2100.47
981.981	2092.33
982.28	2054.37
982.579	2067.7
982.878	2075.16
983.177	2041.71
983.475	2042.84
983.774	2009.4
984.073	2006.46
984.372	2043.29
984.67	1994.26
984.969	2020.92
985.267	1991.54
985.566	1983.86
985.864	1980.7
986.162	1995.84
986.461	1962.39
986.759	1933.47
987.057	1941.83
987.355	1943.64
987.653	1952
987.951	1920.13
988.249	1942.28
988.547	1912.45
988.844	1885.11
989.142	1888.04
989.44	1894.15
989.737	1889.63
990.035	1844.88
990.332	1847.82
990.63	1853.92
990.927	1858.44
991.224	1845.11
991.521	1829.97
991.819	1814.83
992.116	1812.79
992.413	1832.68
992.71	1815.73
993.006	1797.65
993.303	1793.13
993.6	1785.9
993.897	1773.24
994.193	1764.43
994.49	1759.46
994.787	1736.86
995.083	1727.6
995.379	1710.87
995.676	1721.95
995.972	1734.83
996.268	1709.29
996.565	1719.01
996.861	1707.71
997.157	1677.2
997.453	1685.79
997.749	1667.71
998.044	1642.85
998.34	1631.78
998.636	1626.81
998.932	1660.93
999.227	1613.47
999.523	1584.32
999.818	1628.62
1000.114	1595.85
1000.409	1609.41
1000.704	1604.66
1001	1549.52
1001.295	1554.94
1001.59	1557.66
1001.885	1544.55
1002.18	1550.65
1002.475	1534.38
1002.77	1544.1
1003.065	1493.93
1003.359	1513.59
1003.654	1484.66
1003.949	1485.34
1004.243	1474.5
1004.538	1491.44
1004.832	1464.1
1005.127	1489.86
1005.421	1474.27
1005.715	1458.68
1006.009	1453.03
1006.304	1435.17
1006.598	1444.89
1006.892	1428.39
1007.186	1416.87
1007.48	1384.55
1007.773	1393.14
1008.067	1373.48
1008.361	1386.14
1008.655	1342.07
1008.948	1364.67
1009.242	1380.26
1009.535	1359.24
1009.829	1359.92
1010.122	1341.17
1010.415	1331.45
1010.708	1350.2
1011.001	1333.71
1011.295	1311.11
1011.588	1282.18
1011.881	1300.26
1012.173	1301.62
1012.466	1304.1
1012.759	1278.79
1013.052	1246.25
1013.344	1271.56
1013.637	1254.84
1013.93	1253.48
1014.222	1222.07
1014.514	1242.86
1014.807	1231.34
1015.099	1230.66
1015.391	1219.13
1015.683	1213.49
1015.976	1216.2
1016.268	1203.77
1016.56	1172.58
1016.851	1187.05
1017.143	1205.12
1017.435	1157.67
1017.727	1168.29
1018.018	1162.64
1018.31	1146.59
1018.602	1122.64
1018.893	1155.86
1019.185	1146.37
1019.476	1126.93
1019.767	1105.01
1020.058	1122.19
1020.35	1104.11
1020.641	1112.02
1020.932	1131
1021.223	1105.47
1021.514	1080.61
1021.804	1078.57
1022.095	1051.46
1022.386	1072.02
1022.677	1032.25
1022.967	1040.16
1023.258	1033.38
1023.548	1016.43
1023.839	1002.87
1024.129	1025.69
1024.419	1024.11
1024.709	991.8
1025	1006.94
1025.29	975.3
1025.58	988.63
1025.87	999.03
1026.16	989.54
1026.449	988.63
1026.739	986.82
1027.029	947.96
1027.319	978.69
1027.608	948.18
1027.898	948.41
1028.187	939.59
1028.477	952.02
1028.766	953.6
1029.055	936.66
1029.344	917.9
1029.634	938.01
1029.923	911.57
1030.212	897.34
1030.501	895.3
1030.79	879.93
1031.078	900.95
1031.367	891.91
1031.656	873.16
1031.945	887.17
1032.233	870.67
1032.522	865.25
1032.81	883.1
1033.099	864.12
1033.387	857.34
1033.675	846.04
1033.963	876.54
1034.251	838.81
1034.54	812.82
1034.828	837.68
1035.116	832.7
1035.403	816.89
1035.691	810.11
1035.979	825.02
1036.267	816.43
1036.554	804.68
1036.842	780.73
1037.129	774.17
1037.417	786.38
1037.704	793.38
1037.992	756.55
1038.279	750.9
1038.566	771.91
1038.853	771.91
1039.14	771.91
