Data from hue_80_FLMS001491_51.txt Node
Date: Mon Feb 06 15:23:13 GMT 2017
User: dcchb
Spectrometer: FLMS00149
Trigger mode: 0
Integration Time (sec): 2.000000E-2
Scans to average: 10
Electric dark correction enabled: true
Nonlinearity correction enabled: false
Boxcar width: 0
XAxis mode: Wavelengths
Number of Pixels in Spectrum: 2048
>>>>>Begin Spectral Data<<<<<
341.393	-5.11
341.776	-5.11
342.16	-5.11
342.543	-57.31
342.927	-62.74
343.31	-81.95
343.693	-75.39
344.077	-79.24
344.46	-74.26
344.843	-40.59
345.226	-33.59
345.61	-29.29
345.993	-26.13
346.376	1.21
346.759	22.46
347.142	13.64
347.525	29.01
347.908	78.5
348.291	88.67
348.674	91.38
349.057	115.56
349.44	122.34
349.823	161.21
350.206	177.48
350.588	208.21
350.971	206.63
351.354	224.49
351.737	248.89
352.119	238.04
352.502	273.98
352.884	288.21
353.267	257.93
353.65	295.9
354.032	297.93
354.414	292.28
354.797	311.26
355.179	302
355.562	353.75
355.944	322.34
356.326	338.83
356.709	327.53
357.091	319.85
357.473	332.51
357.855	326.86
358.238	334.09
358.62	339.74
359.002	328.44
359.384	339.96
359.766	342.45
360.148	335.22
360.53	358.95
360.912	348.1
361.294	335.22
361.676	337.93
362.057	321.88
362.439	352.62
362.821	340.19
363.203	320.3
363.584	313.07
363.966	321.66
364.348	335.9
364.729	330.92
365.111	305.39
365.493	323.69
365.874	317.59
366.256	335.9
366.637	340.41
367.019	319.4
367.4	323.24
367.781	330.25
368.163	305.84
368.544	324.82
368.925	314.88
369.306	326.4
369.688	302.22
370.069	309.68
370.45	318.04
370.831	330.02
371.212	320.3
371.593	334.09
371.974	333.18
372.355	314.88
372.736	323.24
373.117	325.5
373.498	327.53
373.879	338.83
374.26	299.74
374.641	309.23
375.021	305.84
375.402	311.71
375.783	337.93
376.163	312.39
376.544	318.04
376.925	336.35
377.305	327.99
377.686	328.21
378.066	322.56
378.447	322.79
378.827	338.15
379.208	345.84
379.588	350.36
379.968	340.87
380.349	322.11
380.729	344.26
381.109	337.48
381.489	339.28
381.87	339.74
382.25	332.28
382.63	358.72
383.01	331.38
383.39	334.77
383.77	329.12
384.15	355.33
384.53	357.14
384.91	370.02
385.29	348.1
385.67	338.15
386.049	337.25
386.429	367.98
386.809	348.1
387.189	352.39
387.568	368.44
387.948	352.84
388.328	360.08
388.707	364.82
389.087	367.08
389.466	361.21
389.846	366.85
390.225	360.53
390.605	366.18
390.984	370.92
391.363	403.69
391.743	364.37
392.122	364.37
392.501	377.7
392.881	377.02
393.26	368.44
393.639	370.92
394.018	379.96
394.397	366.63
394.776	374.99
395.155	378.61
395.534	369.79
395.913	380.41
396.292	385.61
396.671	395.33
397.05	384.48
397.429	377.48
397.808	403.24
398.186	374.76
398.565	411.37
398.944	385.39
399.323	407.08
399.701	400.07
400.08	389.45
400.458	396.01
400.837	385.61
401.215	402.11
401.594	398.04
401.972	393.07
402.351	392.84
402.729	392.62
403.107	409.79
403.486	417.02
403.864	402.56
404.242	404.82
404.62	437.14
404.999	408.21
405.377	417.02
405.755	403.46
406.133	432.16
406.511	425.84
406.889	431.94
407.267	415.89
407.645	413.63
408.023	439.17
408.401	424.25
408.779	431.71
409.156	463.12
409.534	443.24
409.912	452.5
410.29	460.64
410.667	463.8
411.045	437.81
411.422	457.25
411.8	455.21
412.178	453.63
412.555	478.49
412.933	470.13
413.31	464.25
413.687	456.34
414.065	489.11
414.442	479.39
414.819	480.52
415.197	492.5
415.574	503.35
415.951	483.01
416.328	476.23
416.705	489.11
417.082	478.49
417.46	487.98
417.837	506.96
418.214	490.69
418.591	512.61
418.967	497.7
419.344	517.13
419.721	523.46
420.098	497.47
420.475	543.57
420.852	505.16
421.228	528.21
421.605	546.96
421.982	552.16
422.358	525.95
422.735	535.21
423.111	532.5
423.488	553.29
423.864	536.34
424.241	552.39
424.617	537.7
424.994	561.88
425.37	556.68
425.746	559.39
426.123	550.58
426.499	555.32
426.875	565.95
427.251	565.95
427.627	589.45
428.003	572.95
428.379	601.65
428.756	607.98
429.132	596.68
429.507	581.99
429.883	580.41
430.259	606.85
430.635	612.72
431.011	610.01
431.387	631.48
431.763	620.63
432.138	613.85
432.514	630.35
432.89	653.17
433.265	655.43
433.641	637.81
434.016	686.39
434.392	659.28
434.767	658.82
435.143	680.29
435.518	709.9
435.894	674.42
436.269	721.87
436.644	716.68
437.02	710.35
437.395	725.94
437.77	722.78
438.145	693.17
438.52	718.71
438.895	718.48
439.271	724.13
439.646	754.42
440.021	767.07
440.395	757.13
440.77	743.57
441.145	775.43
441.52	761.42
441.895	750.35
442.27	750.8
442.645	769.33
443.019	799.16
443.394	768.43
443.769	835.54
444.143	778.37
444.518	815.66
444.892	793.51
445.267	831.25
445.641	799.39
446.016	831.25
446.39	848.2
446.764	826.5
447.139	832.61
447.513	838.93
447.887	857.24
448.262	853.4
448.636	827.86
449.01	840.06
449.384	849.78
449.758	855.2
450.132	896.11
450.506	881.42
450.88	915.31
451.254	888.42
451.628	899.72
452.002	919.83
452.376	949.44
452.75	930.23
453.123	929.1
453.497	921.42
453.871	949.44
454.244	961.87
454.618	947.86
454.992	955.77
455.365	972.49
455.739	979.04
456.112	1020.85
456.486	1007.74
456.859	1035.54
457.232	1053.39
457.606	1047.06
457.979	1067.63
458.352	1081.86
458.725	1071.92
459.099	1084.12
459.472	1093.62
459.845	1127.74
460.218	1155.08
460.591	1137
460.964	1138.59
461.337	1156.21
461.71	1179.49
462.083	1200.96
462.456	1197.79
462.829	1238.02
463.201	1226.95
463.574	1249.32
463.947	1284.8
464.32	1298.36
464.692	1307.85
465.065	1300.62
465.438	1317.34
465.81	1340.84
466.183	1374.29
466.555	1405.02
466.928	1414.51
467.3	1408.41
467.672	1421.74
468.045	1463.1
468.417	1494.51
468.789	1484.57
469.161	1482.76
469.534	1534.51
469.906	1594.85
470.278	1607.95
470.65	1635.52
471.022	1664.67
471.394	1692.24
471.766	1730.89
472.138	1771.34
472.51	1827.16
472.882	1842.75
473.253	1901.28
473.625	1907.15
473.997	1958.23
474.369	1996.64
474.74	2045
475.112	2064.89
475.484	2165.45
475.855	2182.4
476.227	2241.38
476.598	2299.23
476.97	2327.48
477.341	2392.79
477.713	2413.13
478.084	2504.2
478.455	2578.32
478.827	2611.09
479.198	2734.48
479.569	2776.96
479.94	2875.72
480.311	2938.09
480.682	3020.57
481.053	3132.21
481.424	3181.92
481.795	3230.51
482.166	3354.57
482.537	3448.36
482.908	3554.57
483.279	3655.81
483.65	3712.53
484.021	3893.54
484.391	3973.31
484.762	4049.47
485.133	4134.44
485.503	4266.87
485.874	4392.96
486.244	4481.1
486.615	4587.99
486.985	4717.93
487.356	4856.45
487.726	4964.47
488.097	5163.34
488.467	5207.63
488.837	5361.98
489.207	5504.57
489.578	5665.47
489.948	5759.48
490.318	5918.35
490.688	6022.98
491.058	6222.07
491.428	6370.54
491.798	6479.46
492.168	6632.9
492.538	6797.19
492.908	6888.04
493.278	7051.42
493.648	7159.22
494.017	7326.22
494.387	7430.62
494.757	7563.28
495.126	7754.23
495.496	7858.86
495.866	7990.16
496.235	8147.22
496.605	8278.96
496.974	8429.69
497.344	8514.44
497.713	8653.19
498.082	8835.11
498.452	8955.78
498.821	9084.37
499.19	9197.58
499.559	9371.59
499.928	9450.46
500.298	9623.11
500.667	9675.99
501.036	9750.56
501.405	9884.8
501.774	9943.1
502.143	10085.24
502.512	10265.35
502.88	10375.63
503.249	10366.14
503.618	10560.26
503.987	10628.05
504.356	10742.85
504.724	10891.55
505.093	10929.51
505.462	11042.96
505.83	11170.64
506.199	11228.94
506.567	11462.38
506.936	11446.34
507.304	11659.21
507.672	11758.65
508.041	11782.6
508.409	11913.9
508.777	12000.67
509.145	12100.33
509.514	12216.03
509.882	12293.32
510.25	12291.74
510.618	12425.29
510.986	12482.69
511.354	12558.4
511.722	12656.48
512.09	12811.95
512.458	12915.45
512.826	13014.66
513.193	13100.53
513.561	13128.55
513.929	13152.28
514.297	13327.19
514.664	13433.18
515.032	13486.06
515.4	13583.68
515.767	13614.19
516.135	13679.95
516.502	13626.85
516.869	13846.95
517.237	13907.29
517.604	13839.27
517.972	14032.26
518.339	14096.44
518.706	14194.29
519.073	14229.99
519.44	14187.51
519.808	14413.72
520.175	14321.06
520.542	14556.31
520.909	14539.36
521.276	14624.33
521.643	14685.8
522.009	14838.56
522.376	14918.56
522.743	14918.79
523.11	15100.7
523.477	15219.57
523.843	15282.39
524.21	15361.26
524.577	15375.5
524.943	15443.52
525.31	15542.5
525.676	15637.41
526.043	15697.07
526.409	15673.34
526.776	15853.68
527.142	15916.95
527.508	15859.55
527.874	15961.7
528.241	16062.04
528.607	16041.02
528.973	16246.21
529.339	16143.62
529.705	16278.07
530.071	16386.32
530.437	16340.22
530.803	16440.33
531.169	16544.51
531.535	16375.93
531.901	16528.01
532.267	16513.1
532.632	16605.98
532.998	16569.14
533.364	16593.32
533.73	16694.79
534.095	16740.21
534.461	16711.06
534.826	16793.32
535.192	16720.1
535.557	16813.88
535.923	16776.37
536.288	16793.99
536.653	16886.42
537.019	16827.21
537.384	16791.06
537.749	16857.95
538.114	16877.61
538.479	16811.62
538.845	16846.87
539.21	16878.06
539.575	16858.62
539.94	16895.69
540.305	16921.67
540.67	16947.66
541.034	16891.17
541.399	16989.47
541.764	16924.39
542.129	16992.63
542.494	16993.54
542.858	16912.41
543.223	16970.03
543.587	17025.17
543.952	16922.58
544.316	16980.88
544.681	16871.96
545.045	16893.2
545.41	16948.34
545.774	16855.91
546.138	16890.49
546.503	16928
546.867	16834.9
547.231	16989.69
547.595	16840.09
547.959	16916.48
548.324	16964.61
548.688	16882.58
549.052	16961.22
549.416	16913.76
549.779	16797.84
550.143	16826.31
550.507	16980.66
550.871	16926.65
551.235	16849.13
551.599	16894.33
551.962	16839.87
552.326	16986.53
552.689	16991.05
553.053	16819.76
553.417	16918.28
553.78	17039.18
554.143	16854.56
554.507	16892.07
554.87	16884.61
555.234	17097.94
555.597	16828.57
555.96	16936.14
556.323	16900.88
556.686	16992.86
557.05	16978.4
557.413	16923.48
557.776	17013.42
558.139	17110.14
558.502	17066.53
558.865	17039.86
559.228	17097.04
559.59	17117.6
559.953	17096.81
560.316	17217.94
560.679	17325.96
561.041	17371.83
561.404	17351.27
561.767	17347.88
562.129	17324.6
562.492	17481.43
562.854	17371.15
563.217	17500.19
563.579	17447.76
563.941	17541.54
564.304	17600.3
564.666	17594.65
565.028	17641.2
565.39	17584.48
565.753	17693.18
566.115	17698.15
566.477	17707.64
566.839	17751.03
567.201	17864.7
567.563	17749.45
567.925	17852.95
568.287	17951.25
568.648	17843.91
569.01	17998.71
569.372	18059.5
569.734	17996
570.095	18063.79
570.457	18219.94
570.819	18133.39
571.18	18097.24
571.542	18184.47
571.903	18142.21
572.265	18264.92
572.626	18352.37
572.987	18257.68
573.349	18346.95
573.71	18337.91
574.071	18276.89
574.432	18440.73
574.794	18556.66
575.155	18500.39
575.516	18432.59
575.877	18496.32
576.238	18597.56
576.599	18596.43
576.96	18541.52
577.32	18564.12
577.681	18551.46
578.042	18685.92
578.403	18613.15
578.763	18544.91
579.124	18529.09
579.485	18678.01
579.845	18708.75
580.206	18634.85
580.566	18691.12
580.927	18666.71
581.287	18756.2
581.648	18513.27
582.008	18702.42
582.368	18645.47
582.728	18693.15
583.089	18702.87
583.449	18580.16
583.809	18614.74
584.169	18581.97
584.529	18654.51
584.889	18804.79
585.249	18711.68
585.609	18595.3
585.969	18680.27
586.329	18584.91
586.688	18701.06
587.048	18597.34
587.408	18502.2
587.768	18615.64
588.127	18492.93
588.487	18535.42
588.846	18668.29
589.206	18530.22
589.565	18630.1
589.925	18553.5
590.284	18570.67
590.643	18487.06
591.003	18584.68
591.362	18654.96
591.721	18550.11
592.08	18540.61
592.44	18565.02
592.799	18543.33
593.158	18487.51
593.517	18451.8
593.876	18619.71
594.235	18528.41
594.593	18548.98
594.952	18497.23
595.311	18445.93
595.67	18515.98
596.029	18516.43
596.387	18596.21
596.746	18550.56
597.104	18534.29
597.463	18559.14
597.822	18549.43
598.18	18481.41
598.538	18410.45
598.897	18637.11
599.255	18367.06
599.613	18621.06
599.972	18481.86
600.33	18591.01
600.688	18475.76
601.046	18466.49
601.404	18601.63
601.762	18589.65
602.12	18721.4
602.478	18630.78
602.836	18613.15
603.194	18514.4
603.552	18549.43
603.91	18476.89
604.268	18616.09
604.625	18567.73
604.983	18473.27
605.341	18523.21
605.698	18596.21
606.056	18684.11
606.413	18555.76
606.771	18718.46
607.128	18671.91
607.485	18517.34
607.843	18618.8
608.2	18752.59
608.557	18767.5
608.914	18598.24
609.272	18753.94
609.629	18832.81
609.986	18871.68
610.343	18783.77
610.7	18977.44
611.057	18831.91
611.414	18880.27
611.771	18847.5
612.127	18955.74
612.484	18937.89
612.841	18952.58
613.198	18878.23
613.554	19016.76
613.911	19087.49
614.267	19001.39
614.624	18981.73
614.98	19057.89
615.337	19131.56
615.693	19062.18
616.05	19097.89
616.406	19147.15
616.762	19079.81
617.118	19094.5
617.475	18993.48
617.831	19150.54
618.187	19226.47
618.543	19201.16
618.899	19247.26
619.255	19219.92
619.611	19158.45
619.967	19227.83
620.323	19241.61
620.678	19188.28
621.034	19192.35
621.39	19215.4
621.746	19228.96
622.101	19389.41
622.457	19191.44
622.812	19376.3
623.168	19284.32
623.523	19292.46
623.879	19448.16
624.234	19125.46
624.589	19389.18
624.945	19356.86
625.3	19360.25
625.655	19425.56
626.01	19437.99
626.365	19246.58
626.72	19362.51
627.075	19296.3
627.43	19194.16
627.785	19230.54
628.14	19355.28
628.495	19301.5
628.85	19344.66
629.205	19205.23
629.559	19345.34
629.914	19145.12
630.269	19302.85
630.623	19192.57
630.978	19185.57
631.332	19278.22
631.687	19261.27
632.041	19173.82
632.396	19245
632.75	19218.34
633.104	19177.43
633.459	19000.26
633.813	19019.25
634.167	19104.67
634.521	19055.4
634.875	19068.96
635.229	19047.95
635.583	19077.78
635.937	18994.39
636.291	19010.21
636.645	18929.3
636.999	18854.96
637.352	18917.33
637.706	18857.89
638.06	18939.02
638.413	18863.09
638.767	18819.93
639.121	18749.87
639.474	18707.16
639.828	18742.42
640.181	18698.35
640.534	18777.22
640.888	18687.28
641.241	18472.82
641.594	18773.83
641.947	18688.63
642.301	18625.36
642.654	18641.63
643.007	18647.73
643.36	18625.58
643.713	18622.19
644.066	18618.8
644.419	18532.03
644.771	18392.82
645.124	18356.66
645.477	18183.34
645.83	18231.24
646.182	18072.15
646.535	18004.81
646.888	17986.5
647.24	17885.04
647.593	18043.9
647.945	17996.67
648.298	17864.25
648.65	17915.32
649.002	17848.43
649.355	17859.05
649.707	17869.22
650.059	17962.55
650.411	18201.19
650.763	18340.85
651.115	18481.41
651.467	18517.34
651.819	18379.49
652.171	18320.28
652.523	18312.37
652.875	18335.65
653.227	18275.31
653.578	18264.92
653.93	18290.23
654.282	18365.93
654.633	18348.08
654.985	18301.3
655.337	18378.36
655.688	18314.63
656.039	18420.62
656.391	18336.33
656.742	18351.01
657.094	18275.76
657.445	18322.09
657.796	18350.79
658.147	18319.83
658.498	18328.19
658.849	18306.27
659.2	18259.49
659.551	18179.04
659.902	18341.3
660.253	18312.37
660.604	18403.89
660.955	18193.5
661.306	18374.97
661.656	18325.93
662.007	18403.67
662.358	18342.88
662.708	18255.88
663.059	18231.47
663.409	18298.59
663.76	18454.97
664.11	18425.59
664.461	18396.89
664.811	18340.85
665.161	18421.3
665.511	18288.87
665.862	18381.07
666.212	18430.79
666.562	18499.49
666.912	18356.21
667.262	18308.98
667.612	18321.41
667.962	18338.81
668.312	18379.71
668.662	18419.71
669.011	18270.79
669.361	18351.69
669.711	18299.04
670.06	18254.75
670.41	18303.11
670.76	18231.24
671.109	18338.36
671.459	18212.49
671.808	18274.86
672.157	18204.35
672.507	18172.26
672.856	18048.88
673.205	18167.06
673.554	18206.84
673.904	18162.09
674.253	18286.84
674.602	18095.2
674.951	17874.87
675.3	17745.83
675.649	18106.28
675.998	18088.2
676.346	18078.71
676.695	18127.97
677.044	17918.94
677.393	17952.83
677.741	18097.69
678.09	17966.17
678.438	17953.74
678.787	18047.75
679.135	17941.76
679.484	17828.77
679.832	17963.91
680.181	17772.05
680.529	17964.58
680.877	17854.08
681.225	17745.61
681.573	17895.21
681.922	17788.32
682.27	17699.28
682.618	17705.83
682.966	17593.07
683.314	17698.6
683.661	17626.97
684.009	17579.28
684.357	17377.03
684.705	17482.56
685.053	17495.22
685.4	17331.83
685.748	17331.61
686.095	17252.74
686.443	17232.63
686.79	17210.25
687.138	17269.24
687.485	17186.07
687.832	17149.46
688.18	17146.3
688.527	17028.56
688.874	17088
689.221	16971.39
689.568	16897.27
689.915	16878.29
690.262	16848.23
690.609	16810.26
690.956	16671.28
691.303	16725.07
691.65	16572.3
691.997	16583.15
692.344	16522.14
692.69	16485.3
693.037	16503.83
693.383	16399.43
693.73	16512.64
694.077	16336.83
694.423	16316.94
694.769	16242.82
695.116	16230.39
695.462	16233.33
695.808	16126.44
696.155	16082.37
696.501	15940.23
696.847	15922.6
697.193	15904.75
697.539	15891.42
697.885	15743.85
698.231	15629.5
698.577	15668.6
698.923	15655.72
699.269	15609.17
699.614	15442.62
699.96	15435.39
700.306	15424.31
700.651	15350.64
700.997	15231.32
701.342	15215.5
701.688	15254.37
702.033	15094.38
702.379	15140.25
702.724	14994.49
703.069	15030.42
703.415	14874.72
703.76	14846.7
704.105	14878.34
704.45	14921.95
704.795	14785.46
705.14	14728.96
705.485	14656.42
705.83	14665.69
706.175	14635.41
706.52	14570.32
706.865	14446.03
707.209	14575.29
707.554	14443.09
707.899	14518.8
708.243	14325.58
708.588	14315.19
708.932	14300.05
709.277	14211.01
709.621	14192.93
709.966	14078.36
710.31	14117.91
710.654	14054.4
710.998	14037.68
711.342	13978.25
711.687	13902.54
712.031	13818.48
712.375	13806.28
712.719	13813.05
713.063	13819.83
713.407	13830
713.75	13783.45
714.094	13784.58
714.438	13716.11
714.782	13702.1
715.125	13613.29
715.469	13679.5
715.812	13595.21
716.156	13486.06
716.499	13540.75
716.843	13578.03
717.186	13491.26
717.53	13550.91
717.873	13614.87
718.216	13451.03
718.559	13395.21
718.902	13331.49
719.246	13350.47
719.589	13306.63
719.932	13259.4
720.275	13251.04
720.617	13310.7
720.96	13348.89
721.303	13228.66
721.646	13255.56
721.989	13191.83
722.331	13192.28
722.674	13102.34
723.016	13138.04
723.359	13133.3
723.701	13146.41
724.044	13047.65
724.386	13035.45
724.729	13026.63
725.071	13033.41
725.413	13027.54
725.755	13070.7
726.097	13014.88
726.439	12962.68
726.782	12933.53
727.124	13001.55
727.465	12932.17
727.807	12898.95
728.149	12950.48
728.491	12944.15
728.833	12969.24
729.175	12917.94
729.516	12900.99
729.858	12885.62
730.199	12866.41
730.541	12781.44
730.882	12847.2
731.224	12917.26
731.565	12779.18
731.906	12745.06
732.248	12798.62
732.589	12711.16
732.93	12802.91
733.271	12824.61
733.612	12799.07
733.953	12740.09
734.294	12732.86
734.635	12741.44
734.976	12736.47
735.317	12688.56
735.658	12749.81
735.999	12792.97
736.339	12764.49
736.68	12748
737.021	12713.87
737.361	12696.93
737.702	12741.67
738.042	12638.4
738.383	12754.33
738.723	12731.05
739.063	12730.37
739.404	12818.96
739.744	12785.29
740.084	12686.76
740.424	12793.65
740.764	12710.71
741.104	12910.48
741.444	12746.19
741.784	12731.73
742.124	12814.21
742.464	12804.95
742.804	12817.15
743.143	12842.68
743.483	12905.73
743.823	12896.24
744.162	12946.41
744.502	13009.69
744.841	12836.36
745.181	13097.82
745.52	13097.82
745.86	13074.32
746.199	13082.68
746.538	13098.5
746.877	13249.23
747.216	13292.62
747.556	13306.85
747.895	13267.76
748.234	13276.35
748.573	13378.49
748.911	13436.79
749.25	13495.78
749.589	13481.09
749.928	13603.57
750.267	13696.67
750.605	13655.09
750.944	13746.39
751.283	13788.87
751.621	13967.63
751.96	13987.74
752.298	14111.35
752.636	14167.17
752.975	14186.15
753.313	14283.1
753.651	14444.45
753.989	14432.7
754.327	14509.76
754.666	14572.81
755.004	14775.97
755.342	14918.34
755.679	15028.62
756.017	14940.26
756.355	15140.25
756.693	15227.25
757.031	15354.03
757.368	15355.84
757.706	15436.97
758.044	15560.58
758.381	15782.49
758.719	15828.14
759.056	15981.59
759.394	16088.48
759.731	16202.6
760.068	16250.05
760.405	16356.49
760.743	16388.58
761.08	16570.04
761.417	16702.92
761.754	16728.23
762.091	16869.02
762.428	16957.83
762.765	16930.04
763.102	17190.14
763.438	17162.12
763.775	17266.75
764.112	17417.48
764.449	17461.77
764.785	17571.83
765.122	17604.82
765.458	17672.16
765.795	17721.43
766.131	17789
766.467	17874.42
766.804	17970.01
767.14	17987.41
767.476	18080.74
767.812	18047.75
768.148	18174.07
768.485	18202.77
768.821	18155.99
769.157	18198.93
769.492	18270.34
769.828	18415.65
770.164	18311.47
770.5	18416.78
770.836	18369.09
771.171	18407.96
771.507	18488.41
771.842	18461.75
772.178	18470.79
772.513	18509.88
772.849	18553.27
773.184	18514.63
773.519	18504.91
773.855	18596.21
774.19	18468.53
774.525	18660.16
774.86	18562.31
775.195	18534.06
775.53	18483.89
775.865	18522.76
776.2	18382.88
776.535	18405.7
776.87	18529.77
777.205	18489.09
777.539	18393.95
777.874	18398.47
778.209	18299.94
778.543	18248.64
778.878	18221.53
779.212	18297.23
779.547	18257.91
779.881	18329.09
780.215	18227.4
780.55	18239.83
780.884	18156.67
781.218	18123.22
781.552	18195.09
781.886	18113.96
782.22	18069.89
782.554	17980.4
782.888	17909.9
783.222	17845.94
783.556	17790.35
783.889	17744.48
784.223	17732.5
784.557	17665.38
784.89	17693.4
785.224	17686.4
785.557	17584.71
785.891	17478.95
786.224	17609.11
786.558	17542.45
786.891	17391.72
787.224	17335.9
787.557	17314.88
787.891	17338.61
788.224	17276.01
788.557	17199.18
788.89	17162.8
789.223	17229.91
789.556	17131.61
789.888	17046.19
790.221	17068.56
790.554	16907.66
790.887	16912.18
791.219	16901.56
791.552	16871.73
791.884	16738.63
792.217	16784.5
792.549	16729.36
792.882	16598.97
793.214	16532.08
793.546	16547.67
793.879	16520.78
794.211	16387.22
794.543	16424.96
794.875	16354.01
795.207	16424.96
795.539	16284.85
795.871	16323.5
796.203	16181.13
796.535	16116.05
796.867	16156.5
797.198	16027.46
797.53	16049.15
797.862	15920.12
798.193	16007.8
798.525	15826.11
798.856	15902.04
799.188	15657.75
799.519	15674.93
799.85	15603.97
800.182	15657.75
800.513	15610.97
800.844	15394.26
801.175	15516.29
801.506	15502.95
801.837	15393.58
802.168	15455.72
802.499	15340.7
802.83	15298.44
803.161	15239.01
803.491	15239.46
803.822	15190.65
804.153	15163.53
804.483	15073.81
804.814	14945
805.145	15003.76
805.475	15032.91
805.805	14926.7
806.136	14933.25
806.466	14764.89
806.796	14806.93
807.126	14727.38
807.457	14685.12
807.787	14748.62
808.117	14590.21
808.447	14634.5
808.777	14644.9
809.107	14597.67
809.436	14551.79
809.766	14450.1
810.096	14480.16
810.426	14326.49
810.755	14432.93
811.085	14367.16
811.414	14277.9
811.744	14141.63
812.073	14251.46
812.403	14211.24
812.732	14116.32
813.061	14194.51
813.39	14071.35
813.719	14025.7
814.049	14151.8
814.378	14028.64
814.707	13900.74
815.036	13957.46
815.365	13870
815.693	13792.94
816.022	13785.03
816.351	13811.25
816.68	13716.56
817.008	13726.5
817.337	13609.44
817.665	13585.72
817.994	13710.68
818.322	13637.92
818.651	13508.43
818.979	13467.3
819.307	13580.07
819.636	13486.28
819.964	13397.47
820.292	13404.7
820.62	13467.3
820.948	13318.6
821.276	13445.61
821.604	13385.95
821.932	13398.6
822.259	13365.38
822.587	13413.74
822.915	13316.8
823.243	13283.35
823.57	13354.08
823.898	13335.1
824.225	13362.45
824.553	13329.45
824.88	13277.02
825.207	13387.08
825.535	13374.42
825.862	13397.02
826.189	13330.81
826.516	13363.58
826.843	13382.11
827.17	13406.74
827.497	13374.42
827.824	13415.55
828.151	13385.95
828.478	13373.74
828.805	13449
829.131	13349.11
829.458	13270.24
829.785	13234.99
830.111	13318.38
830.438	13412.16
830.764	13355.89
831.09	13421.2
831.417	13275.89
831.743	13284.26
832.069	13338.04
832.395	13261.66
832.722	13190.7
833.048	13198.38
833.374	13296.01
833.7	13188.21
834.026	13254.65
834.351	13290.81
834.677	13208.55
835.003	13289
835.329	13211.26
835.654	13201.55
835.98	13095.11
836.306	13180.76
836.631	13062.57
836.956	13134.65
837.282	13082.45
837.607	13045.39
837.932	13036.58
838.258	13000.42
838.583	12941.67
838.908	12964.72
839.233	12921.55
839.558	12938.5
839.883	12950.93
840.208	12836.58
840.533	12860.54
840.858	12916.81
841.182	12815.12
841.507	12858.96
841.832	12790.48
842.156	12690.15
842.481	12707.32
842.805	12666.42
843.13	12617.38
843.454	12622.58
843.778	12562.01
844.103	12602.69
844.427	12548.91
844.751	12526.08
845.075	12483.6
845.399	12458.06
845.723	12295.81
846.047	12405.86
846.371	12268.24
846.695	12275.69
847.019	12150.73
847.343	12208.35
847.666	12060.33
847.99	12030.5
848.313	12033.67
848.637	12002.93
848.96	11950.96
849.284	11856.04
849.607	11814.46
849.931	11741.24
850.254	11784.41
850.577	11659.44
850.9	11506.9
851.223	11577.18
851.546	11573.79
851.869	11463.29
852.192	11528.82
852.515	11408.82
852.838	11315.95
853.161	11383.51
853.483	11295.38
853.806	11180.36
854.129	11202.05
854.451	11164.54
854.774	11138.77
855.096	11107.82
855.419	11086.35
855.741	11031.43
856.063	10949.18
856.385	10984.88
856.708	10921.15
857.03	10930.64
857.352	10944.88
857.674	10868.73
857.996	10667.37
858.318	10763.64
858.64	10752.34
858.961	10727.94
859.283	10717.32
859.605	10610.65
859.926	10653.14
860.248	10641.16
860.57	10561.39
860.891	10504.44
861.212	10530.88
861.534	10501.05
861.855	10429.87
862.176	10470.32
862.498	10468.74
862.819	10435.06
863.14	10335.86
863.461	10355.52
863.782	10383.77
864.103	10334.95
864.424	10279.59
864.745	10298.35
865.065	10164.34
865.386	10226.48
865.707	10230.78
866.027	10290.66
866.348	10106.94
866.668	10180.16
866.989	10175.18
867.309	10045.02
867.63	10106.26
867.95	10105.81
868.27	10029.88
868.59	10068.07
868.91	10102.19
869.23	10007.73
869.55	9933.38
869.87	10053.61
870.19	9927.96
870.51	9979.03
870.83	9942.87
871.15	9893.84
871.469	9940.39
871.789	9932.25
872.109	9894.06
872.428	9883.21
872.748	9875.08
873.067	9828.53
873.386	9843.89
873.706	9809.32
874.025	9804.57
874.344	9700.85
874.663	9778.81
874.982	9732.71
875.301	9720.06
875.62	9710.11
875.939	9737.91
876.258	9666.95
876.577	9607.29
876.896	9622.88
877.214	9553.28
877.533	9620.85
877.852	9700.85
878.17	9623.33
878.489	9616.56
878.807	9589.44
879.125	9545.14
879.444	9470.12
879.762	9537.91
880.08	9465.82
880.398	9464.02
880.716	9464.69
881.034	9399.39
881.352	9366.62
881.67	9384.24
881.988	9417.46
882.306	9324.59
882.624	9267.86
882.941	9326.39
883.259	9294.3
883.577	9275.32
883.894	9252.27
884.212	9218.83
884.529	9143.12
884.846	9158.71
885.164	9116.46
885.481	9156.91
885.798	9111.71
886.115	9054.54
886.432	9097.02
886.75	9020.64
887.067	9076
887.383	8995.55
887.7	9012.96
888.017	8997.14
888.334	8979.74
888.651	8910.36
888.967	8848.89
889.284	8811.38
889.6	8831.94
889.917	8715.79
890.233	8788.78
890.55	8687.77
890.866	8761.66
891.182	8711.04
891.498	8774.09
891.815	8636.92
892.131	8573.87
892.447	8611.84
892.763	8601.21
893.079	8544.27
893.395	8593.76
893.71	8536.81
894.026	8507.43
894.342	8554.89
894.657	8407.32
894.973	8368.23
895.289	8402.8
895.604	8367.55
895.92	8308.79
896.235	8333.88
896.55	8308.11
896.865	8278.74
897.181	8230.15
897.496	8270.38
897.811	8130.04
898.126	8106.76
898.441	8154.22
898.756	8092.3
899.071	8095.24
899.386	8026.77
899.7	8015.02
900.015	7942.93
900.33	7941.8
900.644	7901.35
900.959	7926.66
901.273	7861.8
901.588	7854.79
901.902	7732.54
902.216	7740.9
902.531	7744.74
902.845	7712.88
903.159	7670.84
903.473	7670.39
903.787	7628.36
904.101	7571.41
904.415	7581.35
904.729	7560.34
905.042	7462.71
905.356	7459.55
905.67	7426.33
905.984	7420.45
906.297	7416.61
906.611	7391.75
906.924	7332.1
907.237	7320.34
907.551	7275.37
907.864	7224.08
908.177	7231.76
908.491	7204.19
908.804	7133.46
909.117	7135.26
909.43	7070.18
909.743	7076.51
910.056	7067.24
910.368	6975.72
910.681	6986.34
910.994	6967.36
911.307	6943.86
911.619	6894.37
911.932	6884.88
912.244	6855.05
912.557	6815.27
912.869	6866.34
913.181	6768.95
913.494	6737.08
913.806	6700.93
914.118	6688.95
914.43	6661.6
914.742	6625.22
915.054	6589.97
915.366	6558.56
915.678	6569.86
915.99	6507.03
916.302	6468.62
916.613	6468.39
916.925	6502.06
917.236	6475.62
917.548	6401.27
917.859	6398.33
918.171	6300.03
918.482	6356.53
918.794	6310.43
919.105	6280.15
919.416	6211.22
919.727	6270.43
920.038	6234.05
920.349	6171
920.66	6162.86
920.971	6125.8
921.282	6076.99
921.593	6062.75
921.903	6055.29
922.214	6013.26
922.525	5974.62
922.835	5974.62
923.146	5939.14
923.456	5961.96
923.767	5917.9
924.077	5857.11
924.387	5815.98
924.697	5826.37
925.008	5833.6
925.318	5836.99
925.628	5738.69
925.938	5700.95
926.248	5711.57
926.558	5656.43
926.867	5638.58
927.177	5634.51
927.487	5590.22
927.796	5552.03
928.106	5546.83
928.416	5542.09
928.725	5530.56
929.034	5459.6
929.344	5461.41
929.653	5454.4
929.962	5385.03
930.271	5381.86
930.581	5397.91
930.89	5354.07
931.199	5318.14
931.508	5313.39
931.817	5255.77
932.125	5264.58
932.434	5246.73
932.743	5218.93
933.051	5149.78
933.36	5203.79
933.669	5148.65
933.977	5096.9
934.286	5114.07
934.594	5100.06
934.902	5124.7
935.21	5025.49
935.519	5024.59
935.827	5018.48
936.135	4936
936.443	4945.94
936.751	4915.89
937.059	4925.83
937.367	4850.35
937.674	4856.45
937.982	4878.37
938.29	4829.11
938.597	4832.5
938.905	4788.66
939.213	4751.6
939.52	4731.26
939.827	4780.3
940.135	4719.28
940.442	4644.03
940.749	4698.94
941.056	4646.74
941.363	4621.43
941.67	4673.86
941.977	4599.96
942.284	4563.81
942.591	4564.26
942.898	4591.83
943.205	4517.25
943.511	4467.09
943.818	4491.27
944.125	4433.41
944.431	4447.43
944.738	4444.04
945.044	4417.82
945.35	4420.08
945.657	4356.13
945.963	4349.8
946.269	4322.01
946.575	4329.91
946.881	4275.23
947.187	4273.19
947.493	4232.06
947.799	4292.4
948.105	4231.61
948.41	4173.99
948.716	4224.15
949.022	4182.12
949.327	4162.24
949.633	4093.76
949.938	4125.85
950.244	4092.41
950.549	4073.2
950.854	4046.98
951.16	4053.76
951.465	3997.72
951.77	3992.75
952.075	3982.35
952.38	3996.36
952.685	3959.75
952.99	3918.85
953.294	3937.83
953.599	3900.32
953.904	3901.68
954.209	3917.72
954.513	3870.94
954.818	3862.36
955.122	3849.48
955.426	3818.06
955.731	3793.88
956.035	3759.76
956.339	3767.22
956.643	3722.47
956.948	3706.2
957.252	3686.77
957.556	3737.39
957.86	3654.23
958.163	3652.19
958.467	3657.62
958.771	3658.97
959.075	3590.72
959.378	3639.09
959.682	3615.81
959.985	3574.23
960.289	3575.13
960.592	3532.87
960.896	3537.17
961.199	3544.62
961.502	3485.87
961.805	3468.24
962.108	3462.37
962.411	3439.09
962.714	3469.82
963.017	3446.32
963.32	3447
963.623	3379.43
963.926	3352.09
964.228	3398.64
964.531	3362.48
964.833	3345.99
965.136	3315.25
965.438	3299.43
965.741	3301.92
966.043	3269.38
966.345	3250.62
966.648	3245.65
966.95	3238.42
967.252	3210.4
967.554	3242.26
967.856	3228.93
968.158	3140.57
968.46	3183.28
968.761	3202.49
969.063	3182.83
969.365	3111.42
969.666	3106.44
969.968	3082.49
970.269	3052.89
970.571	3124.07
970.872	3075.94
971.174	3049.04
971.475	3091.08
971.776	3034.58
972.077	3031.87
972.378	3005.66
972.679	2969.5
972.98	2995.49
973.281	2964.53
973.582	2960.01
973.883	2966.56
974.183	2918.43
974.484	2894.7
974.785	2879.56
975.085	2887.69
975.386	2876.39
975.686	2830.29
975.986	2869.84
976.287	2845.21
976.587	2850.41
976.887	2781.48
977.187	2843.63
977.487	2782.38
977.787	2756.62
978.087	2719.79
978.387	2740.35
978.687	2768.6
978.987	2742.39
979.286	2702.16
979.586	2687.92
979.885	2686.79
980.185	2673.23
980.484	2678.21
980.784	2639.34
981.083	2658.09
981.382	2628.72
981.682	2612.67
981.981	2585.33
982.28	2570.19
982.579	2605.67
982.878	2585.55
983.177	2570.86
983.475	2577.19
983.774	2528.83
984.073	2512.56
984.372	2494.26
984.67	2532.22
984.969	2492.45
985.267	2471.43
985.566	2486.57
985.864	2453.81
986.162	2459.68
986.461	2473.01
986.759	2440.92
987.057	2389.17
987.355	2397.08
987.653	2418.1
987.951	2362.96
988.249	2374.94
988.547	2385.33
988.844	2374.71
989.142	2334.94
989.44	2378.78
989.737	2337.2
990.035	2292.68
990.332	2282.06
990.63	2269.63
990.927	2329.97
991.224	2290.65
991.521	2299.69
991.819	2245.45
992.116	2235.73
992.413	2229.63
992.71	2198.67
993.006	2215.85
993.303	2212.46
993.6	2165.68
993.897	2184.21
994.193	2187.6
994.49	2174.26
994.787	2140.37
995.083	2138.79
995.379	2125.9
995.676	2108.96
995.972	2108.96
996.268	2103.76
996.565	2054.72
996.861	2042.74
997.157	2066.02
997.453	2052.91
997.749	2040.03
998.044	2036.19
998.34	2013.37
998.636	2032.12
998.932	2017.88
999.227	2005.46
999.523	1962.75
999.818	1970.88
1000.114	1966.81
1000.409	1950.99
1000.704	1959.58
1001	1932.46
1001.295	1926.59
1001.59	1932.01
1001.885	1916.64
1002.18	1867.15
1002.475	1895.4
1002.77	1884.55
1003.065	1876.42
1003.359	1842.75
1003.654	1822.86
1003.949	1836.19
1004.243	1821.73
1004.538	1801.85
1004.832	1834.61
1005.127	1769.53
1005.421	1825.12
1005.715	1781.73
1006.009	1781.73
1006.304	1798.23
1006.598	1741.51
1006.892	1748.06
1007.186	1725.46
1007.48	1739.02
1007.773	1696.99
1008.067	1692.02
1008.361	1700.15
1008.655	1705.8
1008.948	1683.43
1009.242	1704.22
1009.535	1680.94
1009.829	1671.91
1010.122	1672.36
1010.415	1626.93
1010.708	1596.88
1011.001	1605.47
1011.295	1603.66
1011.588	1613.15
1011.881	1589.65
1012.173	1560.95
1012.466	1558.24
1012.759	1584.22
1013.052	1541.06
1013.344	1543.1
1013.637	1530.21
1013.93	1524.56
1014.222	1513.04
1014.514	1510.78
1014.807	1497.22
1015.099	1458.58
1015.391	1482.31
1015.683	1462.42
1015.976	1461.52
1016.268	1446.37
1016.56	1456.32
1016.851	1425.13
1017.143	1449.31
1017.435	1418.13
1017.727	1418.35
1018.018	1414.06
1018.31	1381.52
1018.602	1400.27
1018.893	1389.88
1019.185	1361.63
1019.476	1340.84
1019.767	1388.52
1020.058	1355.08
1020.35	1327.96
1020.641	1337
1020.932	1339.48
1021.223	1318.02
1021.514	1271.01
1021.804	1293.84
1022.095	1311.91
1022.386	1289.09
1022.677	1287.73
1022.967	1246.15
1023.258	1256.1
1023.548	1251.58
1023.839	1237.57
1024.129	1247.28
1024.419	1245.02
1024.709	1240.5
1025	1224.23
1025.29	1214.52
1025.58	1195.76
1025.87	1156.66
1026.16	1198.92
1026.449	1188.3
1026.739	1171.58
1027.029	1151.47
1027.319	1132.71
1027.608	1152.37
1027.898	1131.58
1028.187	1144.24
1028.477	1138.13
1028.766	1109.43
1029.055	1100.17
1029.344	1089.32
1029.634	1092.26
1029.923	1078.25
1030.212	1088.64
1030.501	1090.23
1030.79	1082.09
1031.078	1078.02
1031.367	1069.21
1031.656	1044.58
1031.945	1039.38
1032.233	1046.38
1032.522	1010.68
1032.81	979.49
1033.099	1014.97
1033.387	1000.06
1033.675	995.09
1033.963	993.96
1034.251	995.99
1034.54	979.95
1034.828	1002.54
1035.116	969.78
1035.403	975.88
1035.691	953.05
1035.979	962.55
1036.267	968.19
1036.554	944.24
1036.842	971.81
1037.129	935.65
1037.417	943.34
1037.704	939.27
1037.992	927.29
1038.279	903.11
1038.566	894.52
1038.853	894.52
1039.14	894.52
