Data from hue_330_FLMS001491_17.txt Node
Date: Mon Feb 06 15:44:59 GMT 2017
User: dcchb
Spectrometer: FLMS00149
Trigger mode: 0
Integration Time (sec): 2.000000E-2
Scans to average: 10
Electric dark correction enabled: true
Nonlinearity correction enabled: false
Boxcar width: 0
XAxis mode: Wavelengths
Number of Pixels in Spectrum: 2048
>>>>>Begin Spectral Data<<<<<
341.393	-12.36
341.776	-12.36
342.16	-12.36
342.543	-59.81
342.927	-82.41
343.31	-60.94
343.693	-70.44
344.077	-63.66
344.46	-57.1
344.843	-46.48
345.226	-38.57
345.61	-21.85
345.993	-32.7
346.376	-28.86
346.759	33.29
347.142	36.68
347.525	26.06
347.908	55.21
348.291	76
348.674	89.11
349.057	104.25
349.44	120.29
349.823	137.69
350.206	170.01
350.588	190.35
350.971	188.99
351.354	197.58
351.737	231.25
352.119	249.78
352.502	244.36
352.884	280.06
353.267	270.8
353.65	280.97
354.032	287.07
354.414	287.75
354.797	307.63
355.179	289.33
355.562	315.32
355.944	312.15
356.326	340.63
356.709	331.36
357.091	333.85
357.473	348.31
357.855	314.19
358.238	339.72
358.62	336.56
359.002	338.14
359.384	334.75
359.766	344.92
360.148	332.49
360.53	330.68
360.912	332.04
361.294	344.02
361.676	334.75
362.057	328.65
362.439	318.93
362.821	314.86
363.203	295.2
363.584	318.25
363.966	321.87
364.348	314.64
364.729	318.48
365.111	312.15
365.493	320.06
365.874	325.49
366.256	328.2
366.637	307.86
367.019	317.8
367.4	320.06
367.781	328.2
368.163	313.96
368.544	302.21
368.925	311.47
369.306	320.29
369.688	325.26
370.069	315.09
370.45	308.09
370.831	329.78
371.212	325.49
371.593	306.05
371.974	297.69
372.355	308.54
372.736	294.3
373.117	311.7
373.498	308.09
373.879	316.9
374.26	308.09
374.641	304.47
375.021	327.29
375.402	325.03
375.783	304.24
376.163	308.31
376.544	323.45
376.925	321.64
377.305	319.61
377.686	334.53
378.066	317.35
378.447	335.43
378.827	300.18
379.208	320.51
379.588	329.1
379.968	332.04
380.349	323.23
380.729	336.11
381.109	322.32
381.489	332.27
381.87	330.01
382.25	342.66
382.63	325.94
383.01	348.54
383.39	339.95
383.77	306.73
384.15	327.97
384.53	347.18
384.91	351.47
385.29	350.57
385.67	341.76
386.049	336.11
386.429	343.79
386.809	349.89
387.189	329.55
387.568	350.8
387.948	348.99
388.328	347.86
388.707	364.35
389.087	365.94
389.466	351.02
389.846	347.18
390.225	348.76
390.605	347.63
390.984	346.28
391.363	341.3
391.743	354.86
392.122	365.03
392.501	367.74
392.881	373.39
393.26	372.94
393.639	376.11
394.018	373.39
394.397	366.61
394.776	369.78
395.155	369.78
395.534	360.51
395.913	372.26
396.292	380.63
396.671	385.82
397.05	384.69
397.429	378.59
397.808	393.28
398.186	369.78
398.565	385.15
398.944	395.31
399.323	397.8
399.701	389.89
400.08	402.32
400.458	402.55
400.837	390.34
401.215	413.17
401.594	398.48
401.972	399.83
402.351	418.14
402.729	409.1
403.107	425.82
403.486	421.3
403.864	411.59
404.242	412.49
404.62	423.56
404.999	414.97
405.377	430.12
405.755	423.79
406.133	432.38
406.511	438.03
406.889	434.18
407.267	443.67
407.645	440.74
408.023	430.12
408.401	446.84
408.779	450.45
409.156	457.01
409.534	429.89
409.912	454.3
410.29	483.22
410.667	459.27
411.045	479.83
411.422	481.64
411.8	471.47
412.178	478.93
412.555	483
412.933	504.92
413.31	491.58
413.687	494.52
414.065	548.53
414.442	520.96
414.819	539.49
415.197	530.68
415.574	537.01
415.951	541.98
416.328	549.21
416.705	535.2
417.082	571.58
417.46	570.23
417.837	567.51
418.214	583.78
418.591	573.16
418.967	583.56
419.344	590.56
419.721	586.95
420.098	586.27
420.475	602.99
420.852	626.49
421.228	616.1
421.605	638.7
421.982	613.61
422.358	636.21
422.735	655.87
423.111	646.16
423.488	667.85
423.864	662.88
424.241	684.12
424.617	687.51
424.994	682.09
425.37	662.88
425.746	708.53
426.123	716.21
426.499	700.62
426.875	719.37
427.251	696.32
427.627	716.44
428.003	735.64
428.379	773.38
428.756	749.2
429.132	756.43
429.507	774.74
429.883	729.54
430.259	750.11
430.635	786.72
431.011	772.93
431.387	805.47
431.763	827.62
432.138	812.93
432.514	818.13
432.89	840.95
433.265	853.16
433.641	841.18
434.016	848.18
434.392	871.23
434.767	888.41
435.143	854.29
435.518	883.21
435.894	918.46
436.269	921.63
436.644	917.79
437.02	911.46
437.395	918.92
437.77	946.94
438.145	953.04
438.52	957.79
438.895	948.07
439.271	956.88
439.646	975.64
440.021	1001.85
440.395	963.44
440.77	996.2
441.145	983.32
441.52	1012.47
441.895	994.85
442.27	1011.12
442.645	1012.47
443.019	1021.74
443.394	1024.45
443.769	1044.34
444.143	1026.26
444.518	1050.89
444.892	1027.16
445.267	1045.69
445.641	1054.51
446.016	1058.8
446.39	1078.91
446.764	1063.55
447.139	1062.87
447.513	1071.91
447.887	1073.26
448.262	1079.82
448.636	1096.76
449.01	1100.38
449.384	1087.05
449.758	1115.75
450.132	1127.72
450.506	1128.4
450.88	1109.65
451.254	1103.09
451.628	1136.54
452.002	1139.25
452.376	1128.18
452.75	1142.87
453.123	1158.46
453.497	1180.15
453.871	1204.56
454.244	1207.27
454.618	1193.03
454.992	1181.06
455.365	1191
455.739	1231.9
456.112	1242.75
456.486	1238.68
456.859	1256.99
457.232	1252.92
457.606	1248.4
457.979	1260.6
458.352	1277.55
458.725	1315.52
459.099	1301.51
459.472	1323.65
459.845	1322.07
460.218	1323.65
460.591	1303.31
460.964	1334.72
461.337	1367.04
461.71	1367.72
462.083	1416.3
462.456	1388.51
462.829	1379.7
463.201	1412.91
463.574	1421.05
463.947	1411.11
464.32	1452.01
464.692	1463.31
465.065	1489.52
465.438	1475.96
465.81	1490.43
466.183	1496.08
466.555	1544.66
466.928	1527.49
467.3	1536.98
467.672	1574.72
468.045	1558.22
468.417	1568.39
468.789	1590.54
469.161	1597.32
469.534	1594.6
469.906	1636.86
470.278	1657.2
470.65	1682.06
471.022	1705.56
471.394	1706.47
471.766	1739.23
472.138	1745.79
472.51	1807.71
472.882	1776.97
473.253	1809.51
473.625	1827.82
473.997	1835.5
474.369	1871.89
474.74	1866.69
475.112	1935.84
475.484	1925.67
475.855	1959.57
476.227	1933.13
476.598	1996.18
476.97	1990.53
477.341	2058.55
477.713	2058.32
478.084	2072.56
478.455	2089.28
478.827	2129.05
479.198	2161.37
479.569	2206.11
479.94	2240.69
480.311	2233.68
480.682	2293.34
481.053	2327.47
481.424	2332.66
481.795	2379.44
482.166	2414.7
482.537	2407.24
482.908	2479.1
483.279	2481.36
483.65	2470.51
484.021	2540.34
484.391	2612.88
484.762	2610.17
485.133	2581.02
485.503	2669.6
485.874	2728.36
486.244	2698.98
486.615	2761.13
486.985	2783.05
487.356	2800.22
487.726	2824.63
488.097	2897.17
488.467	2919.32
488.837	2944.63
489.207	2956.38
489.578	2990.27
489.948	2999.54
490.318	3039.54
490.688	3055.81
491.058	3113.44
491.428	3119.76
491.798	3153.89
492.168	3201.12
492.538	3208.57
492.908	3239.31
493.278	3270.49
493.648	3277.05
494.017	3363.82
494.387	3350.04
494.757	3376.48
495.126	3397.95
495.496	3403.37
495.866	3378.74
496.235	3430.26
496.605	3481.79
496.974	3470.49
497.344	3526.31
497.713	3557.04
498.082	3546.42
498.452	3596.36
498.821	3630.71
499.19	3608.11
499.559	3620.09
499.928	3665.06
500.298	3639.3
500.667	3672.97
501.036	3682.69
501.405	3730.37
501.774	3670.26
502.143	3707.77
502.512	3753.64
502.88	3784.83
503.249	3764.27
503.618	3802.91
503.987	3837.71
504.356	3835.68
504.724	3867.31
505.093	3826.41
505.462	3915.22
505.83	3901.66
506.199	3969.68
506.567	3944.83
506.936	3959.29
507.304	4002.9
507.672	3976.69
508.041	4009
508.409	4004.94
508.777	4031.6
509.145	4044.71
509.514	4072.51
509.882	4098.04
510.25	4080.19
510.618	4088.78
510.986	4108.21
511.354	4165.38
511.722	4146.85
512.09	4181.2
512.458	4155.44
512.826	4170.13
513.193	4194.76
513.561	4197.02
513.929	4263.46
514.297	4300.97
514.664	4294.87
515.032	4254.2
515.4	4317.02
515.767	4290.35
516.135	4324.02
516.502	4331.93
516.869	4365.38
517.237	4397.24
517.604	4382.1
517.972	4371.93
518.339	4387.98
518.706	4413.97
519.073	4423.68
519.44	4390.69
519.808	4453.06
520.175	4458.03
520.542	4486.73
520.909	4453.51
521.276	4466.85
521.643	4488.09
522.009	4557.01
522.376	4541.42
522.743	4547.97
523.11	4573.28
523.477	4599.5
523.843	4647.18
524.21	4684.02
524.577	4688.31
524.943	4729.44
525.31	4726.73
525.676	4742.54
526.043	4797.91
526.409	4772.6
526.776	4830.9
527.142	4820.51
527.508	4806.72
527.874	4864.35
528.241	4881.3
528.607	4879.72
528.973	4897.12
529.339	4910.45
529.705	5013.72
530.071	5002.88
530.437	5059.82
530.803	5097.56
531.169	5076.1
531.535	5038.36
531.901	5113.83
532.267	5140.27
532.632	5156.32
532.998	5196.77
533.364	5174.85
533.73	5229.76
534.095	5249.42
534.461	5215.07
534.826	5318.12
535.192	5282.64
535.557	5342.53
535.923	5287.16
536.288	5373.26
536.653	5415.75
537.019	5355.64
537.384	5359.25
537.749	5422.07
538.114	5471.57
538.479	5475.41
538.845	5499.81
539.21	5514.5
539.575	5511.11
539.94	5515.86
540.305	5625.23
540.67	5578.68
541.034	5650.32
541.399	5646.25
541.764	5643.54
542.129	5700.03
542.494	5679.47
542.858	5712.24
543.223	5761.05
543.587	5741.39
543.952	5782.29
544.316	5830.2
544.681	5782.07
545.045	5857.32
545.41	5862.06
545.774	5860.26
546.138	5952.68
546.503	5952.91
546.867	5953.81
547.231	6039.69
547.595	5991.78
547.959	6069.74
548.324	6048.27
548.688	6107.25
549.052	6156.97
549.416	6139.34
549.779	6105.45
550.143	6153.58
550.507	6166.01
550.871	6206.91
551.235	6185.22
551.599	6267.02
551.962	6265.67
552.326	6345.21
552.689	6311.32
553.053	6302.28
553.417	6333.24
553.78	6397.64
554.143	6351.54
554.507	6368.72
554.87	6463.63
555.234	6485.55
555.597	6442.84
555.96	6457.98
556.323	6449.17
556.686	6519
557.05	6549.95
557.413	6556.06
557.776	6568.49
558.139	6575.94
558.502	6641.25
558.865	6606.68
559.228	6686
559.59	6675.38
559.953	6692.78
560.316	6777.75
560.679	6747.01
561.041	6762.38
561.404	6781.59
561.767	6879.89
562.129	6803.06
562.492	6909.95
562.854	6819.78
563.217	6844.41
563.579	6953.11
563.941	6947.46
564.304	6975.48
564.666	6975.03
565.028	7011.64
565.39	7028.81
565.753	7132.76
566.115	7134.12
566.477	7131.86
566.839	7072.65
567.201	7172.54
567.563	7176.15
567.925	7241.24
568.287	7217.96
568.648	7268.35
569.01	7320.56
569.372	7403.94
569.734	7331.4
570.095	7392.42
570.457	7469.7
570.819	7438.97
571.18	7476.71
571.542	7522.36
571.903	7532.75
572.265	7569.59
572.626	7590.61
572.987	7691.17
573.349	7712.41
573.71	7762.58
574.071	7838.51
574.432	7889.13
574.794	8004.38
575.155	7974.55
575.516	8035.57
575.877	8103.36
576.238	8077.82
576.599	8177.48
576.96	8227.88
577.32	8320.08
577.681	8402.34
578.042	8440.53
578.403	8561.88
578.763	8628.54
579.124	8733.17
579.485	8846.62
579.845	8922.55
580.206	8972.72
580.566	9089.1
580.927	9240.28
581.287	9403.67
581.648	9436.43
582.008	9665.35
582.368	9734.05
582.728	9932.46
583.089	10003.88
583.449	10149.41
583.809	10369.52
584.169	10476.86
584.529	10661.94
584.889	10906.22
585.249	11043.85
585.609	11187.35
585.969	11472.09
586.329	11546.89
586.688	11831.4
587.048	11995.91
587.408	12297.6
587.768	12408.11
588.127	12749.11
588.487	12964.93
588.846	13298.7
589.206	13361.75
589.565	13701.63
589.925	13986.37
590.284	14276.31
590.643	14525.11
591.003	14793.81
591.362	15100.24
591.721	15252.55
592.08	15554.24
592.44	15874.91
592.799	16078.52
593.158	16390.37
593.517	16666.07
593.876	17000.75
594.235	17357.81
594.593	17554.86
594.952	17921.86
595.311	18212.47
595.67	18459.25
596.029	18949.4
596.387	19189.4
596.746	19486.34
597.104	19709.61
597.463	19978.75
597.822	20406.09
598.18	20622.58
598.538	20908
598.897	21363.8
599.255	21435.44
599.613	22081.07
599.972	22164.23
600.33	22486.26
600.688	22671.79
601.046	23029.07
601.404	23490.75
601.762	23668.83
602.12	23917.41
602.478	24268.59
602.836	24564.4
603.194	24678.29
603.552	24955.8
603.91	25213.19
604.268	25520.98
604.625	25754.65
604.983	26134.07
605.341	26150.12
605.698	26517.34
606.056	26836.43
606.413	27045.24
606.771	27325.45
607.128	27617.2
607.485	27710.3
607.843	28009.73
608.2	28328.37
608.557	28618.98
608.914	28793.66
609.272	29112.3
609.629	29357.94
609.986	29612.17
610.343	29561.33
610.7	30128.32
611.057	30258.48
611.414	30411.25
611.771	30614.63
612.127	30938.24
612.484	31009.2
612.841	31381.17
613.198	31333.48
613.554	31558.79
613.911	31801.27
614.267	32074.48
614.624	32050.75
614.98	32314.93
615.337	32531.42
615.693	32682.6
616.05	32682.83
616.406	33090.5
616.762	33163.27
617.118	33204.85
617.475	33405.29
617.831	33535.01
618.187	33690.71
618.543	33896.81
618.899	34265.84
619.255	34229
619.611	34454.76
619.967	34655.43
620.323	34748.99
620.678	34713.28
621.034	34733.39
621.39	34886.38
621.746	35058.36
622.101	35408.63
622.457	35393.72
622.812	35496.31
623.168	35572.02
623.523	35736.08
623.879	35895.17
624.234	35698.12
624.589	35973.14
624.945	36035.28
625.3	36099.23
625.655	36220.36
626.01	36235.95
626.365	36292.22
626.72	36320.92
627.075	36395.05
627.43	36483.86
627.785	36563.63
628.14	36696.73
628.495	36640.92
628.85	36803.4
629.205	36702.83
629.559	36894.69
629.914	36965.43
630.269	37001.81
630.623	36908.93
630.978	36946.67
631.332	37128.81
631.687	37270.28
632.041	37064.86
632.396	37202.93
632.75	37087.91
633.104	37110.73
633.459	37074.8
633.813	37178.75
634.167	37162.03
634.521	37072.77
634.875	37387.11
635.229	37179.66
635.583	37175.59
635.937	37056.5
636.291	37177.62
636.645	37297.85
636.999	37186.66
637.352	37242.26
637.706	37216.04
638.06	37339.43
638.413	37206.1
638.767	37299.65
639.121	37321.58
639.474	37080
639.828	37107.12
640.181	37315.7
640.534	37237.28
640.888	37166.78
641.241	37070.06
641.594	37233.89
641.947	37343.04
642.301	37057.85
642.654	37256.04
643.007	37292.65
643.36	37257.62
643.713	37193.89
644.066	37360.67
644.419	36939.44
644.771	36842.49
645.124	36560.01
645.477	36419.45
645.83	36113.47
646.182	36179.46
646.535	36122.51
646.888	36275.5
647.24	36095.39
647.593	36204.32
647.945	36124.32
648.298	35932.69
648.65	35892.91
649.002	35815.4
649.355	36008.84
649.707	35995.96
650.059	36103.98
650.411	36630.97
650.763	36565.66
651.115	36862.83
651.467	36766.79
651.819	36881.13
652.171	36763.85
652.523	36676.39
652.875	36690.86
653.227	36546.68
653.578	36852.43
653.93	36698.77
654.282	36593.46
654.633	36487.47
654.985	36586.68
655.337	36612.44
655.688	36557.98
656.039	36741.7
656.391	36402.73
656.742	36573.35
657.094	36569.73
657.445	36653.57
657.796	36538.54
658.147	36577.87
658.498	36435.5
658.849	36560.01
659.2	36467.13
659.551	36375.16
659.902	36507.13
660.253	36493.57
660.604	36703.29
660.955	36421.94
661.306	36584.19
661.656	36282.28
662.007	36412.9
662.358	36477.98
662.708	36469.17
663.059	36408.6
663.409	36508.04
663.76	36428.04
664.11	36396.85
664.461	36443.41
664.811	36493.8
665.161	36359.79
665.511	36417.19
665.862	36339.45
666.212	36513.23
666.562	36621.25
666.912	36434.37
667.262	36374.48
667.612	36413.58
667.962	36558.43
668.312	36447.93
668.662	36500.13
669.011	36262.39
669.361	36333.35
669.711	36322.28
670.06	36202.51
670.41	36175.16
670.76	36098.33
671.109	36308.49
671.459	36290.19
671.808	36211.55
672.157	36277.08
672.507	36019.69
672.856	36170.87
673.205	36149.63
673.554	36278.66
673.904	36097.88
674.253	36210.87
674.602	36118.89
674.951	35593.26
675.3	35586.71
675.649	36104.21
675.998	35955.96
676.346	36054.04
676.695	36245.9
677.044	35814.95
677.393	35979.01
677.741	36078.44
678.09	35814.72
678.438	35749.41
678.787	35912.57
679.135	35902.18
679.484	35656.31
679.832	35936.53
680.181	35602.98
680.529	35709.87
680.877	35705.35
681.225	35666.03
681.573	35783.31
681.922	35581.73
682.27	35432.13
682.618	35475.52
682.966	35389.42
683.314	35420.83
683.661	35190.78
684.009	35189.2
684.357	35137.45
684.705	35142.65
685.053	35037.79
685.4	35063.33
685.748	34775.88
686.095	34916.21
686.443	34753.51
686.79	34747.86
687.138	34807.74
687.485	34863.33
687.832	34690.68
688.18	34739.72
688.527	34508.77
688.874	34477.13
689.221	34566.62
689.568	34407.98
689.915	34196.01
690.262	34155.56
690.609	34021.55
690.956	34053.41
691.303	34062
691.65	33985.62
691.997	33909.24
692.344	33551.96
692.69	33701.33
693.037	33600.09
693.383	33371.17
693.73	33562.58
694.077	33346.76
694.423	33349.25
694.769	33213.21
695.116	33110.61
695.462	33074.23
695.808	33046.66
696.155	33043.95
696.501	32765.08
696.847	32816.38
697.193	32660
697.539	32727.8
697.885	32502.49
698.231	32315.15
698.577	32247.13
698.923	32309.28
699.269	32166.68
699.614	32088.72
699.96	32069.51
700.306	32213.91
700.651	31864.09
700.997	31671.55
701.342	31859.12
701.688	31671.78
702.033	31593.14
702.379	31636.3
702.724	31501.84
703.069	31500.03
703.415	31182.3
703.76	31229.76
704.105	31252.58
704.45	30989.76
704.795	30930.1
705.14	30873.16
705.485	30949.99
705.83	30776.21
706.175	30826.15
706.52	30722.2
706.865	30667.51
707.209	30506.16
707.554	30385.49
707.899	30357.01
708.243	30297.58
708.588	30322.21
708.932	30100.52
709.277	30096.68
709.621	30105.72
709.966	29849.68
710.31	30036.34
710.654	29817.59
710.998	29816.91
711.342	29749.8
711.687	29767.2
712.031	29491.27
712.375	29448.34
712.719	29549.35
713.063	29377.38
713.407	29584.6
713.75	29331.28
714.094	29304.16
714.438	29264.16
714.782	29356.13
715.125	29177.61
715.469	29216.03
715.812	28977.61
716.156	28801.57
716.499	28781.46
716.843	28931.06
717.186	28709.82
717.53	28896.49
717.873	28837.05
718.216	28790.95
718.559	28685.19
718.902	28419.21
719.246	28515.71
719.589	28396.84
719.932	28323.39
720.275	28400.68
720.617	28196.84
720.96	28230.97
721.303	28199.33
721.646	28253.79
721.989	28159.33
722.331	28116.85
722.674	28084.3
723.016	28077.75
723.359	28053.34
723.701	27998.43
724.044	27678.66
724.386	27616.52
724.729	27793.24
725.071	27697.65
725.413	27558.22
725.755	27689.51
726.097	27492
726.439	27459.91
726.782	27365.23
727.124	27511.66
727.465	27355.28
727.807	27381.27
728.149	27291.78
728.491	27288.17
728.833	27268.28
729.175	27070.55
729.516	27144.44
729.858	26998.91
730.199	27040.72
730.541	26913.49
730.882	27011.11
731.224	27077.78
731.565	26755.07
731.906	26904.9
732.248	26955.75
732.589	26750.1
732.93	26711.23
733.271	26716.88
733.612	26628.97
733.953	26781.06
734.294	26656.77
734.635	26560.95
734.976	26477.34
735.317	26368.87
735.658	26455.19
735.999	26386.04
736.339	26340.17
736.68	26336.78
737.021	26198.25
737.361	26207.74
737.702	26307.18
738.042	26149.89
738.383	26188.76
738.723	26253.84
739.063	26133.39
739.404	26138.59
739.744	26069.89
740.084	26017.01
740.424	26037.58
740.764	25870.35
741.104	25953.29
741.444	25772.27
741.784	25692.5
742.124	25825.15
742.464	25717.36
742.804	25767.98
743.143	25683.92
743.483	25689.34
743.823	25577.93
744.162	25593.52
744.502	25546.74
744.841	25365.28
745.181	25529.57
745.52	25373.87
745.86	25429.01
746.199	25287.99
746.538	25261.1
746.877	25235.57
747.216	25400.08
747.556	25164.38
747.895	25186.08
748.234	25036.47
748.573	25056.59
748.911	25120.77
749.25	25067.66
749.589	24806.42
749.928	24913.99
750.267	24908.34
750.605	24834.9
750.944	24770.04
751.283	24668.12
751.621	24709.93
751.96	24643.26
752.298	24591.29
752.636	24622.93
752.975	24368.47
753.313	24282.37
753.651	24452.99
753.989	24379.32
754.327	24267
754.666	24167.12
755.004	24121.47
755.342	24090.96
755.679	24114.46
756.017	24060.23
756.355	23997.86
756.693	23878.76
757.031	23941.81
757.368	23874.47
757.706	23743.4
758.044	23669.5
758.381	23704.08
758.719	23562.61
759.056	23611.88
759.394	23539.56
759.731	23391.55
760.068	23303.64
760.405	23314.71
760.743	23253.47
761.08	23192.68
761.417	23119.46
761.754	23117.65
762.091	23053.7
762.428	22985.45
762.765	22687.61
763.102	22858.45
763.438	22747.72
763.775	22667.05
764.112	22725.12
764.449	22569.42
764.785	22502.53
765.122	22352.7
765.458	22455.3
765.795	22185.25
766.131	22215.08
766.467	22130.79
766.804	22004.92
767.14	21840.17
767.476	21925.37
767.812	21773.74
768.148	21824.81
768.485	21697.35
768.821	21523.57
769.157	21646.28
769.492	21519.28
769.828	21466.85
770.164	21332.17
770.5	21319.28
770.836	21232.05
771.171	21075.45
771.507	21147.09
771.842	20916.36
772.178	20902.12
772.513	20789.58
772.849	20804.72
773.184	20763.37
773.519	20743.71
773.855	20650.38
774.19	20503.03
774.525	20344.62
774.86	20377.61
775.195	20383.49
775.53	20340.33
775.865	20241.57
776.2	20007.91
776.535	19894.24
776.87	19953.44
777.205	19837.97
777.539	19784.41
777.874	19795.48
778.209	19616.05
778.543	19625.32
778.878	19495.15
779.212	19430.29
779.547	19345.78
779.881	19393.91
780.215	19227.14
780.55	19253.8
780.884	19114.37
781.218	19066.91
781.552	19049.51
781.886	18931.1
782.22	18801.16
782.554	18748.28
782.888	18678.68
783.222	18544.22
783.556	18592.58
783.889	18337.22
784.223	18376.31
784.557	18238.69
784.89	18309.19
785.224	18172.93
785.557	18076.43
785.891	18067.39
786.224	17975.42
786.558	18038.92
786.891	17773.39
787.224	17778.59
787.557	17777.91
787.891	17632.83
788.224	17590.34
788.557	17557.35
788.89	17559.83
789.223	17509.44
789.556	17488.42
789.888	17353.51
790.221	17208.43
790.554	17192.16
790.887	17189
791.219	17036.68
791.552	16995.56
791.884	16991.71
792.217	17032.39
792.549	16812.28
792.882	16752.62
793.214	16664.49
793.546	16714.66
793.879	16558.73
794.211	16520.99
794.543	16579.75
794.875	16493.42
795.207	16523.03
795.539	16420.66
795.871	16374.78
796.203	16305.86
796.535	16133.88
796.867	16159.87
797.198	16035.13
797.53	16077.84
797.862	15975.02
798.193	16080.1
798.525	15829.26
798.856	15938.63
799.188	15744.06
799.519	15667.68
799.85	15646.44
800.182	15577.97
800.513	15648.47
800.844	15384.98
801.175	15586.1
801.506	15468.82
801.837	15471.53
802.168	15312.44
802.499	15296.17
802.83	15168.03
803.161	15256.84
803.491	15166.45
803.822	15188.6
804.153	15134.81
804.483	14990.41
804.814	14915.84
805.145	14957.42
805.475	14918.77
805.805	14777.08
806.136	14863.63
806.466	14825.22
806.796	14774.15
807.126	14769.17
807.457	14586.58
807.787	14670.65
808.117	14606.01
808.447	14559.24
808.777	14495.28
809.107	14450.54
809.436	14449.63
809.766	14362.63
810.096	14377.32
810.426	14375.74
810.755	14281.73
811.085	14211.45
811.414	14300.26
811.744	14051.45
812.073	14082.19
812.403	14093.49
812.732	13945.24
813.061	13928.29
813.39	13895.07
813.719	13825.24
814.049	13945.69
814.378	13771.91
814.707	13842.42
815.036	13818.01
815.365	13679.71
815.693	13622.99
816.022	13607.4
816.351	13616.44
816.68	13529.88
817.008	13566.49
817.337	13457.8
817.665	13384.8
817.994	13464.58
818.322	13374.18
818.651	13363.34
818.979	13161.08
819.307	13372.37
819.636	13278.14
819.964	13290.57
820.292	13279.95
820.62	13226.84
820.948	13196.79
821.276	13231.59
821.604	13203.11
821.932	13194.75
822.259	13248.76
822.587	13154.08
822.915	13134.87
823.243	13209.21
823.57	13142.78
823.898	13155.43
824.225	13124.47
824.553	13074.98
824.88	13081.31
825.207	13200.4
825.535	13102.55
825.862	13129.89
826.189	13077.01
826.516	13095.32
826.843	13138.93
827.17	13183.23
827.497	13169.22
827.824	13115.88
828.151	13126.28
828.478	13103.45
828.805	13151.14
829.131	13044.47
829.458	13081.76
829.785	12990.69
830.111	12982.55
830.438	13126.28
830.764	13052.83
831.09	13181.42
831.417	13028.2
831.743	13146.39
832.069	13081.31
832.395	12972.38
832.722	12992.27
833.048	13059.39
833.374	12988.66
833.7	12835.89
834.026	12957.92
834.351	12993.18
834.677	12996.11
835.003	12907.3
835.329	12864.37
835.654	12934.19
835.98	12864.82
836.306	12836.8
836.631	12756.8
836.956	12803.35
837.282	12797.47
837.607	12760.64
837.932	12695.1
838.258	12791.6
838.583	12684.03
838.908	12684.93
839.233	12696.46
839.558	12609.23
839.883	12560.19
840.208	12556.8
840.533	12639.74
840.858	12541.66
841.182	12565.84
841.507	12505.05
841.832	12486.3
842.156	12492.4
842.481	12502.34
842.805	12413.76
843.13	12363.59
843.454	12364.94
843.778	12275.68
844.103	12279.52
844.427	12258.28
844.751	12308.22
845.075	12186.64
845.399	12149.36
845.723	12074.1
846.047	12161.78
846.371	12000.89
846.695	12039.3
847.019	11939.64
847.343	11879.98
847.666	11739.65
847.99	11748.46
848.313	11757.05
848.637	11704.17
848.96	11694
849.284	11701.68
849.607	11564.51
849.931	11533.1
850.254	11456.94
850.577	11366.1
850.9	11323.39
851.223	11296.04
851.546	11188.48
851.869	11087.69
852.192	11214.92
852.515	11108.03
852.838	11049.72
853.161	11016.73
853.483	10975.38
853.806	11011.76
854.129	10962.27
854.451	10867.81
854.774	10884.3
855.096	10868.03
855.419	10728.83
855.741	10771.09
856.063	10732.67
856.385	10706.46
856.708	10622.16
857.03	10670.98
857.352	10666.68
857.674	10549.85
857.996	10600.92
858.318	10558.44
858.64	10507.36
858.961	10499
859.283	10369.29
859.605	10371.32
859.926	10382.17
860.248	10320.48
860.57	10389.18
860.891	10303.98
861.212	10266.24
861.534	10194.15
861.855	10190.54
862.176	10152.8
862.498	10244.1
862.819	10241.38
863.14	10195.73
863.461	10113.03
863.782	10120.71
864.103	10113.48
864.424	10075.29
864.745	10068.51
865.065	10007.49
865.386	9997.32
865.707	9999.81
866.027	9963.88
866.348	9934.05
866.668	9967.27
866.989	9870.77
867.309	9814.05
867.63	9873.03
867.95	9847.04
868.27	9805.01
868.59	9779.47
868.91	9814.95
869.23	9771.57
869.55	9713.04
869.87	9780.83
870.19	9745.35
870.51	9674.84
870.83	9711.45
871.15	9692.92
871.469	9680.95
871.789	9632.13
872.109	9667.39
872.428	9652.47
872.748	9668.06
873.067	9599.14
873.386	9665.81
873.706	9577.22
874.025	9537.45
874.344	9532.25
874.663	9534.96
874.982	9473.95
875.301	9471.46
875.62	9432.14
875.939	9485.02
876.258	9399.6
876.577	9397.79
876.896	9332.93
877.214	9354.4
877.533	9396.21
877.852	9384
878.17	9395.53
878.489	9302.2
878.807	9312.59
879.125	9350.11
879.444	9368.86
879.762	9268.75
880.08	9282.09
880.398	9277.34
880.716	9183.11
881.034	9212.26
881.352	9175.2
881.67	9132.26
881.988	9154.41
882.306	9152.15
882.624	9102.43
882.941	9085.71
883.259	9043
883.577	9003.22
883.894	8988.99
884.212	9017.69
884.529	9006.61
884.846	8941.3
885.164	8906.5
885.481	8880.74
885.798	8951.7
886.115	8827.18
886.432	8881.42
886.75	8801.2
887.067	8755.32
887.383	8809.1
887.7	8837.13
888.017	8696.57
888.334	8702.21
888.651	8732.72
888.967	8696.34
889.284	8627.64
889.6	8628.54
889.917	8591.48
890.233	8573.63
890.55	8523.01
890.866	8571.14
891.182	8506.51
891.498	8427.65
891.815	8421.77
892.131	8440.07
892.447	8424.93
892.763	8367.31
893.079	8287.08
893.395	8356.24
893.71	8386.74
894.026	8298.61
894.342	8284.6
894.657	8221.55
894.973	8202.79
895.289	8173.64
895.604	8160.31
895.92	8061.1
896.235	8113.76
896.55	8167.77
896.865	8091.61
897.181	8010.03
897.496	8015
897.811	7998.05
898.126	7931.39
898.441	7955.12
898.756	7926.42
899.071	7815.91
899.386	7884.61
899.7	7780.43
900.015	7747.44
900.33	7697.95
900.644	7756.25
900.959	7738.85
901.273	7671.06
901.588	7652.52
901.902	7624.73
902.216	7628.12
902.531	7586.54
902.845	7497.05
903.159	7452.76
903.473	7445.07
903.787	7407.11
904.101	7403.94
904.415	7359.43
904.729	7363.49
905.042	7315.13
905.356	7321.69
905.67	7287.79
905.984	7247.56
906.297	7274.91
906.611	7216.15
906.924	7201.46
907.237	7147
907.551	7103.84
907.864	7129.83
908.177	7035.59
908.491	7036.95
908.804	6975.03
909.117	6940
909.43	6950.4
909.743	6906.33
910.056	6954.92
910.368	6964.86
910.681	6763.73
910.994	6820.68
911.307	6784.3
911.619	6737.29
911.932	6810.51
912.244	6694.81
912.557	6678.54
912.869	6680.8
913.181	6605.32
913.494	6632.89
913.806	6593.8
914.118	6538.66
914.43	6467.47
914.742	6497.3
915.054	6488.26
915.366	6433.35
915.678	6396.06
915.99	6379.79
916.302	6313.8
916.613	6281.94
916.925	6320.36
917.236	6314.03
917.548	6234.26
917.859	6259.34
918.171	6149.74
918.482	6194.48
918.794	6138.44
919.105	6116.97
919.416	6134.15
919.727	6074.94
920.038	6074.94
920.349	5996.75
920.66	6025.45
920.971	6008.27
921.282	5961.04
921.593	5860.48
921.903	5921.95
922.214	5854.61
922.525	5859.8
922.835	5822.29
923.146	5775.51
923.456	5770.09
923.767	5781.39
924.077	5738.45
924.387	5715.4
924.697	5640.15
925.008	5701.84
925.318	5674.05
925.628	5653.03
925.938	5595.18
926.248	5567.61
926.558	5578
926.867	5508.63
927.177	5511.79
927.487	5460.94
927.796	5427.95
928.106	5422.75
928.416	5456.65
928.725	5390.21
929.034	5404
929.344	5374.62
929.653	5386.37
929.962	5288.52
930.271	5312.25
930.581	5240.84
930.89	5220.27
931.199	5191.8
931.508	5163.1
931.817	5144.79
932.125	5141.4
932.434	5101.63
932.743	5120.39
933.051	5072.25
933.36	5055.76
933.669	5001.75
933.977	4963.33
934.286	4979.37
934.594	4994.97
934.902	4939.6
935.21	4904.57
935.519	4919.04
935.827	4926.72
936.135	4867.06
936.443	4831.36
936.751	4816.44
937.059	4812.6
937.367	4755.2
937.674	4726.73
937.982	4754.97
938.29	4712.72
938.597	4699.61
938.905	4676.78
939.213	4633.17
939.52	4646.73
939.827	4654.41
940.135	4574.19
940.442	4557.46
940.749	4593.85
941.056	4563.11
941.363	4541.42
941.67	4463
941.977	4469.33
942.284	4399.5
942.591	4455.32
942.898	4439.73
943.205	4419.39
943.511	4393.18
943.818	4361.76
944.125	4311.14
944.431	4354.08
944.738	4343.69
945.044	4305.49
945.35	4259.85
945.657	4244.03
945.963	4233.18
946.269	4215.55
946.575	4224.37
946.881	4149.79
947.187	4181.88
947.493	4131.04
947.799	4133.52
948.105	4131.26
948.41	4107.76
948.716	4082
949.022	4072.73
949.327	4031.6
949.633	3980.3
949.938	4004.49
950.244	4015.11
950.549	3922.45
950.854	3945.5
951.16	3952.28
951.465	3920.87
951.77	3906.63
952.075	3899.4
952.38	3885.84
952.685	3910.02
952.99	3819.63
953.294	3772.85
953.599	3843.81
953.904	3780.54
954.209	3750.71
954.513	3771.27
954.818	3787.54
955.122	3723.14
955.426	3744.15
955.731	3678.84
956.035	3664.83
956.339	3627.55
956.643	3648.34
956.948	3640.43
957.252	3602.69
957.556	3597.94
957.86	3610.82
958.163	3570.82
958.467	3530.37
958.771	3513.65
959.075	3549.13
959.378	3512.07
959.682	3450.15
959.985	3483.37
960.289	3433.88
960.592	3462.8
960.896	3459.87
961.199	3456.48
961.502	3430.71
961.805	3399.3
962.108	3357.27
962.411	3393.65
962.714	3333.32
963.017	3368.12
963.32	3335.8
963.623	3303.49
963.926	3297.61
964.228	3259.87
964.531	3276.59
964.833	3248.12
965.136	3214.68
965.438	3234.34
965.741	3211.74
966.043	3206.54
966.345	3191.63
966.648	3155.02
966.95	3174.68
967.252	3122.25
967.554	3099.65
967.856	3084.28
968.158	3107.79
968.46	3095.58
968.761	3062.81
969.063	3049.48
969.365	3039.54
969.666	3022.36
969.968	3033.21
970.269	2985.3
970.571	3002.48
970.872	2955.93
971.174	2977.85
971.475	2952.99
971.776	2958.64
972.077	2935.36
972.378	2907.34
972.679	2933.33
972.98	2888.36
973.281	2869.37
973.582	2894.23
973.883	2856.27
974.183	2863.5
974.484	2827.57
974.785	2843.39
975.085	2836.15
975.386	2808.36
975.686	2767
975.986	2753.44
976.287	2780.34
976.587	2760.68
976.887	2754.8
977.187	2717.29
977.487	2704.18
977.787	2706.67
978.087	2663.73
978.387	2676.61
978.687	2640.45
978.987	2645.88
979.286	2635.93
979.586	2663.5
979.885	2637.29
980.185	2602.71
980.484	2582.15
980.784	2609.72
981.083	2552.55
981.382	2533.56
981.682	2539.44
981.981	2541.25
982.28	2546.9
982.579	2514.81
982.878	2492.66
983.177	2513
983.475	2500.8
983.774	2491.53
984.073	2453.34
984.372	2430.97
984.67	2403.85
984.969	2428.03
985.267	2404.3
985.566	2422.83
985.864	2387.35
986.162	2401.82
986.461	2354.81
986.759	2377.18
987.057	2358.88
987.355	2320.01
987.653	2344.87
987.951	2355.94
988.249	2311.65
988.547	2315.94
988.844	2298.09
989.142	2294.02
989.44	2266
989.737	2265.77
990.035	2240.92
990.332	2256.96
990.63	2234.14
990.927	2228.94
991.224	2218.77
991.521	2206.57
991.819	2150.52
992.116	2188.04
992.413	2179.45
992.71	2154.82
993.006	2155.27
993.303	2139
993.6	2144.2
993.897	2122.5
994.193	2116.85
994.49	2109.62
994.787	2102.84
995.083	2049.28
995.379	2086.8
995.676	2053.35
995.972	2044.54
996.268	2035.05
996.565	2026.01
996.861	2023.07
997.157	1998.21
997.453	2006.12
997.749	2029.17
998.044	1991.88
998.34	1983.52
998.636	1969.74
998.932	1932.22
999.227	1932.9
999.523	1955.5
999.818	1968.15
1000.114	1909.85
1000.409	1895.39
1000.704	1892
1001	1881.38
1001.295	1877.31
1001.59	1877.31
1001.885	1861.04
1002.18	1831.21
1002.475	1882.73
1002.77	1828.5
1003.065	1836.63
1003.359	1841.6
1003.654	1818.55
1003.949	1796.63
1004.243	1784.66
1004.538	1762.28
1004.832	1760.93
1005.127	1772.91
1005.421	1750.53
1005.715	1732
1006.009	1745.34
1006.304	1697.43
1006.598	1727.03
1006.892	1721.16
1007.186	1685.22
1007.48	1690.87
1007.773	1655.62
1008.067	1655.85
1008.361	1645.23
1008.655	1625.34
1008.948	1641.61
1009.242	1630.31
1009.535	1626.24
1009.829	1594.6
1010.122	1611.78
1010.415	1567.26
1010.708	1615.85
1011.001	1587.6
1011.295	1562.06
1011.588	1561.16
1011.881	1522.29
1012.173	1543.53
1012.466	1501.05
1012.759	1514.83
1013.052	1526.36
1013.344	1509.86
1013.637	1507.38
1013.93	1483.87
1014.222	1493.82
1014.514	1478.9
1014.807	1469.41
1015.099	1450.88
1015.391	1483.2
1015.683	1432.35
1015.976	1421.95
1016.268	1417.89
1016.56	1428.73
1016.851	1384.22
1017.143	1387.6
1017.435	1383.31
1017.727	1360.26
1018.018	1360.49
1018.31	1389.64
1018.602	1390.77
1018.893	1375.4
1019.185	1317.78
1019.476	1351
1019.767	1348.96
1020.058	1315.52
1020.35	1302.18
1020.641	1282.97
1020.932	1295.4
1021.223	1282.3
1021.514	1295.86
1021.804	1265.35
1022.095	1264.67
1022.386	1268.29
1022.677	1235.07
1022.967	1261.51
1023.258	1234.61
1023.548	1228.06
1023.839	1216.54
1024.129	1194.62
1024.419	1194.16
1024.709	1203.2
1025	1179.93
1025.29	1204.11
1025.58	1181.96
1025.87	1154.39
1026.16	1133.83
1026.449	1143.54
1026.739	1137.22
1027.029	1115.52
1027.319	1131.57
1027.608	1120.49
1027.898	1128.4
1028.187	1100.83
1028.477	1086.14
1028.766	1094.28
1029.055	1099.25
1029.344	1068.07
1029.634	1039.37
1029.923	1040.27
1030.212	1053.38
1030.501	1059.7
1030.79	1011.12
1031.078	1039.82
1031.367	1028.07
1031.656	1021.06
1031.945	1006.6
1032.233	1008.63
1032.522	986.49
1032.81	981.29
1033.099	998.46
1033.387	981.51
1033.675	984.23
1033.963	951.46
1034.251	946.26
1034.54	971.8
1034.828	954.62
1035.116	947.16
1035.403	933.61
1035.691	921.18
1035.979	927.73
1036.267	920.5
1036.554	924.57
1036.842	927.96
1037.129	911.46
1037.417	896.32
1037.704	903.55
1037.992	888.63
1038.279	883.44
1038.566	871.01
1038.853	871.01
1039.14	871.01
