Data from hue_280_FLMS001491_00057.txt Node
Date: Tue Feb 07 15:55:28 GMT 2017
User: dcchb
Spectrometer: FLMS00149
Trigger mode: 0
Integration Time (sec): 2.000000E-2
Scans to average: 10
Electric dark correction enabled: true
Nonlinearity correction enabled: false
Boxcar width: 0
XAxis mode: Wavelengths
Number of Pixels in Spectrum: 2048
>>>>>Begin Spectral Data<<<<<
341.393	-8.6
341.776	-8.6
342.16	-8.6
342.543	-70.75
342.927	-78.43
343.31	-71.2
343.693	-66.68
344.077	-73.68
344.46	-56.51
344.843	-67.81
345.226	-58.32
345.61	-28.04
345.993	7.22
346.376	9.48
346.759	6.31
347.142	24.62
347.525	38.18
347.908	63.49
348.291	78.4
348.674	65.29
349.057	129.25
349.44	122.92
349.823	136.25
350.206	171.05
350.588	174.44
350.971	206.08
351.354	223.26
351.737	242.47
352.119	241.11
352.502	260.32
352.884	260.32
353.267	268.91
353.65	288.57
354.032	286.76
354.414	322.01
354.797	305.29
355.179	327.89
355.562	336.7
355.944	339.41
356.326	323.14
356.709	342.8
357.091	334.21
357.473	342.58
357.855	340.77
358.238	330.6
358.62	330.37
359.002	333.76
359.384	325.85
359.766	334.89
360.148	371.05
360.53	346.64
360.912	344.16
361.294	323.14
361.676	318.62
362.057	339.86
362.439	331.28
362.821	315.91
363.203	321.11
363.584	322.92
363.966	329.47
364.348	328.56
364.729	323.14
365.111	334.44
365.493	306.42
365.874	312.07
366.256	318.17
366.637	305.74
367.019	311.62
367.4	330.37
367.781	310.03
368.163	319.75
368.544	312.29
368.925	306.64
369.306	324.5
369.688	315.68
370.069	313.42
370.45	335.34
370.831	312.97
371.212	317.49
371.593	313.2
371.974	325.4
372.355	311.62
372.736	300.54
373.117	319.98
373.498	310.26
373.879	322.01
374.26	325.4
374.641	307.1
375.021	319.07
375.402	323.82
375.783	316.59
376.163	329.02
376.544	322.46
376.925	334.21
377.305	324.5
377.686	338.06
378.066	325.85
378.447	299.86
378.827	347.77
379.208	332.86
379.588	341.45
379.968	350.03
380.349	320.43
380.729	323.82
381.109	326.08
381.489	346.87
381.87	341.45
382.25	338.51
382.63	339.19
383.01	339.64
383.39	348
383.77	338.06
384.15	360.43
384.53	331.5
384.91	359.52
385.29	369.47
385.67	340.99
386.049	378.73
386.429	348.9
386.809	352.07
387.189	360.65
387.568	373.76
387.948	377.6
388.328	358.17
388.707	362.46
389.087	365.85
389.466	351.39
389.846	367.43
390.225	356.81
390.605	387.32
390.984	395.23
391.363	378.06
391.743	382.57
392.122	377.83
392.501	371.73
392.881	385.96
393.26	393.2
393.639	381.22
394.018	386.19
394.397	410.37
394.776	397.72
395.155	395
395.534	406.98
395.913	408.34
396.292	387.32
396.671	412.63
397.05	409.69
397.429	402.91
397.808	404.72
398.186	428.68
398.565	397.04
398.944	435.23
399.323	423.93
399.701	436.81
400.08	451.5
400.458	440.2
400.837	415.57
401.215	429.35
401.594	435.91
401.972	437.26
402.351	458.28
402.729	466.19
403.107	463.7
403.486	457.83
403.864	444.72
404.242	465.96
404.62	475.23
404.999	464.61
405.377	465.74
405.755	450.14
406.133	482.23
406.511	479.75
406.889	484.72
407.267	483.14
407.645	483.59
408.023	510.48
408.401	508.67
408.779	522.68
409.156	502.8
409.534	537.6
409.912	536.92
410.29	541.67
410.667	538.5
411.045	543.02
411.422	544.6
411.8	571.04
412.178	578.05
412.555	576.47
412.933	568.11
413.31	584.15
413.687	592.96
414.065	618.27
414.442	586.41
414.819	627.09
415.197	630.03
415.574	612.63
415.951	634.55
416.328	657.37
416.705	640.87
417.082	672.06
417.46	674.54
417.837	686.75
418.214	687.43
418.591	691.72
418.967	712.06
419.344	712.28
419.721	703.7
420.098	714.77
420.475	700.98
420.852	716.35
421.228	724.03
421.605	762
421.982	775.56
422.358	762.23
422.735	781.66
423.111	781.89
423.488	811.04
423.864	824.6
424.241	843.35
424.617	828.44
424.994	850.13
425.37	868.89
425.746	866.18
426.123	856.46
426.499	853.97
426.875	859.85
427.251	920.41
427.627	897.36
428.003	929.68
428.379	899.62
428.756	931.26
429.132	955.67
429.507	965.84
429.883	963.8
430.259	985.04
430.635	964.93
431.011	997.47
431.387	1044.7
431.763	1041.99
432.138	1062.33
432.514	1085.83
432.89	1060.75
433.265	1096
433.641	1136.68
434.016	1110.01
434.392	1145.04
434.767	1132.84
435.143	1146.85
435.518	1189.11
435.894	1211.93
436.269	1224.36
436.644	1226.39
437.02	1236.79
437.395	1248.31
437.77	1261.87
438.145	1266.62
438.52	1291.03
438.895	1313.17
439.271	1335.09
439.646	1346.62
440.021	1365.37
440.395	1322.89
440.77	1363.34
441.145	1384.81
441.52	1428.65
441.895	1417.8
442.27	1405.37
442.645	1426.39
443.019	1401.08
443.394	1438.14
443.769	1444.92
444.143	1451.47
444.518	1479.27
444.892	1446.28
445.267	1488.99
445.641	1493.96
446.016	1516.33
446.39	1506.16
446.764	1495.54
447.139	1539.38
447.513	1557.01
447.887	1539.61
448.262	1557.91
448.636	1536.44
449.01	1623.67
449.384	1596.1
449.758	1590.68
450.132	1625.71
450.506	1614.86
450.88	1632.71
451.254	1631.36
451.628	1633.39
452.002	1650.34
452.376	1679.49
452.75	1663.44
453.123	1689.21
453.497	1693.27
453.871	1715.2
454.244	1757
454.618	1757.45
454.992	1775.31
455.365	1783.22
455.739	1813.27
456.112	1862.54
456.486	1841.97
456.859	1828.64
457.232	1857.34
457.606	1883.78
457.979	1879.48
458.352	1932.59
458.725	1947.05
459.099	1942.31
459.472	1994.96
459.845	2044
460.218	2009.2
460.591	2003.1
460.964	2010.78
461.337	2081.51
461.71	2109.76
462.083	2132.81
462.456	2133.94
462.829	2135.3
463.201	2148.4
463.574	2153.83
463.947	2200.61
464.32	2226.14
464.692	2269.53
465.065	2260.49
465.438	2287.38
465.81	2333.94
466.183	2285.12
466.555	2347.04
466.928	2400.6
467.3	2369.87
467.672	2410.09
468.045	2428.4
468.417	2495.06
468.789	2429.07
469.161	2464.1
469.534	2514.04
469.906	2551.56
470.278	2561.05
470.65	2579.58
471.022	2658.9
471.394	2653.48
471.766	2688.05
472.138	2702.29
472.51	2780.7
472.882	2828.16
473.253	2817.54
473.625	2880.81
473.997	2931.43
474.369	2869.51
474.74	2911.77
475.112	2930.08
475.484	3027.7
475.855	3106.34
476.227	3077.42
476.598	3134.14
476.97	3130.53
477.341	3227.7
477.713	3234.93
478.084	3277.41
478.455	3348.6
478.827	3380.46
479.198	3415.49
479.569	3452.55
479.94	3566.22
480.311	3539.55
480.682	3588.14
481.053	3670.62
481.424	3689.61
481.795	3698.87
482.166	3763.5
482.537	3828.36
482.908	3884.18
483.279	3901.58
483.65	3941.8
484.021	4006.66
484.391	4048.02
484.762	4067.68
485.133	4125.08
485.503	4150.84
485.874	4234.68
486.244	4227.9
486.615	4325.3
486.985	4310.16
487.356	4407.55
487.726	4445.29
488.097	4512.64
488.467	4495.23
488.837	4628.79
489.207	4650.49
489.578	4666.3
489.948	4731.39
490.318	4825.62
490.688	4772.06
491.058	4878.73
491.428	4893.42
491.798	4955.56
492.168	5013.87
492.538	5057.25
492.908	5053.86
493.278	5126.86
493.648	5122.11
494.017	5206.18
494.387	5177.25
494.757	5266.51
495.126	5317.59
495.496	5326.4
495.866	5321.88
496.235	5366.85
496.605	5434.65
496.974	5447.3
497.344	5490.69
497.713	5453.4
498.082	5500.18
498.452	5621.08
498.821	5572.95
499.19	5598.71
499.559	5632.15
499.928	5643.45
500.298	5716.67
500.667	5777.01
501.036	5743.56
501.405	5766.84
501.774	5765.26
502.143	5838.25
502.512	5809.55
502.88	5844.8
503.249	5863.33
503.618	5947.63
503.987	6002.99
504.356	5956.21
504.724	5995.76
505.093	6007.06
505.462	6016.32
505.83	6045.48
506.199	6076.44
506.567	6140.84
506.936	6139.94
507.304	6183.1
507.672	6188.3
508.041	6200.73
508.409	6270.78
508.777	6261.97
509.145	6294.51
509.514	6345.36
509.882	6373.38
510.25	6396.65
510.618	6465.35
510.986	6404.56
511.354	6436.43
511.722	6468.97
512.09	6513.94
512.458	6520.49
512.826	6563.43
513.193	6559.59
513.561	6574.5
513.929	6663.99
514.297	6618.57
514.664	6676.87
515.032	6687.04
515.4	6769.75
515.767	6748.06
516.135	6760.49
516.502	6732.24
516.869	6792.35
517.237	6758.23
517.604	6845.68
517.972	6882.06
518.339	6913.93
518.706	6905.57
519.073	6909.86
519.44	6960.48
519.808	6984.89
520.175	7020.59
520.542	7056.75
520.909	7076.18
521.276	7088.39
521.643	7119.35
522.009	7191.21
522.376	7189.85
522.743	7174.03
523.11	7259.23
523.477	7222.85
523.843	7315.95
524.21	7390.07
524.577	7433.69
524.943	7470.3
525.31	7461.71
525.676	7460.35
526.043	7504.42
526.409	7574.02
526.776	7704.19
527.142	7630.97
527.508	7649.28
527.874	7682.04
528.241	7691.31
528.607	7759.56
528.973	7816.5
529.339	7807.92
529.705	7851.53
530.071	7874.13
530.437	7960
530.803	8003.62
531.169	7986.67
531.535	7997.29
531.901	8014.01
532.267	8019.66
532.632	8002.94
532.998	8082.03
533.364	8101.02
533.73	8132.88
534.095	8207.23
534.461	8257.85
534.826	8245.19
535.192	8242.71
535.557	8316.6
535.923	8315.93
536.288	8288.58
536.653	8418.07
537.019	8352.76
537.384	8375.13
537.749	8428.24
538.114	8396.15
538.479	8443.61
538.845	8431.4
539.21	8469.14
539.575	8533.55
539.94	8534.22
540.305	8541
540.67	8521.8
541.034	8587.33
541.399	8618.29
541.764	8602.25
542.129	8620.1
542.494	8617.39
542.858	8657.39
543.223	8721.56
543.587	8722.69
543.952	8732.41
544.316	8722.02
544.681	8799.75
545.045	8806.99
545.41	8847.21
545.774	8813.31
546.138	8866.42
546.503	8869.81
546.867	8874.55
547.231	8937.6
547.595	8958.17
547.959	9011.73
548.324	8952.29
548.688	8936.02
549.052	8996.36
549.416	9075.68
549.779	9033.19
550.143	9035.68
550.507	9145.73
550.871	9117.71
551.235	9123.81
551.599	9205.39
551.962	9148.9
552.326	9196.81
552.689	9222.79
553.053	9198.16
553.417	9227.54
553.78	9250.14
554.143	9272.51
554.507	9289.01
554.87	9277.48
555.234	9462.34
555.597	9372.39
555.96	9384.15
556.323	9427.99
556.686	9452.17
557.05	9531.26
557.413	9386.18
557.776	9532.16
558.139	9532.62
558.502	9522.22
558.865	9577.36
559.228	9587.3
559.59	9662.33
559.953	9675.44
560.316	9743.91
560.679	9774.64
561.041	9781.2
561.404	9821.42
561.767	9862.33
562.129	9856.9
562.492	9976.9
562.854	9923.34
563.217	9932.61
563.579	10006.95
563.941	10041.08
564.304	10104.35
564.666	10070.68
565.028	10121.75
565.39	10104.58
565.753	10243.11
566.115	10206.05
566.477	10311.81
566.839	10355.65
567.201	10349.77
567.563	10423.44
567.925	10433.38
568.287	10438.58
568.648	10457.11
569.01	10464.12
569.372	10638.8
569.734	10487.62
570.095	10639.25
570.457	10635.41
570.819	10618.24
571.18	10725.13
571.542	10687.16
571.903	10778.46
572.265	10822.98
572.626	10876.31
572.987	10868.85
573.349	10886.03
573.71	10996.76
574.071	10967.83
574.432	11022.07
574.794	11115.85
575.155	11055.74
575.516	11113.14
575.877	11183.19
576.238	11226.36
576.599	11311.78
576.96	11269.07
577.32	11250.99
577.681	11394.94
578.042	11444.2
578.403	11433.81
578.763	11563.3
579.124	11481.94
579.485	11665.22
579.845	11657.08
580.206	11680.13
580.566	11721.71
580.927	11830.41
581.287	11880.35
581.648	11759.68
582.008	11975.94
582.368	11876.51
582.728	12044.41
583.089	12112.66
583.449	12122.6
583.809	12138.2
584.169	12259.55
584.529	12273.11
584.889	12332.99
585.249	12381.13
585.609	12403.05
585.969	12523.5
586.329	12553.33
586.688	12630.16
587.048	12744.51
587.408	12676.04
587.768	12754.45
588.127	12820.44
588.487	12820.67
588.846	12994.45
589.206	13007.78
589.565	13065.18
589.925	13188.57
590.284	13138.62
590.643	13237.83
591.003	13266.08
591.362	13474.89
591.721	13552.17
592.08	13498.61
592.44	13617.93
592.799	13635.56
593.158	13749.45
593.517	13710.36
593.876	13832.84
594.235	13950.58
594.593	13944.93
594.952	13992.16
595.311	14046.62
595.67	14172.49
596.029	14234.41
596.387	14290.01
596.746	14403.45
597.104	14443.9
597.463	14324.81
597.822	14522.54
598.18	14535.65
598.538	14497.01
598.897	14697.45
599.255	14630.34
599.613	14884.11
599.972	14782.42
600.33	14899.93
600.688	14816.77
601.046	14983.32
601.404	15102.41
601.762	15099.7
602.12	15151.9
602.478	15190.77
602.836	15202.75
603.194	15189.64
603.552	15289.98
603.91	15249.53
604.268	15298.57
604.625	15343.09
604.983	15479.35
605.341	15387.38
605.698	15489.75
606.056	15550.09
606.413	15628.28
606.771	15617.88
607.128	15680.93
607.485	15675.96
607.843	15699.23
608.2	15793.02
608.557	15902.62
608.914	15793.02
609.272	15885.9
609.629	15907.59
609.986	15922.05
610.343	15958.44
610.7	16087.02
611.057	16030.3
611.414	16026.23
611.771	16142.84
612.127	16204.08
612.484	16244.53
612.841	16362.95
613.198	16217.86
613.554	16249.95
613.911	16340.8
614.267	16351.42
614.624	16266.68
614.98	16441.14
615.337	16385.09
615.693	16521.36
616.05	16487.46
616.406	16640.45
616.762	16497.18
617.118	16507.57
617.475	16477.97
617.831	16564.07
618.187	16624.63
618.543	16687.23
618.899	16784.18
619.255	16699.89
619.611	16646.33
619.967	16743.05
620.323	16813.78
620.678	16763.16
621.034	16717.29
621.39	16822.82
621.746	16836.38
622.101	16950.05
622.457	16815.59
622.812	16783.05
623.168	16923.83
623.523	16901.69
623.879	16956.38
624.234	16906.89
624.589	16885.87
624.945	16966.32
625.3	16945.08
625.655	16894.23
626.01	16830.96
626.365	16913.67
626.72	16911.86
627.075	16980.78
627.43	16950.95
627.785	16872.99
628.14	16972.87
628.495	16974.45
628.85	16925.42
629.205	16867.56
629.559	17092.64
629.914	16888.36
630.269	16999.09
630.623	16868.92
630.978	16821.92
631.332	16948.69
631.687	17002.48
632.041	16818.07
632.396	16858.07
632.75	16782.14
633.104	16894.46
633.459	16791.86
633.813	16797.28
634.167	16831.18
634.521	16797.51
634.875	16906.66
635.229	16705.99
635.583	16659.21
635.937	16648.59
636.291	16676.84
636.645	16799.77
636.999	16681.36
637.352	16682.94
637.706	16594.13
638.06	16655.59
638.413	16600
638.767	16588.25
639.121	16531.53
639.474	16468.71
639.828	16611.07
640.181	16610.62
640.534	16490.85
640.888	16520.91
641.241	16407.69
641.594	16444.3
641.947	16471.19
642.301	16381.93
642.654	16435.49
643.007	16507.35
643.36	16371.31
643.713	16430.51
644.066	16382.83
644.419	16388.03
644.771	16317.75
645.124	16152.78
645.477	16090.64
645.83	16021.03
646.182	15924.54
646.535	15881.83
646.888	15902.39
647.24	15827.37
647.593	15941.26
647.945	15941.94
648.298	15809.51
648.65	15834.6
649.002	15824.88
649.355	15870.08
649.707	15819
650.059	15923.41
650.411	16191.65
650.763	16103.29
651.115	16186.23
651.467	16215.83
651.819	16252.21
652.171	16243.85
652.523	16183.52
652.875	16267.81
653.227	16071.2
653.578	16321.36
653.93	16202.72
654.282	16157.53
654.633	16166.34
654.985	16239.33
655.337	16187.13
655.688	16194.81
656.039	16301.03
656.391	16133.57
656.742	16244.3
657.094	16234.81
657.445	16247.69
657.796	16235.72
658.147	16246.79
658.498	16249.28
658.849	16261.71
659.2	16309.16
659.551	16140.58
659.902	16240.46
660.253	16266.68
660.604	16298.77
660.955	16176.06
661.306	16294.02
661.656	16212.67
662.007	16302.61
662.358	16267.81
662.708	16276.85
663.059	16211.99
663.409	16142.61
663.76	16294.7
664.11	16254.93
664.461	16249.5
664.811	16320.46
665.161	16318.2
665.511	16331.53
665.862	16286.56
666.212	16373.79
666.562	16343.06
666.912	16320.23
667.262	16326.79
667.612	16312.1
667.962	16258.32
668.312	16336.05
668.662	16339.9
669.011	16305.55
669.361	16256.73
669.711	16171.09
670.06	16244.76
670.41	16240.69
670.76	16226.45
671.109	16317.97
671.459	16250.41
671.808	16181.93
672.157	16306.9
672.507	16165.66
672.856	16153.46
673.205	16174.48
673.554	16179.22
673.904	16112.78
674.253	16221.03
674.602	16051.09
674.951	15917.99
675.3	15831.43
675.649	16141.26
675.998	16091.77
676.346	16047.93
676.695	16116.17
677.044	16015.38
677.393	15972.9
677.741	16058.32
678.09	16049.28
678.438	15939
678.787	15912.11
679.135	15839.57
679.484	15825.56
679.832	15901.49
680.181	15774.49
680.529	15739.01
680.877	15817.2
681.225	15741.72
681.573	15865.56
681.922	15684.77
682.27	15623.53
682.618	15758.44
682.966	15720.93
683.314	15710.31
683.661	15573.81
684.009	15527.04
684.357	15530.42
684.705	15521.16
685.053	15453.36
685.4	15482.29
685.748	15419.92
686.095	15454.72
686.443	15358.68
686.79	15247.72
687.138	15303.31
687.485	15319.36
687.832	15235.07
688.18	15248.4
688.527	15070.32
688.874	15054.96
689.221	15083.21
689.568	15009.08
689.915	14960.5
690.262	15011.79
690.609	14920.5
690.956	14846.38
691.303	14869.65
691.65	14853.15
691.997	14837.79
692.344	14668.53
692.69	14705.36
693.037	14660.39
693.383	14530
693.73	14574.29
694.077	14498.14
694.423	14436.44
694.769	14438.25
695.116	14372.26
695.462	14387.18
695.808	14322.32
696.155	14346.5
696.501	14205.26
696.847	14213.85
697.193	14097.24
697.539	14125.49
697.885	14007.08
698.231	13923.91
698.577	13892.05
698.923	13867.19
699.269	13798.72
699.614	13710.13
699.96	13607.54
700.306	13705.16
700.651	13541.78
700.997	13529.57
701.342	13414.55
701.688	13505.85
702.033	13376.58
702.379	13394.21
702.724	13277.83
703.069	13291.16
703.415	13168
703.76	13146.08
704.105	13251.61
704.45	13069.7
704.795	13005.75
705.14	12958.29
705.485	12971.4
705.83	12904.96
706.175	12966.88
706.52	12851.17
706.865	12798.97
707.209	12813.21
707.554	12677.17
707.899	12717.62
708.243	12713.78
708.588	12710.16
708.932	12593.78
709.277	12533.44
709.621	12611.63
709.966	12515.14
710.31	12514.91
710.654	12462.26
710.998	12387.91
711.342	12363.5
711.687	12372.54
712.031	12252.32
712.375	12229.72
712.719	12279.21
713.063	12299.32
713.407	12290.06
713.75	12180.23
714.094	12198.76
714.438	12147.46
714.782	12158.54
715.125	12128.71
715.469	12130.51
715.812	12064.53
716.156	12000.35
716.499	11987.69
716.843	11987.24
717.186	11941.14
717.53	12004.87
717.873	11862.5
718.216	11974.81
718.559	11936.4
718.902	11817.75
719.246	11847.36
719.589	11679
719.932	11697.08
720.275	11758.32
720.617	11714.25
720.96	11775.5
721.303	11712.45
721.646	11725.33
721.989	11633.13
722.331	11718.77
722.674	11609.4
723.016	11686.46
723.359	11622.51
723.701	11620.25
724.044	11526.69
724.386	11497.31
724.729	11607.14
725.071	11520.36
725.413	11546.12
725.755	11555.39
726.097	11455.5
726.439	11461.15
726.782	11485.56
727.124	11455.05
727.465	11449.85
727.807	11461.61
728.149	11445.79
728.491	11433.81
728.833	11446.92
729.175	11406.69
729.516	11477.88
729.858	11406.01
730.199	11450.98
730.541	11432.23
730.882	11381.61
731.224	11443.98
731.565	11344.32
731.906	11472.9
732.248	11445.33
732.589	11368.95
732.93	11367.14
733.271	11359.24
733.612	11418.89
733.953	11388.84
734.294	11361.04
734.635	11285.34
734.976	11363.98
735.317	11378.44
735.658	11329.86
735.999	11398.1
736.339	11325.34
736.68	11394.49
737.021	11344.32
737.361	11352.91
737.702	11434.04
738.042	11403.3
738.383	11330.54
738.723	11383.64
739.063	11389.52
739.404	11418.22
739.744	11373.02
740.084	11347.48
740.424	11343.64
740.764	11436.07
741.104	11427.03
741.444	11379.8
741.784	11443.07
742.124	11525.56
742.464	11420.93
742.804	11485.33
743.143	11537.76
743.483	11490.31
743.823	11504.32
744.162	11455.73
744.502	11584.99
744.841	11582.28
745.181	11589.74
745.52	11639.45
745.86	11675.16
746.199	11735.72
746.538	11777.76
746.877	11923.06
747.216	11860.92
747.556	11936.17
747.895	12012.55
748.234	12024.53
748.573	12033.34
748.911	12104.75
749.25	12200.34
749.589	12222.72
749.928	12258.42
750.267	12337.74
750.605	12343.84
750.944	12419.55
751.283	12439.66
751.621	12699.31
751.96	12619.32
752.298	12730.95
752.636	12898.63
752.975	12942.92
753.313	13077.61
753.651	13205.74
753.989	13243.71
754.327	13361.89
754.666	13491.38
755.004	13573.41
755.342	13760.75
755.679	13838.04
756.017	13976.79
756.355	14100.18
756.693	14199.16
757.031	14333.85
757.368	14431.47
757.706	14604.12
758.044	14649.32
758.381	14820.39
758.719	14939.71
759.056	15057.22
759.394	15224.67
759.731	15356.42
760.068	15474.61
760.405	15546.92
760.743	15776.07
761.08	15849.51
761.417	15975.61
761.754	16123.63
762.091	16258.77
762.428	16392.78
762.765	16515.71
763.102	16793.89
763.438	16821.24
763.775	16904.17
764.112	17076.37
764.449	17238.18
764.785	17386.42
765.122	17429.36
765.458	17499.86
765.795	17614.44
766.131	17837.71
766.467	17915
766.804	17939.85
767.14	18006.97
767.476	18221.88
767.812	18199.51
768.148	18387.75
768.485	18517.01
768.821	18355.21
769.157	18521.76
769.492	18684.24
769.828	18812.37
770.164	18770.11
770.5	18749.1
770.836	18961.07
771.171	18953.61
771.507	19065.93
771.842	19072.03
772.178	19151.8
772.513	19262.53
772.849	19251.23
773.184	19256.88
773.519	19370.78
773.855	19387.05
774.19	19342.08
774.525	19400.15
774.86	19531.45
775.195	19536.65
775.53	19571.9
775.865	19504.33
776.2	19411.9
776.535	19507.27
776.87	19628.62
777.205	19501.39
777.539	19559.25
777.874	19592.24
778.209	19529.64
778.543	19462.75
778.878	19399.48
779.212	19539.36
779.547	19585.46
779.881	19642.18
780.215	19376.65
780.55	19650.09
780.884	19484.67
781.218	19510.43
781.552	19619.36
781.886	19421.62
782.22	19452.13
782.554	19407.39
782.888	19346.14
783.222	19256.2
783.556	19319.93
783.889	19275.19
784.223	19168.07
784.557	19210.55
784.89	19255.3
785.224	19204.9
785.557	19114.96
785.891	19085.59
786.224	19009.66
786.558	19009.2
786.891	18940.5
787.224	18883.78
787.557	18832.26
787.891	18975.08
788.224	18872.26
788.557	18908.19
788.89	18781.64
789.223	18823.9
789.556	18738.25
789.888	18721.53
790.221	18614.86
790.554	18592.04
790.887	18536.9
791.219	18506.84
791.552	18555.2
791.884	18467.52
792.217	18413.29
792.549	18314.53
792.882	18108.44
793.214	18175.33
793.546	18204.93
793.879	18170.13
794.211	17929.68
794.543	18099.4
794.875	18000.87
795.207	18049.68
795.539	18053.75
795.871	17989.34
796.203	17756.13
796.535	17692.4
796.867	17841.1
797.198	17693.31
797.53	17754.1
797.862	17608.11
798.193	17659.63
798.525	17506.64
798.856	17587.32
799.188	17413.77
799.519	17312.3
799.85	17314.78
800.182	17281.79
800.513	17320.21
800.844	17136.71
801.175	17289.02
801.506	17168.35
801.837	17119.99
802.168	17019.65
802.499	17051.29
802.83	16912.76
803.161	16901.24
803.491	16934.68
803.822	16804.06
804.153	16801.13
804.483	16773.1
804.814	16705.99
805.145	16636.38
805.475	16636.84
805.805	16583.05
806.136	16597.29
806.466	16537.18
806.796	16540.79
807.126	16340.57
807.457	16312.1
807.787	16336.28
808.117	16257.86
808.447	16170.63
808.777	16344.64
809.107	16194.59
809.436	16214.47
809.766	16123.63
810.096	16171.76
810.426	16040.47
810.755	16077.98
811.085	16056.96
811.414	15972
811.744	15920.92
812.073	15760.25
812.403	15820.59
812.732	15800.7
813.061	15763.87
813.39	15676.41
813.719	15665.11
814.049	15682.29
814.378	15615.17
814.707	15532.46
815.036	15504.21
815.365	15543.31
815.693	15332.69
816.022	15356.87
816.351	15362.07
816.68	15231
817.008	15390.99
817.337	15252.01
817.665	15211.11
817.994	15226.03
818.322	15256.31
818.651	15082.98
818.979	15096.54
819.307	15229.42
819.636	15125.69
819.964	15011.34
820.292	15002.3
820.62	15036.65
820.948	15005.47
821.276	15017.9
821.604	14979.48
821.932	15020.16
822.259	14992.81
822.587	15073.71
822.915	14955.3
823.243	15039.36
823.57	14893.83
823.898	14944.9
824.225	14902.64
824.553	14918.46
824.88	14966.6
825.207	15001.4
825.535	14854.74
825.862	15025.13
826.189	14946.03
826.516	14994.39
826.843	15017.9
827.17	14974.51
827.497	15034.17
827.824	14978.35
828.151	15038.01
828.478	14963.66
828.805	15121.85
829.131	15055.86
829.458	14984.9
829.785	14900.39
830.111	14901.74
830.438	14994.17
830.764	14999.59
831.09	14982.87
831.417	14833.04
831.743	14993.94
832.069	14888.41
832.395	14880.05
832.722	14925.92
833.048	14812.25
833.374	14842.99
833.7	14798.01
834.026	14797.11
834.351	14906.03
834.677	14756.89
835.003	14858.8
835.329	14842.08
835.654	14813.38
835.98	14634.18
836.306	14790.56
836.631	14695.87
836.956	14736.55
837.282	14706.27
837.607	14661.75
837.932	14655.42
838.258	14681.63
838.583	14547.4
838.908	14481.41
839.233	14567.96
839.558	14481.19
839.883	14493.62
840.208	14431.24
840.533	14400.74
840.858	14459.49
841.182	14476.89
841.507	14393.28
841.832	14401.64
842.156	14352.15
842.481	14295.2
842.805	14326.61
843.13	14163.46
843.454	14196.45
843.778	14130.46
844.103	14014.98
844.427	14066.51
844.751	14056.57
845.075	13901.54
845.399	13893.41
845.723	13865.61
846.047	13887.3
846.371	13845.95
846.695	13819.74
847.019	13739.51
847.343	13600.08
847.666	13567.76
847.99	13595.11
848.313	13586.3
848.637	13323.48
848.96	13364.83
849.284	13340.43
849.607	13294.33
849.931	13292.97
850.254	13168
850.577	13109.25
850.9	13045.74
851.223	13004.84
851.546	12909.93
851.869	12887.78
852.192	12869.93
852.515	12849.14
852.838	12670.84
853.161	12726.43
853.483	12660.22
853.806	12670.39
854.129	12616.83
854.451	12552.2
854.774	12481.01
855.096	12500
855.419	12500.9
855.741	12356.72
856.063	12370.73
856.385	12345.65
856.708	12337.29
857.03	12310.85
857.352	12201.7
857.674	12175.94
857.996	12149.5
858.318	12076.73
858.64	12072.66
858.961	11992.44
859.283	11990.18
859.605	11938.66
859.926	11926.68
860.248	11892.55
860.57	11898.2
860.891	11849.84
861.212	11727.59
861.534	11746.34
861.855	11761.71
862.176	11742.95
862.498	11712.67
862.819	11681.71
863.14	11666.8
863.461	11640.36
863.782	11696.18
864.103	11637.19
864.424	11588.38
864.745	11646.01
865.065	11467.93
865.386	11518.33
865.707	11478.1
866.027	11505.67
866.348	11458.22
866.668	11432
866.989	11360.59
867.309	11396.52
867.63	11385.9
867.95	11368.95
868.27	11293.93
868.59	11403.3
868.91	11320.59
869.23	11249.18
869.55	11216.87
869.87	11227.94
870.19	11230.43
870.51	11293.02
870.83	11246.92
871.15	11260.71
871.469	11096.42
871.789	11161.5
872.109	11159.01
872.428	11025.01
872.748	11112.01
873.067	11086.7
873.386	11073.37
873.706	11080.6
874.025	11009.64
874.344	10969.64
874.663	10960.38
874.982	10987.72
875.301	11008.74
875.62	10871.56
875.939	10907.95
876.258	10811.68
876.577	10836.31
876.896	10854.16
877.214	10756.31
877.533	10854.39
877.852	10785.92
878.17	10806.71
878.489	10739.82
878.807	10737.56
879.125	10678.8
879.444	10663.43
879.762	10654.17
880.08	10675.19
880.398	10656.65
880.716	10674.06
881.034	10608.52
881.352	10662.3
881.67	10553.61
881.988	10556.09
882.306	10495.53
882.624	10381.63
882.941	10409.2
883.259	10399.03
883.577	10317.23
883.894	10389.09
884.212	10336.44
884.529	10294.18
884.846	10249.43
885.164	10289.88
885.481	10282.2
885.798	10259.83
886.115	10198.36
886.432	10148.19
886.75	10164.69
887.067	10145.48
887.383	10063.22
887.7	10080.85
888.017	10067.07
888.334	10064.81
888.651	9973.51
888.967	10023.9
889.284	9926.28
889.6	9925.6
889.917	9877.47
890.233	9894.87
890.55	9756.11
890.866	9818.94
891.182	9813.97
891.498	9721.09
891.815	9667.75
892.131	9681.77
892.447	9662.56
892.763	9683.57
893.079	9622.78
893.395	9585.72
893.71	9598.83
894.026	9549.79
894.342	9538.94
894.657	9446.97
894.973	9411.72
895.289	9448.33
895.604	9409
895.92	9291.04
896.235	9284.26
896.55	9299.85
896.865	9302.57
897.181	9266.18
897.496	9274.54
897.811	9162.68
898.126	9132.18
898.441	9103.93
898.756	9066.41
899.071	9056.47
899.386	8980.99
899.7	8925.63
900.015	8862.13
900.33	8788.68
900.644	8814.67
900.959	8813.31
901.273	8758.17
901.588	8737.61
901.902	8659.65
902.216	8717.95
902.531	8695.12
902.845	8662.13
903.159	8588.01
903.473	8534.9
903.787	8468.01
904.101	8471.4
904.415	8483.15
904.729	8397.51
905.042	8359.09
905.356	8397.96
905.67	8349.37
905.984	8316.6
906.297	8334
906.611	8261.92
906.924	8245.42
907.237	8136.72
907.551	8231.63
907.864	8164.97
908.177	8136.72
908.491	8100.11
908.804	8014.46
909.117	8002.26
909.43	7948.03
909.743	7913
910.056	7870.51
910.368	7916.16
910.681	7871.87
910.994	7812.89
911.307	7776.5
911.619	7717.52
911.932	7759.33
912.244	7667.58
912.557	7728.14
912.869	7624.42
913.181	7594.81
913.494	7545.55
913.806	7454.25
914.118	7484.99
914.43	7411.99
914.742	7440.47
915.054	7416.97
915.366	7389.85
915.678	7366.8
915.99	7235.95
916.302	7226.91
916.613	7231.89
916.925	7190.31
917.236	7170.42
917.548	7152.11
917.859	7150.08
918.171	7070.31
918.482	7018.56
918.794	6990.54
919.105	6997.99
919.416	6970.2
919.727	6973.81
920.038	6933.81
920.349	6815.85
920.66	6871.22
920.971	6888.62
921.282	6835.96
921.593	6826.02
921.903	6784.89
922.214	6701.05
922.525	6706.02
922.835	6683.2
923.146	6660.6
923.456	6634.39
923.767	6614.28
924.077	6593.48
924.387	6541.28
924.697	6554.16
925.008	6518.68
925.318	6455.41
925.628	6465.58
925.938	6395.07
926.248	6321.4
926.558	6344.9
926.867	6306.03
927.177	6273.27
927.487	6287.96
927.796	6224.68
928.106	6207.28
928.416	6141.97
928.725	6172.93
929.034	6080.73
929.344	6148.52
929.653	6115.76
929.962	6038.7
930.271	6003.9
930.581	5997.12
930.89	5976.33
931.199	5968.87
931.508	5941.3
931.817	5915.31
932.125	5874.86
932.434	5893.84
932.743	5802.32
933.051	5804.58
933.36	5751.93
933.669	5713.06
933.977	5713.73
934.286	5745.6
934.594	5682.77
934.902	5684.13
935.21	5620.4
935.519	5656.79
935.827	5580.63
936.135	5570.46
936.443	5556
936.751	5526.85
937.059	5514.19
937.367	5450.69
937.674	5449.56
937.982	5429
938.29	5364.82
938.597	5437.81
938.905	5388.09
939.213	5360.52
939.52	5315.33
939.827	5350.35
940.135	5288.21
940.442	5230.13
940.749	5264.71
941.056	5149
941.363	5138.16
941.67	5208.44
941.977	5142.68
942.284	5085.95
942.591	5081.66
942.898	5079.63
943.205	5037.82
943.511	5024.71
943.818	5013.64
944.125	4957.82
944.431	4994.43
944.738	4966.63
945.044	4942.91
945.35	4911.27
945.657	4870.82
945.963	4831.05
946.269	4813.64
946.575	4771.39
946.881	4789.69
947.187	4771.84
947.493	4746.98
947.799	4757.15
948.105	4687.77
948.41	4697.26
948.716	4665.4
949.022	4672.41
949.327	4690.48
949.633	4582.46
949.938	4583.37
950.244	4600.32
950.549	4552.41
950.854	4532.97
951.16	4512.18
951.465	4525.29
951.77	4475.57
952.075	4444.84
952.38	4476.48
952.685	4416.14
952.99	4396.93
953.294	4344.05
953.599	4336.6
953.904	4294.11
954.209	4295.24
954.513	4297.95
954.818	4246.43
955.122	4251.4
955.426	4250.5
955.731	4217.5
956.035	4179.99
956.339	4218.63
956.643	4206.2
956.948	4150.84
957.252	4161.23
957.556	4111.06
957.86	4121.23
958.163	4081.01
958.467	4067
958.771	4097.73
959.075	3982.93
959.378	4013.89
959.682	3966.66
959.985	4004.63
960.289	3980.22
960.592	3949.71
960.896	3929.15
961.199	3896.83
961.502	3945.19
961.805	3868.13
962.108	3872.2
962.411	3862.26
962.714	3812.99
963.017	3791.98
963.32	3821.58
963.623	3787.91
963.926	3726.22
964.228	3752.66
964.531	3679.44
964.833	3723.73
965.136	3682.6
965.438	3656.16
965.741	3620.46
966.043	3647.8
966.345	3636.27
966.648	3618.2
966.95	3604.41
967.252	3600.34
967.554	3532.77
967.856	3531.64
968.158	3522.38
968.46	3541.36
968.761	3462.95
969.063	3453.91
969.365	3503.85
969.666	3461.14
969.968	3431.08
970.269	3415.94
970.571	3435.83
970.872	3405.09
971.174	3397.64
971.475	3373.91
971.776	3337.98
972.077	3330.97
972.378	3339.56
972.679	3316.28
972.98	3330.75
973.281	3314.47
973.582	3281.93
973.883	3269.96
974.183	3216.4
974.484	3210.52
974.785	3193.12
975.085	3193.8
975.386	3185.66
975.686	3145.21
975.986	3151.77
976.287	3176.17
976.587	3174.59
976.887	3077.87
977.187	3126.91
977.487	3083.29
977.787	3094.59
978.087	3079
978.387	3034.48
978.687	3018.66
978.987	3041.04
979.286	2982.28
979.586	3001.49
979.885	2982.05
980.185	2969.17
980.484	2961.72
980.784	2934.37
981.083	2929.85
981.382	2915.39
981.682	2891.89
981.981	2865.67
982.28	2862.96
982.579	2848.95
982.878	2870.19
983.177	2836.75
983.475	2861.38
983.774	2820.02
984.073	2796.97
984.372	2780.25
984.67	2822.74
984.969	2743.64
985.267	2749.97
985.566	2733.7
985.864	2702.29
986.162	2694.83
986.461	2698.67
986.759	2658.22
987.057	2665.9
987.355	2619.13
987.653	2674.49
987.951	2634.94
988.249	2614.38
988.547	2595.4
988.844	2600.37
989.142	2613.48
989.44	2571.44
989.737	2582.29
990.035	2522.41
990.332	2541.61
990.63	2535.74
990.927	2541.84
991.224	2478.79
991.521	2489.64
991.819	2470.2
992.116	2458.9
992.413	2435.18
992.71	2457.55
993.006	2433.82
993.303	2385.46
993.6	2425.91
993.897	2383.43
994.193	2395.18
994.49	2365.12
994.787	2382.75
995.083	2364.9
995.379	2337.1
995.676	2320.15
995.972	2313.37
996.268	2310.66
996.565	2286.93
996.861	2290.32
997.157	2292.58
997.453	2269.53
997.749	2287.61
998.044	2227.5
998.34	2215.07
998.636	2220.72
998.932	2179.36
999.227	2202.19
999.523	2178.91
999.818	2124
1000.114	2172.81
1000.409	2130.55
1000.704	2144.11
1001	2099.82
1001.295	2084.45
1001.59	2099.59
1001.885	2082.87
1002.18	2066.37
1002.475	2034.51
1002.77	2060.5
1003.065	2048.29
1003.359	2013.27
1003.654	2025.92
1003.949	2004.9
1004.243	2012.81
1004.538	1966.26
1004.832	1976.43
1005.127	1928.75
1005.421	1962.42
1005.715	1940.27
1006.009	1932.59
1006.304	1942.99
1006.598	1893.95
1006.892	1894.85
1007.186	1910.44
1007.48	1876.55
1007.773	1843.33
1008.067	1881.97
1008.361	1844.91
1008.655	1802.2
1008.948	1810.33
1009.242	1784.8
1009.535	1801.75
1009.829	1806.27
1010.122	1797.45
1010.415	1794.51
1010.708	1757.45
1011.001	1755.65
1011.295	1751.58
1011.588	1740.73
1011.881	1719.26
1012.173	1703.67
1012.466	1737.79
1012.759	1695.53
1013.052	1710.68
1013.344	1664.12
1013.637	1663.44
1013.93	1659.15
1014.222	1651.69
1014.514	1629.1
1014.807	1652.15
1015.099	1618.7
1015.391	1608.98
1015.683	1597.01
1015.976	1591.58
1016.268	1587.97
1016.56	1556.78
1016.851	1578.48
1017.143	1594.75
1017.435	1528.53
1017.727	1502.55
1018.018	1541.41
1018.31	1505.93
1018.602	1503
1018.893	1498.7
1019.185	1481.98
1019.476	1468.42
1019.767	1458.7
1020.058	1422.1
1020.35	1429.78
1020.641	1430
1020.932	1431.59
1021.223	1411.47
1021.514	1416.67
1021.804	1386.16
1022.095	1399.5
1022.386	1366.5
1022.677	1378.03
1022.967	1363.79
1023.258	1379.61
1023.548	1353.4
1023.839	1344.58
1024.129	1305.49
1024.419	1330.8
1024.709	1332.61
1025	1310.01
1025.29	1321.53
1025.58	1302.78
1025.87	1279.5
1026.16	1261.42
1026.449	1252.38
1026.739	1241.08
1027.029	1239.73
1027.319	1213.74
1027.608	1228.88
1027.898	1204.47
1028.187	1217.58
1028.477	1202.67
1028.766	1211.03
1029.055	1182.55
1029.344	1178.03
1029.634	1160.86
1029.923	1193.17
1030.212	1167.41
1030.501	1155.89
1030.79	1142.33
1031.078	1129.45
1031.367	1121.09
1031.656	1123.57
1031.945	1096.68
1032.233	1119.05
1032.522	1103.01
1032.81	1106.85
1033.099	1089
1033.387	1083.12
1033.675	1038.6
1033.963	1045.61
1034.251	1072.27
1034.54	1046.74
1034.828	1042.44
1035.116	1016.91
1035.403	1041.77
1035.691	1019.62
1035.979	1006.74
1036.267	1012.84
1036.554	1016.91
1036.842	991.37
1037.129	987.53
1037.417	952.5
1037.704	976.01
1037.992	969.45
1038.279	978.49
1038.566	955.89
1038.853	955.89
1039.14	955.89
