Data from hue_26_FLMS001491_00018.txt Node
Date: Tue Feb 07 17:13:38 GMT 2017
User: dcchb
Spectrometer: FLMS00149
Trigger mode: 0
Integration Time (sec): 2.000000E-2
Scans to average: 10
Electric dark correction enabled: true
Nonlinearity correction enabled: false
Boxcar width: 0
XAxis mode: Wavelengths
Number of Pixels in Spectrum: 2048
>>>>>Begin Spectral Data<<<<<
341.393	4.11
341.776	4.11
342.16	4.11
342.543	-68.88
342.927	-81.54
343.31	-68.66
343.693	-68.2
344.077	-69.11
344.46	-56.45
344.843	-68.2
345.226	-40.63
345.61	-44.93
345.993	-23.69
346.376	3.88
346.759	-0.41
347.142	30.1
347.525	51.34
347.908	46.82
348.291	96.99
348.674	93.37
349.057	117.78
349.44	122.75
349.823	137.44
350.206	172.92
350.588	207.27
350.971	212.24
351.354	242.75
351.737	249.53
352.119	252.47
352.502	276.87
352.884	271.67
353.267	296.08
353.65	281.62
354.032	321.62
354.414	323.42
354.797	329.75
355.179	328.4
355.562	334.95
355.944	333.59
356.326	349.19
356.709	344.44
357.091	337.66
357.473	369.3
357.855	330.43
358.238	337.43
358.62	349.41
359.002	324.55
359.384	331.11
359.766	341.05
360.148	359.58
360.53	337.66
360.912	353.71
361.294	345.8
361.676	341.95
362.057	336.08
362.439	336.98
362.821	347.83
363.203	325.68
363.584	340.37
363.966	316.64
364.348	344.21
364.729	306.93
365.111	318.68
365.493	322.75
365.874	318.45
366.256	337.66
366.637	319.81
367.019	317.32
367.4	310.54
367.781	318.23
368.163	306.25
368.544	307.6
368.925	341.5
369.306	331.33
369.688	305.8
370.069	311.22
370.45	319.13
370.831	314.84
371.212	325.01
371.593	333.14
371.974	332.46
372.355	329.53
372.736	320.03
373.117	306.02
373.498	334.27
373.879	317.1
374.26	314.84
374.641	306.93
375.021	326.14
375.402	320.71
375.783	338.11
376.163	343.76
376.544	312.58
376.925	326.59
377.305	335.17
377.686	340.15
378.066	331.33
378.447	357.55
378.827	349.41
379.208	358.9
379.588	310.77
379.968	341.28
380.349	322.75
380.729	334.5
381.109	342.63
381.489	337.43
381.87	341.95
382.25	326.14
382.63	345.12
383.01	367.26
383.39	363.87
383.77	357.1
384.15	353.48
384.53	343.99
384.91	334.5
385.29	323.88
385.67	365.23
386.049	344.44
386.429	355.97
386.809	355.06
387.189	372.24
387.568	349.86
387.948	371.78
388.328	363.42
388.707	360.26
389.087	367.72
389.466	371.11
389.846	389.86
390.225	394.83
390.605	383.54
390.984	387.83
391.363	371.11
391.743	385.34
392.122	373.14
392.501	370.43
392.881	393.25
393.26	368.39
393.639	397.09
394.018	375.63
394.397	396.87
394.776	385.12
395.155	395.74
395.534	384.44
395.913	389.86
396.292	386.92
396.671	414.27
397.05	390.09
397.429	404.55
397.808	406.36
398.186	416.53
398.565	418.56
398.944	402.07
399.323	409.75
399.701	390.77
400.08	412.69
400.458	400.26
400.837	426.02
401.215	407.04
401.594	427.38
401.972	419.47
402.351	409.98
402.729	428.51
403.107	432.35
403.486	444.55
403.864	417.43
404.242	439.58
404.62	421.5
404.999	437.54
405.377	415.62
405.755	459.24
406.133	459.47
406.511	433.25
406.889	445.68
407.267	435.51
407.645	432.12
408.023	458.56
408.401	455.85
408.779	460.14
409.156	469.18
409.534	449.52
409.912	465.11
410.29	463.08
410.667	474.83
411.045	479.8
411.422	452.69
411.8	462.18
412.178	478.9
412.555	476.41
412.933	470.09
413.31	502.4
413.687	499.46
414.065	486.58
414.442	483.42
414.819	511.67
415.197	492.23
415.574	501.72
415.951	528.16
416.328	510.09
416.705	522.97
417.082	514.83
417.46	513.25
417.837	520.25
418.214	510.31
418.591	521.38
418.967	525.68
419.344	536.75
419.721	533.36
420.098	549.63
420.475	531.55
420.852	533.59
421.228	548.95
421.605	539.69
421.982	573.13
422.358	575.17
422.735	556.86
423.111	563.19
423.488	555.28
423.864	589.18
424.241	581.5
424.617	592.8
424.994	576.75
425.37	581.95
425.746	573.13
426.123	618.33
426.499	595.73
426.875	602.96
427.251	583.53
427.627	611.78
428.003	611.78
428.379	634.6
428.756	629.86
429.132	628.95
429.507	635.28
429.883	623.75
430.259	623.98
430.635	654.04
431.011	630.99
431.387	652.68
431.763	652.68
432.138	659.23
432.514	679.57
432.89	683.41
433.265	684.09
433.641	693.36
434.016	677.76
434.392	701.94
434.767	722.06
435.143	723.64
435.518	725.45
435.894	706.24
436.269	744.2
436.644	734.94
437.02	741.72
437.395	749.4
437.77	739.23
438.145	756.41
438.52	739.91
438.895	755.5
439.271	745.79
439.646	798.44
440.021	779.23
440.395	768.61
440.77	786.69
441.145	804.09
441.52	819.46
441.895	788.04
442.27	795.28
442.645	797.08
443.019	805.67
443.394	798.44
443.769	842.96
444.143	836.18
444.518	808.83
444.892	833.92
445.267	837.76
445.641	834.6
446.016	847.25
446.39	859
446.764	861.94
447.139	882.28
447.513	882.05
447.887	881.15
448.262	867.14
448.636	867.14
449.01	896.74
449.384	903.52
449.758	877.53
450.132	917.98
450.506	901.49
450.88	942.62
451.254	930.64
451.628	918.44
452.002	948.04
452.376	943.07
452.75	944.65
453.123	923.41
453.497	988.26
453.871	956.85
454.244	990.52
454.618	1012.45
454.992	990.52
455.365	1010.41
455.739	1016.96
456.112	1019
456.486	1049.73
456.859	1051.77
457.232	1047.92
457.606	1043.4
457.979	1068.49
458.352	1068.94
458.725	1084.99
459.099	1087.92
459.472	1128.6
459.845	1123.4
460.218	1151.65
460.591	1146.45
460.964	1151.2
461.337	1179.9
461.71	1193.23
462.083	1190.07
462.456	1214.7
462.829	1221.48
463.201	1216.96
463.574	1270.52
463.947	1252.89
464.32	1276.39
464.692	1261.48
465.065	1306.22
465.438	1284.08
465.81	1317.97
466.183	1335.15
466.555	1361.59
466.928	1361.36
467.3	1367.24
467.672	1399.78
468.045	1413.79
468.417	1428.25
468.789	1463.73
469.161	1453.79
469.534	1487.23
469.906	1523.39
470.278	1526.78
470.65	1524.52
471.022	1575.37
471.394	1604.75
471.766	1607.91
472.138	1612.88
472.51	1659.89
472.882	1675.48
473.253	1724.74
473.625	1743.73
473.997	1771.3
474.369	1778.07
474.74	1831.63
475.112	1801.12
475.484	1854.46
475.855	1911.18
476.227	1915.02
476.598	1990.05
476.97	2004.74
477.341	2049.93
477.713	2061.68
478.084	2100.33
478.455	2154.79
478.827	2180.55
479.198	2247.67
479.569	2241.11
479.94	2304.39
480.311	2330.83
480.682	2390.94
481.053	2446.76
481.424	2493.31
481.795	2495.12
482.166	2609.69
482.537	2583.93
482.908	2657.37
483.279	2720.42
483.65	2723.13
484.021	2802.23
484.391	2861.89
484.762	2871.83
485.133	2911.15
485.503	2969.68
485.874	3057.82
486.244	3070.92
486.615	3181.43
486.985	3215.33
487.356	3239.28
487.726	3278.15
488.097	3302.55
488.467	3380.74
488.837	3441.53
489.207	3490.12
489.578	3575.32
489.948	3615.54
490.318	3700.51
490.688	3733.5
491.058	3802.43
491.428	3853.05
491.798	3887.85
492.168	3944.57
492.538	3980.5
492.908	4009.88
493.278	4062.76
493.648	4088.3
494.017	4173.72
494.387	4216.65
494.757	4294.84
495.126	4292.58
495.496	4361.74
495.866	4371.9
496.235	4414.84
496.605	4483.54
496.974	4474.28
497.344	4567.15
497.713	4572.8
498.082	4643.08
498.452	4686.25
498.821	4688.28
499.19	4718.34
499.559	4700.26
499.928	4778.9
500.298	4808.73
500.667	4869.07
501.036	4938.22
501.405	4961.04
501.774	4914.49
502.143	5014.83
502.512	5044.66
502.88	5055.73
503.249	5136.63
503.618	5084.2
503.987	5160.81
504.356	5131.88
504.724	5189.28
505.093	5179.79
505.462	5230.19
505.83	5321.71
506.199	5305.44
506.567	5436.96
506.936	5389.05
507.304	5452.33
507.672	5439.9
508.041	5445.55
508.409	5537.98
508.777	5612.32
509.145	5610.97
509.514	5628.37
509.882	5646.22
510.25	5679.22
510.618	5707.46
510.986	5697.75
511.354	5718.54
511.722	5793.11
512.09	5851.41
512.458	5860.45
512.826	5952.65
513.193	5903.16
513.561	5928.25
513.929	5951.52
514.297	6022.48
514.664	6044.86
515.032	6058.19
515.4	6132.31
515.767	6076.49
516.135	6142.71
516.502	6089.15
516.869	6220.22
517.237	6235.36
517.604	6211.4
517.972	6327.11
518.339	6344.73
518.706	6309.93
519.073	6312.64
519.44	6360.55
519.808	6414.11
520.175	6361.91
520.542	6551.28
520.909	6530.49
521.276	6533.43
521.643	6534.56
522.009	6575.91
522.376	6667.89
522.743	6610.49
523.11	6708.11
523.477	6741.56
523.843	6764.61
524.21	6857.26
524.577	6866.08
524.943	6921.89
525.31	6932.29
525.676	7013.42
526.043	7076.24
526.409	7091.38
526.776	7118.05
527.142	7140.65
527.508	7171.38
527.874	7233.52
528.241	7295.22
528.607	7284.37
528.973	7342.45
529.339	7342
529.705	7399.17
530.071	7478.04
530.437	7499.73
530.803	7541.09
531.169	7592.39
531.535	7587.64
531.901	7618.37
532.267	7648.2
532.632	7729.33
532.998	7738.6
533.364	7748.54
533.73	7759.84
534.095	7844.58
534.461	7858.82
534.826	7927.29
535.192	7941.75
535.557	7991.7
535.923	7994.18
536.288	8052.26
536.653	8147.17
537.019	8094.29
537.384	8055.65
537.749	8143.11
538.114	8185.59
538.479	8171.13
538.845	8245.25
539.21	8207.28
539.575	8279.82
539.94	8283.67
540.305	8384.23
540.67	8306.04
541.034	8433.72
541.399	8509.65
541.764	8488.63
542.129	8523.89
542.494	8551.23
542.858	8564.56
543.223	8575.18
543.587	8673.71
543.952	8691.79
544.316	8731.34
544.681	8736.08
545.045	8827.61
545.41	8864.22
545.774	8871.67
546.138	8856.76
546.503	8933.37
546.867	8897.44
547.231	8989.64
547.595	9057.66
547.959	9030.77
548.324	9054.95
548.688	9035.29
549.052	9103.98
549.416	9100.59
549.779	9140.59
550.143	9206.81
550.507	9311.44
550.871	9249.52
551.235	9233.02
551.599	9330.42
551.962	9404.31
552.326	9454.03
552.689	9449.29
553.053	9454.03
553.417	9488.61
553.78	9618.77
554.143	9544.42
554.507	9634.14
554.87	9627.36
555.234	9718.2
555.597	9650.41
555.96	9655.38
556.323	9739.22
556.686	9753.23
557.05	9790.97
557.413	9862.83
557.776	9848.82
558.139	9980.12
558.502	9924.08
558.865	9972.66
559.228	10102.38
559.59	10086.1
559.953	10082.26
560.316	10169.72
560.679	10226.21
561.041	10300.79
561.404	10280.68
561.767	10331.07
562.129	10252.88
562.492	10334.23
562.854	10375.36
563.217	10310.96
563.579	10388.47
563.941	10522.7
564.304	10568.13
564.666	10530.16
565.028	10571.97
565.39	10620.1
565.753	10679.76
566.115	10701
566.477	10738.07
566.839	10788.46
567.201	10977.61
567.563	10872.75
567.925	10989.36
568.287	10964.73
568.648	11010.83
569.01	11030.49
569.372	11131.73
569.734	11095.34
570.095	11153.65
570.457	11212.63
570.819	11225.96
571.18	11316.13
571.542	11380.53
571.903	11367.88
572.265	11408.56
572.626	11455.33
572.987	11520.19
573.349	11547.76
573.71	11642.67
574.071	11737.81
574.432	11826.62
574.794	11906.4
575.155	11934.64
575.516	11849.22
575.877	12039.27
576.238	12049.67
576.599	12175.77
576.96	12224.35
577.32	12383.67
577.681	12477.45
578.042	12601.97
578.403	12606.26
578.763	12747.73
579.124	12824.34
579.485	13082.41
579.845	13084.9
580.206	13130.77
580.566	13213.48
580.927	13349.3
581.287	13572.11
581.648	13554.26
582.008	13807.36
582.368	13936.4
582.728	14080.35
583.089	14221.82
583.449	14345.43
583.809	14504.52
584.169	14615.93
584.529	14812.53
584.889	15095.92
585.249	15169.81
585.609	15371.62
585.969	15624.26
586.329	15774.77
586.688	15990.58
587.048	16216.57
587.408	16328.43
587.768	16672.6
588.127	16792.37
588.487	17095.64
588.846	17356.42
589.206	17521.62
589.565	17888.84
589.925	18248.83
590.284	18367.92
590.643	18705.09
591.003	18957.74
591.362	19211.74
591.721	19519.76
592.08	19678.62
592.44	20120.87
592.799	20334.2
593.158	20564.25
593.517	20887.18
593.876	21201.29
594.235	21407.16
594.593	21817.55
594.952	22100.48
595.311	22314.03
595.67	22695.49
596.029	23123.5
596.387	23326.21
596.746	23670.83
597.104	23921
597.463	24257.48
597.822	24584.93
598.18	24876
598.538	25107.63
598.897	25517.79
599.255	25530.22
599.613	26333.14
599.972	26317.54
600.33	26616.52
600.688	26876.62
601.046	27247.46
601.404	27660.56
601.762	27851.74
602.12	28169.7
602.478	28496.69
602.836	28874.54
603.194	28846.06
603.552	29311.59
603.91	29329.67
604.268	29865.25
604.625	29917
604.983	30410.32
605.341	30490.31
605.698	30949.06
606.056	31169.84
606.413	31392.66
606.771	31709.49
607.128	31914.01
607.485	32027.9
607.843	32357.38
608.2	32667.43
608.557	33033.98
608.914	33186.29
609.272	33368.66
609.629	33723.22
609.986	34228.97
610.343	34169.54
610.7	34510.32
611.057	34657.44
611.414	34807.71
611.771	35046.35
612.127	35427.36
612.484	35632.78
612.841	35947.12
613.198	35843.62
613.554	36076.16
613.911	36393.44
614.267	36558.86
614.624	36676.82
614.98	36938.96
615.337	37246.29
615.693	37449.68
616.05	37296.69
616.406	37792.95
616.762	37705.27
617.118	38011.02
617.475	37903.23
617.831	38140.06
618.187	38392.25
618.543	38477.9
618.899	38827.04
619.255	38789.08
619.611	38887.16
619.967	39186.58
620.323	39305.9
620.678	39371.66
621.034	39322.85
621.39	39517.2
621.746	39680.13
622.101	40228.82
622.457	39899.56
622.812	39996.73
623.168	40305.88
623.523	40399.88
623.879	40410.96
624.234	40476.94
624.589	40596.72
624.945	40734.56
625.3	40868.12
625.655	40813.88
626.01	40882.81
626.365	40940.66
626.72	40866.76
627.075	41004.61
627.43	41179.75
627.785	41005.74
628.14	41204.61
628.495	41354.44
628.85	41323.93
629.205	41330.26
629.559	41735.22
629.914	41384.49
630.269	41486.41
630.623	41454.55
630.978	41488.44
631.332	41671.72
631.687	41746.52
632.041	41646.63
632.396	41822.45
632.75	41623.35
633.104	41799.85
633.459	41579.29
633.813	41762.11
634.167	41649.34
634.521	41692.96
634.875	41898.83
635.229	41776.57
635.583	41688.21
635.937	41685.5
636.291	41755.55
636.645	41640.53
636.999	41588.1
637.352	41879.39
637.706	41616.58
638.06	41633.52
638.413	41824.93
638.767	41540.19
639.121	41733.18
639.474	41535.22
639.828	41632.85
640.181	41619.96
640.534	41686.86
640.888	41618.84
641.241	41426.3
641.594	41628.78
641.947	41682.11
642.301	41599.63
642.654	41801.66
643.007	41624.03
643.36	41549.91
643.713	41542.9
644.066	41756.46
644.419	41426.07
644.771	41185.17
645.124	40845.07
645.477	40784.96
645.83	40539.32
646.182	40506.32
646.535	40408.47
646.888	40442.59
647.24	40224.52
647.593	40612.76
647.945	40407.79
648.298	40303.84
648.65	40194.69
649.002	39965.77
649.355	40262.71
649.707	40248.93
650.059	40571.86
650.411	40930.72
650.763	40887.33
651.115	41368.45
651.467	41139.98
651.819	41138.4
652.171	41242.8
652.523	41200.09
652.875	41071.28
653.227	40774.79
653.578	41267.21
653.93	41089.36
654.282	40911.06
654.633	40882.13
654.985	40913.99
655.337	40844.62
655.688	40930.04
656.039	41201.44
656.391	40703.15
656.742	40848.69
657.094	40878.52
657.445	40947.21
657.796	40869.93
658.147	40904.73
658.498	40649.14
658.849	40814.11
659.2	40798.97
659.551	40691.63
659.902	40756.48
660.253	40812.08
660.604	40757.16
660.955	40574.12
661.306	40777.5
661.656	40601.46
662.007	40786.54
662.358	40718.52
662.708	40719.42
663.059	40807.1
663.409	40493.44
663.76	40715.36
664.11	40765.52
664.461	40759.65
664.811	40746.32
665.161	40770.04
665.511	40676.94
665.862	40701.35
666.212	40724.17
666.562	40755.35
666.912	40667
667.262	40680.55
667.612	40776.15
667.962	40618.64
668.312	40549.94
668.662	40788.8
669.011	40644.62
669.361	40603.49
669.711	40586.09
670.06	40572.31
670.41	40412.54
670.76	40510.39
671.109	40601.91
671.459	40475.81
671.808	40442.37
672.157	40439.66
672.507	40215.26
672.856	40331.19
673.205	40295.03
673.554	40472.42
673.904	40356.27
674.253	40622.03
674.602	40550.84
674.951	39850.52
675.3	39619.79
675.649	40306.33
675.998	40312.2
676.346	40274.24
676.695	40520.33
677.044	40129.38
677.393	40281.7
677.741	40147.24
678.09	40138.87
678.438	39964.87
678.787	39990.18
679.135	40098.42
679.484	39867.69
679.832	39973.68
680.181	39710.86
680.529	39761.26
680.877	39631.54
681.225	39757.64
681.573	39918.77
681.922	39602.84
682.27	39472.22
682.618	39482.85
682.966	39455.5
683.314	39515.84
683.661	39439.68
684.009	39292.57
684.357	39223.64
684.705	39010.32
685.053	39133.25
685.4	39181.16
685.748	38966.7
686.095	39007.38
686.443	38872.47
686.79	38708.4
687.138	38927.38
687.485	38886.48
687.832	38714.73
688.18	38838.12
688.527	38550.44
688.874	38579.14
689.221	38430.9
689.568	38447.17
689.915	38376.66
690.262	38280.84
690.609	38223.67
690.956	38051.25
691.303	38025.48
691.65	37818.93
691.997	37980.29
692.344	37614.42
692.69	37576.23
693.037	37570.58
693.383	37159.07
693.73	37558.15
694.077	37145.73
694.423	37162.68
694.769	37129.46
695.116	36976.7
695.462	37002.46
695.808	36827.32
696.155	37003.59
696.501	36580.32
696.847	36745.29
697.193	36405.19
697.539	36532.42
697.885	36307.79
698.231	36270.5
698.577	36191.63
698.923	36220.56
699.269	35979.44
699.614	35797.52
699.96	35741.7
700.306	35668.26
700.651	35621.03
700.997	35592.1
701.342	35436.4
701.688	35338.77
702.033	35247.48
702.379	35290.19
702.724	35189.63
703.069	35122.51
703.415	34804.78
703.76	34939.01
704.105	34893.59
704.45	34727.49
704.795	34518.91
705.14	34438.01
705.485	34464.67
705.83	34367.05
706.175	34391.45
706.52	34191.23
706.865	34108.98
707.209	34004.12
707.554	33878.25
707.899	34177.45
708.243	33813.16
708.588	33818.36
708.932	33613.17
709.277	33608.88
709.621	33612.04
709.966	33430.35
710.31	33384.93
710.654	33236.91
710.998	33365.49
711.342	33357.13
711.687	33192.16
712.031	32994.88
712.375	32831.04
712.719	33073.07
713.063	32842.34
713.407	32911.27
713.75	32796.92
714.094	32743.59
714.438	32587.21
714.782	32695.68
715.125	32349.7
715.469	32378.63
715.812	32307.22
716.156	32262.47
716.499	32225.41
716.843	32253.21
717.186	32047.34
717.53	32280.1
717.873	32123.27
718.216	32145.64
718.559	31876.94
718.902	31657.74
719.246	31828.36
719.589	31692.32
719.932	31638.53
720.275	31605.77
720.617	31559.66
720.96	31551.53
721.303	31403.06
721.646	31424.98
721.989	31262.95
722.331	31404.87
722.674	31363.51
723.016	31354.02
723.359	31297.52
723.701	31314.02
724.044	31003.07
724.386	30889.85
724.729	30988.15
725.071	30984.54
725.413	30930.53
725.755	30978.44
726.097	30823.19
726.439	30608.96
726.782	30707.94
727.124	30712.68
727.465	30537.77
727.807	30567.15
728.149	30514.72
728.491	30564.89
728.833	30477.21
729.175	30355.4
729.516	30307.27
729.858	30266.37
730.199	30237.89
730.541	30304.1
730.882	30138.23
731.224	30207.38
731.565	29930.33
731.906	29960.38
732.248	29873.16
732.589	29901.18
732.93	29784.12
733.271	29855.3
733.612	29774.63
733.953	29775.3
734.294	29757.68
734.635	29594.52
734.976	29712.93
735.317	29433.17
735.658	29589.32
735.999	29598.81
736.339	29554.07
736.68	29641.97
737.021	29425.71
737.361	29346.39
737.702	29390
738.042	29389.55
738.383	29360.85
738.723	29318.82
739.063	29307.29
739.404	29312.49
739.744	29081.99
740.084	29138.49
740.424	29118.37
740.764	28986.17
741.104	29236.34
741.444	28771.94
741.784	28867.53
742.124	28956.34
742.464	28934.42
742.804	28696.69
743.143	28679.74
743.483	28723.58
743.823	28587.54
744.162	28561.33
744.502	28581.89
744.841	28433.42
745.181	28642.23
745.52	28446.3
745.86	28523.13
746.199	28384.61
746.538	28307.55
746.877	28410.59
747.216	28435.45
747.556	28297.83
747.895	28404.04
748.234	28120.43
748.573	28124.27
748.911	28037.5
749.25	28095.8
749.589	27906.43
749.928	28078.63
750.267	28072.52
750.605	27869.14
750.944	27826.43
751.283	27723.38
751.621	27781.91
751.96	27590.05
752.298	27614.68
752.636	27599.32
752.975	27547.79
753.313	27408.81
753.651	27595.25
753.989	27427.57
754.327	27404.52
754.666	27183.28
755.004	27294.47
755.342	27333.79
755.679	27276.61
756.017	27071.87
756.355	27154.13
756.693	26896.28
757.031	27088.14
757.368	26809.73
757.706	26963.18
758.044	26785.1
758.381	26746.01
758.719	26628.27
759.056	26715.27
759.394	26572.9
759.731	26413.59
760.068	26485.67
760.405	26387.82
760.743	26260.82
761.08	26261.05
761.417	26101.5
761.754	25998.23
762.091	26128.85
762.428	25912.36
762.765	25850.44
763.102	25771.79
763.438	25691.8
763.775	25655.64
764.112	25711.68
764.449	25635.98
764.785	25479.6
765.122	25321.41
765.458	25234.41
765.795	25241.86
766.131	25247.74
766.467	25114.64
766.804	25013.17
767.14	24939.05
767.476	24906.05
767.812	24833.51
768.148	24723.91
768.485	24617.25
768.821	24482.79
769.157	24374.09
769.492	24436.69
769.828	24426.74
770.164	24142.23
770.5	24030.14
770.836	24013.42
771.171	24011.61
771.507	23858.4
771.842	23703.6
772.178	23722.13
772.513	23629.03
772.849	23515.13
773.184	23387.9
773.519	23549.71
773.855	23343.61
774.19	23181.35
774.525	23149.26
774.86	23144.52
775.195	23138.64
775.53	22937.29
775.865	22875.37
776.2	22667.47
776.535	22581.14
776.87	22555.61
777.205	22492.56
777.539	22381.83
777.874	22512.67
778.209	22249.17
778.543	22266.12
778.878	22043.3
779.212	22006.47
779.547	21967.15
779.881	22049.41
780.215	21907.71
780.55	21810.32
780.884	21662.07
781.218	21642.19
781.552	21657.33
781.886	21467.5
782.22	21347.05
782.554	21220.5
782.888	21062.54
783.222	21033.39
783.556	20940.73
783.889	20844.24
784.223	20698.48
784.557	20791.36
784.89	20674.75
785.224	20636.34
785.557	20506.85
785.891	20492.16
786.224	20410.58
786.558	20484.02
786.891	20165.16
787.224	20143.47
787.557	20012.4
787.891	19995.45
788.224	20010.36
788.557	20046.75
788.89	19950.93
789.223	19913.87
789.556	19655.12
789.888	19647.66
790.221	19710.26
790.554	19473.88
790.887	19430.04
791.219	19493.77
791.552	19368.57
791.884	19376.48
792.217	19215.81
792.549	19224.62
792.882	18990.5
793.214	18920.22
793.546	18921.35
793.879	18820.56
794.211	18736.05
794.543	18834.8
794.875	18676.84
795.207	18838.19
795.539	18604.07
795.871	18695.14
796.203	18469.39
796.535	18214.93
796.867	18308.04
797.198	18241.37
797.53	18214.48
797.862	18091.77
798.193	18200.92
798.525	17960.7
798.856	17990.08
799.188	17844.32
799.519	17755.96
799.85	17659.47
800.182	17729.75
800.513	17768.61
800.844	17489.75
801.175	17633.48
801.506	17646.81
801.837	17425.35
802.168	17423.77
802.499	17359.13
802.83	17362.98
803.161	17235.97
803.491	17245.69
803.822	17272.81
804.153	17196.2
804.483	17064.23
804.814	16981.74
805.145	16942.65
805.475	16958.01
805.805	16904.68
806.136	16761.18
806.466	16899.94
806.796	16806.38
807.126	16557.57
807.457	16595.54
807.787	16653.16
808.117	16552.15
808.447	16419.5
808.777	16511.92
809.107	16421.53
809.436	16347.64
809.766	16302.21
810.096	16287.52
810.426	16251.59
810.755	16163.69
811.085	16130.01
811.414	16126.17
811.744	15966.4
812.073	15934.54
812.403	15973.86
812.732	15963.01
813.061	15889.57
813.39	15791.94
813.719	15811.38
814.049	15877.82
814.378	15782.45
814.707	15687.09
815.036	15605.96
815.365	15594.66
815.693	15466.98
816.022	15498.62
816.351	15348.34
816.68	15292.3
817.008	15355.57
817.337	15239.64
817.665	15263.14
817.994	15182.69
818.322	15217.04
818.651	15257.27
818.979	15066.54
819.307	15163.26
819.636	15094.79
819.964	14977.95
820.292	15074.22
820.62	15046.2
820.948	14944.06
821.276	14977.28
821.604	14977.73
821.932	14936.6
822.259	14937.28
822.587	14951.29
822.915	14901.35
823.243	14952.64
823.57	14801.91
823.898	14968.01
824.225	14779.54
824.553	14898.86
824.88	14879.43
825.207	14922.36
825.535	14872.42
825.862	14930.27
826.189	14850.27
826.516	14934.79
826.843	14989.25
827.17	14922.59
827.497	14975.02
827.824	14989.25
828.151	14971.4
828.478	14976.15
828.805	14998.29
829.131	14809.82
829.458	14855.02
829.785	14803.04
830.111	14851.18
830.438	14954.68
830.764	14821.12
831.09	14893.44
831.417	14747.68
831.743	14848.69
832.069	14767.56
832.395	14807.79
832.722	14809.37
833.048	14687.79
833.374	14749.26
833.7	14738.64
834.026	14720.33
834.351	14641.01
834.677	14709.26
835.003	14716.04
835.329	14631.07
835.654	14642.6
835.98	14588.13
836.306	14602.82
836.631	14446.22
836.956	14527.12
837.282	14626.78
837.607	14457.74
837.932	14440.34
838.258	14528.25
838.583	14482.83
838.908	14404.64
839.233	14404.86
839.558	14354.92
839.883	14330.51
840.208	14285.09
840.533	14302.72
840.858	14341.59
841.182	14330.06
841.507	14262.04
841.832	14207.58
842.156	14110.63
842.481	14163.74
842.805	14129.16
843.13	14023.63
843.454	14041.03
843.778	13980.01
844.103	13963.07
844.427	13933.24
844.751	13933.46
845.075	13841.94
845.399	13835.61
845.723	13700.25
846.047	13744.31
846.371	13719.91
846.695	13627.71
847.019	13557.65
847.343	13499.8
847.666	13428.62
847.99	13378.45
848.313	13373.93
848.637	13211.9
848.96	13305.68
849.284	13238.34
849.607	13123.09
849.931	13107.72
850.254	13033.15
850.577	12958.12
850.9	12886.94
851.223	12836.77
851.546	12769.2
851.869	12708.86
852.192	12790.67
852.515	12613.95
852.838	12622.08
853.161	12567.4
853.483	12505.93
853.806	12456.89
854.129	12438.59
854.451	12334.18
854.774	12406.27
855.096	12294.18
855.419	12280.17
855.741	12197.46
856.063	12194.52
856.385	12086.5
856.708	12100.29
857.03	12048.99
857.352	12044.02
857.674	12047.64
857.996	11931.71
858.318	11924.47
858.64	11972.16
858.961	11926.96
859.283	11791.37
859.605	11750.02
859.926	11756.57
860.248	11725.84
860.57	11705.95
860.891	11734.2
861.212	11689.68
861.534	11624.6
861.855	11602.9
862.176	11606.29
862.498	11604.93
862.819	11552.73
863.14	11495.11
863.461	11486.52
863.782	11422.57
864.103	11434.77
864.424	11435.22
864.745	11452.62
865.065	11383.02
865.386	11317.03
865.707	11216.02
866.027	11345.51
866.348	11243.36
866.668	11396.13
866.989	11261.67
867.309	11168.11
867.63	11192.29
867.95	11228.9
868.27	11116.13
868.59	11172.18
868.91	11135.79
869.23	11143.03
869.55	11067.1
869.87	11145.06
870.19	11074.1
870.51	11061.45
870.83	11059.64
871.15	10988.91
871.469	10968.57
871.789	10972.18
872.109	10907.1
872.428	10890.38
872.748	10848.34
873.067	10824.16
873.386	10977.83
873.706	10926.99
874.025	10733.55
874.344	10773.32
874.663	10773.09
874.982	10694.68
875.301	10765.41
875.62	10666.2
875.939	10710.72
876.258	10777.39
876.577	10671.17
876.896	10661.23
877.214	10595.24
877.533	10714.11
877.852	10576.04
878.17	10595.7
878.489	10625.53
878.807	10580.78
879.125	10603.61
879.444	10541.69
879.762	10453.55
880.08	10532.42
880.398	10426.21
880.716	10445.42
881.034	10420.33
881.352	10395.93
881.67	10409.03
881.988	10423.27
882.306	10288.81
882.624	10335.36
882.941	10341.69
883.259	10223.73
883.577	10221.69
883.894	10180.79
884.212	10152.54
884.529	10185.99
884.846	10141.02
885.164	10113.67
885.481	10136.72
885.798	10140.11
886.115	10032.55
886.432	10078.2
886.75	9968.37
887.067	10011.3
887.383	9957.52
887.7	9972.66
888.017	9900.35
888.334	9892.21
888.651	9883.85
888.967	9909.16
889.284	9779.67
889.6	9787.81
889.917	9736.96
890.233	9672.1
890.55	9704.87
890.866	9615.16
891.182	9704.87
891.498	9606.12
891.815	9569.96
892.131	9586.68
892.447	9558.66
892.763	9490.41
893.079	9479.79
893.395	9465.78
893.71	9434.82
894.026	9431.21
894.342	9379.23
894.657	9326.12
894.973	9331.55
895.289	9280.02
895.604	9242.51
895.92	9191.89
896.235	9177.65
896.55	9193.25
896.865	9175.85
897.181	9124.77
897.496	9161.16
897.811	9059.01
898.126	8979.47
898.441	8995.74
898.756	8966.13
899.071	8919.36
899.386	8903.31
899.7	8830.09
900.015	8768.4
900.33	8790.55
900.644	8781.28
900.959	8731.79
901.273	8655.86
901.588	8643.2
901.902	8681.17
902.216	8625.13
902.531	8566.6
902.845	8565.24
903.159	8495.41
903.473	8496.99
903.787	8448.41
904.101	8399.82
904.415	8378.58
904.729	8316.43
905.042	8302.42
905.356	8288.19
905.67	8269.43
905.984	8262.88
906.297	8260.84
906.611	8125.48
906.924	8137.23
907.237	8141.07
907.551	8107.85
907.864	8055.42
908.177	8076.67
908.491	8005.93
908.804	7991.7
909.117	7937.91
909.43	7934.97
909.743	7872.15
910.056	7778.82
910.368	7774.75
910.681	7762.78
910.994	7714.42
911.307	7658.6
911.619	7632.84
911.932	7632.16
912.244	7590.8
912.557	7584.93
912.869	7514.2
913.181	7494.76
913.494	7464.03
913.806	7436.23
914.118	7347.19
914.43	7360.3
914.742	7433.97
915.054	7273.3
915.366	7307.19
915.678	7307.87
915.99	7269
916.302	7180.87
916.613	7190.14
916.925	7144.26
917.236	7135
917.548	7104.49
917.859	7149.91
918.171	7079.63
918.482	7036.47
918.794	6931.84
919.105	6997.37
919.416	6902.01
919.727	6863.59
920.038	6862.01
920.349	6760.77
920.66	6835.34
920.971	6808.22
921.282	6728.68
921.593	6717.61
921.903	6690.71
922.214	6619.76
922.525	6592.41
922.835	6618.4
923.146	6545.63
923.456	6524.39
923.767	6524.62
924.077	6448.91
924.387	6425.86
924.697	6401.91
925.008	6452.98
925.318	6382.47
925.628	6385.19
925.938	6330.27
926.248	6291.18
926.558	6309.03
926.867	6268.58
927.177	6217.51
927.487	6152.42
927.796	6112.88
928.106	6112.42
928.416	6174.12
928.725	6148.58
929.034	6068.58
929.344	6073.55
929.653	6039.66
929.962	5994.01
930.271	6008.25
930.581	5925.08
930.89	5900.45
931.199	5861.13
931.508	5860
931.817	5863.84
932.125	5838.98
932.434	5820.45
932.743	5771.42
933.051	5715.15
933.36	5710.85
933.669	5671.98
933.977	5670.85
934.286	5666.56
934.594	5591.08
934.902	5575.26
935.21	5574.59
935.519	5538.88
935.827	5518.99
936.135	5488.03
936.443	5436.74
936.751	5383.86
937.059	5438.77
937.367	5405.78
937.674	5386.57
937.982	5359.22
938.29	5321.03
938.597	5359
938.905	5257.31
939.213	5252.56
939.52	5253.46
939.827	5246.91
940.135	5178.44
940.442	5185.89
940.749	5165.1
941.056	5174.6
941.363	5108.16
941.67	5075.39
941.977	5069.06
942.284	5016.18
942.591	5004.88
942.898	4966.01
943.205	4992
943.511	4972.57
943.818	4975.28
944.125	4899.57
944.431	4926.01
944.738	4865.45
945.044	4888.28
945.35	4850.54
945.657	4781.16
945.963	4778.9
946.269	4762.63
946.575	4738
946.881	4762.85
947.187	4674.95
947.493	4690.09
947.799	4687.15
948.105	4643.99
948.41	4626.59
948.716	4579.13
949.022	4593.59
949.327	4566.7
949.633	4497.55
949.938	4570.09
950.244	4521.28
950.549	4470.21
950.854	4463.43
951.16	4465.01
951.465	4449.19
951.77	4441.51
952.075	4392.24
952.38	4350.44
952.685	4422.98
952.99	4317.89
953.294	4297.56
953.599	4259.14
953.904	4293.71
954.209	4236.77
954.513	4244.22
954.818	4226.15
955.122	4208.97
955.426	4201.51
955.731	4166.49
956.035	4113.61
956.339	4115.41
956.643	4112.48
956.948	4058.92
957.252	4107.28
957.556	4041.07
957.86	4012.82
958.163	3992.03
958.467	4014.17
958.771	4009.43
959.075	3967.17
959.378	3966.04
959.682	3924.23
959.985	3949.32
960.289	3874.52
960.592	3884.01
960.896	3875.42
961.199	3817.8
961.502	3860.51
961.805	3825.7
962.108	3760.62
962.411	3763.11
962.714	3803.33
963.017	3732.6
963.32	3753.39
963.623	3734.63
963.926	3714.29
964.228	3695.31
964.531	3674.07
964.833	3660.06
965.136	3604.24
965.438	3600.17
965.741	3628.42
966.043	3594.75
966.345	3586.61
966.648	3568.08
966.95	3577.12
967.252	3555.66
967.554	3517.46
967.856	3486.73
968.158	3477.92
968.46	3439.05
968.761	3490.8
969.063	3487.63
969.365	3441.53
969.666	3383
969.968	3370.58
970.269	3372.16
970.571	3367.41
970.872	3357.02
971.174	3326.96
971.475	3331.48
971.776	3285.15
972.077	3296.9
972.378	3288.09
972.679	3214.42
972.98	3244.25
973.281	3218.71
973.582	3220.75
973.883	3206.96
974.183	3175.1
974.484	3188.21
974.785	3228.88
975.085	3160.86
975.386	3136.68
975.686	3099.4
975.986	3101.66
976.287	3111.6
976.587	3087.42
976.887	3091.71
977.187	3109.79
977.487	3060.3
977.787	2998.83
978.087	2993.18
978.387	2943.69
978.687	3012.17
978.987	2975.33
979.286	2942.56
979.586	2949.8
979.885	2953.86
980.185	2936.01
980.484	2932.17
980.784	2877.48
981.083	2918.38
981.382	2853.98
981.682	2863.47
981.981	2855.56
982.28	2803.81
982.579	2821.21
982.878	2803.36
983.177	2778.95
983.475	2804.49
983.774	2758.84
984.073	2744.38
984.372	2734.66
984.67	2759.29
984.969	2733.98
985.267	2755.9
985.566	2720.65
985.864	2713.87
986.162	2702.34
986.461	2649.24
986.759	2649.69
987.057	2629.58
987.355	2615.11
987.653	2603.82
987.951	2602.01
988.249	2605.62
988.547	2570.82
988.844	2597.94
989.142	2552.97
989.44	2539.41
989.737	2550.94
990.035	2548.22
990.332	2540.77
990.63	2495.57
990.927	2494.67
991.224	2464.61
991.521	2489.92
991.819	2462.8
992.116	2443.59
992.413	2435.46
992.71	2425.52
993.006	2412.18
993.303	2386.42
993.6	2390.49
993.897	2355.46
994.193	2394.78
994.49	2369.7
994.787	2355.23
995.083	2354.78
995.379	2343.03
995.676	2347.33
995.972	2295.35
996.268	2306.42
996.565	2261.9
996.861	2296.48
997.157	2260.1
997.453	2238.4
997.749	2246.09
998.044	2227.1
998.34	2222.13
998.636	2224.84
998.932	2139.87
999.227	2174.22
999.523	2172.87
999.818	2148.01
1000.114	2122.7
1000.409	2108.24
1000.704	2120.44
1001	2120.21
1001.295	2102.36
1001.59	2089.7
1001.885	2083.6
1002.18	2036.82
1002.475	2030.05
1002.77	2007.67
1003.065	2029.82
1003.359	2021.91
1003.654	2009.26
1003.949	2000.89
1004.243	1991.63
1004.538	1982.36
1004.832	1977.39
1005.127	1969.26
1005.421	1953.89
1005.715	1957.05
1006.009	1928.13
1006.304	1887.45
1006.598	1918.18
1006.892	1904.17
1007.186	1877.96
1007.48	1869.6
1007.773	1888.35
1008.067	1842.25
1008.361	1860.78
1008.655	1830.05
1008.948	1823.27
1009.242	1804.29
1009.535	1774.68
1009.829	1767.23
1010.122	1793.22
1010.415	1763.61
1010.708	1760.9
1011.001	1756.15
1011.295	1765.87
1011.588	1707.79
1011.881	1715.25
1012.173	1699.88
1012.466	1725.19
1012.759	1672.77
1013.052	1693.56
1013.344	1676.83
1013.637	1647.91
1013.93	1671.64
1014.222	1627.12
1014.514	1625.76
1014.807	1633.67
1015.099	1585.54
1015.391	1642.03
1015.683	1623.95
1015.976	1581.24
1016.268	1591.86
1016.56	1579.89
1016.851	1577.18
1017.143	1535.82
1017.435	1549.38
1017.727	1554.35
1018.018	1523.39
1018.31	1482.72
1018.602	1489.27
1018.893	1517.52
1019.185	1478.87
1019.476	1474.35
1019.767	1468.93
1020.058	1456.73
1020.35	1439.33
1020.641	1405.66
1020.932	1405.2
1021.223	1391.19
1021.514	1397.97
1021.804	1379.44
1022.095	1375.6
1022.386	1382.38
1022.677	1364.53
1022.967	1360.23
1023.258	1360.46
1023.548	1328.82
1023.839	1352.55
1024.129	1322.72
1024.419	1307.35
1024.709	1296.96
1025	1299.44
1025.29	1295.83
1025.58	1273.46
1025.87	1259.67
1026.16	1253.57
1026.449	1265.09
1026.739	1255.38
1027.029	1275.04
1027.319	1218.09
1027.608	1238.2
1027.898	1223.96
1028.187	1218.99
1028.477	1202.5
1028.766	1182.61
1029.055	1194.59
1029.344	1191.42
1029.634	1147.81
1029.923	1155.27
1030.212	1166.11
1030.501	1155.04
1030.79	1113.01
1031.078	1151.65
1031.367	1127.92
1031.656	1131.99
1031.945	1113.23
1032.233	1091.99
1032.522	1087.25
1032.81	1115.27
1033.099	1091.77
1033.387	1082.27
1033.675	1096.06
1033.963	1079.34
1034.251	1061.71
1034.54	1050.86
1034.828	1057.19
1035.116	1051.09
1035.403	1035.04
1035.691	1024.42
1035.979	994.37
1036.267	1001.15
1036.554	994.37
1036.842	979
1037.129	996.85
1037.417	978.55
1037.704	966.34
1037.992	984.42
1038.279	965.44
1038.566	960.7
1038.853	960.7
1039.14	960.7
