Data from hue_220_FLMS001491_00021.txt Node
Date: Tue Feb 07 16:39:10 GMT 2017
User: dcchb
Spectrometer: FLMS00149
Trigger mode: 0
Integration Time (sec): 2.000000E-2
Scans to average: 10
Electric dark correction enabled: true
Nonlinearity correction enabled: false
Boxcar width: 0
XAxis mode: Wavelengths
Number of Pixels in Spectrum: 2048
>>>>>Begin Spectral Data<<<<<
341.393	-10.68
341.776	-10.68
342.16	-10.68
342.543	-58.13
342.927	-46.83
343.31	-53.84
343.693	-81.18
344.077	-62.65
344.46	-85.25
344.843	-68.98
345.226	-37.34
345.61	-40.51
345.993	-4.12
346.376	-4.8
346.759	12.6
347.142	11.69
347.525	29.77
347.908	54.41
348.291	93.27
348.674	112.93
349.057	124.01
349.44	133.5
349.823	121.52
350.206	173.72
350.588	172.59
350.971	190.67
351.354	203.78
351.737	225.7
352.119	240.84
352.502	260.73
352.884	265.93
353.267	260.73
353.65	309.54
354.032	306.83
354.414	270.9
354.797	290.56
355.179	337.34
355.562	325.81
355.944	331.46
356.326	341.4
356.709	311.57
357.091	343.44
357.473	319.94
357.855	313.61
358.238	341.18
358.62	341.63
359.002	335.53
359.384	333.49
359.766	338.69
360.148	332.36
360.53	359.26
360.912	347.05
361.294	326.71
361.676	322.65
362.057	336.66
362.439	333.72
362.821	333.72
363.203	323.1
363.584	314.74
363.966	319.71
364.348	307.05
364.729	324.91
365.111	296.21
365.493	335.08
365.874	314.29
366.256	312.03
366.637	292.37
367.019	330.78
367.4	328.75
367.781	300.5
368.163	292.59
368.544	299.14
368.925	317.22
369.306	316.09
369.688	295.3
370.069	298.24
370.45	321.74
370.831	304.79
371.212	307.51
371.593	321.74
371.974	299.14
372.355	314.06
372.736	298.01
373.117	312.03
373.498	318.58
373.879	294.63
374.26	311.12
374.641	330.33
375.021	300.73
375.402	314.74
375.783	309.54
376.163	296.43
376.544	316.09
376.925	331.01
377.305	319.94
377.686	332.14
378.066	310.22
378.447	326.71
378.827	338.24
379.208	319.94
379.588	326.49
379.968	319.03
380.349	332.36
380.729	312.48
381.109	318.35
381.489	333.72
381.87	287.85
382.25	323.32
382.63	327.17
383.01	329.43
383.39	323.78
383.77	338.01
384.15	339.37
384.53	331.46
384.91	342.08
385.29	341.4
385.67	328.52
386.049	357.67
386.429	352.48
386.809	333.49
387.189	340.5
387.568	359.93
387.948	363.1
388.328	336.88
388.707	348.18
389.087	362.42
389.466	348.63
389.846	363.78
390.225	372.14
390.605	379.59
390.984	353.61
391.363	375.53
391.743	369.2
392.122	358.8
392.501	361.52
392.881	356.54
393.26	347.05
393.639	364.91
394.018	386.6
394.397	378.46
394.776	382.98
395.155	374.17
395.534	382.31
395.913	359.93
396.292	382.98
396.671	374.62
397.05	385.92
397.429	367.17
397.808	399.93
398.186	371.69
398.565	381.18
398.944	410.1
399.323	376.2
399.701	410.1
400.08	376.88
400.458	410.55
400.837	415.3
401.215	399.03
401.594	418.01
401.972	406.03
402.351	419.14
402.729	407.84
403.107	403.55
403.486	405.58
403.864	407.39
404.242	407.62
404.62	411.01
404.999	428.86
405.377	427.73
405.755	422.98
406.133	436.54
406.511	418.24
406.889	456.43
407.267	439.93
407.645	442.87
408.023	480.38
408.401	458.01
408.779	460.95
409.156	470.67
409.534	479.48
409.912	478.8
410.29	476.99
410.667	509.53
411.045	493.72
411.422	507.27
411.8	515.64
412.178	542.3
412.555	556.31
412.933	539.14
413.31	532.13
413.687	558.8
414.065	578.23
414.442	586.14
414.819	601.51
415.197	588.85
415.574	611.68
415.951	608.06
416.328	593.83
416.705	599.25
417.082	616.88
417.46	644.67
417.837	655.52
418.214	619.36
418.591	648.06
418.967	637.44
419.344	670.66
419.721	697.78
420.098	689.42
420.475	670.89
420.852	693.48
421.228	696.87
421.605	729.19
421.982	726.48
422.358	763.54
422.735	769.87
423.111	773.48
423.488	781.17
423.864	796.53
424.241	799.24
424.617	813.93
424.994	839.92
425.37	829.53
425.746	858.45
426.123	870.66
426.499	860.26
426.875	876.08
427.251	922.41
427.627	923.08
428.003	916.08
428.379	937.77
428.756	967.38
429.132	970.54
429.507	961.5
429.883	996.98
430.259	1003.31
430.635	1011.67
431.011	1018.67
431.387	1045.34
431.763	1048.05
432.138	1044.44
432.514	1067.03
432.89	1095.73
433.265	1117.65
433.641	1107.26
434.016	1158.56
434.392	1120.37
434.767	1197.65
435.143	1180.93
435.518	1208.73
435.894	1210.76
436.269	1268.38
436.644	1287.14
437.02	1280.81
437.395	1318.1
437.77	1341.15
438.145	1326.69
438.52	1362.39
438.895	1405.1
439.271	1392.45
439.646	1472.9
440.021	1444.2
440.395	1492.33
440.77	1480.58
441.145	1490.3
441.52	1529.85
441.895	1546.57
442.27	1550.64
442.645	1574.14
443.019	1600.35
443.394	1592.44
443.769	1602.39
444.143	1598.09
444.518	1654.36
444.892	1665.66
445.267	1674.48
445.641	1686.23
446.016	1699.11
446.39	1723.97
446.764	1754.02
447.139	1713.57
447.513	1751.99
447.887	1742.04
448.262	1778.2
448.636	1785.66
449.01	1795.15
449.384	1811.87
449.758	1823.17
450.132	1848.03
450.506	1838.77
450.88	1878.31
451.254	1872.44
451.628	1909.27
452.002	1935.49
452.376	1939.33
452.75	1961.47
453.123	2008.03
453.497	2013
453.871	2008.7
454.244	2044.64
454.618	2053.9
454.992	2068.59
455.365	2053.22
455.739	2149.04
456.112	2152.43
456.486	2136.38
456.859	2195.82
457.232	2201.69
457.606	2190.85
457.979	2246.66
458.352	2295.93
458.725	2311.52
459.099	2307.68
459.472	2336.15
459.845	2347.9
460.218	2365.31
460.591	2379.09
460.964	2379.77
461.337	2448.47
461.71	2513.78
462.083	2536.15
462.456	2532.76
462.829	2549.71
463.201	2603.04
463.574	2592.42
463.947	2600.78
464.32	2689.82
464.692	2677.39
465.065	2698.86
465.438	2743.37
465.81	2787.89
466.183	2811.85
466.555	2852.98
466.928	2862.24
467.3	2886.65
467.672	2924.61
468.045	2983.59
468.417	2958.74
468.789	2963.03
469.161	3058.17
469.534	3092.74
469.906	3123.48
470.278	3120.31
470.65	3186.53
471.022	3244.83
471.394	3287.54
471.766	3290.25
472.138	3324.6
472.51	3387.43
472.882	3447.08
473.253	3450.25
473.625	3498.38
473.997	3581.54
474.369	3565.05
474.74	3615.89
475.112	3684.14
475.484	3790.8
475.855	3783.12
476.227	3805.27
476.598	3900.63
476.97	3912.16
477.341	4020.18
477.713	4052.04
478.084	4084.36
478.455	4170.46
478.827	4256.33
479.198	4280.28
479.569	4299.94
479.94	4424.91
480.311	4428.53
480.682	4515.08
481.053	4596.88
481.424	4654.28
481.795	4736.77
482.166	4732.25
482.537	4786.71
482.908	4881.17
483.279	4910.1
483.65	5031
484.021	5063.31
484.391	5107.61
484.762	5172.69
485.133	5177.89
485.503	5259.24
485.874	5327.71
486.244	5374.27
486.615	5503.3
486.985	5517.09
487.356	5617.2
487.726	5605.45
488.097	5737.65
488.467	5715.5
488.837	5797.76
489.207	5912.33
489.578	5918.66
489.948	6035.27
490.318	6056.51
490.688	6101.03
491.058	6179.44
491.428	6197.07
491.798	6234.13
492.168	6372.66
492.538	6370.85
492.908	6418.08
493.278	6519.32
493.648	6542.37
494.017	6571.52
494.387	6613.33
494.757	6672.76
495.126	6699.88
495.496	6688.36
495.866	6778.52
496.235	6808.35
496.605	6809.48
496.974	6855.13
497.344	6954.56
497.713	6974.9
498.082	6985.75
498.452	7041.11
498.821	7054
499.19	7067.78
499.559	7106.65
499.928	7178.74
500.298	7187.78
500.667	7177.38
501.036	7229.58
501.405	7293.54
501.774	7277.72
502.143	7308.9
502.512	7348.45
502.88	7344.16
503.249	7294.67
503.618	7409.92
503.987	7435.68
504.356	7452.85
504.724	7436.13
505.093	7450.82
505.462	7463.02
505.83	7445.17
506.199	7571.27
506.567	7663.24
506.936	7587.54
507.304	7629.35
507.672	7660.31
508.041	7663.02
508.409	7695.33
508.777	7716.12
509.145	7787.54
509.514	7739.85
509.882	7795.9
510.25	7762.68
510.618	7742.79
510.986	7856.01
511.354	7829.12
511.722	7874.99
512.09	7884.26
512.458	7875.89
512.826	7925.61
513.193	7885.16
513.561	7872.05
513.929	7922.45
514.297	7959.28
514.664	7998.38
515.032	7993.41
515.4	7998.15
515.767	8014.87
516.135	7984.37
516.502	7958.6
516.869	7993.18
517.237	8017.13
517.604	8020.75
517.972	8065.95
518.339	7987.53
518.706	8062.78
519.073	8014.65
519.44	8093.74
519.808	8087.19
520.175	8048.32
520.542	8131.03
520.909	8091.93
521.276	8023.24
521.643	8119.73
522.009	8100.97
522.376	8146.17
522.743	8129.22
523.11	8191.82
523.477	8263.68
523.843	8220.52
524.21	8245.6
524.577	8208.77
524.943	8174.19
525.31	8201.08
525.676	8264.36
526.043	8261.42
526.409	8243.57
526.776	8324.7
527.142	8258.94
527.508	8183.23
527.874	8223.46
528.241	8267.52
528.607	8293.74
528.973	8262.1
529.339	8243.57
529.705	8251.48
530.071	8262.33
530.437	8286.73
530.803	8235.21
531.169	8214.42
531.535	8197.69
531.901	8221.65
532.267	8257.81
532.632	8236.79
532.998	8188.43
533.364	8233.17
533.73	8206.73
534.095	8256
534.461	8170.58
534.826	8177.13
535.192	8175.32
535.557	8169.45
535.923	8137.58
536.288	8185.04
536.653	8130.13
537.019	8016.23
537.384	8059.84
537.749	8047.42
538.114	8009.45
538.479	7942.56
538.845	8030.47
539.21	7931.49
539.575	7931.94
539.94	7926.97
540.305	7926.06
540.67	7816.91
541.034	7917.7
541.399	7906.85
541.764	7842.22
542.129	7860.75
542.494	7785.73
542.858	7784.37
543.223	7775.33
543.587	7780.76
543.952	7719.74
544.316	7747.31
544.681	7701.89
545.045	7673.64
545.41	7641.32
545.774	7691.94
546.138	7586.64
546.503	7627.54
546.867	7513.64
547.231	7560.65
547.595	7496.92
547.959	7494.44
548.324	7498.96
548.688	7375.79
549.052	7439.07
549.416	7375.79
549.779	7374.21
550.143	7389.13
550.507	7412.63
550.871	7385.06
551.235	7330.82
551.599	7244.5
551.962	7280.66
552.326	7229.13
552.689	7275.91
553.053	7202.01
553.417	7233.43
553.78	7279.75
554.143	7185.97
554.507	7187.33
554.87	7186.42
555.234	7174.67
555.597	7147.33
555.96	7117.27
556.323	7101.45
556.686	7043.83
557.05	7091.06
557.413	7134.45
557.776	7121.79
558.139	7095.58
558.502	7051.74
558.865	7024.84
559.228	7062.36
559.59	7025.3
559.953	7071.85
560.316	7108.91
560.679	7048.57
561.041	7058.74
561.404	7028.23
561.767	7052.64
562.129	7063.03
562.492	7106.2
562.854	7068.01
563.217	7029.82
563.579	7039.08
563.941	7111.17
564.304	7144.16
564.666	7067.33
565.028	7098.97
565.39	7095.8
565.753	7142.13
566.115	7082.24
566.477	7143.26
566.839	7159.3
567.201	7096.03
567.563	7131.28
567.925	7166.76
568.287	7117.95
568.648	7128.57
569.01	7192.52
569.372	7199.98
569.734	7127.89
570.095	7197.27
570.457	7203.14
570.819	7187.55
571.18	7237.49
571.542	7186.42
571.903	7223.48
572.265	7230.49
572.626	7252.86
572.987	7260.77
573.349	7307.77
573.71	7330.6
574.071	7303.71
574.432	7333.99
574.794	7389.58
575.155	7310.71
575.516	7312.97
575.877	7408.79
576.238	7371.73
576.599	7385.51
576.96	7423.48
577.32	7409.69
577.681	7449.01
578.042	7434.55
578.403	7444.72
578.763	7489.01
579.124	7472.74
579.485	7495.34
579.845	7581.89
580.206	7534.89
580.566	7529.69
580.927	7582.79
581.287	7570.37
581.648	7579.86
582.008	7611.04
582.368	7576.69
582.728	7632.06
583.089	7627.54
583.449	7692.17
583.809	7731.04
584.169	7622.79
584.529	7632.96
584.889	7695.33
585.249	7677.48
585.609	7635.22
585.969	7747.76
586.329	7757.25
586.688	7755.45
587.048	7792.06
587.408	7787.76
587.768	7771.72
588.127	7797.48
588.487	7762
588.846	7834.77
589.206	7868.89
589.565	7854.65
589.925	7878.83
590.284	7858.27
590.643	7894.2
591.003	7944.82
591.362	7903.69
591.721	7923.8
592.08	7932.16
592.44	7954.54
592.799	7938.72
593.158	7936.46
593.517	7977.13
593.876	7973.07
594.235	7978.26
594.593	7907.98
594.952	7933.75
595.311	7929.45
595.67	7997.93
596.029	8054.87
596.387	8105.04
596.746	8072.27
597.104	8015.1
597.463	8038.15
597.822	8031.14
598.18	8066.4
598.538	8073.63
598.897	8078.83
599.255	8014.42
599.613	8091.26
599.972	8067.98
600.33	8142.78
600.688	8122.22
601.046	8152.72
601.404	8119.96
601.762	8109.56
602.12	8158.15
602.478	8133.97
602.836	8160.63
603.194	8132.16
603.552	8105.49
603.91	8149.33
604.268	8197.47
604.625	8123.8
604.983	8144.36
605.341	8081.54
605.698	8161.54
606.056	8167.64
606.413	8176.23
606.771	8175.77
607.128	8190.91
607.485	8137.58
607.843	8223.91
608.2	8241.99
608.557	8222.78
608.914	8217.35
609.272	8251.25
609.629	8278.14
609.986	8253.74
610.343	8268.65
610.7	8284.02
611.057	8296.9
611.414	8254.19
611.771	8288.99
612.127	8268.88
612.484	8317.69
612.841	8326.96
613.198	8339.84
613.554	8330.8
613.911	8375.54
614.267	8364.24
614.624	8367.86
614.98	8315.88
615.337	8390.46
615.693	8346.62
616.05	8355.43
616.406	8361.98
616.762	8416.22
617.118	8358.37
617.475	8379.16
617.831	8399.04
618.187	8426.16
618.543	8405.15
618.899	8430.68
619.255	8400.63
619.611	8405.6
619.967	8462.09
620.323	8431.13
620.678	8467.07
621.034	8410.12
621.39	8425.94
621.746	8408.08
622.101	8533.05
622.457	8413.28
622.812	8480.62
623.168	8487.86
623.523	8438.14
623.879	8485.37
624.234	8413.28
624.589	8500.96
624.945	8417.58
625.3	8435.43
625.655	8474.3
626.01	8495.09
626.365	8437.91
626.72	8480.17
627.075	8432.94
627.43	8513.17
627.785	8467.29
628.14	8441.53
628.495	8498.25
628.85	8470.68
629.205	8473.17
629.559	8479.95
629.914	8472.49
630.269	8447.18
630.623	8371.02
630.978	8372.6
631.332	8434.52
631.687	8400.4
632.041	8372.6
632.396	8355.88
632.75	8359.95
633.104	8407.41
633.459	8345.94
633.813	8295.09
634.167	8380.51
634.521	8353.62
634.875	8281.53
635.229	8328.09
635.583	8217.81
635.937	8210.35
636.291	8298.03
636.645	8256.68
636.999	8248.31
637.352	8292.83
637.706	8213.06
638.06	8233.63
638.413	8251.48
638.767	8203.57
639.121	8232.95
639.474	8123.57
639.828	8124.93
640.181	8169.67
640.534	8146.85
640.888	8150.24
641.241	8157.47
641.594	8120.63
641.947	8160.41
642.301	8165.6
642.654	8142.55
643.007	8130.8
643.36	8131.48
643.713	8083.12
644.066	8116.11
644.419	8077.02
644.771	8028.66
645.124	7982.78
645.477	7893.75
645.83	7868.44
646.182	7899.17
646.535	7828.89
646.888	7849.45
647.24	7855.1
647.593	7867.76
647.945	7871.83
648.298	7825.5
648.65	7748.44
649.002	7793.18
649.355	7846.97
649.707	7782.56
650.059	7916.57
650.411	7921.32
650.763	7965.61
651.115	8017.59
651.467	8005.38
651.819	8017.13
652.171	8019.39
652.523	7934.42
652.875	7980.75
653.227	7932.62
653.578	8011.71
653.93	7993.86
654.282	7987.3
654.633	7977.13
654.985	7976.91
655.337	8018.26
655.688	7940.75
656.039	8036.12
656.391	7956.8
656.742	7987.08
657.094	7988.66
657.445	7970.13
657.796	8016.91
658.147	8028.43
658.498	8016.91
658.849	8000.41
659.2	8021.88
659.551	8010.58
659.902	8049
660.253	8035.44
660.604	8080.86
660.955	8003.35
661.306	8050.35
661.656	8003.35
662.007	8068.43
662.358	8057.36
662.708	8022.56
663.059	8136
663.409	8029.79
663.76	8096
664.11	8104.14
664.461	8108.43
664.811	8069.79
665.161	8129.22
665.511	8011.48
665.862	8070.24
666.212	8105.27
666.562	8125.61
666.912	8103.91
667.262	8077.92
667.612	8103.91
667.962	8096
668.312	8096.68
668.662	8098.71
669.011	8064.36
669.361	8086.74
669.711	8076.12
670.06	8049.68
670.41	8045.61
670.76	8007.64
671.109	8091.48
671.459	8061.88
671.808	8007.64
672.157	8060.3
672.507	7980.75
672.856	7952.95
673.205	7985.04
673.554	7950.92
673.904	8033.18
674.253	8026.17
674.602	7902.79
674.951	7865.27
675.3	7874.99
675.649	7977.81
675.998	7902.33
676.346	7929.9
676.695	7961.32
677.044	7883.13
677.393	7992.5
677.741	7938.94
678.09	7925.16
678.438	7906.4
678.787	7886.06
679.135	7878.61
679.484	7819.4
679.832	7880.41
680.181	7772.62
680.529	7834.77
680.877	7764.49
681.225	7873.63
681.573	7896.01
681.922	7750.7
682.27	7722.9
682.618	7716.12
682.966	7717.48
683.314	7676.13
683.661	7764.71
684.009	7674.54
684.357	7646.07
684.705	7630.25
685.053	7656.01
685.4	7648.78
685.748	7613.75
686.095	7603.13
686.443	7559.07
686.79	7482.68
687.138	7564.72
687.485	7519.52
687.832	7486.53
688.18	7508.9
688.527	7502.8
688.874	7416.92
689.221	7447.66
689.568	7384.83
689.915	7384.38
690.262	7407.66
690.609	7325.17
690.956	7270.03
691.303	7273.65
691.65	7259.41
691.997	7203.6
692.344	7226.65
692.69	7186.65
693.037	7184.84
693.383	7120.89
693.73	7061.9
694.077	7089.25
694.423	7133.32
694.769	7033.88
695.116	7048.57
695.462	7029.59
695.808	6994.79
696.155	6976.03
696.501	6907.78
696.847	6967.22
697.193	6950.27
697.539	6866.66
697.885	6860.55
698.231	6821.01
698.577	6823.27
698.923	6844.28
699.269	6789.14
699.614	6734.23
699.96	6718.86
700.306	6700.78
700.651	6622.37
700.997	6675.47
701.342	6576.95
701.688	6622.37
702.033	6517.06
702.379	6588.24
702.724	6548.47
703.069	6560
703.415	6457.85
703.76	6462.37
704.105	6415.82
704.45	6387.12
704.795	6373.11
705.14	6305.31
705.485	6398.87
705.83	6347.8
706.175	6332.88
706.52	6247.01
706.865	6324.52
707.209	6235.71
707.554	6251.76
707.899	6264.86
708.243	6204.75
708.588	6173.79
708.932	6157.52
709.277	6170.63
709.621	6113
709.966	6102.83
710.31	6155.94
710.654	6079.78
710.998	6073.23
711.342	6050.63
711.687	6034.59
712.031	6035.27
712.375	6014.93
712.719	6035.72
713.063	5959.56
713.407	5945.1
713.75	5985.77
714.094	5914.82
714.438	5932.22
714.782	5929.28
715.125	5929.05
715.469	5918.43
715.812	5919.56
716.156	5888.38
716.499	5807.47
716.843	5852.67
717.186	5880.69
717.53	5877.76
717.873	5866.23
718.216	5849.06
718.559	5814.25
718.902	5851.09
719.246	5825.33
719.589	5819
719.932	5734.48
720.275	5737.87
720.617	5773.13
720.96	5773.13
721.303	5761.83
721.646	5793.69
721.989	5745.56
722.331	5738.55
722.674	5691.77
723.016	5737.42
723.359	5727.93
723.701	5757.53
724.044	5675.05
724.386	5695.16
724.729	5689.74
725.071	5696.74
725.413	5687.03
725.755	5671.66
726.097	5662.39
726.439	5622.17
726.782	5665.11
727.124	5727.48
727.465	5692
727.807	5614.03
728.149	5672.34
728.491	5641.6
728.833	5670.3
729.175	5683.18
729.516	5632.34
729.858	5656.52
730.199	5690.87
730.541	5638.67
730.882	5651.55
731.224	5680.92
731.565	5618.78
731.906	5657.87
732.248	5678.89
732.589	5631.43
732.93	5622.85
733.271	5624.65
733.612	5598.44
733.953	5646.57
734.294	5666.91
734.635	5615.16
734.976	5646.12
735.317	5610.64
735.658	5632.79
735.999	5699.45
736.339	5704.43
736.68	5673.47
737.021	5673.69
737.361	5679.57
737.702	5698.32
738.042	5664.88
738.383	5665.78
738.723	5716.4
739.063	5767.02
739.404	5748.49
739.744	5711.66
740.084	5714.6
740.424	5743.3
740.764	5716.4
741.104	5787.81
741.444	5711.21
741.784	5762.28
742.124	5769.28
742.464	5832.56
742.804	5817.87
743.143	5825.33
743.483	5894.03
743.823	5844.08
744.162	5919.79
744.502	5928.83
744.841	6000.24
745.181	5973.12
745.52	5963.4
745.86	5999.56
746.199	6079.78
746.538	6083.85
746.877	6141.7
747.216	6204.75
747.556	6151.65
747.895	6274.35
748.234	6294.69
748.573	6308.93
748.911	6382.15
749.25	6462.82
749.589	6469.38
749.928	6507.12
750.267	6611.3
750.605	6633.44
750.944	6718.86
751.283	6772.65
751.621	6861.68
751.96	6928.12
752.298	7046.76
752.636	7116.59
752.975	7158.85
753.313	7299.41
753.651	7361.11
753.989	7426.87
754.327	7549.8
754.666	7603.13
755.004	7782.79
755.342	7925.38
755.679	8096.45
756.017	8115.89
756.355	8264.36
756.693	8406.05
757.031	8543.45
757.368	8620.96
757.706	8857.34
758.044	8902.31
758.381	9116.31
758.719	9206.03
759.056	9411.22
759.394	9556.3
759.731	9689.41
760.068	9851.44
760.405	9933.02
760.743	10107.7
761.08	10284.87
761.417	10433.57
761.754	10586.78
762.091	10780.9
762.428	10864.97
762.765	11083.49
763.102	11358.51
763.438	11442.81
763.775	11604.16
764.112	11770.48
764.449	11988.33
764.785	12132.05
765.122	12250.24
765.458	12354.42
765.795	12532.04
766.131	12703.11
766.467	12912.6
766.804	13014.52
767.14	13123.89
767.476	13264.68
767.812	13362.98
768.148	13509.42
768.485	13669.64
768.821	13673.48
769.157	13925.45
769.492	14027.82
769.828	14223.07
770.164	14205.67
770.5	14463.74
770.836	14544.87
771.171	14556.85
771.507	14726.11
771.842	14793.68
772.178	14941.92
772.513	15031.19
772.849	15129.04
773.184	15124.97
773.519	15225.76
773.855	15322.48
774.19	15425.75
774.525	15481.57
774.86	15614
775.195	15752.3
775.53	15748.68
775.865	15797.04
776.2	15755.46
776.535	15839.75
776.87	15892.63
777.205	15942.58
777.539	15927.66
777.874	16128.56
778.209	16067.32
778.543	16098.05
778.878	16077.49
779.212	16285.84
779.547	16258.05
779.881	16315.9
780.215	16240.87
780.55	16329.91
780.884	16322
781.218	16326.29
781.552	16421.43
781.886	16466.86
782.22	16322.68
782.554	16392.51
782.888	16348.89
783.222	16418.95
783.556	16233.64
783.889	16481.54
784.223	16282.23
784.557	16353.86
784.89	16439.06
785.224	16418.49
785.557	16300.53
785.891	16410.81
786.224	16336.24
786.558	16389.34
786.891	16331.72
787.224	16315.67
787.557	16325.16
787.891	16362
788.224	16309.35
788.557	16314.09
788.89	16323.81
789.223	16290.36
789.556	16164.04
789.888	16345.28
790.221	16186.64
790.554	16151.84
790.887	16106.41
791.219	16017.83
791.552	16076.13
791.884	15954.78
792.217	16063.7
792.549	15994.33
792.882	15898.28
793.214	15916.14
793.546	15920.88
793.879	15845.18
794.211	15832.3
794.543	15948.68
794.875	15768.12
795.207	15884.27
795.539	15796.14
795.871	15794.1
796.203	15677.5
796.535	15593.21
796.867	15764.95
797.198	15592.98
797.53	15603.83
797.862	15513.66
798.193	15529.7
798.525	15463.27
798.856	15541.91
799.188	15315.47
799.519	15321.8
799.85	15279.09
800.182	15342.36
800.513	15331.29
800.844	15204.74
801.175	15272.99
801.506	15228.7
801.837	15132.43
802.168	15139.66
802.499	15067.57
802.83	15048.81
803.161	15008.14
803.491	15030.28
803.822	15020.11
804.153	14986.44
804.483	14829.38
804.814	14843.62
805.145	14846.11
805.475	14795.03
805.805	14767.92
806.136	14798.42
806.466	14802.72
806.796	14733.12
807.126	14626.23
807.457	14703.96
807.787	14648.15
808.117	14505.1
808.447	14528.15
808.777	14559.56
809.107	14570.86
809.436	14477.75
809.766	14429.62
810.096	14436.63
810.426	14318.21
810.755	14326.57
811.085	14353.69
811.414	14293.35
811.744	14307.59
812.073	14226.69
812.403	14140.81
812.732	14197.54
813.061	14152.11
813.39	14183.3
813.719	14035.28
814.049	14064.66
814.378	14075.05
814.707	13971.78
815.036	13952.57
815.365	13969.75
815.693	13817.43
816.022	13860.37
816.351	13889.07
816.68	13731.33
817.008	13725.01
817.337	13739.7
817.665	13686.36
817.994	13636.2
818.322	13673.48
818.651	13604.56
818.979	13623.54
819.307	13717.55
819.636	13651.34
819.964	13520.72
820.292	13583.32
820.62	13656.99
820.948	13555.75
821.276	13599.36
821.604	13600.72
821.932	13488.63
822.259	13594.61
822.587	13503.77
822.915	13508.51
823.243	13545.35
823.57	13470.1
823.898	13598
824.225	13507.16
824.553	13524.79
824.88	13557.78
825.207	13538.34
825.535	13572.69
825.862	13611.79
826.189	13508.29
826.516	13524.79
826.843	13614.73
827.17	13598.46
827.497	13568.85
827.824	13593.03
828.151	13610.21
828.478	13567.27
828.805	13697.89
829.131	13527.05
829.458	13550.55
829.785	13565.91
830.111	13545.8
830.438	13644.33
830.764	13646.82
831.09	13640.26
831.417	13570.89
831.743	13606.37
832.069	13576.54
832.395	13522.3
832.722	13553.94
833.048	13482.75
833.374	13534.73
833.7	13556.65
834.026	13513.49
834.351	13525.24
834.677	13425.35
835.003	13544.9
835.329	13476.2
835.654	13433.04
835.98	13448.18
836.306	13447.73
836.631	13399.37
836.956	13450.89
837.282	13477.78
837.607	13217.9
837.932	13332.93
838.258	13300.84
838.583	13345.36
838.908	13179.03
839.233	13309.42
839.558	13167.28
839.883	13140.84
840.208	13178.58
840.533	13168.18
840.858	13103.78
841.182	13204.12
841.507	13123.67
841.832	13084.12
842.156	13052.93
842.481	13051.58
842.805	13013.39
843.13	12936.55
843.454	12929.77
843.778	12955.31
844.103	12910.34
844.427	12957.12
844.751	12871.7
845.075	12874.18
845.399	12839.61
845.723	12691.59
846.047	12657.46
846.371	12687.07
846.695	12623.34
847.019	12571.59
847.343	12420.63
847.666	12479.62
847.99	12345.38
848.313	12354.19
848.637	12158.95
848.96	12304.93
849.284	12182
849.607	12105.61
849.931	12093.86
850.254	12032.85
850.577	11961.89
850.9	11892.74
851.223	11869.46
851.546	11898.16
851.869	11763.25
852.192	11815.23
852.515	11699.52
852.838	11641.9
853.161	11680.77
853.483	11587.66
853.806	11556.7
854.129	11557.15
854.451	11482.81
854.774	11432.41
855.096	11361.23
855.419	11365.07
855.741	11392.86
856.063	11333.66
856.385	11310.38
856.708	11261.57
857.03	11238.07
857.352	11198.75
857.674	11103.83
857.996	11067.68
858.318	11101.35
858.64	11043.27
858.961	11026.32
859.283	10932.54
859.605	10872.65
859.926	10947.23
860.248	10911.07
860.57	10838.75
860.891	10861.8
861.212	10822.03
861.534	10770.28
861.855	10781.58
862.176	10752.88
862.498	10716.27
862.819	10754.24
863.14	10736.38
863.461	10600.79
863.782	10575.26
864.103	10594.24
864.424	10599.89
864.745	10586.78
865.065	10568.71
865.386	10532.77
865.707	10513.11
866.027	10549.5
866.348	10447.35
866.668	10422.49
866.989	10420.46
867.309	10374.13
867.63	10360.35
867.95	10354.93
868.27	10366.22
868.59	10323.51
868.91	10278.77
869.23	10291.65
869.55	10187.47
869.87	10328.94
870.19	10258.88
870.51	10230.41
870.83	10249.62
871.15	10154.48
871.469	10144.31
871.789	10254.82
872.109	10200.13
872.428	10114.71
872.748	10151.99
873.067	10102.95
873.386	10094.14
873.706	10031.54
874.025	10087.14
874.344	10036.29
874.663	10106.57
874.982	10070.64
875.301	9981.83
875.62	10004.88
875.939	10019.34
876.258	10036.74
876.577	9993.35
876.896	9947.7
877.214	9915.84
877.533	9849.18
877.852	9924.43
878.17	9876.75
878.489	9914.49
878.807	9801.04
879.125	9845.56
879.444	9831.78
879.762	9773.47
880.08	9810.31
880.398	9783.87
880.716	9829.97
881.034	9717.2
881.352	9763.3
881.67	9655.73
881.988	9627.49
882.306	9674.04
882.624	9620.03
882.941	9639.24
883.259	9519.02
883.577	9553.36
883.894	9524.89
884.212	9543.87
884.529	9515.63
884.846	9467.94
885.164	9492.8
885.481	9408.74
885.798	9416.65
886.115	9376.87
886.432	9328.96
886.75	9314.5
887.067	9361.96
887.383	9303.65
887.7	9322.18
888.017	9197.44
888.334	9246.48
888.651	9222.53
888.967	9199.93
889.284	9132.13
889.6	9145.01
889.917	9033.83
890.233	9062.3
890.55	9040.38
890.866	9024.34
891.182	8998.58
891.498	9001.97
891.815	8945.25
892.131	8868.41
892.447	8870.9
892.763	8870.44
893.079	8847.85
893.395	8808.07
893.71	8821.41
894.026	8733.27
894.342	8763.55
894.657	8591.36
894.973	8713.39
895.289	8728.53
895.604	8655.31
895.92	8559.94
896.235	8518.59
896.55	8557.23
896.865	8501.19
897.181	8480.4
897.496	8451.47
897.811	8371.7
898.126	8345.94
898.441	8363.11
898.756	8336
899.071	8270.01
899.386	8314.3
899.7	8192.95
900.015	8158.15
900.33	8091.03
900.644	8128.32
900.959	8148.2
901.273	8092.16
901.588	7945.95
901.902	7971.71
902.216	7989.11
902.531	8025.27
902.845	7950.69
903.159	7919.51
903.473	7889.45
903.787	7788.21
904.101	7754.09
904.415	7788.21
904.729	7760.87
905.042	7660.53
905.356	7755.45
905.67	7606.52
905.984	7655.79
906.297	7602.91
906.611	7542.57
906.924	7547.54
907.237	7540.99
907.551	7539.18
907.864	7419.41
908.177	7441.78
908.491	7408.79
908.804	7334.67
909.117	7318.62
909.43	7280.88
909.743	7238.4
910.056	7193.88
910.368	7225.29
910.681	7172.41
910.994	7178.06
911.307	7117.04
911.619	7067.55
911.932	7098.51
912.244	7016.93
912.557	6985.3
912.869	6929.7
913.181	6963.15
913.494	6926.99
913.806	6905.75
914.118	6875.24
914.43	6822.14
914.742	6823.04
915.054	6826.2
915.366	6748.92
915.678	6690.16
915.99	6663.05
916.302	6680.9
916.613	6608.13
916.925	6622.59
917.236	6553.9
917.548	6562.48
917.859	6570.17
918.171	6548.25
918.482	6476.61
918.794	6468.02
919.105	6427.12
919.416	6427.35
919.727	6416.27
920.038	6393
920.349	6328.36
920.66	6286.78
920.971	6279.33
921.282	6237.07
921.593	6265.09
921.903	6202.04
922.214	6237.97
922.525	6160.69
922.835	6117.3
923.146	6103.51
923.456	6117.07
923.767	6106.68
924.077	6058.99
924.387	6024.64
924.697	5954.14
925.008	5954.36
925.318	5936.06
925.628	5913.91
925.938	5892.22
926.248	5895.38
926.558	5874.37
926.867	5813.8
927.177	5785.1
927.487	5804.76
927.796	5758.21
928.106	5698.32
928.416	5665.78
928.725	5729.51
929.034	5630.53
929.344	5630.08
929.653	5656.07
929.962	5577.42
930.271	5562.06
930.581	5529.97
930.89	5519.12
931.199	5473.02
931.508	5499.23
931.817	5424.66
932.125	5456.98
932.434	5412.23
932.743	5307.15
933.051	5378.33
933.36	5298.11
933.669	5303.08
933.977	5324.1
934.286	5292.46
934.594	5288.39
934.902	5200.71
935.21	5200.03
935.519	5228.96
935.827	5142.86
936.135	5129.75
936.443	5124.55
936.751	5138.11
937.059	5111.45
937.367	5089.98
937.674	5042.52
937.982	5016.76
938.29	4963.43
938.597	5012.69
938.905	4967.27
939.213	4913.03
939.52	4892.92
939.827	4899.25
940.135	4860.61
940.442	4877.56
940.749	4855.86
941.056	4860.15
941.363	4806.82
941.67	4767.73
941.977	4778.8
942.284	4750.78
942.591	4729.31
942.898	4710.1
943.205	4727.05
943.511	4659.48
943.818	4675.3
944.125	4599.37
944.431	4634.62
944.738	4607.51
945.044	4555.76
945.35	4524.12
945.657	4513.95
945.963	4458.81
946.269	4469.88
946.575	4476.89
946.881	4469.43
947.187	4437.79
947.493	4378.13
947.799	4394.4
948.105	4357.12
948.41	4371.35
948.716	4341.07
949.022	4327.06
949.327	4320.73
949.633	4231.24
949.938	4318.7
950.244	4264.46
950.549	4205.03
950.854	4211.58
951.16	4181.98
951.465	4147.63
951.77	4161.42
952.075	4130.68
952.38	4127.29
952.685	4104.92
952.99	4048.65
953.294	4087.97
953.599	4071.02
953.904	4012.95
954.209	4005.94
954.513	4022.89
954.818	3963.46
955.122	3936.11
955.426	3948.77
955.731	3913.74
956.035	3916.68
956.339	3896.34
956.643	3873.51
956.948	3892.04
957.252	3858.37
957.556	3808.66
957.86	3774.53
958.163	3774.31
958.467	3806.85
958.771	3769.56
959.075	3741.31
959.378	3720.52
959.682	3699.96
959.985	3701.99
960.289	3663.58
960.592	3642.79
960.896	3699.06
961.199	3665.16
961.502	3624.48
961.805	3577.48
962.108	3574.54
962.411	3552.84
962.714	3518.04
963.017	3533.41
963.32	3519.4
963.623	3497.03
963.926	3526.63
964.228	3485.28
964.531	3480.53
964.833	3432.62
965.136	3434.88
965.438	3386.52
965.741	3434.43
966.043	3358.95
966.345	3341.78
966.648	3388.33
966.95	3350.82
967.252	3343.36
967.554	3352.85
967.856	3281.89
968.158	3269.24
968.46	3273.98
968.761	3271.04
969.063	3236.69
969.365	3255.23
969.666	3245.96
969.968	3195.34
970.269	3153.98
970.571	3210.25
970.872	3201.89
971.174	3158.96
971.475	3132.06
971.776	3120.99
972.077	3102.69
972.378	3131.61
972.679	3148.34
972.98	3057.94
973.281	3067.43
973.582	3027.21
973.883	3046.87
974.183	3022.46
974.484	3034.67
974.785	3011.84
975.085	2972.29
975.386	2975.23
975.686	2967.1
975.986	2952.41
976.287	2943.37
976.587	2914.9
976.887	2929.58
977.187	2880.32
977.487	2884.16
977.787	2848.23
978.087	2821.56
978.387	2868.12
978.687	2823.15
978.987	2823.37
979.286	2790.15
979.586	2779.53
979.885	2793.09
980.185	2743.83
980.484	2769.36
980.784	2756.26
981.083	2720.55
981.382	2737.27
981.682	2721.68
981.981	2700.66
982.28	2692.75
982.579	2641.68
982.878	2664.51
983.177	2653.66
983.475	2635.58
983.774	2595.36
984.073	2584.73
984.372	2585.19
984.67	2618.63
984.969	2561.91
985.267	2542.02
985.566	2524.62
985.864	2517.17
986.162	2531.63
986.461	2546.77
986.759	2504.06
987.057	2490.5
987.355	2460.67
987.653	2474.23
987.951	2460.9
988.249	2440.78
988.547	2443.72
988.844	2433.55
989.142	2426.09
989.44	2390.84
989.737	2409.6
990.035	2342.71
990.332	2370.5
990.63	2380.67
990.927	2324.18
991.224	2316.49
991.521	2316.94
991.819	2308.81
992.116	2337.06
992.413	2303.61
992.71	2270.17
993.006	2278.3
993.303	2264.29
993.6	2212.31
993.897	2218.87
994.193	2252.54
994.49	2221.13
994.787	2232.2
995.083	2208.47
995.379	2197.17
995.676	2195.82
995.972	2187.46
996.268	2144.97
996.565	2153.79
996.861	2146.33
997.157	2174.35
997.453	2133.22
997.749	2083.28
998.044	2073.11
998.34	2077.18
998.636	2027.69
998.932	2083.73
999.227	2090.51
999.523	2035.14
999.818	2019.33
1000.114	2045.54
1000.409	2013.22
1000.704	2023.85
1001	2001.02
1001.295	1954.47
1001.59	1977.52
1001.885	1993.11
1002.18	1990.17
1002.475	1954.47
1002.77	1955.37
1003.065	1936.16
1003.359	1897.75
1003.654	1886
1003.949	1880.35
1004.243	1865.88
1004.538	1869.72
1004.832	1876.5
1005.127	1862.04
1005.421	1821.14
1005.715	1828.37
1006.009	1795.83
1006.304	1783.63
1006.598	1785.43
1006.892	1775.04
1007.186	1762.16
1007.48	1788.6
1007.773	1760.8
1008.067	1754.7
1008.361	1733.46
1008.655	1726.45
1008.948	1734.59
1009.242	1672.89
1009.535	1718.54
1009.829	1703.63
1010.122	1667.47
1010.415	1661.59
1010.708	1667.92
1011.001	1643.74
1011.295	1645.32
1011.588	1657.53
1011.881	1630.41
1012.173	1592.44
1012.466	1613.23
1012.759	1593.57
1013.052	1588.15
1013.344	1557.42
1013.637	1563.97
1013.93	1573.69
1014.222	1548.15
1014.514	1551.32
1014.807	1545.67
1015.099	1550.64
1015.391	1537.3
1015.683	1502.28
1015.976	1495.72
1016.268	1473.13
1016.56	1486.01
1016.851	1442.62
1017.143	1460.7
1017.435	1460.02
1017.727	1434.93
1018.018	1448.04
1018.31	1442.84
1018.602	1418.66
1018.893	1415.5
1019.185	1389.96
1019.476	1389.06
1019.767	1391.32
1020.058	1382.28
1020.35	1353.58
1020.641	1342.06
1020.932	1339.57
1021.223	1320.13
1021.514	1354.71
1021.804	1324.65
1022.095	1313.81
1022.386	1309.97
1022.677	1306.12
1022.967	1280.36
1023.258	1290.53
1023.548	1271.1
1023.839	1256.63
1024.129	1255.05
1024.419	1273.13
1024.709	1228.84
1025	1192.23
1025.29	1227.48
1025.58	1202.17
1025.87	1225
1026.16	1188.84
1026.449	1186.8
1026.739	1201.04
1027.029	1192.23
1027.319	1150.87
1027.608	1165.56
1027.898	1162.4
1028.187	1144.32
1028.477	1161.95
1028.766	1124.89
1029.055	1135.28
1029.344	1105.9
1029.634	1115.39
1029.923	1143.19
1030.212	1102.51
1030.501	1112
1030.79	1082.17
1031.078	1086.69
1031.367	1079.24
1031.656	1053.02
1031.945	1053.48
1032.233	1031.55
1032.522	1047.83
1032.81	1040.37
1033.099	1039.46
1033.387	1003.98
1033.675	1013.48
1033.963	1011.67
1034.251	1009.63
1034.54	978.22
1034.828	968.96
1035.116	1003.76
1035.403	991.1
1035.691	969.86
1035.979	965.79
1036.267	959.24
1036.554	965.12
1036.842	957.43
1037.129	958.56
1037.417	936.87
1037.704	932.57
1037.992	930.31
1038.279	930.77
1038.566	926.25
1038.853	926.25
1039.14	926.25
