Data from hue_240_FLMS001491_00008.txt Node
Date: Tue Feb 07 16:34:59 GMT 2017
User: dcchb
Spectrometer: FLMS00149
Trigger mode: 0
Integration Time (sec): 2.000000E-2
Scans to average: 10
Electric dark correction enabled: true
Nonlinearity correction enabled: false
Boxcar width: 0
XAxis mode: Wavelengths
Number of Pixels in Spectrum: 2048
>>>>>Begin Spectral Data<<<<<
341.393	-15.75
341.776	-15.75
342.16	-15.75
342.543	-52.36
342.927	-68.4
343.31	-62.53
343.693	-89.19
344.077	-81.96
344.46	-50.1
344.843	-56.43
345.226	-32.47
345.61	-40.38
345.993	-6.03
346.376	0.52
346.759	8.43
347.142	22.89
347.525	34.87
347.908	67.41
348.291	52.72
348.674	114.64
349.057	117.58
349.44	98.6
349.823	147.64
350.206	145.6
350.588	188.99
350.971	199.16
351.354	233.28
351.737	226.05
352.119	224.25
352.502	248.88
352.884	268.09
353.267	265.83
353.65	289.33
354.032	284.81
354.414	292.94
354.797	283.68
355.179	316.22
355.562	313.51
355.944	299.05
356.326	321.87
356.709	327.97
357.091	320.97
357.473	320.74
357.855	325.94
358.238	328.42
358.62	322.1
359.002	312.6
359.384	328.42
359.766	336.11
360.148	328.88
360.53	312.83
360.912	306.5
361.294	325.26
361.676	304.47
362.057	335.88
362.439	332.49
362.821	319.84
363.203	307.86
363.584	321.87
363.966	325.03
364.348	318.48
364.729	299.27
365.111	303.11
365.493	314.19
365.874	287.52
366.256	302.44
366.637	305.6
367.019	315.32
367.4	301.98
367.781	308.99
368.163	299.05
368.544	302.21
368.925	287.07
369.306	300.63
369.688	289.1
370.069	304.24
370.45	311.7
370.831	306.73
371.212	304.02
371.593	299.95
371.974	301.98
372.355	310.57
372.736	310.12
373.117	294.07
373.498	286.62
373.879	313.73
374.26	308.09
374.641	330.01
375.021	319.84
375.402	299.27
375.783	308.54
376.163	325.94
376.544	295.88
376.925	330.91
377.305	336.78
377.686	340.4
378.066	323.9
378.447	299.05
378.827	329.55
379.208	312.15
379.588	323.23
379.968	328.42
380.349	332.27
380.729	330.01
381.109	318.71
381.489	331.36
381.87	323.45
382.25	313.06
382.63	350.57
383.01	342.89
383.39	319.61
383.77	328.2
384.15	335.43
384.53	333.17
384.91	333.62
385.29	357.12
385.67	352.38
386.049	347.18
386.429	337.24
386.809	353.96
387.189	343.79
387.568	359.16
387.948	343.56
388.328	335.43
388.707	336.33
389.087	356.45
389.466	374.3
389.846	359.16
390.225	344.02
390.605	356.22
390.984	350.34
391.363	345.6
391.743	364.35
392.122	344.47
392.501	373.85
392.881	373.62
393.26	382.66
393.639	372.72
394.018	366.16
394.397	374.07
394.776	359.61
395.155	376.56
395.534	379.27
395.913	360.29
396.292	379.04
396.671	381.53
397.05	381.53
397.429	391.47
397.808	393.05
398.186	365.26
398.565	386.05
398.944	389.44
399.323	401.42
399.701	391.02
400.08	409.33
400.458	405.71
400.837	406.39
401.215	408.2
401.594	394.18
401.972	414.52
402.351	406.39
402.729	411.13
403.107	415.65
403.486	418.82
403.864	407.29
404.242	421.3
404.62	419.04
404.999	451.36
405.377	432.83
405.755	431.7
406.133	438.48
406.511	445.03
406.889	451.36
407.267	454.07
407.645	451.81
408.023	455.88
408.401	469.89
408.779	478.25
409.156	480.28
409.534	481.41
409.912	489.1
410.29	507.85
410.667	476.67
411.045	493.16
411.422	490.45
411.8	507.63
412.178	513.5
412.555	526.61
412.933	533.39
413.31	525.71
413.687	549.66
414.065	547.63
414.442	545.14
414.819	539.94
415.197	572.26
415.574	592.6
415.951	572.94
416.328	568.87
416.705	601.86
417.082	602.09
417.46	611.35
417.837	619.26
418.214	610.9
418.591	616.78
418.967	630.56
419.344	620.85
419.721	664.46
420.098	652.71
420.475	646.16
420.852	636.21
421.228	677.79
421.605	676.44
421.982	683.22
422.358	668.53
422.735	708.07
423.111	734.06
423.488	740.39
423.864	739.71
424.241	732.03
424.617	754.85
424.994	739.03
425.37	779.71
425.746	764.57
426.123	766.15
426.499	791.46
426.875	802.54
427.251	814.74
427.627	837.79
428.003	849.31
428.379	836.88
428.756	844.57
429.132	833.04
429.507	860.16
429.883	874.4
430.259	888.41
430.635	892.25
431.011	864.91
431.387	894.96
431.763	933.15
432.138	924.57
432.514	959.14
432.89	960.27
433.265	974.51
433.641	969.99
434.016	1008.41
434.392	1025.35
434.767	1028.52
435.143	1043.88
435.518	1062.64
435.894	1061.29
436.269	1096.99
436.644	1114.84
437.02	1097.67
437.395	1139.7
437.77	1140.83
438.145	1180.38
438.52	1172.92
438.895	1203.88
439.271	1217.89
439.646	1215.86
440.021	1244.33
440.395	1226.48
440.77	1225.12
441.145	1255.4
441.52	1286.82
441.895	1274.39
442.27	1311.22
442.645	1279.13
443.019	1328.4
443.394	1337.44
443.769	1341.96
444.143	1351
444.518	1383.09
444.892	1373.59
445.267	1392.58
445.641	1390.32
446.016	1379.92
446.39	1404.1
446.764	1424.67
447.139	1394.84
447.513	1456.98
447.887	1449.75
448.262	1445
448.636	1482.74
449.01	1505.12
449.384	1496.98
449.758	1493.82
450.132	1514.83
450.506	1554.83
450.88	1530.2
451.254	1532.69
451.628	1526.13
452.002	1598.45
452.376	1589.86
452.75	1614.27
453.123	1615.62
453.497	1631.44
453.871	1629.18
454.244	1644.1
454.618	1679.12
454.992	1694.26
455.365	1722.29
455.739	1755.73
456.112	1743.3
456.486	1783.3
456.859	1774.26
457.232	1806.58
457.606	1802.74
457.979	1797.09
458.352	1881.15
458.725	1878.21
459.099	1887.03
459.472	1941.71
459.845	1918.21
460.218	1956.4
460.591	1947.59
460.964	1955.05
461.337	2049.06
461.71	2058.55
462.083	2124.08
462.456	2059.9
462.829	2047.02
463.201	2145.78
463.574	2130.86
463.947	2143.29
464.32	2212.89
464.692	2190.07
465.065	2233.91
465.438	2255.15
465.81	2235.27
466.183	2299.22
466.555	2352.33
466.928	2330.18
467.3	2364.08
467.672	2379.44
468.045	2470.97
468.417	2432.1
468.789	2487.46
469.161	2490.85
469.534	2532.66
469.906	2576.27
470.278	2591.87
470.65	2611.75
471.022	2643.16
471.394	2698.08
471.766	2722.03
472.138	2730.62
472.51	2788.25
472.882	2873.44
473.253	2832.54
473.625	2900.33
473.997	2948.02
474.369	2945.08
474.74	2978.75
475.112	3047.45
475.484	3071.18
475.855	3156.37
476.227	3166.09
476.598	3246.09
476.97	3262.13
477.341	3310.04
477.713	3345.52
478.084	3363.15
478.455	3472.52
478.827	3459.64
479.198	3556.36
479.569	3538.28
479.94	3617.38
480.311	3646.53
480.682	3727.43
481.053	3783.7
481.424	3879.29
481.795	3884.94
482.166	3953.64
482.537	3962.68
482.908	4032.51
483.279	4085.61
483.65	4140.3
484.021	4203.12
484.391	4259.85
484.762	4251.48
485.133	4281.77
485.503	4339.84
485.874	4399.73
486.244	4488.09
486.615	4539.61
486.985	4592.94
487.356	4677.91
487.726	4705.48
488.097	4804.24
488.467	4763.79
488.837	4864.12
489.207	4900.05
489.578	4998.58
489.948	5045.81
490.318	5087.62
490.688	5113.16
491.058	5136.21
491.428	5203.78
491.798	5275.64
492.168	5380.27
492.538	5312.02
492.908	5383.21
493.278	5474.05
493.648	5485.35
494.017	5556.31
494.387	5570.55
494.757	5625.46
495.126	5653.71
495.496	5647.15
495.866	5680.15
496.235	5708.85
496.605	5780.03
496.974	5817.09
497.344	5823.42
497.713	5932.57
498.082	5859.58
498.452	5942.74
498.821	5972.79
499.19	6010.53
499.559	6013.7
499.928	6087.59
500.298	6093.7
500.667	6126.92
501.036	6108.61
501.405	6182.96
501.774	6156.29
502.143	6219.34
502.512	6237.19
502.88	6277.65
503.249	6275.16
503.618	6296.4
503.987	6283.52
504.356	6348.15
504.724	6303.86
505.093	6373.46
505.462	6418.88
505.83	6470.86
506.199	6450.75
506.567	6508.15
506.936	6461.14
507.304	6627.47
507.672	6635.15
508.041	6608.03
508.409	6654.58
508.777	6687.8
509.145	6685.09
509.514	6677.41
509.882	6737.75
510.25	6716.96
510.618	6764.41
510.986	6773.23
511.354	6812.09
511.722	6861.13
512.09	6919.44
512.458	6797.18
512.826	6896.61
513.193	6904.97
513.561	6894.8
513.929	6926.89
514.297	7012.54
514.664	6974.8
515.032	6956.27
515.4	7034.69
515.767	7050.96
516.135	7048.25
516.502	6984.07
516.869	7153.78
517.237	7137.06
517.604	7044.86
517.972	7203.5
518.339	7155.14
518.706	7187.68
519.073	7159.2
519.44	7222.93
519.808	7259.77
520.175	7174.57
520.542	7239.43
520.909	7276.72
521.276	7326.21
521.643	7293.66
522.009	7281.46
522.376	7331.63
522.743	7296.38
523.11	7422.47
523.477	7464.96
523.843	7461.12
524.21	7462.93
524.577	7566.2
524.943	7523.04
525.31	7587.67
525.676	7534.79
526.043	7532.75
526.409	7547.67
526.776	7656.59
527.142	7648.91
527.508	7658.85
527.874	7664.5
528.241	7658.4
528.607	7681.22
528.973	7697.5
529.339	7659.08
529.705	7738.4
530.071	7758.06
530.437	7781.33
530.803	7838.73
531.169	7862.69
531.535	7710.38
531.901	7735.46
532.267	7802.35
532.632	7800.32
532.998	7802.13
533.364	7814.33
533.73	7797.38
534.095	7752.18
534.461	7833.54
534.826	7840.77
535.192	7830.6
535.557	7868.11
535.923	7829.02
536.288	7776.82
536.653	7863.37
537.019	7788.57
537.384	7822.24
537.749	7786.08
538.114	7840.09
538.479	7780.21
538.845	7842.8
539.21	7786.98
539.575	7806.65
539.94	7789.24
540.305	7838.51
540.67	7828.34
541.034	7805.06
541.399	7766.19
541.764	7776.59
542.129	7694.78
542.494	7814.55
542.858	7766.87
543.223	7716.03
543.587	7786.08
543.952	7682.35
544.316	7741.11
544.681	7655.01
545.045	7750.38
545.41	7691.17
545.774	7728
546.138	7673.32
546.503	7703.14
546.867	7718.74
547.231	7650.04
547.595	7721
547.959	7738.17
548.324	7654.78
548.688	7646.2
549.052	7648.46
549.416	7660.21
549.779	7657.27
550.143	7641.23
550.507	7616.37
550.871	7594.9
551.235	7600.55
551.599	7623.6
551.962	7703.14
552.326	7624.73
552.689	7690.94
553.053	7612.53
553.417	7600.77
553.78	7689.36
554.143	7595.8
554.507	7609.81
554.87	7621.57
555.234	7664.95
555.597	7646.42
555.96	7672.86
556.323	7688.91
556.686	7674.9
557.05	7631.96
557.413	7717.61
557.776	7624.73
558.139	7627.21
558.502	7695.91
558.865	7682.35
559.228	7727.1
559.59	7669.25
559.953	7691.62
560.316	7727.78
560.679	7742.92
561.041	7761.67
561.404	7782.69
561.767	7781.11
562.129	7782.24
562.492	7909.69
562.854	7814.78
563.217	7812.07
563.579	7840.09
563.941	7882.35
564.304	7947.66
564.666	7910.15
565.028	7938.84
565.39	7890.48
565.753	7954.44
566.115	7977.26
566.477	7981.1
566.839	8022.46
567.201	8009.13
567.563	8052.97
567.925	8102
568.287	8060.42
568.648	8103.59
569.01	8117.15
569.372	8167.54
569.734	8158.5
570.095	8200.53
570.457	8180.42
570.819	8185.17
571.18	8223.36
571.542	8297.48
571.903	8249.8
572.265	8255.45
572.626	8302.9
572.987	8288.44
573.349	8354.65
573.71	8287.54
574.071	8372.51
574.432	8374.54
574.794	8459.96
575.155	8459.96
575.516	8425.84
575.877	8455.67
576.238	8531.82
576.599	8528.89
576.96	8577.02
577.32	8543.35
577.681	8525.5
578.042	8630.35
578.403	8591.03
578.763	8617.92
579.124	8623.57
579.485	8677.13
579.845	8694.31
580.206	8630.58
580.566	8634.65
580.927	8669.67
581.287	8740.63
581.648	8654.08
582.008	8762.55
582.368	8785.6
582.728	8714.87
583.089	8690.46
583.449	8797.58
583.809	8793.51
584.169	8777.92
584.529	8786.96
584.889	8803.91
585.249	8773.63
585.609	8772.72
585.969	8791.48
586.329	8857.24
586.688	8833.28
587.048	8865.6
587.408	8836.45
587.768	8843.45
588.127	8864.92
588.487	8841.65
588.846	8936.78
589.206	8844.13
589.565	8904.47
589.925	8934.52
590.284	8914.19
590.643	8946.73
591.003	9018.59
591.362	8977.91
591.721	8979.5
592.08	8987.86
592.44	9048.42
592.799	9075.76
593.158	8947.63
593.517	9024.92
593.876	9083.67
594.235	9080.28
594.593	9053.17
594.952	9104.69
595.311	9054.07
595.67	9113.5
596.029	9109.44
596.387	9069.66
596.746	9255.42
597.104	9093.39
597.463	9105.14
597.822	9204.12
598.18	9128.64
598.538	9121.19
598.897	9169.32
599.255	9105.14
599.613	9215.2
599.972	9195.99
600.33	9155.76
600.688	9171.58
601.046	9220.39
601.404	9210
601.762	9218.36
602.12	9264.46
602.478	9209.32
602.836	9293.39
603.194	9317.57
603.552	9211.13
603.91	9180.39
604.268	9264.91
604.625	9203.67
604.983	9243.22
605.341	9182.2
605.698	9260.39
606.056	9318.47
606.413	9247.29
606.771	9320.28
607.128	9316.21
607.485	9275.53
607.843	9337.9
608.2	9298.58
608.557	9311.01
608.914	9363.21
609.272	9348.3
609.629	9346.72
609.986	9358.92
610.343	9367.06
610.7	9415.19
611.057	9406.38
611.414	9377.68
611.771	9444.57
612.127	9423.1
612.484	9379.26
612.841	9434.17
613.198	9431.91
613.554	9440.27
613.911	9534.28
614.267	9425.13
614.624	9494.96
614.98	9488.86
615.337	9465.58
615.693	9527.28
616.05	9508.3
616.406	9579.48
616.762	9479.37
617.118	9540.38
617.475	9506.49
617.831	9547.84
618.187	9547.39
618.543	9551.46
618.899	9559.82
619.255	9601.63
619.611	9573.83
619.967	9575.19
620.323	9693.83
620.678	9599.59
621.034	9622.42
621.39	9593.26
621.746	9604.34
622.101	9684.56
622.457	9514.17
622.812	9621.96
623.168	9710.1
623.523	9600.27
623.879	9640.27
624.234	9621.29
624.589	9638.46
624.945	9550.78
625.3	9582.19
625.655	9624.22
626.01	9560.05
626.365	9664.9
626.72	9590.78
627.075	9638.46
627.43	9623.77
627.785	9612.7
628.14	9619.03
628.495	9572.02
628.85	9548.29
629.205	9516.2
629.559	9638.69
629.914	9598.01
630.269	9505.13
630.623	9494.74
630.978	9515.3
631.332	9505.81
631.687	9600.27
632.041	9534.28
632.396	9553.27
632.75	9429.2
633.104	9483.21
633.459	9444.34
633.813	9414.06
634.167	9402.08
634.521	9457.68
634.875	9441.18
635.229	9440.5
635.583	9396.43
635.937	9372.71
636.291	9414.51
636.645	9451.12
636.999	9286.61
637.352	9368.41
637.706	9315.31
638.06	9331.8
638.413	9331.8
638.767	9348.75
639.121	9323.67
639.474	9223.78
639.828	9257
640.181	9292.26
640.534	9274.85
640.888	9219.94
641.241	9220.85
641.594	9257.23
641.947	9235.08
642.301	9223.78
642.654	9234.86
643.007	9162.54
643.36	9194.86
643.713	9199.83
644.066	9167.74
644.419	9177.91
644.771	9078.25
645.124	9000.29
645.477	8996.9
645.83	8946.95
646.182	8870.12
646.535	8840.74
646.888	8850.69
647.24	8819.05
647.593	8872.83
647.945	8905.15
648.298	8829.44
648.65	8820.4
649.002	8747.64
649.355	8839.84
649.707	8895.2
650.059	8912.38
650.411	8959.38
650.763	8995.99
651.115	8988.99
651.467	9071.92
651.819	9028.08
652.171	9038.93
652.523	8981.3
652.875	8980.63
653.227	8972.49
653.578	9011.81
653.93	8978.59
654.282	8916.45
654.633	8987.18
654.985	8948.76
655.337	8972.72
655.688	9011.36
656.039	9043.22
656.391	8923.9
656.742	8997.8
657.094	9001.19
657.445	9064.69
657.796	9029.89
658.147	8945.82
658.498	8945.6
658.849	9050.68
659.2	8991.7
659.551	8991.25
659.902	8949.44
660.253	8986.05
660.604	8979.5
660.955	8976.78
661.306	8967.07
661.656	8954.86
662.007	9014.3
662.358	8939.04
662.708	8993.05
663.059	9033.05
663.409	8885.71
663.76	8948.31
664.11	8951.93
664.461	8979.5
664.811	8963.68
665.161	8986.5
665.511	8876.45
665.862	8980.17
666.212	8974.3
666.562	8937.91
666.912	8941.76
667.262	8973.62
667.612	9061.3
667.962	8960.74
668.312	8908.54
668.662	9004.58
669.011	8998.93
669.361	8955.77
669.711	8904.02
670.06	8991.25
670.41	8948.99
670.76	8867.63
671.109	8935.65
671.459	8922.55
671.808	8918.25
672.157	8892.94
672.507	8903.57
672.856	8869.89
673.205	8905.83
673.554	8881.19
673.904	8867.41
674.253	8908.54
674.602	8854.3
674.951	8768.2
675.3	8668.54
675.649	8782.44
675.998	8809.1
676.346	8884.36
676.695	8888.88
677.044	8810.69
677.393	8842.78
677.741	8830.8
678.09	8858.37
678.438	8810.23
678.787	8789.22
679.135	8763.68
679.484	8658.6
679.832	8758.26
680.181	8726.85
680.529	8721.88
680.877	8770.91
681.225	8675.1
681.573	8718.94
681.922	8619.28
682.27	8674.64
682.618	8596.45
682.966	8574.08
683.314	8596.23
683.661	8567.08
684.009	8539.51
684.357	8493.41
684.705	8525.5
685.053	8574.99
685.4	8504.25
685.748	8417.93
686.095	8480.53
686.443	8394.2
686.79	8450.92
687.138	8448.66
687.485	8384.93
687.832	8317.59
688.18	8391.49
688.527	8330.93
688.874	8318.95
689.221	8293.19
689.568	8205.05
689.915	8246.41
690.262	8264.49
690.609	8179.97
690.956	8175.67
691.303	8233.75
691.65	8093.42
691.997	8121.44
692.344	8066.07
692.69	8045.96
693.037	8106.75
693.383	8046.64
693.73	8037.15
694.077	7983.14
694.423	7928.68
694.769	7887.32
695.116	7855.68
695.462	7912.4
695.808	7839.86
696.155	7872.86
696.501	7769.58
696.847	7799.64
697.193	7714.67
697.539	7747.21
697.885	7663.6
698.231	7650.49
698.577	7660.89
698.923	7611.4
699.269	7618.4
699.614	7561.68
699.96	7522.36
700.306	7521.45
700.651	7471.06
700.997	7425.19
701.342	7453.89
701.688	7410.95
702.033	7384.06
702.379	7362.14
702.724	7357.84
703.069	7387.67
703.415	7298.64
703.76	7271.07
704.105	7272.42
704.45	7280.56
704.795	7201.46
705.14	7194.46
705.485	7151.3
705.83	7163.95
706.175	7149.49
706.52	7118.98
706.865	7080.79
707.209	7052.09
707.554	7042.82
707.899	7061.58
708.243	6992.43
708.588	6982.71
708.932	6925.99
709.277	6942.94
709.621	6928.02
709.966	6941.13
710.31	6919.21
710.654	6864.75
710.998	6872.66
711.342	6922.15
711.687	6837.63
712.031	6821.36
712.375	6800.12
712.719	6837.86
713.063	6756.28
713.407	6790.63
713.75	6765.99
714.094	6789.04
714.438	6738.65
714.782	6750.63
715.125	6683.74
715.469	6732.55
715.812	6674.02
716.156	6584.53
716.499	6674.02
716.843	6678.31
717.186	6625.66
717.53	6648.03
717.873	6669.73
718.216	6592.67
718.559	6571.65
718.902	6568.94
719.246	6551.54
719.589	6575.26
719.932	6550.63
720.275	6562.61
720.617	6552.89
720.96	6470.63
721.303	6513.12
721.646	6469.05
721.989	6529.39
722.331	6519.45
722.674	6486.91
723.016	6453.69
723.359	6460.01
723.701	6483.97
724.044	6462.27
724.386	6465.44
724.729	6462.05
725.071	6447.81
725.413	6370.75
725.755	6401.94
726.097	6406
726.439	6384.31
726.782	6360.36
727.124	6387.02
727.465	6355.61
727.807	6335.72
728.149	6353.8
728.491	6338.66
728.833	6395.83
729.175	6378.66
729.516	6356.74
729.858	6339.56
730.199	6396.74
730.541	6355.16
730.882	6329.4
731.224	6392.67
731.565	6329.62
731.906	6347.25
732.248	6316.74
732.589	6347.25
732.93	6295.5
733.271	6324.2
733.612	6319.45
733.953	6357.64
734.294	6310.64
734.635	6312.9
734.976	6295.5
735.317	6265.67
735.658	6297.31
735.999	6351.09
736.339	6290.75
736.68	6321.94
737.021	6301.15
737.361	6309.51
737.702	6331.43
738.042	6331.2
738.383	6282.84
738.723	6304.31
739.063	6320.81
739.404	6327.59
739.744	6364.42
740.084	6310.64
740.424	6364.2
740.764	6372.33
741.104	6376.4
741.444	6340.24
741.784	6322.84
742.124	6389.96
742.464	6376.4
742.804	6342.5
743.143	6399
743.483	6399.22
743.823	6402.16
744.162	6382.73
744.502	6477.64
744.841	6509.73
745.181	6558.32
745.52	6494.36
745.86	6528.94
746.199	6543.85
746.538	6580.91
746.877	6566.9
747.216	6642.83
747.556	6628.14
747.895	6704.75
748.234	6647.58
748.573	6675.15
748.911	6725.54
749.25	6772.32
749.589	6779.33
749.928	6845.77
750.267	6881.7
750.605	6914.92
750.944	6907.91
751.283	7038.3
751.621	7040.11
751.96	7114.01
752.298	7125.53
752.636	7212.99
752.975	7278.3
753.313	7307.9
753.651	7401.23
753.989	7469.25
754.327	7474.9
754.666	7545.41
755.004	7676.25
755.342	7751.05
755.679	7826.31
756.017	7802.58
756.355	8008.67
756.693	8060.2
757.031	8177.03
757.368	8143.81
757.706	8261.32
758.044	8357.59
758.381	8506.51
758.719	8587.87
759.056	8665.83
759.394	8780.63
759.731	8766.62
760.068	8894.3
760.405	8984.69
760.743	9096.78
761.08	9224.69
761.417	9254.97
761.754	9362.99
762.091	9536.32
762.428	9622.64
762.765	9691.79
763.102	9823.09
763.438	9922.52
763.775	9902.41
764.112	10030.09
764.449	10157.54
764.785	10311.44
765.122	10343.98
765.458	10386.69
765.795	10562.05
766.131	10577.87
766.467	10690.19
766.804	10674.59
767.14	10746.91
767.476	10887.02
767.812	10963.85
768.148	11045.66
768.485	11046.33
768.821	11120.46
769.157	11197.74
769.492	11287.01
769.828	11320.9
770.164	11323.16
770.5	11382.37
770.836	11510.28
771.171	11476.61
771.507	11514.57
771.842	11522.71
772.178	11633.89
772.513	11676.6
772.849	11718.41
773.184	11691.06
773.519	11828.01
773.855	11794.11
774.19	11818.74
774.525	11811.96
774.86	11993.43
775.195	12029.81
775.53	12017.61
775.865	11966.31
776.2	11992.98
776.535	11985.29
776.87	11947.78
777.205	11976.25
777.539	11971.28
777.874	12014.9
778.209	11976.03
778.543	11940.1
778.878	11959.98
779.212	12078.4
779.547	11982.81
779.881	12138.96
780.215	12010.83
780.55	12105.06
780.884	12029.36
781.218	12082.92
781.552	12058.96
781.886	12036.82
782.22	12010.83
782.554	12050.6
782.888	11872.53
783.222	11920.89
783.556	11979.87
783.889	11910.72
784.223	11886.09
784.557	11875.69
784.89	11857.61
785.224	11822.13
785.557	11829.36
785.891	11788.91
786.224	11851.51
786.558	11837.5
786.891	11768.35
787.224	11644.28
787.557	11711.85
787.891	11673.89
788.224	11652.65
788.557	11635.02
788.89	11650.61
789.223	11687.45
789.556	11550.5
789.888	11558.64
790.221	11539.2
790.554	11504.63
790.887	11476.83
791.219	11448.36
791.552	11496.49
791.884	11451.97
792.217	11359.32
792.549	11388.25
792.882	11317.29
793.214	11340.56
793.546	11364.97
793.879	11327
794.211	11196.61
794.543	11202.94
794.875	11204.07
795.207	11237.06
795.539	11194.8
795.871	11139.89
796.203	11116.61
796.535	11073.45
796.867	11116.84
797.198	11026.67
797.53	11080.23
797.862	10992.78
798.193	10993
798.525	11016.05
798.856	10933.79
799.188	10850.18
799.519	10858.77
799.85	10751.88
800.182	10833.46
800.513	10846.34
800.844	10691.77
801.175	10734.25
801.506	10694.48
801.837	10779
802.168	10642.28
802.499	10700.35
802.83	10675.27
803.161	10635.95
803.491	10579.68
803.822	10590.98
804.153	10585.78
804.483	10484.99
804.814	10480.92
805.145	10405.22
805.475	10426.46
805.805	10409.51
806.136	10382.17
806.466	10315.96
806.796	10306.47
807.126	10266.92
807.457	10273.47
807.787	10266.92
808.117	10236.86
808.447	10200.48
808.777	10203.87
809.107	10205.23
809.436	10184.21
809.766	10164.55
810.096	10072.12
810.426	10069.18
810.755	10068.28
811.085	10078.45
811.414	10045.23
811.744	9977.21
812.073	10039.58
812.403	9930.2
812.732	9815.86
813.061	9896.99
813.39	9875.74
813.719	9875.07
814.049	9874.84
814.378	9850.43
814.707	9756.42
815.036	9720.94
815.365	9787.84
815.693	9713.26
816.022	9654.51
816.351	9680.04
816.68	9663.77
817.008	9672.81
817.337	9486.37
817.665	9550.1
817.994	9628.07
818.322	9572.93
818.651	9480.73
818.979	9517.56
819.307	9558.01
819.636	9509.88
819.964	9399.37
820.292	9477.34
820.62	9492.7
820.948	9460.84
821.276	9444.57
821.604	9407.05
821.932	9487.73
822.259	9529.31
822.587	9428.07
822.915	9462.87
823.243	9425.13
823.57	9438.01
823.898	9433.04
824.225	9421.74
824.553	9470.56
824.88	9390.11
825.207	9435.53
825.535	9420.84
825.862	9433.04
826.189	9410.44
826.516	9480.73
826.843	9465.13
827.17	9499.03
827.497	9416.77
827.824	9475.3
828.151	9473.49
828.478	9474.62
828.805	9483.66
829.131	9430.33
829.458	9449.77
829.785	9422.2
830.111	9450.9
830.438	9496.32
830.764	9511.46
831.09	9483.44
831.417	9408.18
831.743	9483.44
832.069	9381.29
832.395	9405.02
832.722	9461.74
833.048	9396.66
833.374	9470.1
833.7	9412.25
834.026	9378.58
834.351	9418.81
834.677	9327.28
835.003	9407.73
835.329	9325.02
835.654	9312.59
835.98	9309.2
836.306	9319.6
836.631	9354.17
836.956	9310.33
837.282	9334.06
837.607	9266.95
837.932	9226.04
838.258	9276.89
838.583	9237.57
838.908	9173.39
839.233	9237.12
839.558	9151.69
839.883	9099.72
840.208	9166.61
840.533	9111.92
840.858	9178.13
841.182	9081.64
841.507	9131.13
841.832	9045.93
842.156	9059.72
842.481	9055.2
842.805	8994.64
843.13	9050
843.454	8965.03
843.778	8965.03
844.103	8937.69
844.427	8955.54
844.751	8886.39
845.075	8941.3
845.399	8919.61
845.723	8774.76
846.047	8816.11
846.371	8772.04
846.695	8767.98
847.019	8763
847.343	8706.51
847.666	8576.34
847.99	8633.06
848.313	8587.64
848.637	8605.95
848.96	8599.17
849.284	8459.51
849.607	8471.49
849.931	8394.88
850.254	8357.82
850.577	8390.81
850.9	8332.96
851.223	8250.7
851.546	8149.69
851.869	8232.4
852.192	8242.34
852.515	8171.16
852.838	8122.57
853.161	8101.33
853.483	8117.37
853.806	8089.58
854.129	8068.56
854.451	7995.11
854.774	7998.28
855.096	8020.2
855.419	7926.42
855.741	7878.28
856.063	7859.52
856.385	7839.86
856.708	7787.44
857.03	7778.17
857.352	7842.8
857.674	7745.86
857.996	7729.36
858.318	7660.66
858.64	7709.7
858.961	7669.02
859.283	7627.44
859.605	7585.86
859.926	7616.37
860.248	7624.05
860.57	7555.8
860.891	7610.49
861.212	7555.13
861.534	7462.02
861.855	7506.54
862.176	7483.04
862.498	7501.57
862.819	7478.29
863.14	7421.34
863.461	7441.23
863.782	7451.85
864.103	7380.44
864.424	7347.22
864.745	7392.19
865.065	7299.09
865.386	7338.86
865.707	7340.22
866.027	7347.67
866.348	7287.11
866.668	7301.8
866.989	7320.1
867.309	7300.22
867.63	7235.13
867.95	7277.39
868.27	7184.06
868.59	7262.25
868.91	7240.33
869.23	7230.16
869.55	7123.05
869.87	7222.93
870.19	7195.36
870.51	7208.92
870.83	7173.67
871.15	7160.56
871.469	7149.49
871.789	7098.87
872.109	7092.09
872.428	7119.43
872.748	7091.64
873.067	7056.61
873.386	7104.97
873.706	7072.2
874.025	7044.18
874.344	6985.88
874.663	7080.56
874.982	7048.47
875.301	6964.63
875.62	6993.56
875.939	6906.33
876.258	6918.08
876.577	6951.53
876.896	6957.63
877.214	6940.23
877.533	6924.86
877.852	6885.09
878.17	6901.81
878.489	6910.17
878.807	6858.65
879.125	6801.25
879.444	6857.74
879.762	6832.66
880.08	6848.7
880.398	6843.96
880.716	6811.42
881.034	6794.02
881.352	6803.51
881.67	6796.28
881.988	6827.01
882.306	6749.5
882.624	6685.54
882.941	6651.65
883.259	6634.25
883.577	6640.57
883.894	6633.12
884.212	6678.54
884.529	6641.03
884.846	6690.06
885.164	6631.99
885.481	6595.6
885.798	6620.01
886.115	6569.39
886.432	6572.78
886.75	6533.68
887.067	6530.29
887.383	6467.25
887.7	6492.78
888.017	6465.66
888.334	6529.16
888.651	6479.9
888.967	6422.27
889.284	6411.2
889.6	6413.24
889.917	6388.38
890.233	6352.67
890.55	6335.27
890.866	6366.23
891.182	6283.97
891.498	6293.46
891.815	6323.75
892.131	6258.66
892.447	6247.59
892.763	6212.11
893.079	6244.43
893.395	6223.64
893.71	6185.9
894.026	6158.1
894.342	6181.6
894.657	6084.43
894.973	6100.48
895.289	6080.59
895.604	6046.47
895.92	6012.34
896.235	5993.81
896.55	6029.29
896.865	5965.79
897.181	5925.34
897.496	5959.24
897.811	5952.23
898.126	5935.96
898.441	5897.32
898.756	5829.3
899.071	5784.55
899.386	5842.63
899.7	5761.95
900.015	5764.89
900.33	5746.13
900.644	5721.73
900.959	5719.02
901.273	5716.3
901.588	5636.98
901.902	5599.02
902.216	5620.71
902.531	5613.71
902.845	5648.06
903.159	5591.56
903.473	5558.12
903.787	5559.02
904.101	5523.54
904.415	5549.53
904.729	5471.79
905.042	5396.54
905.356	5482.64
905.67	5380.49
905.984	5375.97
906.297	5423.88
906.611	5344.79
906.924	5356.31
907.237	5388.86
907.551	5301.85
907.864	5269.08
908.177	5251.68
908.491	5218.92
908.804	5197.67
909.117	5186.83
909.43	5112.25
909.743	5115.42
910.056	5138.01
910.368	5147.73
910.681	5126.94
910.994	5035.87
911.307	5104.34
911.619	5040.16
911.932	5055.98
912.244	5025.25
912.557	5005.81
912.869	4969.88
913.181	4897.79
913.494	4938.02
913.806	4877.68
914.118	4856.89
914.43	4846.72
914.742	4825.03
915.054	4825.25
915.366	4814.86
915.678	4819.6
915.99	4808.08
916.302	4784.8
916.613	4719.27
916.925	4686.28
917.236	4696.44
917.548	4666.16
917.859	4707.52
918.171	4664.13
918.482	4663.68
918.794	4590.68
919.105	4594.07
919.416	4574.64
919.727	4536
920.038	4545.26
920.349	4502.33
920.66	4511.36
920.971	4508.43
921.282	4467.98
921.593	4426.17
921.903	4428.2
922.214	4441.99
922.525	4364.02
922.835	4341.43
923.146	4314.99
923.456	4357.7
923.767	4342.1
924.077	4290.13
924.387	4272.95
924.697	4213.97
925.008	4228.66
925.318	4222.33
925.628	4183.92
925.938	4220.75
926.248	4176.01
926.558	4182.79
926.867	4165.61
927.177	4114.99
927.487	4127.42
927.796	4097.14
928.106	4086.52
928.416	4110.25
928.725	4019.4
929.034	3999.97
929.344	4056.46
929.653	3965.39
929.962	4041.32
930.271	3968.55
930.581	3969.68
930.89	3962.68
931.199	3905.96
931.508	3979.18
931.817	3887.2
932.125	3930.59
932.434	3905.96
932.743	3826.86
933.051	3825.96
933.36	3816.47
933.669	3814.43
933.977	3789.12
934.286	3762.68
934.594	3777.6
934.902	3720.88
935.21	3764.27
935.519	3734.44
935.827	3726.98
936.135	3669.8
936.443	3687.66
936.751	3693.08
937.059	3650.14
937.367	3603.59
937.674	3579.41
937.982	3628.9
938.29	3584.84
938.597	3583.48
938.905	3531.73
939.213	3551.39
939.52	3557.49
939.827	3534.89
940.135	3489.02
940.442	3504.61
940.749	3500.09
941.056	3461.9
941.363	3419.64
941.67	3467.32
941.977	3406.53
942.284	3400.66
942.591	3397.5
942.898	3384.16
943.205	3369.47
943.511	3357.5
943.818	3366.31
944.125	3332.64
944.431	3311.62
944.738	3291.96
945.044	3264.17
945.35	3258.97
945.657	3275.24
945.963	3205.18
946.269	3232.98
946.575	3234.11
946.881	3207.9
947.187	3156.82
947.493	3192.08
947.799	3167.67
948.105	3142.36
948.41	3113.66
948.716	3130.38
949.022	3085.41
949.327	3103.27
949.633	3068.92
949.938	3096.71
950.244	3080.22
950.549	3055.81
950.854	3036.83
951.16	3026.43
951.465	3008.81
951.77	2991.18
952.075	2955.93
952.38	2977.39
952.685	2950.05
952.99	2972.2
953.294	2927.68
953.599	2929.03
953.904	2927.45
954.209	2913.21
954.513	2904.63
954.818	2837.74
955.122	2862.37
955.426	2829.37
955.731	2872.99
956.035	2845.42
956.339	2813.33
956.643	2804.29
956.948	2819.66
957.252	2774.01
957.556	2790.51
957.86	2731.07
958.163	2743.73
958.467	2722.94
958.771	2736.5
959.075	2750.28
959.378	2714.35
959.682	2676.38
959.985	2699.43
960.289	2660.79
960.592	2670.06
960.896	2681.81
961.199	2671.86
961.502	2638.65
961.805	2627.8
962.108	2603.84
962.411	2568.82
962.714	2567.69
963.017	2579.89
963.32	2547.57
963.623	2553.45
963.926	2585.09
964.228	2512.09
964.531	2524.07
964.833	2530.85
965.136	2497.63
965.438	2473.45
965.741	2482.72
966.043	2441.36
966.345	2471.64
966.648	2461.47
966.95	2437.52
967.252	2453.57
967.554	2425.09
967.856	2421.25
968.158	2411.31
968.46	2384.19
968.761	2384.19
969.063	2391.87
969.365	2365.43
969.666	2355.49
969.968	2336.96
970.269	2348.03
970.571	2282.95
970.872	2309.61
971.174	2287.24
971.475	2272.78
971.776	2267.81
972.077	2266
972.378	2263.06
972.679	2257.19
972.98	2270.07
973.281	2234.81
973.582	2242.27
973.883	2232.55
974.183	2212.89
974.484	2217.64
974.785	2184.42
975.085	2195.27
975.386	2177.87
975.686	2153.91
975.986	2134.25
976.287	2114.37
976.587	2150.52
976.887	2155.95
977.187	2151.88
977.487	2126.57
977.787	2110.3
978.087	2075.04
978.387	2068.72
978.687	2077.08
978.987	2063.29
979.286	2071.43
979.586	2050.86
979.885	2045.21
980.185	2020.13
980.484	2025.55
980.784	2043.41
981.083	2014.93
981.382	2035.27
981.682	1986.23
981.981	1986.69
982.28	2012.22
982.579	1983.07
982.878	1976.97
983.177	1967.02
983.475	1938.32
983.774	1960.92
984.073	1913.47
984.372	1903.52
984.67	1911.66
984.969	1905.78
985.267	1904.2
985.566	1882.73
985.864	1888.61
986.162	1868.27
986.461	1884.99
986.759	1844.99
987.057	1843.86
987.355	1836.18
987.653	1828.72
987.951	1821.49
988.249	1837.31
988.547	1823.75
988.844	1800.93
989.142	1799.57
989.44	1792.11
989.737	1782.85
990.035	1790.98
990.332	1773.13
990.63	1760.48
990.927	1755.28
991.224	1745.79
991.521	1764.77
991.819	1735.62
992.116	1718.67
992.413	1704.66
992.71	1688.16
993.006	1725
993.303	1683.64
993.6	1693.36
993.897	1684.77
994.193	1661.27
994.49	1651.1
994.787	1656.07
995.083	1670.31
995.379	1647.94
995.676	1630.31
995.972	1619.69
996.268	1605.23
996.565	1637.77
996.861	1607.49
997.157	1570.2
997.453	1597.09
997.749	1585.11
998.044	1534.95
998.34	1565.23
998.636	1576.3
998.932	1541.5
999.227	1550.54
999.523	1544.21
999.818	1512.8
1000.114	1545.79
1000.409	1494.49
1000.704	1499.69
1001	1473.48
1001.295	1500.14
1001.59	1519.8
1001.885	1509.41
1002.18	1464.21
1002.475	1495.4
1002.77	1449.52
1003.065	1449.52
1003.359	1433.48
1003.654	1443.2
1003.949	1427.15
1004.243	1384.44
1004.538	1427.15
1004.832	1428.73
1005.127	1377.21
1005.421	1393.03
1005.715	1379.47
1006.009	1377.44
1006.304	1364.1
1006.598	1349.64
1006.892	1399.58
1007.186	1340.83
1007.48	1330.43
1007.773	1323.88
1008.067	1321.17
1008.361	1290.88
1008.655	1304.9
1008.948	1288.85
1009.242	1311.67
1009.535	1318.91
1009.829	1292.01
1010.122	1268.51
1010.415	1271
1010.708	1259.25
1011.001	1261.05
1011.295	1244.78
1011.588	1270.32
1011.881	1229.42
1012.173	1233.26
1012.466	1227.61
1012.759	1231.9
1013.052	1202.52
1013.344	1229.19
1013.637	1200.04
1013.93	1208.17
1014.222	1174.73
1014.514	1164.79
1014.807	1190.55
1015.099	1138.8
1015.391	1165.69
1015.683	1165.92
1015.976	1128.85
1016.268	1110.32
1016.56	1134.96
1016.851	1139.7
1017.143	1121.4
1017.435	1118.69
1017.727	1086.82
1018.018	1107.84
1018.31	1080.04
1018.602	1096.09
1018.893	1095.18
1019.185	1074.84
1019.476	1083.66
1019.767	1070.78
1020.058	1048.18
1020.35	1059.03
1020.641	1044.56
1020.932	1033.04
1021.223	1063.32
1021.514	1035.52
1021.804	1040.72
1022.095	1007.5
1022.386	1038.01
1022.677	1007.5
1022.967	984
1023.258	991.01
1023.548	988.97
1023.839	986.94
1024.129	976.99
1024.419	977.45
1024.709	969.99
1025	953.27
1025.29	967.95
1025.58	941.06
1025.87	946.49
1026.16	940.84
1026.449	926.83
1026.739	952.81
1027.029	920.05
1027.319	921.63
1027.608	896.77
1027.898	902.42
1028.187	911.91
1028.477	893.15
1028.766	917.11
1029.055	893.61
1029.344	930.89
1029.634	887.5
1029.923	892.93
1030.212	874.17
1030.501	849.54
1030.79	883.66
1031.078	856.55
1031.367	855.64
1031.656	845.92
1031.945	837.34
1032.233	850.44
1032.522	849.54
1032.81	842.53
1033.099	826.94
1033.387	792.59
1033.675	820.39
1033.963	816.09
1034.251	817.9
1034.54	785.13
1034.828	793.5
1035.116	789.2
1035.403	800.5
1035.691	787.85
1035.979	773.84
1036.267	780.62
1036.554	751.24
1036.842	779.49
1037.129	767.06
1037.417	727.96
1037.704	748.98
1037.992	762.99
1038.279	747.62
1038.566	737.68
1038.853	737.68
1039.14	737.68
