Data from hue_120_FLMS001491_00028.txt Node
Date: Tue Feb 07 16:59:09 GMT 2017
User: dcchb
Spectrometer: FLMS00149
Trigger mode: 0
Integration Time (sec): 2.000000E-2
Scans to average: 10
Electric dark correction enabled: true
Nonlinearity correction enabled: false
Boxcar width: 0
XAxis mode: Wavelengths
Number of Pixels in Spectrum: 2048
>>>>>Begin Spectral Data<<<<<
341.393	-10.3
341.776	-10.3
342.16	-10.3
342.543	-52.33
342.927	-58.2
343.31	-46.23
343.693	-70.41
344.077	-63.18
344.46	-62.95
344.843	-43.52
345.226	-59.56
345.61	-24.76
345.993	-27.02
346.376	-7.13
346.759	5.3
347.142	14.56
347.525	51.17
347.908	44.84
348.291	64.73
348.674	97.5
349.057	126.65
349.44	123.26
349.823	138.4
350.206	173.2
350.588	201
350.971	201.68
351.354	227.44
351.737	242.35
352.119	248.23
352.502	304.27
352.884	283.03
353.267	291.84
353.65	273.99
354.032	292.29
354.414	299.07
354.797	309.7
355.179	320.77
355.562	316.93
355.944	310.15
356.326	331.16
356.709	339.07
357.091	312.63
357.473	350.82
357.855	331.16
358.238	336.59
358.62	341.33
359.002	339.07
359.384	346.76
359.766	318.28
360.148	341.11
360.53	331.84
360.912	349.47
361.294	330.94
361.676	310.83
362.057	329.58
362.439	343.82
362.821	326.42
363.203	327.32
363.584	322.35
363.966	325.29
364.348	326.42
364.729	322.35
365.111	318.28
365.493	322.12
365.874	315.8
366.256	309.92
366.637	335.01
367.019	335.46
367.4	342.01
367.781	296.81
368.163	311.05
368.544	309.92
368.925	298.85
369.306	306.98
369.688	331.62
370.069	307.21
370.45	320.99
370.831	322.12
371.212	286.42
371.593	328.68
371.974	319.86
372.355	321.67
372.736	328.23
373.117	306.53
373.498	321.67
373.879	322.12
374.26	319.86
374.641	305.85
375.021	317.6
375.402	318.51
375.783	333.2
376.163	327.1
376.544	343.14
376.925	344.5
377.305	333.42
377.686	336.36
378.066	342.69
378.447	328.45
378.827	315.12
379.208	323.71
379.588	324.61
379.968	324.61
380.349	324.61
380.729	339.98
381.109	357.15
381.489	337.94
381.87	343.59
382.25	341.56
382.63	349.24
383.01	348.56
383.39	332.29
383.77	354.89
384.15	335.23
384.53	357.15
384.91	344.72
385.29	342.24
385.67	357.15
386.049	347.66
386.429	356.25
386.809	345.85
387.189	370.26
387.568	351.28
387.948	367.77
388.328	355.34
388.707	364.84
389.087	364.84
389.466	360.77
389.846	370.48
390.225	356.25
390.605	384.5
390.984	378.39
391.363	375.23
391.743	369.58
392.122	342.46
392.501	383.59
392.881	373.87
393.26	389.02
393.639	359.64
394.018	380.2
394.397	367.32
394.776	376.59
395.155	372.07
395.534	384.72
395.913	378.39
396.292	377.26
396.671	386.08
397.05	405.96
397.429	402.12
397.808	401.9
398.186	384.04
398.565	393.31
398.944	384.5
399.323	402.57
399.701	420.88
400.08	400.54
400.458	410.71
400.837	399.41
401.215	406.64
401.594	391.5
401.972	414.55
402.351	399.64
402.729	420.43
403.107	411.61
403.486	424.49
403.864	413.87
404.242	409.13
404.62	440.99
404.999	426.3
405.377	422.69
405.755	433.53
406.133	426.3
406.511	437.83
406.889	448.67
407.267	455
407.645	440.31
408.023	416.36
408.401	452.74
408.779	477.83
409.156	440.09
409.534	456.36
409.912	478.05
410.29	450.93
410.667	484.38
411.045	478.73
411.422	462.23
411.8	480.09
412.178	484.38
412.555	493.87
412.933	494.78
413.31	491.16
413.687	481.44
414.065	500.65
414.442	516.24
414.819	496.13
415.197	490.26
415.574	491.61
415.951	525.96
416.328	516.47
416.705	519.86
417.082	507.2
417.46	517.83
417.837	519.41
418.214	511.95
418.591	547.43
418.967	525.28
419.344	522.35
419.721	559.18
420.098	556.69
420.475	523.25
420.852	546.07
421.228	539.97
421.605	561.89
421.982	553.53
422.358	546.07
422.735	546.3
423.111	575.22
423.488	561.44
423.864	578.39
424.241	604.83
424.617	567.32
424.994	613.19
425.37	585.17
425.746	592.17
426.123	602.57
426.499	615
426.875	623.59
427.251	629.23
427.627	636.47
428.003	643.25
428.379	658.39
428.756	647.31
429.132	644.15
429.507	635.56
429.883	653.87
430.259	667.88
430.635	660.65
431.011	665.17
431.387	678.05
431.763	685.28
432.138	709.68
432.514	699.52
432.89	689.35
433.265	711.94
433.641	736.58
434.016	734.54
434.392	715.79
434.767	722.79
435.143	713.07
435.518	730.93
435.894	721.21
436.269	767.76
436.644	782.23
437.02	782.45
437.395	774.32
437.77	777.25
438.145	779.97
438.52	792.62
438.895	782.23
439.271	773.86
439.646	808.44
440.021	828.33
440.395	820.19
440.77	826.52
441.145	842.11
441.52	850.25
441.895	847.99
442.27	855.67
442.645	853.64
443.019	850.92
443.394	873.97
443.769	876.23
444.143	852.73
444.518	880.98
444.892	856.35
445.267	882.11
445.641	868.1
446.016	910.36
446.39	919.62
446.764	902
447.139	900.87
447.513	933.18
447.887	920.3
448.262	905.84
448.636	960.3
449.01	920.3
449.384	951.26
449.758	948.55
450.132	951.26
450.506	965.5
450.88	952.62
451.254	983.35
451.628	985.61
452.002	1015.21
452.376	986.29
452.75	1007.3
453.123	1016.12
453.497	1030.58
453.871	1042.56
454.244	1047.98
454.618	1069.45
454.992	1079.84
455.365	1096.12
455.739	1109.67
456.112	1116.23
456.486	1126.4
456.859	1145.83
457.232	1139.05
457.606	1154.64
457.979	1168.43
458.352	1176.34
458.725	1219.73
459.099	1199.62
459.472	1218.15
459.845	1257.69
460.218	1255.43
460.591	1266.73
460.964	1280.52
461.337	1301.31
461.71	1345.15
462.083	1339.72
462.456	1336.79
462.829	1354.19
463.201	1405.03
463.574	1404.58
463.947	1419.27
464.32	1457.46
464.692	1476.22
465.065	1471.25
465.438	1533.84
465.81	1522.09
466.183	1530.45
466.555	1565.93
466.928	1591.02
467.3	1596.89
467.672	1643.67
468.045	1682.77
468.417	1663.11
468.789	1692.48
469.161	1713.73
469.534	1777.45
469.906	1796.89
470.278	1841.41
470.65	1827.17
471.022	1873.5
471.394	1925.7
471.766	1969.31
472.138	1963.89
472.51	2066.49
472.882	2083.89
473.253	2113.49
473.625	2141.96
473.997	2161.62
474.369	2233.71
474.74	2233.26
475.112	2335.18
475.484	2372.47
475.855	2453.82
476.227	2480.94
476.598	2572.91
476.97	2626.92
477.341	2700.82
477.713	2727.71
478.084	2817.65
478.455	2903.3
478.827	2958.67
479.198	3071.88
479.569	3117.08
479.94	3202.95
480.311	3249.28
480.682	3391.42
481.053	3514.36
481.424	3584.19
481.795	3691.3
482.166	3731.98
482.537	3878.41
482.908	3971.97
483.279	4055.13
483.65	4185.3
484.021	4313.66
484.391	4369.93
484.762	4537.61
485.133	4617.83
485.503	4759.52
485.874	4870.25
486.244	4973.08
486.615	5104.6
486.985	5248.77
487.356	5396.34
487.726	5527.64
488.097	5748.87
488.467	5738.03
488.837	5974.18
489.207	6109.77
489.578	6252.14
489.948	6373.94
490.318	6539.36
490.688	6590.66
491.058	6786.36
491.428	6977.54
491.798	7077.43
492.168	7361.26
492.538	7432.45
492.908	7486.23
493.278	7665.43
493.648	7805.54
494.017	7973.67
494.387	8114.24
494.757	8159.66
495.126	8393.32
495.496	8415.92
495.866	8560.33
496.235	8735.46
496.605	8948.11
496.974	9039.41
497.344	9135.9
497.713	9200.99
498.082	9444.6
498.452	9577.93
498.821	9572.28
499.19	9748.32
499.559	9834.19
499.928	9938.82
500.298	10060.85
500.667	10244.12
501.036	10277.57
501.405	10444.57
501.774	10473.27
502.143	10625.58
502.512	10695.41
502.88	10822.19
503.249	10862.41
503.618	10961.39
503.987	11116.42
504.356	11162.74
504.724	11258.79
505.093	11339.01
505.462	11393.25
505.83	11507.82
506.199	11638.89
506.567	11810.86
506.936	11858.54
507.304	11943.74
507.672	11975.38
508.041	12060.8
508.409	12123.85
508.777	12350.06
509.145	12294.24
509.514	12271.87
509.882	12423.28
510.25	12533.55
510.618	12628.92
510.986	12591.86
511.354	12731.52
511.722	12817.16
512.09	12925.41
512.458	12835.69
512.826	13028
513.193	13041.79
513.561	12992.3
513.929	13079.08
514.297	13245.63
514.664	13347.54
515.032	13296.02
515.4	13352.74
515.767	13390.48
516.135	13480.65
516.502	13378.96
516.869	13542.79
517.237	13609.01
517.604	13606.75
517.972	13731.26
518.339	13675.9
518.706	13674.32
519.073	13802.22
519.44	13854.2
519.808	13853.52
520.175	13932.84
520.542	13960.18
520.909	14006.74
521.276	14044.7
521.643	14064.14
522.009	14168.77
522.376	14147.98
522.743	14260.51
523.11	14261.42
523.477	14347.29
523.843	14435.43
524.21	14382.77
524.577	14564.24
524.943	14601.75
525.31	14558.36
525.676	14609.43
526.043	14720.62
526.409	14646.95
526.776	14787.73
527.142	14694.4
527.508	14774.17
527.874	14802.2
528.241	14855.3
528.607	14814.85
528.973	15008.07
529.339	14821.63
529.705	14956.54
530.071	14976.2
530.437	14982.53
530.803	14948.63
531.169	14937.56
531.535	14918.58
531.901	15044.22
532.267	14894.85
532.632	14948.86
532.998	15004.9
533.364	14973.49
533.73	14973.26
534.095	14979.14
534.461	14921.29
534.826	14957.67
535.192	14912.7
535.557	14983.43
535.923	14945.24
536.288	14995.41
536.653	14877.9
537.019	14846.49
537.384	14808.07
537.749	14852.36
538.114	14872.7
538.479	14683.1
538.845	14754.29
539.21	14663.44
539.575	14689.66
539.94	14768.3
540.305	14706.38
540.67	14642.43
541.034	14581.41
541.399	14667.28
541.764	14566.5
542.129	14525.37
542.494	14495.76
542.858	14451.47
543.223	14367.18
543.587	14552.26
543.952	14367.4
544.316	14324.69
544.681	14310.46
545.045	14270.23
545.41	14239.05
545.774	14262.1
546.138	14237.46
546.503	14222.32
546.867	14074.31
547.231	14105.94
547.595	14178.03
547.959	14150.24
548.324	14033.63
548.688	13982.33
549.052	13959.28
549.416	13987.3
549.779	13908.43
550.143	13909.34
550.507	13976.91
550.871	13966.06
551.235	13846.06
551.599	13897.59
551.962	13762.9
552.326	13813.52
552.689	13767.87
553.053	13710.92
553.417	13663.69
553.78	13813.07
554.143	13665.95
554.507	13698.72
554.87	13673.19
555.234	13764.26
555.597	13503.47
555.96	13638.61
556.323	13611.49
556.686	13634.99
557.05	13615.79
557.413	13559.74
557.776	13596.35
558.139	13615.33
558.502	13564.04
558.865	13551.61
559.228	13631.38
559.59	13517.26
559.953	13522.68
560.316	13604.26
560.679	13538.73
561.041	13561.32
561.404	13602.23
561.767	13618.72
562.129	13525.39
562.492	13665.95
562.854	13649.23
563.217	13479.29
563.579	13599.74
563.941	13605.84
564.304	13590.7
564.666	13628.67
565.028	13615.33
565.39	13608.55
565.753	13694.88
566.115	13712.73
566.477	13722.9
566.839	13736.69
567.201	13758.61
567.563	13803.8
567.925	13800.41
568.287	13806.29
568.648	13752.28
569.01	13810.58
569.372	13937.13
569.734	13849.68
570.095	13911.37
570.457	13878.6
570.819	13911.82
571.18	13949.11
571.542	13983.23
571.903	13969.9
572.265	13956.57
572.626	13925.61
572.987	13969.45
573.349	13983.23
573.71	14004.93
574.071	14060.07
574.432	14029.56
574.794	14102.55
575.155	14070.92
575.516	13975.78
575.877	14035.89
576.238	14051.03
576.599	14059.84
576.96	14072.27
577.32	14050.58
577.681	14176.68
578.042	14148.43
578.403	14155.43
578.763	14103
579.124	14161.76
579.485	14103
579.845	14155.43
580.206	14114.3
580.566	14089.45
580.927	14114.53
581.287	14143.91
581.648	14141.87
582.008	14156.34
582.368	14121.99
582.728	14228.43
583.089	14099.62
583.449	14118.6
583.809	14142.33
584.169	14104.13
584.529	14058.94
584.889	14128.77
585.249	13968.55
585.609	13969.68
585.969	14115.66
586.329	14026.85
586.688	14025.94
587.048	14055.1
587.408	14032.27
587.768	13891.71
588.127	13891.26
588.487	13921.54
588.846	14004.48
589.206	13905.95
589.565	13982.1
589.925	13989.11
590.284	13947.08
590.643	13936.23
591.003	13982.33
591.362	13941.65
591.721	13894.2
592.08	13939.62
592.44	13975.78
592.799	13900.3
593.158	13876.34
593.517	13822.33
593.876	13851.49
594.235	13744.82
594.593	13791.15
594.952	13898.49
595.311	13821.66
595.67	13860.98
596.029	13880.19
596.387	13910.24
596.746	13832.73
597.104	13797.02
597.463	13771.94
597.822	13907.98
598.18	13729.91
598.538	13801.09
598.897	13905.27
599.255	13763.8
599.613	13909.79
599.972	13868.43
600.33	13873.41
600.688	13830.02
601.046	13829.79
601.404	13859.85
601.762	13784.6
602.12	13839.73
602.478	13878.15
602.836	13874.08
603.194	13763.8
603.552	13777.14
603.91	13684.94
604.268	13750.25
604.625	13700.3
604.983	13810.36
605.341	13768.32
605.698	13734.65
606.056	13831.37
606.413	13908.21
606.771	13866.85
607.128	13877.7
607.485	13862.11
607.843	13877.02
608.2	13829.57
608.557	13886.06
608.914	13871.6
609.272	14018.71
609.629	13938.49
609.986	13997.02
610.343	13918.6
610.7	13943.69
611.057	13922.44
611.414	13892.39
611.771	13906.4
612.127	14008.77
612.484	13966.74
612.841	14003.57
613.198	14031.82
613.554	14092.84
613.911	14076.79
614.267	14087.19
614.624	14059.16
614.98	14036.11
615.337	14168.77
615.693	14158.6
616.05	14131.93
616.406	14186.84
616.762	14146.62
617.118	14162.66
617.475	14146.62
617.831	14114.76
618.187	14150.91
618.543	14230.01
618.899	14262.32
619.255	14166.51
619.611	14146.85
619.967	14262.32
620.323	14285.6
620.678	14150.24
621.034	14202.66
621.39	14230.69
621.746	14161.53
622.101	14265.26
622.457	14242.21
622.812	14254.19
623.168	14298.25
623.523	14257.35
623.879	14361.3
624.234	14249.22
624.589	14278.37
624.945	14279.5
625.3	14248.31
625.655	14295.09
626.01	14242.44
626.365	14295.54
626.72	14210.12
627.075	14198.82
627.43	14229.78
627.785	14237.92
628.14	14206.5
628.495	14204.7
628.85	14186.39
629.205	14120.63
629.559	14279.95
629.914	14087.19
630.269	14204.25
630.623	14094.19
630.978	14114.98
631.332	14141.42
631.687	14142.55
632.041	14146.85
632.396	14094.42
632.75	14065.27
633.104	14070.69
633.459	14059.84
633.813	14051.25
634.167	13995.44
634.521	13995.21
634.875	14099.39
635.229	13956.12
635.583	13934.87
635.937	13890.81
636.291	13901.88
636.645	13831.15
636.999	13885.84
637.352	13824.14
637.706	13702.11
638.06	13913.86
638.413	13787.76
638.767	13763.58
639.121	13844.25
639.474	13681.1
639.828	13716.12
640.181	13733.98
640.534	13713.18
640.888	13693.52
641.241	13637.03
641.594	13654.43
641.947	13806.52
642.301	13698.72
642.654	13751.83
643.007	13715.9
643.36	13634.32
643.713	13695.78
644.066	13676.58
644.419	13578.27
644.771	13446.07
645.124	13367.88
645.477	13373.98
645.83	13374.21
646.182	13287.21
646.535	13173.54
646.888	13244.95
647.24	13134.67
647.593	13183.93
647.945	13150.94
648.298	13136.48
648.65	13111.62
649.002	13034.11
649.355	13093.09
649.707	13131.05
650.059	13271.39
650.411	13391.16
650.763	13438.62
651.115	13432.74
651.467	13442.01
651.819	13438.39
652.171	13452.4
652.523	13399.75
652.875	13453.3
653.227	13423.93
653.578	13543.7
653.93	13502.79
654.282	13317.49
654.633	13333.53
654.985	13341.44
655.337	13443.36
655.688	13426.19
656.039	13498.5
656.391	13329.01
656.742	13324.27
657.094	13252.18
657.445	13399.52
657.796	13393.65
658.147	13377.6
658.498	13330.14
658.849	13441.1
659.2	13449.91
659.551	13322.46
659.902	13460.76
660.253	13449.46
660.604	13493.08
660.955	13356.58
661.306	13460.76
661.656	13445.85
662.007	13479.74
662.358	13505.73
662.708	13485.85
663.059	13414.66
663.409	13328.11
663.76	13467.54
664.11	13451.95
664.461	13451.27
664.811	13474.55
665.161	13511.16
665.511	13518.61
665.862	13510.03
666.212	13491.04
666.562	13544.15
666.912	13558.16
667.262	13517.03
667.612	13504.6
667.962	13540.99
668.312	13433.64
668.662	13507.77
669.011	13512.96
669.361	13428.67
669.711	13504.6
670.06	13453.53
670.41	13431.84
670.76	13445.17
671.109	13505.73
671.459	13406.53
671.808	13422.34
672.157	13350.48
672.507	13409.24
672.856	13368.33
673.205	13420.76
673.554	13412.4
673.904	13370.82
674.253	13413.31
674.602	13341.44
674.951	13154.78
675.3	13128.57
675.649	13287.43
675.998	13349.58
676.346	13281.11
676.695	13359.75
677.044	13213.31
677.393	13239.52
677.741	13319.3
678.09	13225.97
678.438	13275.46
678.787	13231.62
679.135	13212.86
679.484	13137.15
679.832	13187.32
680.181	13115.69
680.529	13127.66
680.877	13102.81
681.225	13093.09
681.573	13016.93
681.922	13083.82
682.27	12952.98
682.618	12980.55
682.966	12966.09
683.314	12996.14
683.661	12945.75
684.009	12867.78
684.357	12851.29
684.705	12825.75
685.053	12796.6
685.4	12697.39
685.748	12767.22
686.095	12695.13
686.443	12680.44
686.79	12712.98
687.138	12644.74
687.485	12707.11
687.832	12609.03
688.18	12597.73
688.527	12435.48
688.874	12482.93
689.221	12430.96
689.568	12468.47
689.915	12394.35
690.262	12384.18
690.609	12327.23
690.956	12212.43
691.303	12171.53
691.65	12137.41
691.997	12227.35
692.344	12091.76
692.69	12100.8
693.037	12009.95
693.383	11908.26
693.73	11958.43
694.077	11824.65
694.423	11910.29
694.769	11872.1
695.116	11815.38
695.462	11814.93
695.808	11683.41
696.155	11805.44
696.501	11642.28
696.847	11675.27
697.193	11593.47
697.539	11597.08
697.885	11522.28
698.231	11463.07
698.577	11449.06
698.923	11436.86
699.269	11310.54
699.614	11299.69
699.96	11259.24
700.306	11266.7
700.651	11199.8
700.997	11127.94
701.342	11059.7
701.688	11080.49
702.033	11040.49
702.379	11027.61
702.724	11054.95
703.069	10955.74
703.415	10845.69
703.76	10926.37
704.105	10827.38
704.45	10738.35
704.795	10691.8
705.14	10666.94
705.485	10612.02
705.83	10598.92
706.175	10549.65
706.52	10602.31
706.865	10577.22
707.209	10531.57
707.554	10580.61
707.899	10557.56
708.243	10413.84
708.588	10409.99
708.932	10339.26
709.277	10348.3
709.621	10356.21
709.966	10282.31
710.31	10268.98
710.654	10180.4
710.998	10200.28
711.342	10206.61
711.687	10136.78
712.031	10129.78
712.375	10179.72
712.719	10152.6
713.063	10086.39
713.407	10098.59
713.75	9988.76
714.094	10086.39
714.438	10017.91
714.782	9986.28
715.125	9984.92
715.469	9970.68
715.812	9916.45
716.156	9803.91
716.499	9865.6
716.843	9926.62
717.186	9818.15
717.53	9901.76
717.873	9808.88
718.216	9788.32
718.559	9784.93
718.902	9680.75
719.246	9765.94
719.589	9658.6
719.932	9630.81
720.275	9641.88
720.617	9716
720.96	9639.85
721.303	9692.27
721.646	9597.13
721.989	9644.37
722.331	9600.52
722.674	9582.45
723.016	9653.86
723.359	9630.35
723.701	9610.02
724.044	9488.89
724.386	9583.8
724.729	9634.87
725.071	9597.13
725.413	9605.95
725.755	9521.66
726.097	9551.71
726.439	9453.64
726.782	9490.24
727.124	9567.98
727.465	9434.65
727.807	9444.6
728.149	9433.98
728.491	9476.46
728.833	9495.22
729.175	9419.06
729.516	9438.04
729.858	9493.18
730.199	9466.29
730.541	9411.83
730.882	9455.67
731.224	9424.48
731.565	9388.78
731.906	9386.07
732.248	9486.4
732.589	9385.84
732.93	9366.18
733.271	9378.61
733.612	9357.82
733.953	9416.8
734.294	9393.98
734.635	9375.22
734.976	9337.25
735.317	9426.74
735.658	9377.25
735.999	9339.74
736.339	9337.71
736.68	9379.74
737.021	9372.96
737.361	9350.59
737.702	9370.93
738.042	9382.9
738.383	9444.37
738.723	9455.44
739.063	9396.46
739.404	9491.83
739.744	9450.7
740.084	9429.23
740.424	9527.53
740.764	9423.35
741.104	9471.04
741.444	9414.54
741.784	9446.63
742.124	9497.48
742.464	9503.13
742.804	9529.11
743.143	9549
743.483	9577.93
743.823	9530.7
744.162	9591.94
744.502	9642.11
744.841	9636.23
745.181	9686.4
745.52	9690.69
745.86	9807.07
746.199	9820.86
746.538	9831.7
746.877	9870.57
747.216	9945.83
747.556	9960.74
747.895	10032.83
748.234	10089.1
748.573	10154.63
748.911	10144.01
749.25	10248.19
749.589	10251.81
749.928	10386.72
750.267	10427.62
750.605	10487.51
750.944	10533.38
751.283	10585.81
751.621	10689.54
751.96	10781.74
752.298	10880.49
752.636	10976.08
752.975	11048.62
753.313	11159.58
753.651	11228.5
753.989	11304.66
754.327	11530.87
754.666	11599.12
755.004	11721.15
755.342	11803.63
755.679	12051.31
756.017	12086.11
756.355	12151.64
756.693	12376.72
757.031	12624.4
757.368	12628.47
757.706	12782.59
758.044	12895.8
758.381	13174.67
758.719	13286.08
759.056	13411.27
759.394	13601.32
759.731	13614.2
760.068	13855.55
760.405	14003.57
760.743	14128.31
761.08	14371.47
761.417	14394.07
761.754	14652.59
762.091	14885.58
762.428	14978.01
762.765	15095.52
763.102	15397.43
763.438	15505
763.775	15577.99
764.112	15897.99
764.449	15964.88
764.785	16094.59
765.122	16269.95
765.458	16309.5
765.795	16517.86
766.131	16794.23
766.467	16834.68
766.804	17018.41
767.14	17063.15
767.476	17310.83
767.812	17298.63
768.148	17490.49
768.485	17564.16
768.821	17644.83
769.157	17824.26
769.492	17927.09
769.828	18121.66
770.164	18102.67
770.5	18106.97
770.836	18389.22
771.171	18277.81
771.507	18424.7
771.842	18597.8
772.178	18622.89
772.513	18714.18
772.849	18810.23
773.184	18861.3
773.519	19026.94
773.855	19051.8
774.19	19012.25
774.525	19162.08
774.86	19259.93
775.195	19254.73
775.53	19401.4
775.865	19385.58
776.2	19250.67
776.535	19326.37
776.87	19409.76
777.205	19347.39
777.539	19454.05
777.874	19555.74
778.209	19465.8
778.543	19500.83
778.878	19483.43
779.212	19476.42
779.547	19494.95
779.881	19635.51
780.215	19552.58
780.55	19671.22
780.884	19612.69
781.218	19649.98
781.552	19672.8
781.886	19640.26
782.22	19584.44
782.554	19561.84
782.888	19424.9
783.222	19459.47
783.556	19426.93
783.889	19393.94
784.223	19401.4
784.557	19426.93
784.89	19442.98
785.224	19379.93
785.557	19344.22
785.891	19442.07
786.224	19329.76
786.558	19363.88
786.891	19164.79
787.224	19323.21
787.557	19243.21
787.891	19206.37
788.224	19170.89
788.557	19323.66
788.89	19196.66
789.223	19213.15
789.556	19063.55
789.888	19055.64
790.221	19019.94
790.554	18933.61
790.887	18951.24
791.219	18852.71
791.552	18882.54
791.884	18823.11
792.217	18793.5
792.549	18767.74
792.882	18608.88
793.214	18631.47
793.546	18664.47
793.879	18557.13
794.211	18412.95
794.543	18461.31
794.875	18461.53
795.207	18546.5
795.539	18470.12
795.871	18457.92
796.203	18232.16
796.535	18192.39
796.867	18253.86
797.198	18143.8
797.53	18224.93
797.862	18154.88
798.193	18175.44
798.525	18069.23
798.856	18069.68
799.188	17852.96
799.519	17865.84
799.85	17799.4
800.182	17739.29
800.513	17739.97
800.844	17702.46
801.175	17798.73
801.506	17752.17
801.837	17592.18
802.168	17580.88
802.499	17512.63
802.83	17479.64
803.161	17386.31
803.491	17353.54
803.822	17340.43
804.153	17347.67
804.483	17193.55
804.814	17166.2
805.145	17109.71
805.475	17139.54
805.805	17043.04
806.136	17074.68
806.466	17078.75
806.796	17007.11
807.126	16929.37
807.457	16944.06
807.787	16864.97
808.117	16850.5
808.447	16761.47
808.777	16832.65
809.107	16743.61
809.436	16623.39
809.766	16631.98
810.096	16531.64
810.426	16537.29
810.755	16518.99
811.085	16534.35
811.414	16486.22
811.744	16441.25
812.073	16348.37
812.403	16332.1
812.732	16340.23
813.061	16322.61
813.39	16136.85
813.719	16034.25
814.049	16280.57
814.378	16152.67
814.707	16129.84
815.036	16044.65
815.365	16048.26
815.693	15845.11
816.022	15929.85
816.351	15855.73
816.68	15822.28
817.008	15848.72
817.337	15710.42
817.665	15772.11
817.994	15720.36
818.322	15735.73
818.651	15605.56
818.979	15598.78
819.307	15584.1
819.636	15622.74
819.964	15552.46
820.292	15582.51
820.62	15527.37
820.948	15520.14
821.276	15559.01
821.604	15519.69
821.932	15657.77
822.259	15596.98
822.587	15553.59
822.915	15373.71
823.243	15512.46
823.57	15474.95
823.898	15504.1
824.225	15417.32
824.553	15459.35
824.88	15519.69
825.207	15607.37
825.535	15551.78
825.862	15548.84
826.189	15438.79
826.516	15571.89
826.843	15595.17
827.17	15544.32
827.497	15639.24
827.824	15560.37
828.151	15495.96
828.478	15493.48
828.805	15642.63
829.131	15478.79
829.458	15517.88
829.785	15428.39
830.111	15434.5
830.438	15581.61
830.764	15524.21
831.09	15553.81
831.417	15390.65
831.743	15519.01
832.069	15473.82
832.395	15517.66
832.722	15475.62
833.048	15401.95
833.374	15480.37
833.7	15399.69
834.026	15405.57
834.351	15347.27
834.677	15405.8
835.003	15479.01
835.329	15350.66
835.654	15324.67
835.98	15256.19
836.306	15337.1
836.631	15232.24
836.956	15340.26
837.282	15342.52
837.607	15145.92
837.932	15208.74
838.258	15182.98
838.583	15263.2
838.908	15139.81
839.233	15121.96
839.558	14984.11
839.883	14982.3
840.208	14992.25
840.533	14971.68
840.858	15023.88
841.182	14886.94
841.507	14974.85
841.832	14905.24
842.156	14822.53
842.481	14841.97
842.805	14835.19
843.13	14776.66
843.454	14773.5
843.778	14666.15
844.103	14652.82
844.427	14575.99
844.751	14680.84
845.075	14604.91
845.399	14516.33
845.723	14444.24
846.047	14489.89
846.371	14345.94
846.695	14348.87
847.019	14225.94
847.343	14205.38
847.666	14118.37
847.99	13999.28
848.313	14013.29
848.637	13966.74
848.96	14046.96
849.284	13850.36
849.607	13812.17
849.931	13842.9
850.254	13639.74
850.577	13616.69
850.9	13589.35
851.223	13558.61
851.546	13506.18
851.869	13378.96
852.192	13426.19
852.515	13317.26
852.838	13196.81
853.161	13294.44
853.483	13154.56
853.806	13137.38
854.129	13066.87
854.451	13089.92
854.774	12994.56
855.096	12967.67
855.419	12966.54
855.741	12876.82
856.063	12912.08
856.385	12812.64
856.708	12774.9
857.03	12702.82
857.352	12703.49
857.674	12630.5
857.996	12625.3
858.318	12513.44
858.64	12570.84
858.961	12574.91
859.283	12434.12
859.605	12432.31
859.926	12475.25
860.248	12437.51
860.57	12384.86
860.891	12333.11
861.212	12217.86
861.534	12184.19
861.855	12234.81
862.176	12197.97
862.498	12139.44
862.819	12160.01
863.14	12098.76
863.461	12177.63
863.782	12095.37
864.103	12062.61
864.424	12044.75
864.745	12006.79
865.065	11939.9
865.386	11963.85
865.707	12007.01
866.027	11925.89
866.348	11925.44
866.668	11877.98
866.989	11850.86
867.309	11862.16
867.63	11805.44
867.95	11788.49
868.27	11736.74
868.59	11760.69
868.91	11761.37
869.23	11703.75
869.55	11627.82
869.87	11699.9
870.19	11651.09
870.51	11699.9
870.83	11721.82
871.15	11559.57
871.469	11576.74
871.789	11583.07
872.109	11562.05
872.428	11465.56
872.748	11557.99
873.067	11497.2
873.386	11475.5
873.706	11524.54
874.025	11424.88
874.344	11391.89
874.663	11416.97
874.982	11372.46
875.301	11331.1
875.62	11372
875.939	11358.44
876.258	11292.91
876.577	11287.03
876.896	11263.08
877.214	11228.05
877.533	11229.41
877.852	11197.32
878.17	11165.23
878.489	11219.46
878.807	11163.65
879.125	11168.84
879.444	11152.8
879.762	11076.19
880.08	11114.16
880.398	11018.57
880.716	11019.02
881.034	11008.62
881.352	11057.44
881.67	10993.71
881.988	10975.18
882.306	10962.75
882.624	10909.42
882.941	10807.95
883.259	10751.23
883.577	10819.7
883.894	10813.37
884.212	10802.3
884.529	10739.93
884.846	10722.3
885.164	10680.95
885.481	10717.56
885.798	10704.68
886.115	10586.94
886.432	10604.34
886.75	10559.6
887.067	10647.95
887.383	10562.98
887.7	10513.95
888.017	10509.88
888.334	10472.14
888.651	10486.15
888.967	10468.98
889.284	10409.09
889.6	10318.25
889.917	10269.21
890.233	10296.78
890.55	10229.21
890.866	10222.2
891.182	10252.48
891.498	10149.66
891.815	10107.63
892.131	9966.16
892.447	10022.21
892.763	10034.64
893.079	10071.7
893.395	9934.53
893.71	9930.23
894.026	9914.87
894.342	9850.91
894.657	9839.84
894.973	9729.33
895.289	9816.34
895.604	9737.02
895.92	9695.89
896.235	9627.64
896.55	9689.56
896.865	9657.7
897.181	9570.69
897.496	9574.54
897.811	9491.37
898.126	9492.73
898.441	9410.47
898.756	9465.39
899.071	9334.77
899.386	9388.78
899.7	9265.62
900.015	9245.28
900.33	9148.33
900.644	9233.75
900.959	9236.01
901.273	9162.8
901.588	9138.39
901.902	9057.26
902.216	9024.72
902.531	9001.67
902.845	8951.28
903.159	8937.04
903.473	8944.5
903.787	8876.93
904.101	8855.91
904.415	8787.89
904.729	8814.33
905.042	8687.55
905.356	8753.77
905.67	8698.4
905.984	8669.02
906.297	8609.14
906.611	8561.68
906.924	8578.4
907.237	8498.41
907.551	8511.74
907.864	8473.32
908.177	8474
908.491	8460.44
908.804	8382.93
909.117	8298.86
909.43	8248.7
909.743	8267.23
910.056	8141.35
910.368	8180
910.681	8126.21
910.994	8138.87
911.307	8087.34
911.619	8071.98
911.932	8069.72
912.244	7944.52
912.557	7928.7
912.869	7897.74
913.181	7866.56
913.494	7845.54
913.806	7778.2
914.118	7790.18
914.43	7744.75
914.742	7691.42
915.054	7627.02
915.366	7683.29
915.678	7656.39
915.99	7613.23
916.302	7515.61
916.613	7517.19
916.925	7489.39
917.236	7498.66
917.548	7443.52
917.859	7380.47
918.171	7339.11
918.482	7338.21
918.794	7296.63
919.105	7291.21
919.416	7265.9
919.727	7269.29
920.038	7189.74
920.349	7143.87
920.66	7129.63
920.971	7092.34
921.282	7106.35
921.593	7036.75
921.903	6984.77
922.214	7002.85
922.525	6922.63
922.835	6922.18
923.146	6869.97
923.456	6892.12
923.767	6833.82
924.077	6880.6
924.387	6818.9
924.697	6756.08
925.008	6756.08
925.318	6700.49
925.628	6655.52
925.938	6724.89
926.248	6585.69
926.558	6590.89
926.867	6599.47
927.177	6569.42
927.487	6512.47
927.796	6488.74
928.106	6441.06
928.416	6458.01
928.725	6425.24
929.034	6350.21
929.344	6369.42
929.653	6307.5
929.962	6309.99
930.271	6255.08
930.581	6238.35
930.89	6215.75
931.199	6127.4
931.508	6178.02
931.817	6169.65
932.125	6146.83
932.434	6116.77
932.743	6022.99
933.051	6006.72
933.36	6006.27
933.669	5986.16
933.977	5961.98
934.286	5920.17
934.594	5898.7
934.902	5905.93
935.21	5859.15
935.519	5860.96
935.827	5803.79
936.135	5782.55
936.443	5758.37
936.751	5741.42
937.059	5695.77
937.367	5709.78
937.674	5699.16
937.982	5653.06
938.29	5640.4
938.597	5638.37
938.905	5569.22
939.213	5527.41
939.52	5522.89
939.827	5510.46
940.135	5499.84
940.442	5404.93
940.749	5448.09
941.056	5435.21
941.363	5337.59
941.67	5389.34
941.977	5321.54
942.284	5266.63
942.591	5304.82
942.898	5260.3
943.205	5236.12
943.511	5191.83
943.818	5243.8
944.125	5187.53
944.431	5147.76
944.738	5178.95
945.044	5156.8
945.35	5070.93
945.657	5027.54
945.963	5065.73
946.269	5017.59
946.575	5042.23
946.881	4970.82
947.187	4969.46
947.493	4933.3
947.799	4965.39
948.105	4908.44
948.41	4884.49
948.716	4855.34
949.022	4844.27
949.327	4835.23
949.633	4812.85
949.938	4798.84
950.244	4789.58
950.549	4752.74
950.854	4684.04
951.16	4667.77
951.465	4706.19
951.77	4625.06
952.075	4635.01
952.38	4615.57
952.685	4621.67
952.99	4560.88
953.294	4547.55
953.599	4547.32
953.904	4543.03
954.209	4479.53
954.513	4457.38
954.818	4438.85
955.122	4464.16
955.426	4430.94
955.731	4370.15
956.035	4380.1
956.339	4352.07
956.643	4324.73
956.948	4314.11
957.252	4304.62
957.556	4304.17
957.86	4278.63
958.163	4243.15
958.467	4232.08
958.771	4217.62
959.075	4199.08
959.378	4182.81
959.682	4165.87
959.985	4181.01
960.289	4129.93
960.592	4098.3
960.896	4079.77
961.199	4084.96
961.502	4059.43
961.805	4048.35
962.108	4001.12
962.411	3990.05
962.714	4005.42
963.017	3948.7
963.32	3941.46
963.623	3906.44
963.926	3926.78
964.228	3901.24
964.531	3907.57
964.833	3920
965.136	3834.35
965.438	3877.51
965.741	3836.16
966.043	3792.99
966.345	3803.16
966.648	3795.71
966.95	3773.11
967.252	3761.13
967.554	3688.59
967.856	3728.14
968.158	3695.82
968.46	3709.61
968.761	3643.17
969.063	3677.52
969.365	3637.97
969.666	3655.6
969.968	3606.11
970.269	3599.55
970.571	3549.61
970.872	3568.37
971.174	3503.51
971.475	3524.07
971.776	3449.5
972.077	3462.83
972.378	3459.67
972.679	3439.78
972.98	3441.59
973.281	3414.47
973.582	3389.39
973.883	3384.87
974.183	3378.09
974.484	3395.04
974.785	3353.46
975.085	3340.35
975.386	3317.53
975.686	3313.68
975.986	3306.9
976.287	3278.88
976.587	3275.49
976.887	3268.26
977.187	3248.6
977.487	3241.82
977.787	3180.35
978.087	3177.64
978.387	3197.3
978.687	3176.96
978.987	3139.23
979.286	3105.33
979.586	3177.42
979.885	3096.97
980.185	3109.4
980.484	3045.22
980.784	3019.45
981.083	3063.3
981.382	3056.97
981.682	3022.62
981.981	3000.02
982.28	3002.05
982.579	2963.18
982.878	2986.91
983.177	2954.37
983.475	2924.99
983.774	2947.37
984.073	2903.75
984.372	2915.05
984.67	2935.61
984.969	2867.59
985.267	2882.06
985.566	2836.63
985.864	2848.16
986.162	2840.25
986.461	2791.66
986.759	2778.78
987.057	2773.59
987.355	2771.78
987.653	2734.04
987.951	2739.01
988.249	2732.23
988.547	2715.06
988.844	2696.75
989.142	2703.08
989.44	2672.57
989.737	2676.41
990.035	2654.72
990.332	2680.48
990.63	2623.76
990.927	2603.42
991.224	2569.97
991.521	2626.47
991.819	2591.22
992.116	2562.74
992.413	2572.23
992.71	2547.15
993.006	2509.64
993.303	2535.4
993.6	2516.42
993.897	2498.11
994.193	2504.89
994.49	2466.25
994.787	2476.64
995.083	2447.49
995.379	2437.32
995.676	2416.08
995.972	2436.19
996.268	2387.83
996.565	2377.89
996.861	2405.23
997.157	2356.42
997.453	2356.42
997.749	2330.21
998.044	2320.04
998.34	2325.46
998.636	2315.97
998.932	2311.45
999.227	2289.98
999.523	2296.31
999.818	2291.34
1000.114	2257.21
1000.409	2265.58
1000.704	2206.37
1001	2220.15
1001.295	2200.04
1001.59	2203.43
1001.885	2199.36
1002.18	2190.32
1002.475	2160.95
1002.77	2163.43
1003.065	2131.79
1003.359	2118.69
1003.654	2150.32
1003.949	2099.7
1004.243	2084.11
1004.538	2055.41
1004.832	2084.79
1005.127	2053.6
1005.421	2018.58
1005.715	2027.39
1006.009	2036.43
1006.304	2006.6
1006.598	2006.6
1006.892	2004.57
1007.186	1954.85
1007.48	1959.82
1007.773	1946.71
1008.067	1963.66
1008.361	1908.3
1008.655	1924.79
1008.948	1921.86
1009.242	1910.78
1009.535	1891.35
1009.829	1889.99
1010.122	1850.45
1010.415	1860.84
1010.708	1836.21
1011.001	1807.96
1011.295	1821.07
1011.588	1814.51
1011.881	1782.88
1012.173	1782.65
1012.466	1784.46
1012.759	1771.58
1013.052	1796.21
1013.344	1745.36
1013.637	1748.98
1013.93	1720.96
1014.222	1714.86
1014.514	1715.08
1014.807	1707.17
1015.099	1678.92
1015.391	1668.53
1015.683	1660.39
1015.976	1662.43
1016.268	1647.29
1016.56	1616.1
1016.851	1598.93
1017.143	1609.1
1017.435	1611.81
1017.727	1596.44
1018.018	1585.14
1018.31	1555.09
1018.602	1552.6
1018.893	1561.87
1019.185	1569.32
1019.476	1537.23
1019.767	1529.32
1020.058	1518.25
1020.35	1504.92
1020.641	1469.66
1020.932	1467.18
1021.223	1474.64
1021.514	1447.97
1021.804	1480.74
1022.095	1469.66
1022.386	1451.59
1022.677	1445.03
1022.967	1407.97
1023.258	1398.25
1023.548	1420.4
1023.839	1404.58
1024.129	1380.63
1024.419	1364.13
1024.709	1332.27
1025	1365.94
1025.29	1333.62
1025.58	1319.61
1025.87	1338.37
1026.16	1316.67
1026.449	1337.01
1026.739	1288.88
1027.029	1264.7
1027.319	1307.18
1027.608	1273.74
1027.898	1262.89
1028.187	1245.26
1028.477	1238.03
1028.766	1237.13
1029.055	1238.48
1029.344	1233.29
1029.634	1230.35
1029.923	1211.59
1030.212	1205.72
1030.501	1191.03
1030.79	1197.58
1031.078	1160.29
1031.367	1165.94
1031.656	1169.56
1031.945	1144.93
1032.233	1154.87
1032.522	1142.44
1032.81	1138.83
1033.099	1165.94
1033.387	1130.46
1033.675	1127.75
1033.963	1079.62
1034.251	1104.7
1034.54	1087.53
1034.828	1096.57
1035.116	1062.67
1035.403	1073.97
1035.691	1067.42
1035.979	1049.11
1036.267	1032.61
1036.554	1060.41
1036.842	1030.58
1037.129	1017.02
1037.417	1026.29
1037.704	1009.11
1037.992	1025.61
1038.279	994.87
1038.566	983.8
1038.853	983.8
1039.14	983.8
