Data from hue_210_FLMS001491_00053.txt Node
Date: Tue Feb 07 16:41:23 GMT 2017
User: dcchb
Spectrometer: FLMS00149
Trigger mode: 0
Integration Time (sec): 2.000000E-2
Scans to average: 10
Electric dark correction enabled: true
Nonlinearity correction enabled: false
Boxcar width: 0
XAxis mode: Wavelengths
Number of Pixels in Spectrum: 2048
>>>>>Begin Spectral Data<<<<<
341.393	-11.13
341.776	-11.13
342.16	-11.13
342.543	-66.27
342.927	-58.36
343.31	-72.6
343.693	-57.91
344.077	-72.82
344.46	-60.39
344.843	-61.3
345.226	-34.86
345.61	-15.65
345.993	-9.77
346.376	-8.87
346.759	27.51
347.142	6.05
347.525	27.97
347.908	52.82
348.291	76.78
348.674	91.92
349.057	111.13
349.44	136.66
349.823	135.08
350.206	150.67
350.588	204.46
350.971	221.63
351.354	222.99
351.737	236.55
352.119	256.66
352.502	256.43
352.884	255.53
353.267	262.54
353.65	304.79
354.032	297.56
354.414	321.07
354.797	311.8
355.179	298.24
355.562	308.41
355.944	303.66
356.326	313.83
356.709	347.96
357.091	344.34
357.473	340.05
357.855	338.47
358.238	340.27
358.62	347.5
359.002	309.77
359.384	326.26
359.766	338.24
360.148	312.03
360.53	327.62
360.912	342.31
361.294	339.6
361.676	319.26
362.057	317.45
362.439	292.14
362.821	307.28
363.203	316.77
363.584	331.23
363.966	315.64
364.348	300.73
364.729	324.45
365.111	315.87
365.493	328.3
365.874	316.55
366.256	309.31
366.637	312.03
367.019	316.77
367.4	319.03
367.781	301.18
368.163	298.24
368.544	296.21
368.925	308.86
369.306	317.45
369.688	293.04
370.069	307.73
370.45	305.25
370.831	301.18
371.212	295.98
371.593	293.27
371.974	294.17
372.355	307.28
372.736	307.73
373.117	309.31
373.498	316.32
373.879	314.74
374.26	331.23
374.641	308.64
375.021	303.44
375.402	326.71
375.783	304.12
376.163	324.23
376.544	331.91
376.925	321.74
377.305	307.05
377.686	328.52
378.066	326.49
378.447	308.64
378.827	327.39
379.208	325.13
379.588	336.88
379.968	321.29
380.349	309.09
380.729	307.05
381.109	330.56
381.489	336.66
381.87	332.36
382.25	328.97
382.63	344.79
383.01	343.66
383.39	342.31
383.77	327.84
384.15	355.87
384.53	338.69
384.91	333.95
385.29	317.45
385.67	360.39
386.049	342.08
386.429	335.75
386.809	350.67
387.189	357.9
387.568	349.54
387.948	367.39
388.328	346.6
388.707	352.93
389.087	351.8
389.466	355.64
389.846	360.39
390.225	367.62
390.605	362.42
390.984	371.69
391.363	347.73
391.743	352.48
392.122	368.75
392.501	349.09
392.881	381.63
393.26	367.84
393.639	353.61
394.018	362.19
394.397	371.69
394.776	359.71
395.155	378.69
395.534	375.75
395.913	357
396.292	376.2
396.671	358.13
397.05	388.63
397.429	399.93
397.808	375.3
398.186	399.93
398.565	393.38
398.944	397.45
399.323	391.12
399.701	389.76
400.08	399.71
400.458	414.4
400.837	386.6
401.215	408.97
401.594	397.45
401.972	414.62
402.351	402.42
402.729	410.78
403.107	406.26
403.486	439.25
403.864	422.31
404.242	409.65
404.62	436.09
404.999	431.34
405.377	413.27
405.755	442.87
406.133	458.01
406.511	434.06
406.889	432.02
407.267	452.59
407.645	461.4
408.023	466.15
408.401	468.86
408.779	500.27
409.156	488.74
409.534	491.68
409.912	501.17
410.29	522.19
410.667	490.33
411.045	536.88
411.422	498.91
411.8	543.66
412.178	524.22
412.555	561.28
412.933	571
413.31	571.45
413.687	583.66
414.065	577.33
414.442	608.97
414.819	595.41
415.197	596.31
415.574	615.75
415.951	610.55
416.328	634.05
416.705	669.53
417.082	646.03
417.46	659.14
417.837	696.42
418.214	668.63
418.591	678.12
418.967	693.48
419.344	716.99
419.721	694.16
420.098	705.69
420.475	732.81
420.852	705.24
421.228	756.08
421.605	784.1
421.982	754.73
422.358	789.3
422.735	786.59
423.111	817.32
423.488	820.03
423.864	818.68
424.241	860.03
424.617	855.51
424.994	883.31
425.37	882.63
425.746	912.01
426.123	914.72
426.499	923.54
426.875	923.08
427.251	939.13
427.627	954.27
428.003	992.01
428.379	1014.83
428.756	1016.19
429.132	1022.74
429.507	1034.04
429.883	1019.58
430.259	1037.66
430.635	1066.58
431.011	1081.05
431.387	1103.19
431.763	1094.83
432.138	1108.39
432.514	1123.53
432.89	1145.22
433.265	1173.47
433.641	1202.4
434.016	1211.89
434.392	1258.22
434.767	1272.68
435.143	1316.07
435.518	1300.47
435.894	1317.2
436.269	1346.8
436.644	1363.07
437.02	1402.17
437.395	1417.53
437.77	1433.13
438.145	1478.32
438.52	1490.3
438.895	1532.78
439.271	1538.66
439.646	1557.19
440.021	1571.88
440.395	1570.07
440.77	1580.69
441.145	1591.77
441.52	1641.71
441.895	1662.27
442.27	1664.53
442.645	1685.32
443.019	1685.77
443.394	1730.52
443.769	1751.76
444.143	1737.3
444.518	1786.79
444.892	1786.11
445.267	1802.61
445.641	1814.59
446.016	1848.71
446.39	1870.63
446.764	1883.06
447.139	1847.58
447.513	1911.31
447.887	1914.24
448.262	1951.08
448.636	1906.33
449.01	1954.47
449.384	1948.59
449.758	1989.04
450.132	2027.01
450.506	2016.84
450.88	2054.13
451.254	2037.63
451.628	2036.73
452.002	2073.34
452.376	2079.66
452.75	2144.52
453.123	2130.28
453.497	2169.83
453.871	2182.94
454.244	2252.99
454.618	2242.6
454.992	2249.83
455.365	2242.14
455.739	2335.48
456.112	2360.33
456.486	2342.71
456.859	2403.72
457.232	2445.75
457.606	2460.44
457.979	2452.08
458.352	2493.89
458.725	2490.95
459.099	2567.33
459.472	2575.69
459.845	2636.03
460.218	2620.44
460.591	2618.86
460.964	2659.31
461.337	2754.9
461.71	2769.59
462.083	2796.93
462.456	2761.9
462.829	2802.81
463.201	2901.34
463.574	2833.99
463.947	2891.62
464.32	2950.83
464.692	2981.56
465.065	2980.88
465.438	3058.17
465.81	3107.21
466.183	3102.91
466.555	3155.57
466.928	3170.93
467.3	3183.36
467.672	3243.47
468.045	3338.39
468.417	3328.67
468.789	3343.58
469.161	3388.78
469.534	3413.64
469.906	3514.88
470.278	3512.17
470.65	3519.4
471.022	3622.9
471.394	3683.24
471.766	3692.95
472.138	3758.04
472.51	3796
472.882	3861.99
473.253	3886.85
473.625	3936.56
473.997	4014.98
474.369	4057.01
474.74	4082.1
475.112	4133.85
475.484	4245.48
475.855	4250.68
476.227	4278.7
476.598	4434.63
476.97	4408.87
477.341	4441.86
477.713	4587.17
478.084	4563.67
478.455	4691.57
478.827	4708.29
479.198	4814.51
479.569	4882.08
479.94	4943.32
480.311	5000.26
480.682	5124.78
481.053	5224.89
481.424	5267.83
481.795	5332.91
482.166	5402.29
482.537	5479.57
482.908	5536.75
483.279	5554.37
483.65	5708.95
484.021	5746.91
484.391	5839.34
484.762	5898.55
485.133	5893.35
485.503	5957.53
485.874	6052.67
486.244	6058.54
486.615	6193.68
486.985	6288.82
487.356	6424.86
487.726	6437.74
488.097	6555.03
488.467	6578.53
488.837	6638.19
489.207	6774.23
489.578	6851.51
489.948	6843.15
490.318	6933.09
490.688	6940.78
491.058	7032.75
491.428	7131.06
491.798	7173.54
492.168	7229.81
492.538	7310.94
492.908	7379.18
493.278	7446.75
493.648	7483.59
494.017	7524.49
494.387	7569.01
494.757	7600.65
495.126	7652.62
495.496	7644.94
495.866	7759.06
496.235	7853.52
496.605	7867.08
496.974	7962.22
497.344	7984.14
497.713	7990.02
498.082	8002.44
498.452	8105.49
498.821	8108.2
499.19	8140.29
499.559	8215.55
499.928	8259.84
500.298	8275.66
500.667	8316.34
501.036	8280.18
501.405	8371.47
501.774	8381.42
502.143	8415.54
502.512	8450.34
502.88	8453.28
503.249	8466.16
503.618	8455.09
503.987	8490.57
504.356	8563.79
504.724	8610.34
505.093	8541.64
505.462	8565.82
505.83	8675.2
506.199	8642.65
506.567	8796.55
506.936	8750.9
507.304	8810.33
507.672	8805.14
508.041	8796.1
508.409	8854.85
508.777	8903.44
509.145	8864.57
509.514	8895.75
509.882	8881.29
510.25	8929.88
510.618	8987.28
510.986	8966.26
511.354	9006.03
511.722	9053.26
512.09	9023.44
512.458	9048.97
512.826	9064.56
513.193	9092.81
513.561	9074.06
513.929	9111.12
514.297	9191.11
514.664	9180.27
515.032	9196.99
515.4	9236.99
515.767	9221.62
516.135	9175.52
516.502	9112.92
516.869	9248.51
517.237	9178.91
517.604	9220.49
517.972	9255.52
518.339	9222.75
518.706	9246.71
519.073	9230.66
519.44	9228.63
519.808	9323.77
520.175	9231.34
520.542	9370.77
520.909	9317.44
521.276	9299.59
521.643	9308.63
522.009	9378.91
522.376	9316.76
522.743	9295.74
523.11	9453.48
523.477	9415.29
523.843	9450.54
524.21	9457.32
524.577	9509.75
524.943	9440.6
525.31	9449.19
525.676	9489.19
526.043	9467.72
526.409	9437.66
526.776	9560.14
527.142	9497.77
527.508	9522.63
527.874	9527.83
528.241	9478.56
528.607	9478.56
528.973	9489.19
529.339	9449.41
529.705	9439.24
530.071	9503.2
530.437	9493.25
530.803	9472.69
531.169	9445.8
531.535	9429.98
531.901	9356.99
532.267	9410.32
532.632	9388.4
532.998	9366.7
533.364	9366.25
533.73	9352.92
534.095	9384.78
534.461	9377.32
534.826	9314.27
535.192	9293.71
535.557	9272.24
535.923	9242.64
536.288	9220.49
536.653	9226.82
537.019	9197.44
537.384	9075.86
537.749	9143.88
538.114	9072.47
538.479	9021.85
538.845	9074.73
539.21	8996.09
539.575	8976.2
539.94	8917.9
540.305	8957
540.67	8902.08
541.034	8911.35
541.399	8878.81
541.764	8820.05
542.129	8798.58
542.494	8764.01
542.858	8771.24
543.223	8702.54
543.587	8659.15
543.952	8658.25
544.316	8571.7
544.681	8522.66
545.045	8565.37
545.41	8535.99
545.774	8529.44
546.138	8411.93
546.503	8440.85
546.867	8395.43
547.231	8426.61
547.595	8352.49
547.959	8338.48
548.324	8248.31
548.688	8269.78
549.052	8207.64
549.416	8187.07
549.779	8158.37
550.143	8086.51
550.507	8130.58
550.871	8054.65
551.235	8032.27
551.599	8041.09
551.962	8016.23
552.326	7971.26
552.689	7906.85
553.053	7853.3
553.417	7889.68
553.78	7984.59
554.143	7877.7
554.507	7857.82
554.87	7857.36
555.234	7802.22
555.597	7738.05
555.96	7743.24
556.323	7757.03
556.686	7764.94
557.05	7760.64
557.413	7647.2
557.776	7651.27
558.139	7669.12
558.502	7605.39
558.865	7606.52
559.228	7666.86
559.59	7634.77
559.953	7540.76
560.316	7609.46
560.679	7571.95
561.041	7583.02
561.404	7589.8
561.767	7603.13
562.129	7496.02
562.492	7562.68
562.854	7529.69
563.217	7409.24
563.579	7531.72
563.941	7513.42
564.304	7511.84
564.666	7463.7
565.028	7496.24
565.39	7501.44
565.753	7529.24
566.115	7540.54
566.477	7524.72
566.839	7493.76
567.201	7524.04
567.563	7523.14
567.925	7553.19
568.287	7598.61
568.648	7586.86
569.01	7566.75
569.372	7553.64
569.734	7486.53
570.095	7557.71
570.457	7575.56
570.819	7551.38
571.18	7483.36
571.542	7544.15
571.903	7578.28
572.265	7557.94
572.626	7649.01
572.987	7604.94
573.349	7599.07
573.71	7625.73
574.071	7632.96
574.432	7644.04
574.794	7608.78
575.155	7590.7
575.516	7622.79
575.877	7633.64
576.238	7618.95
576.599	7663.24
576.96	7667.31
577.32	7652.17
577.681	7677.71
578.042	7677.71
578.403	7688.33
578.763	7706.41
579.124	7713.64
579.485	7741.21
579.845	7760.19
580.206	7621.21
580.566	7735.56
580.927	7729.23
581.287	7754.99
581.648	7716.8
582.008	7739.63
582.368	7720.87
582.728	7794.54
583.089	7760.19
583.449	7786.18
583.809	7751.38
584.169	7722.68
584.529	7787.31
584.889	7787.76
585.249	7789.57
585.609	7753.64
585.969	7819.17
586.329	7853.97
586.688	7811.26
587.048	7823.47
587.408	7790.7
587.768	7816.46
588.127	7827.08
588.487	7803.13
588.846	7897.59
589.206	7790.25
589.565	7854.65
589.925	7856.69
590.284	7811.26
590.643	7848.55
591.003	7813.52
591.362	7922.9
591.721	7860.08
592.08	7852.17
592.44	7887.19
592.799	7882.22
593.158	7849.45
593.517	7870.47
593.876	7878.61
594.235	7941.43
594.593	7903.46
594.952	7893.52
595.311	7886.52
595.67	7868.66
596.029	7943.01
596.387	7912.96
596.746	7932.39
597.104	7903.46
597.463	7899.62
597.822	7963.58
598.18	7873.63
598.538	7909.79
598.897	7922.9
599.255	7874.31
599.613	8025.5
599.972	7909.34
600.33	7926.29
600.688	7888.78
601.046	7924.03
601.404	7976.91
601.762	7900.07
602.12	7942.33
602.478	8005.38
602.836	8029.34
603.194	7936.01
603.552	7927.64
603.91	7886.29
604.268	7893.97
604.625	7893.75
604.983	7870.02
605.341	7955.44
605.698	7996.34
606.056	7989.11
606.413	7978.04
606.771	7959.73
607.128	7979.85
607.485	7983.24
607.843	7901.43
608.2	8058.26
608.557	8041.77
608.914	7972.62
609.272	8063.69
609.629	8065.49
609.986	8067.53
610.343	7981.88
610.7	8052.39
611.057	8070.92
611.414	8042.44
611.771	8066.17
612.127	8051.94
612.484	8016.23
612.841	8099.84
613.198	8110.69
613.554	8087.19
613.911	8049
614.267	8081.31
614.624	8098.49
614.98	8044.48
615.337	8142.55
615.693	8172.61
616.05	8132.16
616.406	8113.63
616.762	8091.48
617.118	8150.92
617.475	8100.52
617.831	8150.92
618.187	8129.67
618.543	8188.88
618.899	8222.1
619.255	8135.1
619.611	8202.21
619.967	8196.56
620.323	8178.94
620.678	8187.75
621.034	8223.23
621.39	8132.39
621.746	8111.37
622.101	8258.48
622.457	8187.98
622.812	8200.18
623.168	8216.68
623.523	8243.12
623.879	8269.78
624.234	8156.34
624.589	8227.52
624.945	8132.61
625.3	8180.29
625.655	8202.21
626.01	8188.43
626.365	8171.03
626.72	8188.65
627.075	8102.56
627.43	8158.83
627.785	8114.98
628.14	8206.96
628.495	8164.02
628.85	8215.09
629.205	8143.23
629.559	8150.46
629.914	8100.3
630.269	8145.49
630.623	8127.64
630.978	8063.91
631.332	8130.13
631.687	8164.02
632.041	8087.87
632.396	8143.46
632.75	8105.49
633.104	8027.53
633.459	8093.06
633.813	7997.93
634.167	8026.85
634.521	8082.22
634.875	7990.92
635.229	8031.6
635.583	7933.52
635.937	8006.74
636.291	7962.67
636.645	7966.29
636.999	7968.77
637.352	7908.66
637.706	7964.25
638.06	8030.69
638.413	7949.11
638.767	7906.18
639.121	7938.94
639.474	7949.56
639.828	7926.74
640.181	7879.06
640.534	7915.67
640.888	7903.01
641.241	7912.05
641.594	7909.11
641.947	7865.5
642.301	7854.43
642.654	7928.32
643.007	7853.3
643.36	7797.93
643.713	7870.25
644.066	7839.74
644.419	7796.8
644.771	7794.31
645.124	7686.97
645.477	7697.82
645.83	7678.61
646.182	7595.22
646.535	7608.33
646.888	7631.16
647.24	7561.1
647.593	7678.84
647.945	7534.21
648.298	7560.65
648.65	7667.54
649.002	7519.52
649.355	7504.83
649.707	7564.72
650.059	7555.45
650.411	7700.53
650.763	7707.09
651.115	7773.07
651.467	7721.32
651.819	7698.95
652.171	7743.47
652.523	7770.81
652.875	7726.97
653.227	7703.92
653.578	7676.35
653.93	7743.69
654.282	7702.11
654.633	7728.78
654.985	7752.96
655.337	7733.3
655.688	7765.62
656.039	7673.19
656.391	7690.36
656.742	7746.63
657.094	7741.21
657.445	7766.52
657.796	7785.05
658.147	7741.43
658.498	7721.1
658.849	7771.94
659.2	7811.04
659.551	7754.54
659.902	7788.67
660.253	7802.68
660.604	7778.5
660.955	7747.08
661.306	7806.07
661.656	7778.95
662.007	7793.41
662.358	7826.4
662.708	7783.69
663.059	7830.92
663.409	7747.99
663.76	7830.25
664.11	7802
664.461	7848.1
664.811	7827.99
665.161	7826.18
665.511	7808.33
665.862	7817.59
666.212	7859.17
666.562	7812.39
666.912	7803.81
667.262	7820.98
667.612	7849.91
667.962	7831.15
668.312	7815.56
668.662	7896.01
669.011	7845.16
669.361	7863.47
669.711	7806.74
670.06	7810.59
670.41	7785.5
670.76	7845.84
671.109	7828.44
671.459	7792.96
671.808	7839.06
672.157	7775.11
672.507	7743.69
672.856	7761.55
673.205	7728.33
673.554	7844.03
673.904	7806.97
674.253	7798.83
674.602	7789.57
674.951	7627.77
675.3	7616.24
675.649	7730.36
675.998	7745.95
676.346	7738.27
676.695	7772.17
677.044	7696.24
677.393	7694.2
677.741	7663.47
678.09	7664.83
678.438	7614.66
678.787	7697.37
679.135	7691.04
679.484	7595.9
679.832	7652.85
680.181	7576.92
680.529	7625.96
680.877	7584.38
681.225	7581.44
681.573	7653.98
681.922	7567.88
682.27	7479.97
682.618	7550.03
682.966	7505.96
683.314	7567.43
683.661	7531.04
684.009	7465.28
684.357	7429.8
684.705	7439.07
685.053	7366.08
685.4	7366.98
685.748	7445.17
686.095	7349.58
686.443	7300.77
686.79	7341.45
687.138	7354.33
687.485	7332.63
687.832	7295.57
688.18	7303.25
688.527	7190.71
688.874	7222.58
689.221	7187.33
689.568	7161.34
689.915	7183.94
690.262	7138.06
690.609	7169.7
690.956	7052.87
691.303	7103.26
691.65	7011.51
691.997	7080.89
692.344	7019.87
692.69	7028.01
693.037	6959.08
693.383	6871.18
693.73	6900.1
694.077	6915.02
694.423	6871.18
694.769	6882.02
695.116	6828.24
695.462	6858.97
695.808	6868.69
696.155	6784.17
696.501	6755.47
696.847	6776.71
697.193	6628.7
697.539	6701.69
697.885	6652.65
698.231	6600.45
698.577	6616.49
698.923	6550.51
699.269	6607.45
699.614	6515.25
699.96	6485.65
700.306	6479.77
700.651	6418.76
700.997	6414.46
701.342	6461.47
701.688	6341.92
702.033	6337.63
702.379	6369.27
702.724	6347.12
703.069	6300.57
703.415	6259.21
703.76	6280
704.105	6238.65
704.45	6186.9
704.795	6234.13
705.14	6150.97
705.485	6100.57
705.83	6146.22
706.175	6105.55
706.52	6070.07
706.865	6089.27
707.209	6057.86
707.554	6022.38
707.899	6057.64
708.243	5937.87
708.588	5965.89
708.932	5946.91
709.277	5891.99
709.621	5931.31
709.966	5874.82
710.31	5895.38
710.654	5848.6
710.998	5856.06
711.342	5870.07
711.687	5802.5
712.031	5830.07
712.375	5782.84
712.719	5781.71
713.063	5799.79
713.407	5802.73
713.75	5720.47
714.094	5815.84
714.438	5708.95
714.782	5715.95
715.125	5684.31
715.469	5714.37
715.812	5744.43
716.156	5605.9
716.499	5659.23
716.843	5667.14
717.186	5648.16
717.53	5636.41
717.873	5671.66
718.216	5628.04
718.559	5592.11
718.902	5619.91
719.246	5590.53
719.589	5569.51
719.932	5583.3
720.275	5591.43
720.617	5581.04
720.96	5568.38
721.303	5540.59
721.646	5540.14
721.989	5566.35
722.331	5532.23
722.674	5532.23
723.016	5557.54
723.359	5524.54
723.701	5558.67
724.044	5520.48
724.386	5504.66
724.729	5480.93
725.071	5482.74
725.413	5490.19
725.755	5485.45
726.097	5461.27
726.439	5405.45
726.782	5499.69
727.124	5489.29
727.465	5438.67
727.807	5503.3
728.149	5465.56
728.491	5445.9
728.833	5480.48
729.175	5448.84
729.516	5439.8
729.858	5452.91
730.199	5442.96
730.541	5426.69
730.882	5508.73
731.224	5485.9
731.565	5441.38
731.906	5429.63
732.248	5463.08
732.589	5470.08
732.93	5441.83
733.271	5401.61
733.612	5436.64
733.953	5453.36
734.294	5418.56
734.635	5386.24
734.976	5450.65
735.317	5475.73
735.658	5471.89
735.999	5488.39
736.339	5508.05
736.68	5461.72
737.021	5473.25
737.361	5465.79
737.702	5521.83
738.042	5521.83
738.383	5509.4
738.723	5553.02
739.063	5529.74
739.404	5558.89
739.744	5513.47
740.084	5530.19
740.424	5618.1
740.764	5599.57
741.104	5614.03
741.444	5611.55
741.784	5598.44
742.124	5612.45
742.464	5658.78
742.804	5723.18
743.143	5690.64
743.483	5678.89
743.823	5696.06
744.162	5759.79
744.502	5729.51
744.841	5811.77
745.181	5840.47
745.52	5842.05
745.86	5879.11
746.199	5936.74
746.538	5988.03
746.877	5979
747.216	6062.16
747.556	6050.18
747.895	6116.62
748.234	6190.97
748.573	6150.74
748.911	6252.89
749.25	6325.2
749.589	6388.93
749.928	6427.8
750.267	6512.54
750.605	6585.31
750.944	6574.69
751.283	6678.86
751.621	6844.74
751.96	6818.52
752.298	6911.17
752.636	7053.77
752.975	7101.45
753.313	7127.67
753.651	7293.99
753.989	7416.47
754.327	7500.54
754.666	7568.11
755.004	7672.96
755.342	7841.09
755.679	8035.21
756.017	8138.94
756.355	8227.07
756.693	8347.97
757.031	8501.19
757.368	8658.02
757.706	8789.32
758.044	8928.97
758.381	9043.55
758.719	9213.49
759.056	9384.78
759.394	9491.22
759.731	9652.35
760.068	9797.65
760.405	9991.77
760.743	10074.03
761.08	10293.01
761.417	10376.85
761.754	10671.53
762.091	10778.87
762.428	10968.69
762.765	11056.38
763.102	11282.36
763.438	11462.02
763.775	11520.77
764.112	11795.57
764.449	11992.4
764.785	12040.76
765.122	12179.51
765.458	12382.44
765.795	12534.08
766.131	12693.85
766.467	12852.49
766.804	12917.12
767.14	13095.87
767.476	13285.92
767.812	13427.84
768.148	13571.34
768.485	13678.91
768.821	13720.94
769.157	13985.34
769.492	14045.45
769.828	14231.89
770.164	14216.97
770.5	14374.93
770.836	14471.88
771.171	14597.07
771.507	14748.03
771.842	14751.19
772.178	14937.4
772.513	15009.27
772.849	15068.25
773.184	15087.91
773.519	15252.65
773.855	15287
774.19	15473.43
774.525	15440.89
774.86	15538.29
775.195	15671.62
775.53	15705.52
775.865	15681.34
776.2	15680.44
776.535	15668.91
776.87	15818.06
777.205	15883.37
777.539	15983.7
777.874	15936.93
778.209	15957.72
778.543	15973.99
778.878	16108.9
779.212	16054.44
779.547	16088.79
779.881	16197.26
780.215	16131.95
780.55	16182.34
780.884	16271.61
781.218	16232.96
781.552	16283.13
781.886	16273.87
782.22	16224.83
782.554	16345.28
782.888	16186.64
783.222	16197.48
783.556	16262.11
783.889	16259.63
784.223	16136.02
784.557	16214.43
784.89	16289.68
785.224	16165.62
785.557	16184.38
785.891	16102.12
786.224	16135.56
786.558	16191.38
786.891	16102.8
787.224	16132.4
787.557	16078.62
787.891	16210.36
788.224	16098.05
788.557	16145.96
788.89	16203.13
789.223	16176.02
789.556	16067.54
789.888	15976.02
790.221	16064.83
790.554	15911.39
790.887	15999.75
791.219	15858.06
791.552	15923.82
791.884	15860.77
792.217	15803.37
792.549	15729.7
792.882	15800.21
793.214	15782.81
793.546	15764.95
793.879	15709.36
794.211	15591.85
794.543	15687.89
794.875	15583.26
795.207	15708.68
795.539	15614.67
795.871	15621
796.203	15472.76
796.535	15494.68
796.867	15417.84
797.198	15498.29
797.53	15434.34
797.862	15309.82
798.193	15389.37
798.525	15289.48
798.856	15373.1
799.188	15242.93
799.519	15132.43
799.85	15015.59
800.182	15047.46
800.513	15128.13
800.844	14925.43
801.175	15047.01
801.506	15072.09
801.837	14974.47
802.168	14875.26
802.499	14836.16
802.83	14811.08
803.161	14855.15
803.491	14740.12
803.822	14845.65
804.153	14775.15
804.483	14650.41
804.814	14738.09
805.145	14639.78
805.475	14717.97
805.805	14531.54
806.136	14583.29
806.466	14534.48
806.796	14528.38
807.126	14437.76
807.457	14489.96
807.787	14423.97
808.117	14346.23
808.447	14316.18
808.777	14420.13
809.107	14292.9
809.436	14233.02
809.766	14204.99
810.096	14253.13
810.426	14170.42
810.755	14230.98
811.085	14179.01
811.414	14176.52
811.744	14010.87
812.073	13974.04
812.403	14033.02
812.732	14042.06
813.061	14002.51
813.39	13880.03
813.719	13978.11
814.049	13920.26
814.378	13937.88
814.707	13769.07
815.036	13809.98
815.365	13828.28
815.693	13674.16
816.022	13632.13
816.351	13702.86
816.68	13621.51
817.008	13629.19
817.337	13529.76
817.665	13528.18
817.994	13576.99
818.322	13520.27
818.651	13456.31
818.979	13359.82
819.307	13503.32
819.636	13356.43
819.964	13375.19
820.292	13452.92
820.62	13414.73
820.948	13436.43
821.276	13408.18
821.604	13394.62
821.932	13380.83
822.259	13446.6
822.587	13299.48
822.915	13268.97
823.243	13331.12
823.57	13347.84
823.898	13294.51
824.225	13229.43
824.553	13342.19
824.88	13327.95
825.207	13358.24
825.535	13373.83
825.862	13339.48
826.189	13333.83
826.516	13374.51
826.843	13373.83
827.17	13395.07
827.497	13364.11
827.824	13399.59
828.151	13372.7
828.478	13476.43
828.805	13412.02
829.131	13364.79
829.458	13353.94
829.785	13335.19
830.111	13342.87
830.438	13453.6
830.764	13460.61
831.09	13404.34
831.417	13307.39
831.743	13391.68
832.069	13338.12
832.395	13309.2
832.722	13365.24
833.048	13286.83
833.374	13285.7
833.7	13253.38
834.026	13280.27
834.351	13426.48
834.677	13259.48
835.003	13207.96
835.329	13271.46
835.654	13230.78
835.98	13158.02
836.306	13266.04
836.631	13058.81
836.956	13198.01
837.282	13242.53
837.607	13086.61
837.932	13068.98
838.258	13038.47
838.583	13116.89
838.908	13080.28
839.233	13090.22
839.558	12996.89
839.883	13004.35
840.208	12867.4
840.533	13000.51
840.858	12885.48
841.182	12887.74
841.507	12939.72
841.832	12925.71
842.156	12846.39
842.481	12847.29
842.805	12835.31
843.13	12803.22
843.454	12710.34
843.778	12757.57
844.103	12662.66
844.427	12657.46
844.751	12646.84
845.075	12566.39
845.399	12577.24
845.723	12488.88
846.047	12564.81
846.371	12478.26
846.695	12387.41
847.019	12251.15
847.343	12201.88
847.666	12200.07
847.99	12227.19
848.313	12176.12
848.637	12033.53
848.96	12040.08
849.284	11944.94
849.607	11936.8
849.931	12012.06
850.254	11803.93
850.577	11806.41
850.9	11725.96
851.223	11669.92
851.546	11642.8
851.869	11540.66
852.192	11699.3
852.515	11510.15
852.838	11486.2
853.161	11455.91
853.483	11440.77
853.806	11281.45
854.129	11342.24
854.451	11291.4
854.774	11278.29
855.096	11204.39
855.419	11246.88
855.741	11142.7
856.063	11032.2
856.385	11123.72
856.708	11042.59
857.03	10954.01
857.352	11019.54
857.674	10945.19
857.996	10967.11
858.318	10806.89
858.64	10831.98
858.961	10817.06
859.283	10824.29
859.605	10726.44
859.926	10806.89
860.248	10676.27
860.57	10708.81
860.891	10686.44
861.212	10630.17
861.534	10672.66
861.855	10571.19
862.176	10535.03
862.498	10554.69
862.819	10526.9
863.14	10511.08
863.461	10453.45
863.782	10467.92
864.103	10483.96
864.424	10435.38
864.745	10410.97
865.065	10341.59
865.386	10415.49
865.707	10333.23
866.027	10384.98
866.348	10304.76
866.668	10331.42
866.989	10267.24
867.309	10249.17
867.63	10199.22
867.95	10262.72
868.27	10201.48
868.59	10177.08
868.91	10070.87
869.23	10099.11
869.55	10105.67
869.87	10194.25
870.19	10134.59
870.51	10175.27
870.83	10099.11
871.15	10075.84
871.469	10060.02
871.789	10088.94
872.109	10031.09
872.428	9942.05
872.748	9979.57
873.067	10055.05
873.386	9930.3
873.706	10007.59
874.025	9888.05
874.344	9874.26
874.663	9854.6
874.982	9901.83
875.301	9843.75
875.62	9805.11
875.939	9841.04
876.258	9834.71
876.577	9813.24
876.896	9821.83
877.214	9789.06
877.533	9716.07
877.852	9743.42
878.17	9708.39
878.489	9743.19
878.807	9670.65
879.125	9702.97
879.444	9750.87
879.762	9721.04
880.08	9673.59
880.398	9608.96
880.716	9612.12
881.034	9506.13
881.352	9541.16
881.67	9481.28
881.988	9498.9
882.306	9474.95
882.624	9501.16
882.941	9453.71
883.259	9336.42
883.577	9379.81
883.894	9417.55
884.212	9366.7
884.529	9363.99
884.846	9346.59
885.164	9308.63
885.481	9234.28
885.798	9274.05
886.115	9171.45
886.432	9193.15
886.75	9192.47
887.067	9231.57
887.383	9122.64
887.7	9147.95
888.017	9105.24
888.334	9138.01
888.651	9074.96
888.967	9019.14
889.284	8989.99
889.6	9003.32
889.917	8926.04
890.233	8957.9
890.55	8907.73
890.866	8895.3
891.182	8824.8
891.498	8782.31
891.815	8797.23
892.131	8784.8
892.447	8680.17
892.763	8694.4
893.079	8641.07
893.395	8645.82
893.71	8599.94
894.026	8653.5
894.342	8626.84
894.657	8571.92
894.973	8519.49
895.289	8529.66
895.604	8452.15
895.92	8394.3
896.235	8388.42
896.55	8444.92
896.865	8338.93
897.181	8284.25
897.496	8386.16
897.811	8294.64
898.126	8259.61
898.441	8203.57
898.756	8204.25
899.071	8134.42
899.386	8155.89
899.7	8042.22
900.015	8125.15
900.33	8027.08
900.644	7997.7
900.959	7976.68
901.273	7998.6
901.588	7886.97
901.902	7922
902.216	7914.99
902.531	7837.25
902.845	7844.03
903.159	7768.78
903.473	7748.67
903.787	7721.32
904.101	7619.18
904.415	7663.24
904.729	7593.64
905.042	7591.61
905.356	7622.12
905.67	7570.14
905.984	7550.25
906.297	7558.61
906.611	7390.48
906.924	7442.91
907.237	7457.15
907.551	7355.68
907.864	7334.44
908.177	7356.36
908.491	7286.31
908.804	7229.81
909.117	7187.78
909.43	7172.86
909.743	7170.38
910.056	7170.38
910.368	7066.2
910.681	7060.55
910.994	7119.08
911.307	7051.74
911.619	7008.12
911.932	6978.07
912.244	6918.86
912.557	6945.98
912.869	6931.29
913.181	6846.77
913.494	6839.54
913.806	6743.72
914.118	6778.97
914.43	6705.08
914.742	6669.37
915.054	6708.24
915.366	6634.8
915.678	6592.76
915.99	6559.09
916.302	6526.1
916.613	6595.02
916.925	6538.98
917.236	6498.08
917.548	6470.06
917.859	6465.31
918.171	6445.2
918.482	6401.36
918.794	6340.34
919.105	6313.22
919.416	6347.8
919.727	6293.56
920.038	6287.69
920.349	6243.4
920.66	6206.56
920.971	6241.36
921.282	6153
921.593	6123.62
921.903	5997.07
922.214	6059.9
922.525	6103.29
922.835	6094.92
923.146	6023.74
923.456	5967.92
923.767	5971.31
924.077	5949.84
924.387	5907.13
924.697	5871.65
925.008	5868.04
925.318	5823.75
925.628	5868.72
925.938	5846.34
926.248	5745.78
926.558	5786.01
926.867	5747.14
927.177	5701.71
927.487	5623.75
927.796	5654.94
928.106	5652.45
928.416	5602.51
928.725	5582.62
929.034	5557.99
929.344	5572.9
929.653	5528.84
929.962	5481.16
930.271	5462.85
930.581	5470.08
930.89	5444.77
931.199	5347.6
931.508	5400.03
931.817	5363.64
932.125	5347.6
932.434	5362.06
932.743	5285
933.051	5283.42
933.36	5216.76
933.669	5252.23
933.977	5157.77
934.286	5179.69
934.594	5191.9
934.902	5108.74
935.21	5128.17
935.519	5128.62
935.827	5084.78
936.135	5069.64
936.443	5026.48
936.751	5002.07
937.059	5024.44
937.367	4983.09
937.674	4949.87
937.982	4959.59
938.29	4906.26
938.597	4962.52
938.905	4855.18
939.213	4857.89
939.52	4871.91
939.827	4846.14
940.135	4765.92
940.442	4779.03
940.749	4805.47
941.056	4777.9
941.363	4689.99
941.67	4757.78
941.977	4611.12
942.284	4658.58
942.591	4679.82
942.898	4616.77
943.205	4601.18
943.511	4601.18
943.818	4565.47
944.125	4493.61
944.431	4517.79
944.738	4536.32
945.044	4461.52
945.35	4473.27
945.657	4417.23
945.963	4442.09
946.269	4420.17
946.575	4428.08
946.881	4332.94
947.187	4377.68
947.493	4353.05
947.799	4319.38
948.105	4307.4
948.41	4275.54
948.716	4264.01
949.022	4230.34
949.327	4252.94
949.633	4166.16
949.938	4211.58
950.244	4179.04
950.549	4181.53
950.854	4130.23
951.16	4173.85
951.465	4096.11
951.77	4054.75
952.075	4086.16
952.38	4039.61
952.685	4030.8
952.99	3996.22
953.294	3993.28
953.599	4023.79
953.904	3976.11
954.209	3926.39
954.513	3961.65
954.818	3923
955.122	3896.79
955.426	3880.07
955.731	3852.95
956.035	3868.09
956.339	3830.8
956.643	3841.65
956.948	3810.01
957.252	3749.68
957.556	3746.96
957.86	3715.55
958.163	3731.6
958.467	3699.96
958.771	3712.16
959.075	3671.03
959.378	3699.06
959.682	3652.05
959.985	3632.84
960.289	3628.32
960.592	3632.84
960.896	3602.33
961.199	3598.04
961.502	3574.54
961.805	3556.91
962.108	3523.92
962.411	3503.35
962.714	3482.79
963.017	3487.54
963.32	3482.56
963.623	3496.8
963.926	3506.74
964.228	3436.24
964.531	3418.38
964.833	3373.64
965.136	3361.89
965.438	3390.14
965.741	3337.48
966.043	3359.18
966.345	3317.14
966.648	3318.73
966.95	3302
967.252	3248.22
967.554	3276.24
967.856	3252.51
968.158	3246.64
968.46	3239.18
968.761	3215
969.063	3223.36
969.365	3173.42
969.666	3208.45
969.968	3129.13
970.269	3157.6
970.571	3138.84
970.872	3125.74
971.174	3119.86
971.475	3095
971.776	3107.21
972.077	3064.72
972.378	3059.98
972.679	3060.43
972.98	3018.62
973.281	2955.35
973.582	2988.79
973.883	2973.42
974.183	2985.4
974.484	2957.61
974.785	2927.32
975.085	2926.65
975.386	2955.57
975.686	2938.17
975.986	2929.58
976.287	2911.05
976.587	2869.47
976.887	2898.62
977.187	2818.17
977.487	2880.77
977.787	2818.4
978.087	2802.36
978.387	2810.49
978.687	2797.84
978.987	2776.37
979.286	2739.31
979.586	2719.19
979.885	2763.71
980.185	2727.56
980.484	2712.87
980.784	2696.82
981.083	2698.86
981.382	2693.88
981.682	2693.88
981.981	2658.86
982.28	2650.5
982.579	2639.42
982.878	2612.76
983.177	2627.45
983.475	2586.09
983.774	2609.14
984.073	2602.59
984.372	2555.36
984.67	2574.57
984.969	2543.15
985.267	2539.54
985.566	2541.8
985.864	2499.31
986.162	2485.08
986.461	2470.61
986.759	2469.71
987.057	2457.51
987.355	2464.29
987.653	2434.23
987.951	2455.25
988.249	2394.91
988.547	2415.7
988.844	2373.89
989.142	2387.68
989.44	2370.28
989.737	2342.71
990.035	2338.19
990.332	2344.06
990.63	2318.3
990.927	2325.98
991.224	2302.26
991.521	2275.59
991.819	2306.55
992.116	2266.1
992.413	2280.79
992.71	2233.11
993.006	2238.53
993.303	2229.94
993.6	2228.81
993.897	2220.68
994.193	2205.99
994.49	2188.13
994.787	2185.2
995.083	2183.16
995.379	2139.32
995.676	2180.9
995.972	2128.7
996.268	2103.62
996.565	2115.59
996.861	2113.11
997.157	2099.1
997.453	2095.03
997.749	2076.73
998.044	2053.67
998.34	2084.63
998.636	2050.74
998.932	2051.87
999.227	2027.91
999.523	2011.42
999.818	1990.85
1000.114	1998.99
1000.409	2022.04
1000.704	1945.88
1001	1971.64
1001.295	1974.13
1001.59	1958.31
1001.885	1940.46
1002.18	1937.52
1002.475	1891.42
1002.77	1893.91
1003.065	1887.35
1003.359	1899.1
1003.654	1865.88
1003.949	1874.7
1004.243	1886
1004.538	1817.75
1004.832	1854.13
1005.127	1819.1
1005.421	1814.81
1005.715	1796.51
1006.009	1797.64
1006.304	1787.24
1006.598	1771.42
1006.892	1769.84
1007.186	1751.31
1007.48	1748.15
1007.773	1765.55
1008.067	1752.67
1008.361	1708.6
1008.655	1686
1008.948	1663.4
1009.242	1676.06
1009.535	1674.25
1009.829	1678.32
1010.122	1656.62
1010.415	1634.02
1010.708	1647.13
1011.001	1617.08
1011.295	1632.89
1011.588	1610.97
1011.881	1609.84
1012.173	1545.21
1012.466	1596.29
1012.759	1565.78
1013.052	1572.33
1013.344	1592.22
1013.637	1589.05
1013.93	1544.31
1014.222	1545.67
1014.514	1538.21
1014.807	1495.05
1015.099	1517.42
1015.391	1497.31
1015.683	1507.47
1015.976	1475.84
1016.268	1485.33
1016.56	1458.21
1016.851	1448.27
1017.143	1462.73
1017.435	1449.4
1017.727	1429.51
1018.018	1409.85
1018.31	1424.31
1018.602	1417.53
1018.893	1369.4
1019.185	1398.32
1019.476	1367.82
1019.767	1364.65
1020.058	1334.6
1020.35	1333.92
1020.641	1358.78
1020.932	1350.87
1021.223	1339.34
1021.514	1349.96
1021.804	1297.54
1022.095	1300.25
1022.386	1304.09
1022.677	1311.1
1022.967	1276.97
1023.258	1269.74
1023.548	1240.81
1023.839	1248.27
1024.129	1253.7
1024.419	1244.88
1024.709	1235.62
1025	1213.92
1025.29	1207.6
1025.58	1225.22
1025.87	1180.25
1026.16	1176.86
1026.449	1213.7
1026.739	1191.1
1027.029	1143.19
1027.319	1140.48
1027.608	1158.11
1027.898	1112.68
1028.187	1109.74
1028.477	1122.17
1028.766	1119.46
1029.055	1127.82
1029.344	1119.46
1029.634	1114.72
1029.923	1095.96
1030.212	1079.69
1030.501	1061.16
1030.79	1082.63
1031.078	1080.82
1031.367	1077.66
1031.656	1065.23
1031.945	1027.94
1032.233	1048.96
1032.522	1008.5
1032.81	1031.78
1033.099	1026.58
1033.387	1032.23
1033.675	998.11
1033.963	989.52
1034.251	1017.77
1034.54	983.65
1034.828	974.83
1035.116	977.77
1035.403	990.88
1035.691	962.4
1035.979	970.77
1036.267	955.85
1036.554	948.39
1036.842	932.35
1037.129	938.68
1037.417	956.75
1037.704	948.17
1037.992	918.34
1038.279	925.79
1038.566	902.52
1038.853	902.52
1039.14	902.52
