Data from hue_150_FLMS001491_00075.txt Node
Date: Tue Feb 07 16:54:30 GMT 2017
User: dcchb
Spectrometer: FLMS00149
Trigger mode: 0
Integration Time (sec): 2.000000E-2
Scans to average: 10
Electric dark correction enabled: true
Nonlinearity correction enabled: false
Boxcar width: 0
XAxis mode: Wavelengths
Number of Pixels in Spectrum: 2048
>>>>>Begin Spectral Data<<<<<
341.393	-11.57
341.776	-11.57
342.16	-11.57
342.543	-53.6
342.927	-64.9
343.31	-79.14
343.693	-84.56
344.077	-64.22
344.46	-63.32
344.843	-49.08
345.226	-43.21
345.61	-22.41
345.993	-12.47
346.376	-16.09
346.759	14.87
347.142	49
347.525	45.38
347.908	45.61
348.291	77.47
348.674	90.12
349.057	112.05
349.44	135.32
349.823	137.58
350.206	186.17
350.588	198.37
350.971	202.21
351.354	223
351.737	257.8
352.119	234.98
352.502	262.55
352.884	292.15
353.267	291.48
353.65	260.29
354.032	313.62
354.414	299.38
354.797	314.3
355.179	312.27
355.562	322.89
355.944	322.44
356.326	337.35
356.709	354.52
357.091	354.98
357.473	337.8
357.855	344.13
358.238	364.47
358.62	342.77
359.002	340.29
359.384	358.14
359.766	333.06
360.148	333.06
360.53	322.66
360.912	345.71
361.294	353.17
361.676	322.89
362.057	348.2
362.439	353.39
362.821	340.29
363.203	316.79
363.584	305.71
363.966	332.38
364.348	340.06
364.729	322.66
365.111	320.18
365.493	342.77
365.874	309.78
366.256	298.48
366.637	310.23
367.019	303.9
367.4	313.17
367.781	305.71
368.163	333.96
368.544	288.99
368.925	314.98
369.306	338.25
369.688	300.97
370.069	311.81
370.45	334.41
370.831	304.58
371.212	313.17
371.593	305.94
371.974	316.79
372.355	302.77
372.736	324.47
373.117	325.82
373.498	320.18
373.879	303.9
374.26	321.76
374.641	306.16
375.021	318.82
375.402	319.72
375.783	317.24
376.163	332.38
376.544	328.08
376.925	315.88
377.305	335.32
377.686	343.9
378.066	334.86
378.447	350.91
378.827	339.84
379.208	331.93
379.588	336.9
379.968	354.07
380.349	311.14
380.729	352.26
381.109	342.32
381.489	325.6
381.87	338.03
382.25	331.25
382.63	340.06
383.01	339.16
383.39	352.72
383.77	342.55
384.15	337.12
384.53	343.23
384.91	330.8
385.29	360.85
385.67	366.5
386.049	354.98
386.429	357.24
386.809	349.78
387.189	342.77
387.568	343
387.948	354.98
388.328	360.17
388.707	358.14
389.087	346.84
389.466	358.59
389.846	361.76
390.225	369.67
390.605	343.45
390.984	362.66
391.363	382.32
391.743	369.21
392.122	378.25
392.501	371.93
392.881	389.33
393.26	357.69
393.639	390.91
394.018	375.99
394.397	383.22
394.776	387.52
395.155	380.74
395.534	397.01
395.913	371.47
396.292	399.04
396.671	403.56
397.05	388.2
397.429	389.78
397.808	392.26
398.186	407.86
398.565	380.51
398.944	400.85
399.323	405.6
399.701	392.49
400.08	420.51
400.458	400.85
400.837	412.83
401.215	418.48
401.594	410.79
401.972	418.25
402.351	400.85
402.729	422.55
403.107	399.5
403.486	412.6
403.864	395.88
404.242	418.03
404.62	408.99
404.999	408.53
405.377	419.61
405.755	445.14
406.133	443.56
406.511	437.46
406.889	438.82
407.267	423.68
407.645	451.25
408.023	455.54
408.401	454.63
408.779	459.15
409.156	451.7
409.534	455.99
409.912	444.92
410.29	479.72
410.667	479.27
411.045	471.58
411.422	451.47
411.8	481.07
412.178	479.72
412.555	463.9
412.933	475.65
413.31	491.02
413.687	485.37
414.065	517.23
414.442	481.3
414.819	496.67
415.197	500.51
415.574	493.73
415.951	497.12
416.328	540.28
416.705	515.65
417.082	526.5
417.46	517.91
417.837	507.74
418.214	521.53
418.591	514.07
418.967	511.13
419.344	528.08
419.721	555.88
420.098	520.85
420.475	529.44
420.852	552.26
421.228	558.81
421.605	545.25
421.982	555.88
422.358	562.43
422.735	569.89
423.111	565.59
423.488	573.28
423.864	573.95
424.241	588.64
424.617	575.54
424.994	609.66
425.37	599.49
425.746	594.74
426.123	612.37
426.499	580.51
426.875	584.8
427.251	631.35
427.627	623.67
428.003	618.7
428.379	629.55
428.756	620.28
429.132	642.43
429.507	658.25
429.883	653.73
430.259	650.56
430.635	653.27
431.011	659.38
431.387	673.84
431.763	709.77
432.138	700.28
432.514	679.04
432.89	687.62
433.265	701.63
433.641	705.7
434.016	674.74
434.392	714.29
434.767	724.68
435.143	738.24
435.518	724.68
435.894	725.36
436.269	735.98
436.644	751.8
437.02	771.46
437.395	756.1
437.77	769.65
438.145	786.15
438.52	775.76
438.895	801.97
439.271	796.32
439.646	788.19
440.021	794.74
440.395	813.5
440.77	806.26
441.145	792.93
441.52	846.72
441.895	824.12
442.27	844.68
442.645	833.16
443.019	842.65
443.394	842.87
443.769	860.27
444.143	858.24
444.518	872.93
444.892	866.6
445.267	881.52
445.641	896.66
446.016	880.39
446.39	906.15
446.764	877.22
447.139	871.8
447.513	932.36
447.887	924.23
448.262	945.7
448.636	921.74
449.01	943.89
449.384	933.49
449.758	946.83
450.132	964
450.506	975.75
450.88	988.63
451.254	978.69
451.628	992.25
452.002	994.06
452.376	1028.63
452.75	1016.88
453.123	1031.12
453.497	1032.25
453.871	1048.07
454.244	1071.57
454.618	1066.6
454.992	1097.1
455.365	1086.26
455.739	1103.43
456.112	1131.91
456.486	1119.48
456.859	1158.35
457.232	1123.09
457.606	1159.02
457.979	1182.75
458.352	1171
458.725	1214.39
459.099	1220.26
459.472	1233.82
459.845	1268.62
460.218	1262.98
460.591	1283.99
460.964	1305.69
461.337	1304.56
461.71	1331.67
462.083	1338.45
462.456	1333.26
462.829	1388.17
463.201	1390.66
463.574	1397.89
463.947	1392.46
464.32	1453.7
464.692	1464.33
465.065	1494.61
465.438	1481.5
465.81	1542.06
466.183	1576.64
466.555	1577.09
466.928	1569.63
467.3	1593.81
467.672	1598.33
468.045	1692.79
468.417	1679.91
468.789	1681.04
469.161	1717.65
469.534	1761.49
469.906	1792
470.278	1824.99
470.65	1856.63
471.022	1884.88
471.394	1957.87
471.766	2008.27
472.138	1994.93
472.51	2027.47
472.882	2074.71
473.253	2101.37
473.625	2153.57
473.997	2179.11
474.369	2203.29
474.74	2265.66
475.112	2354.92
475.484	2394.7
475.855	2452.1
476.227	2496.62
476.598	2574.35
476.97	2652.32
477.341	2678.53
477.713	2739.77
478.084	2794.91
478.455	2879.43
478.827	2943.16
479.198	3048.01
479.569	3105.64
479.94	3202.59
480.311	3265.41
480.682	3346.54
481.053	3469.47
481.424	3555.57
481.795	3607.32
482.166	3737.03
482.537	3796.47
482.908	3966.63
483.279	4044.37
483.65	4077.59
484.021	4306.29
484.391	4354.19
484.762	4397.13
485.133	4507.18
485.503	4650.23
485.874	4777.01
486.244	4896.1
486.615	5083.67
486.985	5135.87
487.356	5301.74
487.726	5386.93
488.097	5535.41
488.467	5667.38
488.837	5793.03
489.207	5896.75
489.578	6061.95
489.948	6157.76
490.318	6273.92
490.688	6367.02
491.058	6570.41
491.428	6754.81
491.798	6814.47
492.168	7056.5
492.538	7111.64
492.908	7241.58
493.278	7361.57
493.648	7421.91
494.017	7643.15
494.387	7783.26
494.757	7938.51
495.126	8050.14
495.496	8120.42
495.866	8280.19
496.235	8360.19
496.605	8490.36
496.974	8623.91
497.344	8760.86
497.713	8860.97
498.082	9003.34
498.452	9098.93
498.821	9158.81
499.19	9308.41
499.559	9376.66
499.928	9531.68
500.298	9564
500.667	9697.33
501.036	9702.08
501.405	9909.53
501.774	9931
502.143	9986.59
502.512	10110.65
502.88	10281.95
503.249	10293.02
503.618	10410.76
503.987	10493.92
504.356	10561.71
504.724	10646.46
505.093	10656.85
505.462	10789.28
505.83	10840.12
506.199	10973.68
506.567	11028.59
506.936	11096.39
507.304	11239.21
507.672	11243.05
508.041	11396.95
508.409	11424.29
508.777	11482.14
509.145	11590.39
509.514	11582.48
509.882	11684.4
510.25	11701.34
510.618	11744.51
510.986	11806.2
511.354	11850.72
511.722	11912.19
512.09	11985.86
512.458	12015.91
512.826	12139.3
513.193	12192.18
513.561	12186.76
513.929	12314.66
514.297	12358.73
514.664	12379.29
515.032	12409.8
515.4	12562.79
515.767	12597.14
516.135	12578.38
516.502	12524.37
516.869	12746.97
517.237	12743.8
517.604	12640.76
517.972	12783.8
518.339	12736.35
518.706	12811.82
519.073	12892.27
519.44	12839.85
519.808	12972.05
520.175	12938.83
520.542	13111.48
520.909	13114.19
521.276	13091.59
521.643	13121.65
522.009	13181.31
522.376	13182.89
522.743	13247.74
523.11	13325.26
523.477	13324.35
523.843	13377.01
524.21	13457.46
524.577	13521.18
524.943	13598.24
525.31	13506.72
525.676	13689.99
526.043	13595.08
526.409	13613.16
526.776	13702.65
527.142	13702.42
527.508	13753.49
527.874	13815.64
528.241	13809.54
528.607	13777.45
528.973	13871.68
529.339	13778.35
529.705	13817.45
530.071	13884.34
530.437	13863.32
530.803	13858.35
531.169	13927.73
531.535	13852.02
531.901	13865.13
532.267	13857.22
532.632	13859.48
532.998	13803.44
533.364	13937.9
533.73	13849.54
534.095	13820.39
534.461	13915.98
534.826	13856.99
535.192	13851.34
535.557	13929.99
535.923	13877.33
536.288	13886.82
536.653	13853.38
537.019	13740.84
537.384	13704.23
537.749	13729.31
538.114	13733.16
538.479	13659.94
538.845	13675.98
539.21	13523.44
539.575	13661.75
539.94	13587.62
540.305	13646.83
540.67	13582.88
541.034	13545.36
541.399	13530.9
541.764	13469.21
542.129	13537.68
542.494	13417.01
542.858	13379.49
543.223	13397.12
543.587	13305.14
543.952	13328.65
544.316	13275.99
544.681	13266.05
545.045	13197.58
545.41	13261.3
545.774	13126.84
546.138	13181.31
546.503	13041.65
546.867	13148.76
547.231	13168.65
547.595	13050.24
547.959	13029.22
548.324	13001.42
548.688	12927.53
549.052	12939.73
549.416	12868.77
549.779	12737.7
550.143	12805.72
550.507	12873.97
550.871	12844.82
551.235	12762.79
551.599	12764.82
551.962	12732.28
552.326	12698.61
552.689	12730.47
553.053	12543.58
553.417	12611.6
553.78	12691.83
554.143	12653.41
554.507	12593.3
554.87	12573.19
555.234	12683.69
555.597	12510.59
555.96	12518.05
556.323	12546.29
556.686	12550.59
557.05	12576.58
557.413	12499.06
557.776	12443.25
558.139	12499.97
558.502	12419.07
558.865	12441.89
559.228	12544.49
559.59	12448.9
559.953	12448.22
560.316	12527.76
560.679	12511.95
561.041	12522.11
561.404	12568.67
561.767	12592.17
562.129	12455.45
562.492	12545.62
562.854	12504.49
563.217	12523.7
563.579	12543.58
563.941	12485.28
564.304	12539.51
564.666	12662.68
565.028	12575.45
565.39	12586.75
565.753	12653.18
566.115	12593.07
566.477	12638.5
566.839	12622.68
567.201	12673.07
567.563	12643.02
567.925	12733.41
568.287	12684.6
568.648	12680.3
569.01	12749
569.372	12801.88
569.734	12753.52
570.095	12775.67
570.457	12770.02
570.819	12771.37
571.18	12729.34
571.542	12824.03
571.903	12772.05
572.265	12902.44
572.626	12851.6
572.987	12802.78
573.349	12857.47
573.71	12817.02
574.071	12925.49
574.432	12851.15
574.794	12984.93
575.155	12958.94
575.516	12895.66
575.877	12985.6
576.238	12949.67
576.599	12973.63
576.96	12956.45
577.32	12914.87
577.681	12956.23
578.042	12964.36
578.403	12990.35
578.763	12979.96
579.124	12984.47
579.485	12965.49
579.845	12963.68
580.206	12965.72
580.566	13015.43
580.927	13002.33
581.287	12943.8
581.648	12960.52
582.008	12988.09
582.368	13033.51
582.728	12991.71
583.089	12981.54
583.449	12887.75
583.809	12930.69
584.169	12913.97
584.529	12861.99
584.889	12989.9
585.249	12869.45
585.609	12847.08
585.969	12890.92
586.329	12826.96
586.688	12830.35
587.048	12826.74
587.408	12897.47
587.768	12873.07
588.127	12845.27
588.487	12813.63
588.846	12893.63
589.206	12846.17
589.565	12749
589.925	12840.75
590.284	12781.99
590.643	12856.34
591.003	12828.55
591.362	12760.3
591.721	12881.65
592.08	12760.3
592.44	12833.74
592.799	12776.8
593.158	12767.53
593.517	12733.86
593.876	12786.74
594.235	12687.31
594.593	12825.61
594.952	12778.15
595.311	12697.25
595.67	12620.19
596.029	12818.38
596.387	12790.58
596.746	12780.19
597.104	12730.7
597.463	12725.27
597.822	12784.03
598.18	12658.38
598.538	12693.41
598.897	12791.26
599.255	12579.29
599.613	12771.83
599.972	12681.43
600.33	12712.84
600.688	12693.64
601.046	12818.38
601.404	12746.06
601.762	12592.85
602.12	12730.92
602.478	12699.06
602.836	12712.62
603.194	12625.39
603.552	12631.94
603.91	12613.19
604.268	12741.32
604.625	12601.89
604.983	12638.95
605.341	12650.47
605.698	12691.6
606.056	12738.38
606.413	12683.92
606.771	12696.35
607.128	12668.78
607.485	12596.24
607.843	12677.82
608.2	12704.71
608.557	12726.63
608.914	12701.32
609.272	12753.97
609.629	12749.23
609.986	12819.51
610.343	12744.71
610.7	12847.76
611.057	12817.7
611.414	12776.57
611.771	12909.22
612.127	12854.76
612.484	12876.46
612.841	12916
613.198	12865.38
613.554	12901.31
613.911	12890.69
614.267	12962.55
614.624	12865.61
614.98	12896.12
615.337	12956.23
615.693	12932.27
616.05	12900.41
616.406	13017.47
616.762	12969.79
617.118	12934.53
617.475	12967.98
617.831	13040.07
618.187	13016.56
618.543	12960.75
618.899	13065.6
619.255	13105.6
619.611	13017.69
619.967	13072.38
620.323	13140.63
620.678	13035.32
621.034	12997.58
621.39	13010.91
621.746	13023.12
622.101	13181.76
622.457	13075.09
622.812	13136.11
623.168	13087.3
623.523	13096.11
623.879	13131.36
624.234	12998.94
624.589	13077.35
624.945	13054.98
625.3	13031.03
625.655	13006.17
626.01	13017.47
626.365	13096.79
626.72	13081.2
627.075	13061.08
627.43	13032.16
627.785	13089.1
628.14	13084.81
628.495	13027.19
628.85	13017.02
629.205	13017.24
629.559	13096.34
629.914	12869.22
630.269	13007.3
630.623	12979.73
630.978	12969.79
631.332	12952.84
631.687	13053.63
632.041	12960.97
632.396	12868.77
632.75	12894.31
633.104	13024.93
633.459	12983.12
633.813	12927.75
634.167	12831.71
634.521	12823.35
634.875	12865.61
635.229	12859.96
635.583	12801.43
635.937	12742.22
636.291	12756.01
636.645	12681.21
636.999	12702.45
637.352	12765.5
637.706	12776.34
638.06	12711.71
638.413	12571.6
638.767	12642.34
639.121	12646.4
639.474	12569.57
639.828	12529.35
640.181	12577.48
640.534	12615.67
640.888	12551.94
641.241	12435.56
641.594	12489.8
641.947	12471.04
642.301	12536.13
642.654	12464.26
643.007	12485.05
643.36	12507.65
643.713	12484.83
644.066	12532.74
644.419	12408.44
644.771	12363.25
645.124	12309.92
645.477	12307.88
645.83	12250.93
646.182	12162.12
646.535	12083.71
646.888	12083.71
647.24	12016.82
647.593	11996.7
647.945	12052.07
648.298	12038.29
648.65	11960.1
649.002	11938.85
649.355	12049.81
649.707	12011.62
650.059	12134.33
650.411	12258.17
650.763	12315.79
651.115	12355.11
651.467	12351.27
651.819	12356.69
652.171	12407.77
652.523	12233.08
652.875	12312.18
653.227	12322.8
653.578	12402.34
653.93	12305.4
654.282	12323.02
654.633	12256.13
654.985	12267.21
655.337	12268.56
655.688	12241.67
656.039	12392.4
656.391	12300.88
656.742	12282.57
657.094	12283.02
657.445	12295.91
657.796	12318.28
658.147	12357.37
658.498	12257.49
658.849	12292.06
659.2	12316.24
659.551	12302.01
659.902	12328.67
660.253	12325.06
660.604	12376.58
660.955	12304.94
661.306	12350.82
661.656	12343.81
662.007	12376.13
662.358	12434.88
662.708	12308.33
663.059	12337.26
663.409	12316.24
663.76	12488.44
664.11	12350.37
664.461	12389.24
664.811	12404.38
665.161	12344.27
665.511	12328.45
665.862	12305.62
666.212	12366.86
666.562	12454.09
666.912	12352.4
667.262	12305.62
667.612	12286.87
667.962	12377.94
668.312	12345.62
668.662	12433.08
669.011	12307.66
669.361	12292.97
669.711	12316.02
670.06	12311.27
670.41	12275.79
670.76	12250.26
671.109	12346.3
671.459	12308.79
671.808	12242.57
672.157	12335.9
672.507	12225.85
672.856	12207.55
673.205	12283.48
673.554	12327.77
673.904	12286.41
674.253	12362.34
674.602	12222.46
674.951	12088.68
675.3	11999.42
675.649	12142.46
675.998	12146.08
676.346	12158.73
676.695	12163.25
677.044	12121.67
677.393	12167.55
677.741	12144.95
678.09	12073.99
678.438	12089.13
678.787	12149.24
679.135	12101.56
679.484	12022.92
679.832	12074.89
680.181	11958.06
680.529	12004.61
680.877	11915.35
681.225	11953.09
681.573	11976.14
681.922	11892.07
682.27	11870.15
682.618	11851.4
682.966	11740.44
683.314	11852.53
683.661	11787.44
684.009	11729.82
684.357	11638.75
684.705	11644.62
685.053	11639.88
685.4	11650.72
685.748	11579.31
686.095	11618.64
686.443	11639.43
686.79	11575.92
687.138	11622.7
687.485	11600.1
687.832	11527.79
688.18	11548.58
688.527	11499.09
688.874	11438.07
689.221	11401.47
689.568	11373.22
689.915	11393.56
690.262	11392.88
690.609	11307.23
690.956	11178.19
691.303	11154.01
691.65	11152.21
691.997	11128.03
692.344	11031.76
692.69	11035.37
693.037	11038.31
693.383	11009.39
693.73	10981.59
694.077	10893.46
694.423	10883.29
694.769	10850.52
695.116	10857.75
695.462	10819.56
695.808	10753.35
696.155	10782.95
696.501	10688.94
696.847	10757.64
697.193	10608.04
697.539	10669.51
697.885	10578.44
698.231	10523.3
698.577	10537.99
698.923	10482.85
699.269	10396.29
699.614	10319.01
699.96	10264.55
700.306	10219.8
700.651	10232.91
700.997	10202.18
701.342	10249.41
701.688	10137.09
702.033	10061.39
702.379	10038.34
702.724	10008.06
703.069	10026.59
703.415	10002.18
703.76	9903.43
704.105	9928.51
704.45	9888.96
704.795	9859.81
705.14	9866.14
705.485	9762.86
705.83	9766.03
706.175	9813.71
706.52	9641.29
706.865	9694.39
707.209	9692.81
707.554	9572.36
707.899	9648.07
708.243	9577.11
708.588	9581.4
708.932	9528.75
709.277	9477
709.621	9492.14
709.966	9422.31
710.31	9392.71
710.654	9318.81
710.998	9367.62
711.342	9360.62
711.687	9327.4
712.031	9321.75
712.375	9247.62
712.719	9222.09
713.063	9233.84
713.407	9280.17
713.75	9228.87
714.094	9150.23
714.438	9156.78
714.782	9204.24
715.125	9130.57
715.469	9066.39
715.812	9151.13
716.156	9073.84
716.499	9061.64
716.843	9079.49
717.186	8979.16
717.53	9093.96
717.873	9011.25
718.216	9009.89
718.559	8918.37
718.902	8924.24
719.246	8868.2
719.589	8910.91
719.932	8897.58
720.275	8907.07
720.617	8877.01
720.96	8854.19
721.303	8881.31
721.646	8853.74
721.989	8799.5
722.331	8844.02
722.674	8852.61
723.016	8842.44
723.359	8852.15
723.701	8777.13
724.044	8791.14
724.386	8726.51
724.729	8781.2
725.071	8783.91
725.413	8768.31
725.755	8704.14
726.097	8740.07
726.439	8683.57
726.782	8772.61
727.124	8717.47
727.465	8687.86
727.807	8653.06
728.149	8634.08
728.491	8588.88
728.833	8751.14
729.175	8673.18
729.516	8611.93
729.858	8705.27
730.199	8627.08
730.541	8620.97
730.882	8592.5
731.224	8592.05
731.565	8566.06
731.906	8653.97
732.248	8596.57
732.589	8520.19
732.93	8549.79
733.271	8578.72
733.612	8614.19
733.953	8598.6
734.294	8570.13
734.635	8541.43
734.976	8637.02
735.317	8585.49
735.658	8580.52
735.999	8561.31
736.339	8534.2
736.68	8603.57
737.021	8573.52
737.361	8591.37
737.702	8584.36
738.042	8604.25
738.383	8608.54
738.723	8576.91
739.063	8576
739.404	8630.01
739.744	8614.19
740.084	8595.44
740.424	8587.75
740.764	8607.64
741.104	8678.83
741.444	8644.48
741.784	8626.85
742.124	8682.44
742.464	8677.47
742.804	8664.81
743.143	8706.17
743.483	8732.38
743.823	8711.14
744.162	8778.26
744.502	8776
744.841	8828.2
745.181	8885.15
745.52	8876.33
745.86	8909.78
746.199	8958.82
746.538	8993.62
746.877	9039.72
747.216	9140.06
747.556	9111.36
747.895	9146.38
748.234	9186.61
748.573	9230.9
748.911	9264.8
749.25	9399.03
749.589	9379.82
749.928	9448.07
750.267	9542.98
750.605	9525.13
750.944	9647.16
751.283	9685.58
751.621	9770.55
751.96	9852.81
752.298	9966.48
752.636	10062.97
752.975	10087.6
753.313	10169.18
753.651	10385
753.989	10357.65
754.327	10486.01
754.666	10626.34
755.004	10684.87
755.342	10863.63
755.679	10969.39
756.017	11029.72
756.355	11212.09
756.693	11330.06
757.031	11491.63
757.368	11534.57
757.706	11707.22
758.044	11742.47
758.381	11940.43
758.719	12135.68
759.056	12351.95
759.394	12384.49
759.731	12507.2
760.068	12716.23
760.405	12720.53
760.743	12905.38
761.08	13140.86
761.417	13241.19
761.754	13457
762.091	13587.62
762.428	13754.85
762.765	13854.06
763.102	14028.29
763.438	14142.18
763.775	14294.95
764.112	14464.89
764.449	14689.97
764.785	14795.5
765.122	14888.61
765.458	15006.79
765.795	15141.48
766.131	15343.51
766.467	15454.47
766.804	15504.18
767.14	15673.9
767.476	15909.82
767.812	15915.02
768.148	16098.74
768.485	16200.66
768.821	16230.27
769.157	16432.52
769.492	16474.55
769.828	16645.4
770.164	16683.81
770.5	16768.56
770.836	16875.22
771.171	16870.93
771.507	17095.33
771.842	17079.06
772.178	17267.75
772.513	17332.38
772.849	17358.82
773.184	17400.18
773.519	17564.69
773.855	17597.24
774.19	17685.82
774.525	17713.62
774.86	17795.65
775.195	17827.51
775.53	17838.81
775.865	17873.84
776.2	17870.22
776.535	17911.8
776.87	17985.7
777.205	17930.33
777.539	18002.87
777.874	17998.58
778.209	18096.66
778.543	18084.23
778.878	18109.54
779.212	18163.32
779.547	18062.99
779.881	18208.29
780.215	18071.12
780.55	18273.15
780.884	18143.44
781.218	18087.62
781.552	18195.86
781.886	18254.84
782.22	18174.17
782.554	18209.2
782.888	18168.29
783.222	18102.31
783.556	18057.79
783.889	18093.04
784.223	18080.84
784.557	17980.28
784.89	18049.65
785.224	18007.17
785.557	17978.02
785.891	17937.79
786.224	18040.16
786.558	17991.8
786.891	17950.9
787.224	17863.89
787.557	17872.26
787.891	17810.79
788.224	17905.48
788.557	17874.74
788.89	17819.83
789.223	17957
789.556	17664.58
789.888	17768.08
790.221	17624.35
790.554	17595.65
790.887	17559.04
791.219	17439.5
791.552	17552.94
791.884	17456.67
792.217	17571.7
792.549	17497.12
792.882	17410.35
793.214	17276.34
793.546	17383.23
793.879	17305.27
794.211	17244.48
794.543	17281.09
794.875	17190.92
795.207	17249.45
795.539	17127.87
795.871	17183.23
796.203	16944.82
796.535	16936.24
796.867	16969.68
797.198	16937.37
797.53	16970.58
797.862	16939.17
798.193	16891.26
798.525	16768.56
798.856	16842.45
799.188	16643.14
799.519	16702.34
799.85	16502.12
800.182	16558.17
800.513	16521.11
800.844	16422.8
801.175	16538.73
801.506	16500.31
801.837	16465.74
802.168	16384.39
802.499	16336.93
802.83	16251.51
803.161	16275.91
803.491	16157.95
803.822	16289.92
804.153	16117.05
804.483	16076.37
804.814	15978.97
805.145	16046.99
805.475	16063.94
805.805	15954.57
806.136	16051.29
806.466	15997.5
806.796	15890.16
807.126	15855.59
807.457	15720.9
807.787	15846.09
808.117	15738.3
808.447	15686.55
808.777	15703.73
809.107	15548.25
809.436	15515.93
809.766	15504.63
810.096	15426.67
810.426	15460.57
810.755	15471.87
811.085	15326.79
811.414	15430.96
811.744	15237.98
812.073	15262.61
812.403	15277.07
812.732	15197.3
813.061	15185.77
813.39	15083.4
813.719	15080.47
814.049	15133.12
814.378	15047.92
814.707	15025.33
815.036	15087.02
815.365	14853.8
815.693	14943.07
816.022	14868.95
816.351	14823.07
816.68	14779.23
817.008	14900.36
817.337	14753.69
817.665	14682.51
817.994	14776.97
818.322	14692.68
818.651	14598.9
818.979	14597.54
819.307	14575.17
819.636	14622.85
819.964	14603.19
820.292	14620.82
820.62	14557.77
820.948	14416.3
821.276	14557.77
821.604	14517.99
821.932	14583.3
822.259	14532.68
822.587	14433.93
822.915	14430.99
823.243	14511.67
823.57	14501.95
823.898	14516.64
824.225	14451.56
824.553	14446.58
824.88	14449.07
825.207	14544.89
825.535	14523.64
825.862	14564.32
826.189	14495.62
826.516	14490.2
826.843	14608.61
827.17	14430.31
827.497	14602.74
827.824	14598.22
828.151	14549.18
828.478	14607.48
828.805	14581.95
829.131	14539.69
829.458	14481.84
829.785	14397.09
830.111	14520.93
830.438	14663.07
830.764	14501.27
831.09	14589.4
831.417	14411.56
831.743	14551.44
832.069	14372.91
832.395	14401.39
832.722	14492.23
833.048	14509.63
833.374	14424.21
833.7	14357.32
834.026	14405.23
834.351	14423.99
834.677	14420.6
835.003	14429.63
835.329	14402.06
835.654	14395.96
835.98	14324.33
836.306	14392.12
836.631	14236.19
836.956	14285.01
837.282	14237.32
837.607	14214.95
837.932	14199.36
838.258	14230.54
838.583	14183.99
838.908	14021.51
839.233	14166.59
839.558	14099.93
839.883	14045.01
840.208	14054.28
840.533	13981.06
840.858	13974.73
841.182	14031.45
841.507	13994.62
841.832	13878.69
842.156	13996.2
842.481	13855.86
842.805	13787.17
843.13	13918.01
843.454	13775.19
843.778	13735.64
844.103	13693.83
844.427	13650.22
844.751	13681.18
845.075	13593.72
845.399	13610.67
845.723	13510.11
846.047	13538.13
846.371	13412.94
846.695	13391.02
847.019	13344.01
847.343	13316.22
847.666	13205.26
847.99	13173.85
848.313	13174.75
848.637	13033.51
848.96	13057.24
849.284	12981.09
849.607	12852.73
849.931	12855.21
850.254	12892.5
850.577	12796.01
850.9	12646.18
851.223	12733.86
851.546	12559.18
851.869	12490.93
852.192	12575.45
852.515	12431.27
852.838	12397.82
853.161	12460.42
853.483	12364.38
853.806	12302.46
854.129	12262.69
854.451	12197.83
854.774	12078.96
855.096	12093.2
855.419	12031.96
855.741	12073.99
856.063	11944.73
856.385	11999.64
856.708	11993.09
857.03	11917.16
857.352	11862.47
857.674	11815.24
857.996	11813.43
858.318	11694.34
858.64	11711.97
858.961	11713.1
859.283	11616.38
859.605	11598.52
859.926	11606.66
860.248	11580.22
860.57	11547.9
860.891	11528.47
861.212	11490.28
861.534	11469.94
861.855	11469.94
862.176	11354.91
862.498	11437.17
862.819	11333.67
863.14	11320.79
863.461	11340.22
863.782	11198.08
864.103	11285.31
864.424	11300
864.745	11286.44
865.065	11171.19
865.386	11201.7
865.707	11159.44
866.027	11155.14
866.348	11135.94
866.668	11131.19
866.989	11087.58
867.309	10997.86
867.63	11091.42
867.95	11039.89
868.27	10960.8
868.59	10983.17
868.91	11010.74
869.23	10982.72
869.55	10874.25
869.87	10980.91
870.19	10935.26
870.51	10899.56
870.83	10935.49
871.15	10856.17
871.469	10822.5
871.789	10822.72
872.109	10907.24
872.428	10738.66
872.748	10756.06
873.067	10844.42
873.386	10684.42
873.706	10680.81
874.025	10673.12
874.344	10619.79
874.663	10700.92
874.982	10629.73
875.301	10679.22
875.62	10620.7
875.939	10580.92
876.258	10514.03
876.577	10519.68
876.896	10598.77
877.214	10574.37
877.533	10597.87
877.852	10498.66
878.17	10496.63
878.489	10496.4
878.807	10474.71
879.125	10407.14
879.444	10458.89
879.762	10382.51
880.08	10406.69
880.398	10299.12
880.716	10356.3
881.034	10318.56
881.352	10303.64
881.67	10217.09
881.988	10230.42
882.306	10275.39
882.624	10202.18
882.941	10181.61
883.259	10157.88
883.577	10086.92
883.894	10113.59
884.212	10055.74
884.529	10036.08
884.846	10029.07
885.164	10063.65
885.481	9998.34
885.798	10015.29
886.115	9900.49
886.432	9935.29
886.75	9895.06
887.067	9933.03
887.383	9799.47
887.7	9895.97
888.017	9785.69
888.334	9853.94
888.651	9711.57
888.967	9751.79
889.284	9724
889.6	9686.71
889.917	9625.69
890.233	9665.01
890.55	9598.58
890.866	9586.15
891.182	9519.03
891.498	9535.98
891.815	9496.43
892.131	9515.19
892.447	9449.65
892.763	9386.38
893.079	9422.31
893.395	9400.39
893.71	9335.08
894.026	9330.11
894.342	9308.19
894.657	9174.63
894.973	9189.55
895.289	9239.94
895.604	9195.42
895.92	9095.99
896.235	9067.29
896.55	9031.81
896.865	9042.21
897.181	9025.71
897.496	8978.03
897.811	8936.22
898.126	8912.04
898.441	8919.95
898.756	8911.81
899.071	8794.3
899.386	8804.92
899.7	8768.09
900.015	8651.48
900.33	8675.66
900.644	8572.39
900.959	8628.66
901.273	8558.6
901.588	8514.76
901.902	8493.52
902.216	8439.74
902.531	8447.87
902.845	8455.55
903.159	8384.14
903.473	8384.6
903.787	8330.81
904.101	8220.98
904.415	8261.21
904.729	8209.01
905.042	8162.91
905.356	8099.63
905.67	8115.22
905.984	8124.04
906.297	8115
906.611	8047.43
906.924	7978.73
907.237	7973.76
907.551	7984.61
907.864	7954.1
908.177	7891.95
908.491	7888.56
908.804	7823.25
909.117	7746.87
909.43	7687.21
909.743	7707.1
910.056	7735.12
910.368	7671.39
910.681	7644.73
910.994	7623.49
911.307	7589.14
911.619	7516.14
911.932	7541
912.244	7388.69
912.557	7427.11
912.869	7391.63
913.181	7412.42
913.494	7392.53
913.806	7325.87
914.118	7282.48
914.43	7270.95
914.742	7212.42
915.054	7197.28
915.366	7165.87
915.678	7114.35
915.99	7131.3
916.302	7018.53
916.613	7057.17
916.925	7036.38
917.236	6956.38
917.548	6942.83
917.859	6992.09
918.171	6934.24
918.482	6861.7
918.794	6878.87
919.105	6860.34
919.416	6761.59
919.727	6754.13
920.038	6737.41
920.349	6719.33
920.66	6689.5
920.971	6663.74
921.282	6644.53
921.593	6601.14
921.903	6584.64
922.214	6569.73
922.525	6512.55
922.835	6487.24
923.146	6478.66
923.456	6508.26
923.767	6386.91
924.077	6395.72
924.387	6401.82
924.697	6335.38
925.008	6275.27
925.318	6247.03
925.628	6269.17
925.938	6285.44
926.248	6207.25
926.558	6193.92
926.867	6134.26
927.177	6113.7
927.487	6108.5
927.796	6062.85
928.106	6011.1
928.416	5985.79
928.725	6006.81
929.034	5965
929.344	5958.9
929.653	5936.07
929.962	5907.15
930.271	5854.27
930.581	5846.36
930.89	5815.4
931.199	5747.15
931.508	5837.32
931.817	5739.92
932.125	5753.03
932.434	5777.88
932.743	5663.09
933.051	5619.47
933.36	5649.53
933.669	5621.96
933.977	5588.29
934.286	5560.72
934.594	5589.64
934.902	5534.95
935.21	5502.64
935.519	5483.88
935.827	5489.3
936.135	5434.84
936.443	5380.61
936.751	5379.93
937.059	5376.54
937.367	5289.76
937.674	5317.56
937.982	5305.35
938.29	5291.8
938.597	5334.73
938.905	5183.78
939.213	5226.94
939.52	5176.09
939.827	5220.16
940.135	5186.04
940.442	5124.12
940.749	5122.31
941.056	5122.08
941.363	5084.57
941.67	5030.56
941.977	5050.22
942.284	5022.88
942.591	5006.15
942.898	4975.42
943.205	4979.26
943.511	4903.56
943.818	4939.26
944.125	4889.09
944.431	4858.36
944.738	4852.26
945.044	4837.34
945.35	4771.58
945.657	4787.4
945.963	4754.63
946.269	4720.96
946.575	4697.24
946.881	4722.55
947.187	4686.61
947.493	4664.24
947.799	4651.13
948.105	4662.43
948.41	4569.1
948.716	4577.24
949.022	4563.45
949.327	4553.74
949.633	4483.46
949.938	4535.88
950.244	4512.61
950.549	4450.69
950.854	4418.37
951.16	4385.61
951.465	4399.39
951.77	4355.1
952.075	4363.91
952.38	4355.55
952.685	4344.48
952.99	4340.41
953.294	4320.75
953.599	4271.71
953.904	4250.92
954.209	4242.33
954.513	4217.93
954.818	4229.45
955.122	4174.76
955.426	4179.73
955.731	4145.61
956.035	4153.75
956.339	4110.58
956.643	4080.53
956.948	4068.33
957.252	4062.68
957.556	3984.26
957.86	4001.89
958.163	4016.12
958.467	4016.35
958.771	3941.32
959.075	3982
959.378	3895
959.682	3922.79
959.985	3956.24
960.289	3869.91
960.592	3870.82
960.896	3864.26
961.199	3865.39
961.502	3827.65
961.805	3829.91
962.108	3788.78
962.411	3765.28
962.714	3729.58
963.017	3754.21
963.32	3765.96
963.623	3738.39
963.926	3742.46
964.228	3684.15
964.531	3641.22
964.833	3690.48
965.136	3657.04
965.438	3610.03
965.741	3626.53
966.043	3571.84
966.345	3535.01
966.648	3586.53
966.95	3541.11
967.252	3524.61
967.554	3519.87
967.856	3488.45
968.158	3452.52
968.46	3450.49
968.761	3463.82
969.063	3432.86
969.365	3408.46
969.666	3402.81
969.968	3411.85
970.269	3390.6
970.571	3315.8
970.872	3350.6
971.174	3305.41
971.475	3336.59
971.776	3317.16
972.077	3293.66
972.378	3261.79
972.679	3263.6
972.98	3228.57
973.281	3204.39
973.582	3213.66
973.883	3223.6
974.183	3164.62
974.484	3213.88
974.785	3136.6
975.085	3126.66
975.386	3122.14
975.686	3124.4
975.986	3109.71
976.287	3106.54
976.587	3077.39
976.887	3077.39
977.187	3029.03
977.487	3092.76
977.787	3042.59
978.087	3020.22
978.387	3002.14
978.687	2989.48
978.987	2951.29
979.286	2968.92
979.586	2917.62
979.885	2959.65
980.185	2921.91
980.484	2892.76
980.784	2879.2
981.083	2898.41
981.382	2841.46
981.682	2829.94
981.981	2794.69
982.28	2791.97
982.579	2826.55
982.878	2835.59
983.177	2770.28
983.475	2794.01
983.774	2730.73
984.073	2757.63
984.372	2734.12
984.67	2714.46
984.969	2715.37
985.267	2722.15
985.566	2691.86
985.864	2729.38
986.162	2675.82
986.461	2653
986.759	2629.72
987.057	2578.19
987.355	2585.88
987.653	2623.39
987.951	2607.35
988.249	2595.82
988.547	2594.69
988.844	2555.82
989.142	2535.48
989.44	2532.32
989.737	2519.89
990.035	2517.18
990.332	2522.15
990.63	2524.41
990.927	2477.18
991.224	2497.29
991.521	2484.41
991.819	2433.34
992.116	2436.28
992.413	2443.51
992.71	2399.89
993.006	2380.69
993.303	2390.86
993.6	2380.23
993.897	2337.07
994.193	2349.5
994.49	2321.7
994.787	2321.48
995.083	2325.32
995.379	2316.51
995.676	2284.19
995.972	2310.18
996.268	2275.15
996.565	2279.22
996.861	2242.61
997.157	2227.47
997.453	2203.74
997.749	2231.54
998.044	2211.88
998.34	2209.84
998.636	2175.04
998.932	2176.62
999.227	2194.02
999.523	2144.31
999.818	2131.88
1000.114	2097.98
1000.409	2103.86
1000.704	2109.73
1001	2121.03
1001.295	2101.6
1001.59	2091.65
1001.885	2076.29
1002.18	2084.87
1002.475	2043.29
1002.77	2025.22
1003.065	2018.66
1003.359	2044.2
1003.654	2014.82
1003.949	1980.24
1004.243	1971.88
1004.538	1965.56
1004.832	1998.55
1005.127	1951.77
1005.421	1927.36
1005.715	1944.09
1006.009	1892.56
1006.304	1887.14
1006.598	1890.98
1006.892	1890.98
1007.186	1857.31
1007.48	1868.16
1007.773	1853.69
1008.067	1830.19
1008.361	1837.42
1008.655	1806.24
1008.948	1786.8
1009.242	1811.66
1009.535	1776.63
1009.829	1742.06
1010.122	1762.4
1010.415	1719.01
1010.708	1719.01
1011.001	1743.87
1011.295	1711.55
1011.588	1717.88
1011.881	1705.68
1012.173	1687.6
1012.466	1688.27
1012.759	1696.41
1013.052	1696.18
1013.344	1651.89
1013.637	1665.68
1013.93	1636.07
1014.222	1646.92
1014.514	1626.36
1014.807	1630.42
1015.099	1595.62
1015.391	1576.64
1015.683	1568.5
1015.976	1576.87
1016.268	1563.08
1016.56	1536.87
1016.851	1547.94
1017.143	1525.12
1017.435	1552.69
1017.727	1533.02
1018.018	1495.06
1018.31	1497.32
1018.602	1460.48
1018.893	1467.94
1019.185	1472.01
1019.476	1468.62
1019.767	1437.21
1020.058	1464.55
1020.35	1400.82
1020.641	1422.52
1020.932	1406.25
1021.223	1412.8
1021.514	1381.16
1021.804	1381.84
1022.095	1371.9
1022.386	1374.84
1022.677	1373.25
1022.967	1364.22
1023.258	1338.45
1023.548	1348.85
1023.839	1338
1024.129	1345.68
1024.419	1320.6
1024.709	1308.4
1025	1300.26
1025.29	1270.66
1025.58	1258.91
1025.87	1256.65
1026.16	1270.21
1026.449	1258.68
1026.739	1234.05
1027.029	1227.5
1027.319	1203.32
1027.608	1236.54
1027.898	1205.35
1028.187	1214.61
1028.477	1205.35
1028.766	1197.89
1029.055	1163.09
1029.344	1171.23
1029.634	1200.38
1029.923	1148.63
1030.212	1162.64
1030.501	1148.18
1030.79	1160.15
1031.078	1143.88
1031.367	1137.1
1031.656	1111.79
1031.945	1116.31
1032.233	1099.14
1032.522	1096.65
1032.81	1089.19
1033.099	1103.43
1033.387	1071.12
1033.675	1058.46
1033.963	1048.97
1034.251	1046.48
1034.54	1046.48
1034.828	1045.58
1035.116	1017.33
1035.403	1036.99
1035.691	1025.02
1035.979	1001.97
1036.267	1024.79
1036.554	1000.38
1036.842	987.05
1037.129	966.26
1037.417	984.79
1037.704	969.42
1037.992	961.97
1038.279	971.91
1038.566	953.83
1038.853	953.83
1039.14	953.83
