Data from hue_30_FLMS001491_49.txt Node
Date: Mon Feb 06 15:05:23 GMT 2017
User: dcchb
Spectrometer: FLMS00149
Trigger mode: 0
Integration Time (sec): 2.000000E-2
Scans to average: 10
Electric dark correction enabled: true
Nonlinearity correction enabled: false
Boxcar width: 0
XAxis mode: Wavelengths
Number of Pixels in Spectrum: 2048
>>>>>Begin Spectral Data<<<<<
341.393	-8.87
341.776	-8.87
342.16	-8.87
342.543	-54.29
342.927	-63.56
343.31	-55.2
343.693	-63.56
344.077	-66.5
344.46	-59.72
344.843	-53.39
345.226	-39.6
345.61	-38.02
345.993	-23.33
346.376	-5.93
346.759	14.18
347.142	27.29
347.525	66.61
347.908	47.63
348.291	86.72
348.674	87.62
349.057	75.2
349.44	134.18
349.823	162.43
350.206	157.68
350.588	195.64
350.971	229.09
351.354	231.58
351.737	235.64
352.119	244.91
352.502	256.66
352.884	249.65
353.267	274.29
353.65	310.9
354.032	278.13
354.414	308.18
354.797	310.9
355.179	297.34
355.562	317.9
355.944	309.54
356.326	348.63
356.709	333.49
357.091	344.34
357.473	354.06
357.855	353.61
358.238	332.59
358.62	343.89
359.002	338.24
359.384	323.1
359.766	325.36
360.148	343.89
360.53	334.17
360.912	328.97
361.294	343.66
361.676	331.46
362.057	318.81
362.439	313.38
362.821	327.84
363.203	315.19
363.584	347.05
363.966	310.9
364.348	319.26
364.729	328.97
365.111	330.78
365.493	313.83
365.874	291.24
366.256	304.12
366.637	298.01
367.019	301.86
367.4	307.96
367.781	317.9
368.163	298.01
368.544	319.94
368.925	320.84
369.306	317
369.688	320.39
370.069	310.67
370.45	319.94
370.831	316.09
371.212	324.68
371.593	309.77
371.974	336.21
372.355	300.05
372.736	316.55
373.117	332.36
373.498	303.44
373.879	320.16
374.26	301.86
374.641	315.19
375.021	319.71
375.402	305.47
375.783	327.17
376.163	331.46
376.544	317.22
376.925	312.7
377.305	325.36
377.686	334.62
378.066	336.88
378.447	317.68
378.827	324.45
379.208	333.95
379.588	335.08
379.968	324
380.349	336.21
380.729	310.44
381.109	326.49
381.489	328.52
381.87	332.59
382.25	335.53
382.63	338.01
383.01	347.28
383.39	349.09
383.77	345.02
384.15	328.07
384.53	330.1
384.91	354.51
385.29	340.95
385.67	330.33
386.049	346.15
386.429	348.86
386.809	378.46
387.189	353.38
387.568	345.7
387.948	335.75
388.328	353.61
388.707	368.97
389.087	333.04
389.466	360.16
389.846	369.43
390.225	362.65
390.605	376.2
390.984	362.65
391.363	368.3
391.743	361.29
392.122	365.58
392.501	376.43
392.881	373.04
393.26	367.17
393.639	399.48
394.018	371.01
394.397	375.07
394.776	366.04
395.155	381.85
395.534	380.72
395.913	370.78
396.292	385.47
396.671	381.85
397.05	371.91
397.429	385.24
397.808	366.49
398.186	375.3
398.565	400.38
398.944	364.23
399.323	383.44
399.701	407.16
400.08	394.74
400.458	384.57
400.837	385.7
401.215	388.86
401.594	400.38
401.972	386.15
402.351	393.61
402.729	391.35
403.107	394.74
403.486	397.9
403.864	412.14
404.242	404.9
404.62	413.72
404.999	414.4
405.377	413.49
405.755	414.4
406.133	406.49
406.511	418.92
406.889	415.3
407.267	430.44
407.645	405.58
408.023	418.69
408.401	436.09
408.779	428.86
409.156	433.38
409.534	441.29
409.912	422.76
410.29	445.36
410.667	449.2
411.045	435.86
411.422	437.22
411.8	436.99
412.178	473.83
412.555	450.1
412.933	454.85
413.31	466.6
413.687	426.37
414.065	464.11
414.442	467.28
414.819	443.1
415.197	461.17
415.574	479.7
415.951	485.81
416.328	489.87
416.705	478.12
417.082	492.59
417.46	495.75
417.837	488.97
418.214	488.07
418.591	491.23
418.967	480.38
419.344	505.01
419.721	510.89
420.098	510.89
420.475	515.86
420.852	518.8
421.228	498.46
421.605	498.69
421.982	516.54
422.358	521.51
422.735	524.68
423.111	530.33
423.488	526.03
423.864	536.43
424.241	530.1
424.617	540.04
424.994	559.02
425.37	545.69
425.746	550.66
426.123	559.7
426.499	559.7
426.875	558.35
427.251	570.55
427.627	554.05
428.003	568.97
428.379	574.39
428.756	543.88
429.132	572.58
429.507	576.2
429.883	569.19
430.259	591.34
430.635	609.87
431.011	606.93
431.387	615.52
431.763	605.35
432.138	616.2
432.514	620.49
432.89	627.05
433.265	622.53
433.641	638.57
434.016	634.96
434.392	663.88
434.767	649.19
435.143	664.56
435.518	660.49
435.894	660.27
436.269	658.46
436.644	659.81
437.02	667.5
437.395	698.46
437.77	689.87
438.145	706.59
438.52	684.22
438.895	689.19
439.271	694.61
439.646	700.94
440.021	709.76
440.395	714.5
440.77	702.98
441.145	712.47
441.52	734.61
441.895	735.97
442.27	758.79
442.645	743.43
443.019	747.95
443.394	737.1
443.769	742.52
444.143	742.97
444.518	743.88
444.892	761.51
445.267	763.09
445.641	790.88
446.016	773.71
446.39	789.08
446.764	766.48
447.139	768.28
447.513	784.1
447.887	802.86
448.262	792.69
448.636	820.03
449.01	811.67
449.384	809.19
449.758	810.77
450.132	825.46
450.506	818.91
450.88	817.55
451.254	841.5
451.628	828.17
452.002	840.37
452.376	831.79
452.75	840.83
453.123	853.93
453.497	881.28
453.871	904.1
454.244	899.58
454.618	908.39
454.992	895.06
455.365	885.57
455.739	915.4
456.112	934.61
456.486	932.57
456.859	948.17
457.232	949.98
457.606	959.92
457.979	987.94
458.352	999.69
458.725	982.06
459.099	1007.15
459.472	996.08
459.845	1009.63
460.218	1034.49
460.591	1020.03
460.964	1023.87
461.337	1048.73
461.71	1079.69
462.083	1084.43
462.456	1093.02
462.829	1085.79
463.201	1109.74
463.574	1108.39
463.947	1133.47
464.32	1172.79
464.692	1148.61
465.065	1166.47
465.438	1180.7
465.81	1181.83
466.183	1214.15
466.555	1229.97
466.928	1230.42
467.3	1246.92
467.672	1253.92
468.045	1290.53
468.417	1290.31
468.789	1298.67
469.161	1341.38
469.534	1320.13
469.906	1354.71
470.278	1395.39
470.65	1382.73
471.022	1406.46
471.394	1428.38
471.766	1440.13
472.138	1478.32
472.51	1515.84
472.882	1535.04
473.253	1547.25
473.625	1582.27
473.997	1629.28
474.369	1590.86
474.74	1614.59
475.112	1674.02
475.484	1683.06
475.855	1766.9
476.227	1768.26
476.598	1819.78
476.97	1805.77
477.341	1878.31
477.713	1917.86
478.084	1901.14
478.455	1962.83
478.827	2028.82
479.198	2066.33
479.569	2061.58
479.94	2167.8
480.311	2164.63
480.682	2215.03
481.053	2292.54
481.424	2332.54
481.795	2360.33
482.166	2395.36
482.537	2450.95
482.908	2544.96
483.279	2550.61
483.65	2550.16
484.021	2649.14
484.391	2679.65
484.762	2730.72
485.133	2803.26
485.503	2819.3
485.874	2899.08
486.244	2922.58
486.615	3034.21
486.985	3051.16
487.356	3118.96
487.726	3164.61
488.097	3225.17
488.467	3299.29
488.837	3327.77
489.207	3419.74
489.578	3464.26
489.948	3521.66
490.318	3593.52
490.688	3620.41
491.058	3689.34
491.428	3763.46
491.798	3816.34
492.168	3917.58
492.538	3957.35
492.908	3988.99
493.278	4065.15
493.648	4088.65
494.017	4164.81
494.387	4217.01
494.757	4260.17
495.126	4329.77
495.496	4311.69
495.866	4410.67
496.235	4457.45
496.605	4533.38
496.974	4562.76
497.344	4590.56
497.713	4601.63
498.082	4692.02
498.452	4764.11
498.821	4747.39
499.19	4819.48
499.559	4865.58
499.928	4889.31
500.298	4928.4
500.667	4921.17
501.036	5018.79
501.405	5049.75
501.774	5057.89
502.143	5090.21
502.512	5178.34
502.88	5274.38
503.249	5223.99
503.618	5283.42
503.987	5303.53
504.356	5315.51
504.724	5388.28
505.093	5393.7
505.462	5420.37
505.83	5480.7
506.199	5514.6
506.567	5621.72
506.936	5571.32
507.304	5661.04
507.672	5675.27
508.041	5731.09
508.409	5783.97
508.777	5770.87
509.145	5820.36
509.514	5836.17
509.882	5892.22
510.25	5942.61
510.618	5973.12
510.986	5965.66
511.354	6009.05
511.722	6089.73
512.09	6114.13
512.458	6136.73
512.826	6205.66
513.193	6136.73
513.561	6199.78
513.929	6201.36
514.297	6265.09
514.664	6328.36
515.032	6345.54
515.4	6381.02
515.767	6367.23
516.135	6431.86
516.502	6376.5
516.869	6518.19
517.237	6523.61
517.604	6478.87
517.972	6568.36
518.339	6629.83
518.706	6638.64
519.073	6666.43
519.44	6690.16
519.808	6741.69
520.175	6755.02
520.542	6722.03
520.909	6853.1
521.276	6808.58
521.643	6862.59
522.009	6934.9
522.376	6959.53
522.743	6991.4
523.11	7030.49
523.477	7056.03
523.843	7102.81
524.21	7219.87
524.577	7231.62
524.943	7244.72
525.31	7284.95
525.676	7376.92
526.043	7406.98
526.409	7423.25
526.776	7430.71
527.142	7516.36
527.508	7529.24
527.874	7575.11
528.241	7545.28
528.607	7649.46
528.973	7718.16
529.339	7723.13
529.705	7819.62
530.071	7839.96
530.437	7817.37
530.803	7879.74
531.169	7927.87
531.535	7955.44
531.901	7887.19
532.267	8016.68
532.632	8112.72
532.998	8139.16
533.364	8200.18
533.73	8163.8
534.095	8240.4
534.461	8253.06
534.826	8262.55
535.192	8277.92
535.557	8433.17
535.923	8415.09
536.288	8420.74
536.653	8532.37
537.019	8520.4
537.384	8555.65
537.749	8597.23
538.114	8594.07
538.479	8613.5
538.845	8641.75
539.21	8621.64
539.575	8693.05
539.94	8782.54
540.305	8783.44
540.67	8827.96
541.034	8811.92
541.399	8894.85
541.764	8851.91
542.129	8963.55
542.494	8977.56
542.858	9002.64
543.223	9030.44
543.587	9100.72
543.952	9075.86
544.316	9171.45
544.681	9114.73
545.045	9202.64
545.41	9219.59
545.774	9271.11
546.138	9319.7
546.503	9395.18
546.867	9378.23
547.231	9466.59
547.595	9482.41
547.959	9495.74
548.324	9465.68
548.688	9497.55
549.052	9579.13
549.416	9646.24
549.779	9652.8
550.143	9690.54
550.507	9697.99
550.871	9762.4
551.235	9832.23
551.599	9884.88
551.962	9847.59
552.326	9896.41
552.689	9940.7
553.053	9876.75
553.417	9949.06
553.78	9984.09
554.143	10009.4
554.507	10089.17
554.87	10068.61
555.234	10237.64
555.597	10132.78
555.96	10122.84
556.323	10261.14
556.686	10268.6
557.05	10298.88
557.413	10261.82
557.776	10355.38
558.139	10381.59
558.502	10399.67
558.865	10419.56
559.228	10511.76
559.59	10554.24
559.953	10560.12
560.316	10657.06
560.679	10702.49
561.041	10695.71
561.404	10755.82
561.767	10839.66
562.129	10703.39
562.492	10882.6
562.854	10859.54
563.217	10868.13
563.579	10858.42
563.941	10978.41
564.304	10968.02
564.666	11092.53
565.028	11132.76
565.39	11126.43
565.753	11184.06
566.115	11212.53
566.477	11284.84
566.839	11269.48
567.201	11380.21
567.563	11320.1
567.925	11419.98
568.287	11455.01
568.648	11417.72
569.01	11534.78
569.372	11580.2
569.734	11601.9
570.095	11640.54
570.457	11795.34
570.819	11747.66
571.18	11789.92
571.542	11843.7
571.903	11933.87
572.265	11971.83
572.626	12020.19
572.987	12133.41
573.349	12227.42
573.71	12252.73
574.071	12293.41
574.432	12446.62
574.794	12500.63
575.155	12503.8
575.516	12511.48
575.877	12621.76
576.238	12647.29
576.599	12755.99
576.96	12835.09
577.32	12946.27
577.681	13017
578.042	13076.44
578.403	13149.65
578.763	13205.92
579.124	13310.78
579.485	13455.63
579.845	13607.95
580.206	13737.44
580.566	13813.82
580.927	14005.45
581.287	14130.19
581.648	14273.92
582.008	14458.55
582.368	14572.89
582.728	14702.83
583.089	14850.17
583.449	14981.7
583.809	15088.59
584.169	15336.49
584.529	15542.81
584.889	15791.84
585.249	15879.75
585.609	15983.25
585.969	16271.83
586.329	16405.16
586.688	16602.67
587.048	16841.53
587.408	17007.18
587.768	17237.46
588.127	17429.32
588.487	17646.03
588.846	18057.77
589.206	18092.35
589.565	18342.29
589.925	18695.95
590.284	18883.06
590.643	19082.15
591.003	19368.02
591.362	19618.41
591.721	19817.28
592.08	20066.53
592.44	20344.27
592.799	20563.24
593.158	20764.37
593.517	21149.67
593.876	21219.5
594.235	21546.04
594.593	21828.52
594.952	22079.36
595.311	22159.13
595.67	22488.84
596.029	22797.08
596.387	23078.66
596.746	23462.15
597.104	23516.84
597.463	23717.29
597.822	24121.12
598.18	24169.7
598.538	24436.59
598.897	24859.63
599.255	24923.36
599.613	25418.94
599.972	25468.65
600.33	25784.8
600.688	25833.39
601.046	26147.28
601.404	26549.08
601.762	26619.13
602.12	26938.44
602.478	27209.4
602.836	27461.37
603.194	27564.42
603.552	27801.47
603.91	27895.03
604.268	28287.11
604.625	28319.65
604.983	28622.02
605.341	28703.14
605.698	29017.26
606.056	29246.63
606.413	29388.55
606.771	29615.21
607.128	29850.46
607.485	29742.44
607.843	30008.65
608.2	30435.98
608.557	30623.09
608.914	30688.4
609.272	31023.08
609.629	31228.05
609.986	31427.37
610.343	31451.55
610.7	31720.69
611.057	31867.35
611.414	31845.66
611.771	32202.94
612.127	32265.08
612.484	32470.05
612.841	32720.89
613.198	32642.7
613.554	32836.59
613.911	33139.19
614.267	33251.95
614.624	33166.76
614.98	33503.92
615.337	33734.88
615.693	33678.15
616.05	33799.28
616.406	34098.03
616.762	34036.34
617.118	34103.68
617.475	34390.45
617.831	34541.18
618.187	34699.82
618.543	34688.07
618.899	34971.68
619.255	35003.09
619.611	35065.01
619.967	35181.62
620.323	35426.36
620.678	35383.65
621.034	35289.86
621.39	35379.13
621.746	35420.48
622.101	35822.05
622.457	35603.98
622.812	35886.68
623.168	36026.57
623.523	35838.1
623.879	36224.98
624.234	36056.4
624.589	36263.4
624.945	36299.55
625.3	36408.25
625.655	36487.35
626.01	36432.21
626.365	36591.52
626.72	36497.06
627.075	36599.43
627.43	36604.86
627.785	36698.19
628.14	36823.38
628.495	36734.57
628.85	36790.39
629.205	36788.13
629.559	36916.49
629.914	36791.74
630.269	36864.96
630.623	36890.27
630.978	36812.08
631.332	36948.35
631.687	37044.85
632.041	36946.99
632.396	36979.08
632.75	36871.97
633.104	36970.72
633.459	36975.69
633.813	36949.03
634.167	36984.28
634.521	36921.46
634.875	37016.6
635.229	37033.09
635.583	36834
635.937	37047.1
636.291	36874.23
636.645	36914.91
636.999	36903.61
637.352	36963.49
637.706	36740.9
638.06	36956.94
638.413	36960.55
638.767	36943.38
639.121	36994.23
639.474	36804.63
639.828	36758.75
640.181	36857.96
640.534	36778.64
640.888	36747.45
641.241	36702.71
641.594	36821.57
641.947	36867
642.301	36776.15
642.654	36777.73
643.007	36676.27
643.36	36720.79
643.713	36665.19
644.066	36733.44
644.419	36528.93
644.771	36309.05
645.124	35987.25
645.477	35957.64
645.83	35724.88
646.182	35646.92
646.535	35545
646.888	35591.32
647.24	35413.48
647.593	35729.17
647.945	35556.52
648.298	35438.56
648.65	35478.11
649.002	35296.19
649.355	35556.75
649.707	35288.06
650.059	35593.58
650.411	36062.95
650.763	36061.14
651.115	36295.94
651.467	36330.97
651.819	36276.05
652.171	36217.75
652.523	36085.55
652.875	36241.02
653.227	35956.74
653.578	36330.74
653.93	36074.25
654.282	36102.72
654.633	35950.64
654.985	36122.84
655.337	36025.66
655.688	36106.79
656.039	36179.33
656.391	35919.45
656.742	35826.57
657.094	36000.35
657.445	36107.47
657.796	36012.33
658.147	36010.52
658.498	35879.23
658.849	36019.11
659.2	36032.67
659.551	35817.76
659.902	36016.4
660.253	35847.36
660.604	35975.95
660.955	35748.16
661.306	35794.26
661.656	35842.39
662.007	35866.35
662.358	35773.69
662.708	35857.08
663.059	35794.26
663.409	35583.19
663.76	35847.81
664.11	35819.79
664.461	35801.26
664.811	35738.89
665.161	35726.24
665.511	35747.48
665.862	35660.47
666.212	36003.74
666.562	35790.87
666.912	35742.51
667.262	35701.83
667.612	35736.18
667.962	35726.69
668.312	35761.94
668.662	35863.86
669.011	35808.27
669.361	35671.77
669.711	35563.75
670.06	35679.01
670.41	35702.06
670.76	35621.15
671.109	35740.02
671.459	35586.35
671.808	35632.45
672.157	35697.99
672.507	35321.73
672.856	35486.69
673.205	35635.39
673.554	35662.73
673.904	35363.31
674.253	35548.61
674.602	35496.41
674.951	35016.2
675.3	34758.13
675.649	35353.36
675.998	35312.24
676.346	35203.99
676.695	35472.01
677.044	35237.89
677.393	35293.25
677.741	35390.43
678.09	35363.76
678.438	35107.95
678.787	35253.48
679.135	35286.93
679.484	34984.11
679.832	35172.58
680.181	34919.7
680.529	35127.16
680.877	35004.22
681.225	34934.62
681.573	35087.61
681.922	34664.12
682.27	34748.63
682.618	34818.24
682.966	34774.4
683.314	34771.01
683.661	34696.66
684.009	34579.83
684.357	34380.51
684.705	34293.73
685.053	34271.58
685.4	34362.43
685.748	34161.76
686.095	34127.18
686.443	34127.18
686.79	34070.69
687.138	34106.84
687.485	34180.06
687.832	33932.61
688.18	33982.78
688.527	33796.12
688.874	33775.1
689.221	33839.96
689.568	33641.09
689.915	33601.77
690.262	33610.59
690.609	33432.06
690.956	33436.35
691.303	33349.8
691.65	33259.63
691.997	33307.77
692.344	33140.77
692.69	33070.94
693.037	32999.53
693.383	32662.81
693.73	32964.5
694.077	32625.98
694.423	32589.37
694.769	32465.3
695.116	32537.17
695.462	32392.76
695.808	32269.83
696.155	32418.98
696.501	32052.43
696.847	32114.13
697.193	31809.05
697.539	32072.32
697.885	31741.93
698.231	31645.67
698.577	31672.56
698.923	31735.38
699.269	31502.39
699.614	31369.06
699.96	31270.99
700.306	31481.6
700.651	31169.52
700.997	31171.55
701.342	31030.09
701.688	30942.41
702.033	30904.44
702.379	30853.37
702.724	30845.23
703.069	30857.66
703.415	30551
703.76	30510.78
704.105	30561.63
704.45	30352.59
704.795	30185.82
705.14	30170.22
705.485	30209.77
705.83	30059.27
706.175	30119.83
706.52	29940.85
706.865	29846.62
707.209	29892.04
707.554	29803
707.899	29805.49
708.243	29713.51
708.588	29617.92
708.932	29428.1
709.277	29472.16
709.621	29398.27
709.966	29227.88
710.31	29337.25
710.654	29064.49
710.998	29095
711.342	29094.55
711.687	28981.1
712.031	29005.96
712.375	28802.12
712.719	28810.71
713.063	28788.11
713.407	28739.3
713.75	28649.13
714.094	28591.06
714.438	28519.42
714.782	28525.52
715.125	28317.62
715.469	28493.88
715.812	28304.51
716.156	28084.18
716.499	28276.49
716.843	28173.89
717.186	27961.02
717.53	28248.01
717.873	28100.45
718.216	28042.14
718.559	27793.34
718.902	27797.4
719.246	27802.6
719.589	27778.87
719.932	27564.19
720.275	27606.22
720.617	27712.89
720.96	27557.41
721.303	27544.53
721.646	27539.33
721.989	27302.73
722.331	27457.3
722.674	27406.45
723.016	27448.26
723.359	27338.66
723.701	27317.19
724.044	27116.74
724.386	26961.27
724.729	27040.59
725.071	27087.37
725.413	26960.14
725.755	26917.2
726.097	26780.03
726.439	26786.13
726.782	26750.65
727.124	26789.07
727.465	26740.71
727.807	26692.12
728.149	26609.64
728.491	26519.25
728.833	26736.87
729.175	26591.11
729.516	26484.22
729.858	26363.32
730.199	26421.17
730.541	26275.64
730.882	26340.04
731.224	26425.46
731.565	26284
731.906	26279.7
732.248	26234.06
732.589	26137.34
732.93	26051.24
733.271	26111.12
733.612	26086.72
733.953	26007.62
734.294	25976.66
734.635	26048.3
734.976	25972.14
735.317	25817.12
735.658	25782.09
735.999	25783.9
736.339	25817.34
736.68	25869.77
737.021	25715.88
737.361	25572.15
737.702	25768.08
738.042	25672.04
738.383	25508.88
738.723	25646.73
739.063	25573.06
739.404	25522.89
739.744	25453.29
740.084	25376
740.424	25415.77
740.764	25266.85
741.104	25353.18
741.444	25190.24
741.784	25178.94
742.124	25269.56
742.464	25156.34
742.804	25300.3
743.143	24974.43
743.483	25137.81
743.823	25048.32
744.162	24923.81
744.502	24995.44
744.841	24874.32
745.181	24941.43
745.52	24825.73
745.86	24888.1
746.199	24865.28
746.538	24650.37
746.877	24777.82
747.216	24828.9
747.556	24674.32
747.895	24755.22
748.234	24598.17
748.573	24586.87
748.911	24530.6
749.25	24638.84
749.589	24517.94
749.928	24532.86
750.267	24481.56
750.605	24382.81
750.944	24321.79
751.283	24294.45
751.621	24258.51
751.96	24207.89
752.298	24234.56
752.636	24174.45
752.975	24074.79
753.313	24013.78
753.651	24140.33
753.989	24064.17
754.327	23997.73
754.666	23756.61
755.004	23853.1
755.342	23892.42
755.679	23833.44
756.017	23726.33
756.355	23877.06
756.693	23649.72
757.031	23569.49
757.368	23438.2
757.706	23478.42
758.044	23402.94
758.381	23451.76
758.719	23362.72
759.056	23340.12
759.394	23293.57
759.731	23181.71
760.068	23188.71
760.405	23148.26
760.743	23063.29
761.08	23057.87
761.417	22854.94
761.754	22847.25
762.091	22908.04
762.428	22760.7
762.765	22649.07
763.102	22712.79
763.438	22482.52
763.775	22389.19
764.112	22468.96
764.449	22446.58
764.785	22377.89
765.122	22271.67
765.458	22096.54
765.795	22141.51
766.131	22047.5
766.467	22073.26
766.804	21842.31
767.14	21788.3
767.476	21876.2
767.812	21711.01
768.148	21675.98
768.485	21566.38
768.821	21437.8
769.157	21384.92
769.492	21373.84
769.828	21371.13
770.164	21118.48
770.5	21129.11
770.836	21038.03
771.171	20982.67
771.507	20974.31
771.842	20788.55
772.178	20768.89
772.513	20666.97
772.849	20779.51
773.184	20588.1
773.519	20579.97
773.855	20436.47
774.19	20432.63
774.525	20430.59
774.86	20221.11
775.195	20323.93
775.53	20214.55
775.865	20032.86
776.2	19922.13
776.535	19847.33
776.87	19940.44
777.205	19728.24
777.539	19603.5
777.874	19720.55
778.209	19544.97
778.543	19557.4
778.878	19377.51
779.212	19419.77
779.547	19255.71
779.881	19213.22
780.215	19139.55
780.55	19131.42
780.884	18984.76
781.218	18955.6
781.552	18979.56
781.886	18843.29
782.22	18805.32
782.554	18651.66
782.888	18562.39
783.222	18384.54
783.556	18417.76
783.889	18415.73
784.223	18267.03
784.557	18156.98
784.89	18242.63
785.224	18064.1
785.557	18045.12
785.891	17965.35
786.224	17979.36
786.558	17886.25
786.891	17754.5
787.224	17707.5
787.557	17633.6
787.891	17595.19
788.224	17563.32
788.557	17567.17
788.89	17455.98
789.223	17580.27
789.556	17363.55
789.888	17243.78
790.221	17225.71
790.554	17092.6
790.887	17060.29
791.219	17013.73
791.552	17018.48
791.884	16907.3
792.217	16905.94
792.549	16763.12
792.882	16693.74
793.214	16602.44
793.546	16646.74
793.879	16578.04
794.211	16402.22
794.543	16482.67
794.875	16384.37
795.207	16425.73
795.539	16281.32
795.871	16323.81
796.203	16236.58
796.535	16102.57
796.867	16069.58
797.198	16051.5
797.53	16020.77
797.862	15847.21
798.193	15958.62
798.525	15755.69
798.856	15807.21
799.188	15728.8
799.519	15545.3
799.85	15515.69
800.182	15646.54
800.513	15582.36
800.844	15435.92
801.175	15428.01
801.506	15437.96
801.837	15367
802.168	15217.17
802.499	15212.88
802.83	15085.65
803.161	15134.69
803.491	15186.44
803.822	15076.61
804.153	14981.24
804.483	14935.14
804.814	14890.17
805.145	14884.3
805.475	14803.17
805.805	14799.1
806.136	14816.73
806.466	14725.88
806.796	14735.38
807.126	14531.76
807.457	14639.33
807.787	14501.48
808.117	14528.38
808.447	14430.3
808.777	14445.21
809.107	14384.65
809.436	14392.79
809.766	14372.22
810.096	14344.43
810.426	14235.5
810.755	14206.58
811.085	14161.61
811.414	14122.06
811.744	14073.47
812.073	14019.91
812.403	13966.13
812.732	13959.58
813.061	13886.13
813.39	13755.06
813.719	13842.97
814.049	13848.84
814.378	13730.66
814.707	13709.87
815.036	13730.2
815.365	13656.53
815.693	13531.34
816.022	13571.56
816.351	13554.16
816.68	13414.05
817.008	13471.68
817.337	13320.95
817.665	13381.06
817.994	13355.07
818.322	13327.95
818.651	13221.06
818.979	13197.79
819.307	13304.45
819.636	13232.82
819.964	13033.95
820.292	13223.32
820.62	13182.2
820.948	13083.67
821.276	13200.95
821.604	13144.23
821.932	13215.87
822.259	13092.93
822.587	13120.28
822.915	13036.66
823.243	13166.38
823.57	13050.9
823.898	13126.83
824.225	13030.79
824.553	13085.93
824.88	13092.25
825.207	13063.33
825.535	13002.99
825.862	13119.82
826.189	13049.32
826.516	13070.11
826.843	13077.79
827.17	13009.77
827.497	13095.19
827.824	13118.02
828.151	13112.59
828.478	13058.58
828.805	13063.78
829.131	13017.91
829.458	13008.64
829.785	12879.83
830.111	12974.97
830.438	13046.83
830.764	12981.75
831.09	13048.19
831.417	12911.92
831.743	13020.17
832.069	12984.46
832.395	12867.63
832.722	12998.47
833.048	12921.41
833.374	12883.9
833.7	12820.85
834.026	12844.13
834.351	12904.01
834.677	12915.76
835.003	12888.87
835.329	12880.06
835.654	12806.61
835.98	12758.25
836.306	12758.93
836.631	12729.1
836.956	12748.76
837.282	12704.47
837.607	12651.36
837.932	12673.51
838.258	12657.46
838.583	12647.29
838.908	12567.07
839.233	12573.85
839.558	12537.69
839.883	12506.06
840.208	12441.2
840.533	12495.21
840.858	12564.36
841.182	12464.93
841.507	12424.93
841.832	12442.78
842.156	12387.64
842.481	12367.3
842.805	12360.75
843.13	12363.69
843.454	12357.36
843.778	12189.45
844.103	12258.38
844.427	12160.08
844.751	12143.13
845.075	12184.03
845.399	12090.25
845.723	12025.62
846.047	12051.6
846.371	11961.89
846.695	11999.18
847.019	11868.33
847.343	11747.88
847.666	11747.21
847.99	11687.55
848.313	11702.23
848.637	11586.08
848.96	11588.11
849.284	11523.93
849.607	11463.6
849.931	11483.03
850.254	11347.67
850.577	11283.94
850.9	11229.7
851.223	11176.82
851.546	11184.28
851.869	11088.47
852.192	11177.05
852.515	11047.79
852.838	11032.65
853.161	11014.57
853.483	10973.44
853.806	10894.57
854.129	10905.42
854.451	10878.3
854.774	10802.82
855.096	10679.21
855.419	10742.94
855.741	10721.02
856.063	10687.35
856.385	10642.83
856.708	10563.06
857.03	10523.06
857.352	10591.98
857.674	10473.34
857.996	10412.33
858.318	10395.83
858.64	10429.5
858.961	10417.75
859.283	10286.68
859.605	10285.1
859.926	10348.15
860.248	10264.98
860.57	10302.5
860.891	10303.85
861.212	10233.8
861.534	10152.9
861.855	10142.28
862.176	10152.44
862.498	10161.48
862.819	10135.95
863.14	10097.08
863.461	9992.45
863.782	10036.29
864.103	10057.08
864.424	9993.81
864.745	10030.87
865.065	9909.06
865.386	9914.49
865.707	9877.42
866.027	9954.71
866.348	9896.63
866.668	9817.54
866.989	9872.45
867.309	9754.04
867.63	9712.68
867.95	9834.04
868.27	9796.07
868.59	9689.41
868.91	9661.61
869.23	9689.86
869.55	9731.44
869.87	9776.18
870.19	9647.6
870.51	9727.82
870.83	9688.28
871.15	9601.5
871.469	9592.23
871.789	9681.72
872.109	9612.8
872.428	9548.17
872.748	9521.05
873.067	9585.91
873.386	9538.68
873.706	9540.94
874.025	9434.5
874.344	9440.15
874.663	9443.99
874.982	9482.41
875.301	9439.92
875.62	9387.72
875.939	9351.56
876.258	9380.26
876.577	9353.14
876.896	9396.76
877.214	9316.31
877.533	9300.26
877.852	9266.59
878.17	9303.88
878.489	9227.05
878.807	9284.22
879.125	9230.66
879.444	9238.57
879.762	9254.84
880.08	9211.45
880.398	9136.65
880.716	9187.72
881.034	9141.62
881.352	9208.51
881.67	9164.9
881.988	9186.37
882.306	9098.91
882.624	9050.1
882.941	8987.28
883.259	8975.3
883.577	8974.17
883.894	8970.78
884.212	9000.84
884.529	8924.23
884.846	8926.94
885.164	8929.43
885.481	8816.21
885.798	8896.66
886.115	8792.71
886.432	8784.8
886.75	8734.86
887.067	8741.41
887.383	8746.83
887.7	8735.53
888.017	8701.18
888.334	8661.18
888.651	8667.74
888.967	8647.63
889.284	8640.17
889.6	8517.01
889.917	8523.11
890.233	8545.26
890.55	8494.41
890.866	8521.75
891.182	8439.5
891.498	8415.99
891.815	8470
892.131	8373.73
892.447	8391.36
892.763	8304.13
893.079	8337.8
893.395	8282.21
893.71	8262.1
894.026	8310.23
894.342	8185.72
894.657	8179.62
894.973	8169.9
895.289	8213.51
895.604	8143.23
895.92	8076.57
896.235	8066.17
896.55	8049
896.865	8032.27
897.181	8012.16
897.496	7993.63
897.811	7946.18
898.126	7932.62
898.441	7873.18
898.756	7808.55
899.071	7853.75
899.386	7859.17
899.7	7746.41
900.015	7743.02
900.33	7631.38
900.644	7670.93
900.959	7638.39
901.273	7644.49
901.588	7593.87
901.902	7557.71
902.216	7531.04
902.531	7511.16
902.845	7485.4
903.159	7447.66
903.473	7441.56
903.787	7356.36
904.101	7306.87
904.415	7376.02
904.729	7323.59
905.042	7253.76
905.356	7281.11
905.67	7231.39
905.984	7259.41
906.297	7166.53
906.611	7202.92
906.924	7114.56
907.237	7159.76
907.551	7054.45
907.864	7111.62
908.177	7045.86
908.491	7027.56
908.804	6994.56
909.117	6950.04
909.43	6926.09
909.743	6812.19
910.056	6842.25
910.368	6839.31
910.681	6798.86
910.994	6752.31
911.307	6753.89
911.619	6758.64
911.932	6712.08
912.244	6638.19
912.557	6656.27
912.869	6552.09
913.181	6597.28
913.494	6546.44
913.806	6531.3
914.118	6556.38
914.43	6469.38
914.742	6491.52
915.054	6414.01
915.366	6457.63
915.678	6401.81
915.99	6353
916.302	6270.51
916.613	6334.69
916.925	6287.24
917.236	6230.51
917.548	6200.01
917.859	6197.97
918.171	6170.4
918.482	6205.2
918.794	6099.44
919.105	6143.28
919.416	6076.62
919.727	6043.85
920.038	6063.96
920.349	6016.73
920.66	5958.88
920.971	5989.39
921.282	5903.07
921.593	5925.44
921.903	5894.7
922.214	5887.47
922.525	5839.34
922.835	5785.33
923.146	5778.1
923.456	5709.17
923.767	5693.81
924.077	5681.15
924.387	5699.45
924.697	5664.88
925.008	5666.91
925.318	5599.8
925.628	5596.41
925.938	5573.81
926.248	5543.3
926.558	5504.21
926.867	5495.84
927.177	5477.31
927.487	5438.67
927.796	5399.8
928.106	5410.42
928.416	5393.02
928.725	5367.03
929.034	5353.48
929.344	5313.25
929.653	5350.99
929.962	5303.98
930.271	5232.57
930.581	5237.77
930.89	5248.17
931.199	5171.78
931.508	5187.38
931.817	5172.24
932.125	5127.94
932.434	5078.23
932.743	5071.67
933.051	5080.71
933.36	5025.12
933.669	5004.56
933.977	4958.68
934.286	4993.94
934.594	4986.93
934.902	4892.7
935.21	4914.84
935.519	4920.49
935.827	4857.44
936.135	4806.6
936.443	4802.08
936.751	4785.81
937.059	4760.04
937.367	4790.33
937.674	4777.22
937.982	4736.54
938.29	4749.2
938.597	4766.6
938.905	4636.43
939.213	4624
939.52	4570.22
939.827	4595.53
940.135	4589.2
940.442	4532.71
940.749	4544.68
941.056	4549.65
941.363	4521.63
941.67	4449.32
941.977	4470.11
942.284	4431.69
942.591	4408.64
942.898	4418.36
943.205	4453.39
943.511	4358.25
943.818	4394.18
944.125	4329.1
944.431	4287.97
944.738	4320.06
945.044	4273.05
945.35	4241.19
945.657	4260.17
945.963	4227.85
946.269	4204.13
946.575	4181.53
946.881	4191.25
947.187	4165.48
947.493	4113.73
947.799	4091.59
948.105	4118.25
948.41	4099.5
948.716	4077.35
949.022	4054.3
949.327	4069.22
949.633	4030.12
949.938	4021.31
950.244	3960.07
950.549	3960.52
950.854	3916.9
951.16	3978.6
951.465	3932.27
951.77	3930.91
952.075	3845.27
952.38	3822.22
952.685	3830.58
952.99	3809.79
953.294	3787.19
953.599	3802.56
953.904	3793.74
954.209	3756
954.513	3787.87
954.818	3760.3
955.122	3695.21
955.426	3734.53
955.731	3678.49
956.035	3651.15
956.339	3663.12
956.643	3638.94
956.948	3613.86
957.252	3589.68
957.556	3596.91
957.86	3567.08
958.163	3532.05
958.467	3515.56
958.771	3533.64
959.075	3557.82
959.378	3483.47
959.682	3452.06
959.985	3455.67
960.289	3427.42
960.592	3480.53
960.896	3445.95
961.199	3386.97
961.502	3413.87
961.805	3376.58
962.108	3361.44
962.411	3339.74
962.714	3359.86
963.017	3313.53
963.32	3297.94
963.623	3294.77
963.926	3272.63
964.228	3323.92
964.531	3243.7
964.833	3246.41
965.136	3222.23
965.438	3209.58
965.741	3185.17
966.043	3184.27
966.345	3197.6
966.648	3170.26
966.95	3160.31
967.252	3145.4
967.554	3122.57
967.856	3094.1
968.158	3066.53
968.46	3048.45
968.761	3029.92
969.063	3033.76
969.365	3010.26
969.666	3010.26
969.968	2968.9
970.269	2980.88
970.571	2994.67
970.872	2975.23
971.174	2970.49
971.475	2939.75
971.776	2909.92
972.077	2919.19
972.378	2925.52
972.679	2932.52
972.98	2865.86
973.281	2846.65
973.582	2870.6
973.883	2864.05
974.183	2824.28
974.484	2837.38
974.785	2756.48
975.085	2791.06
975.386	2796.03
975.686	2778.63
975.986	2755.58
976.287	2715.35
976.587	2735.24
976.887	2713.77
977.187	2720.78
977.487	2694.79
977.787	2727.33
978.087	2666.09
978.387	2666.99
978.687	2671.51
978.987	2675.58
979.286	2626.99
979.586	2615.24
979.885	2598.29
980.185	2590.84
980.484	2607.56
980.784	2545.41
981.083	2559.88
981.382	2561.01
981.682	2538.63
981.981	2536.83
982.28	2518.97
982.579	2501.57
982.878	2542.25
983.177	2476.04
983.475	2479.88
983.774	2441.69
984.073	2471.74
984.372	2437.62
984.67	2435.81
984.969	2419.31
985.267	2446.88
985.566	2396.49
985.864	2413.89
986.162	2375.93
986.461	2405.53
986.759	2360.33
987.057	2340.9
987.355	2363.05
987.653	2316.72
987.951	2340.9
988.249	2322.82
988.547	2303.39
988.844	2300.22
989.142	2268.58
989.44	2264.97
989.737	2280.34
990.035	2216.16
990.332	2272.88
990.63	2200.11
990.927	2226.78
991.224	2217.96
991.521	2201.69
991.819	2199.66
992.116	2194.46
992.413	2128.48
992.71	2135.25
993.006	2165.99
993.303	2160.34
993.6	2142.71
993.897	2118.53
994.193	2110.62
994.49	2100.91
994.787	2118.53
995.083	2060
995.379	2054.8
995.676	2043.96
995.972	2041.25
996.268	2044.86
996.565	2044.86
996.861	2004.86
997.157	2015.26
997.453	1990.85
997.749	1983.62
998.044	1980
998.34	1977.52
998.636	1965.32
998.932	1958.99
999.227	1932.1
999.523	1951.3
999.818	1924.86
1000.114	1904.07
1000.409	1903.4
1000.704	1887.13
1001	1873.34
1001.295	1873.57
1001.59	1853.68
1001.885	1902.49
1002.18	1879.44
1002.475	1842.15
1002.77	1839.67
1003.065	1827.47
1003.359	1820.91
1003.654	1796.05
1003.949	1806
1004.243	1796.28
1004.538	1743.4
1004.832	1763.51
1005.127	1766.68
1005.421	1749.95
1005.715	1735.04
1006.009	1704.53
1006.304	1713.8
1006.598	1702.72
1006.892	1727.13
1007.186	1693.91
1007.48	1671.54
1007.773	1674.25
1008.067	1657.98
1008.361	1664.53
1008.655	1666.11
1008.948	1629.73
1009.242	1640.8
1009.535	1597.42
1009.829	1599.22
1010.122	1593.57
1010.415	1605.33
1010.708	1588.15
1011.001	1575.95
1011.295	1551.32
1011.588	1564.2
1011.881	1558.32
1012.173	1552.22
1012.466	1538.89
1012.759	1505.67
1013.052	1536.63
1013.344	1511.54
1013.637	1480.81
1013.93	1477.64
1014.222	1462.73
1014.514	1472.45
1014.807	1434.48
1015.099	1490.3
1015.391	1433.58
1015.683	1452.56
1015.976	1432
1016.268	1434.93
1016.56	1395.61
1016.851	1392.9
1017.143	1387.93
1017.435	1387.25
1017.727	1395.61
1018.018	1399.91
1018.31	1371.88
1018.602	1327.59
1018.893	1349.29
1019.185	1339.57
1019.476	1320.13
1019.767	1310.64
1020.058	1323.07
1020.35	1302.51
1020.641	1275.62
1020.932	1263.19
1021.223	1243.3
1021.514	1283.75
1021.804	1237.65
1022.095	1251.66
1022.386	1243.53
1022.677	1233.58
1022.967	1238.56
1023.258	1230.65
1023.548	1217.31
1023.839	1210.31
1024.129	1210.53
1024.419	1185.9
1024.709	1192.45
1025	1164.66
1025.29	1166.69
1025.58	1184.09
1025.87	1142.06
1026.16	1171.89
1026.449	1156.52
1026.739	1133.7
1027.029	1118.56
1027.319	1120.82
1027.608	1107.49
1027.898	1115.62
1028.187	1123.53
1028.477	1113.59
1028.766	1120.14
1029.055	1069.97
1029.344	1085.34
1029.634	1060.71
1029.923	1041.95
1030.212	1061.16
1030.501	1049.41
1030.79	1042.18
1031.078	1051.67
1031.367	1023.19
1031.656	1041.27
1031.945	1033.59
1032.233	1047.37
1032.522	1018.67
1032.81	988.62
1033.099	976.64
1033.387	991.33
1033.675	982.29
1033.963	989.97
1034.251	966.25
1034.54	943.87
1034.828	963.53
1035.116	943.87
1035.403	973.93
1035.691	926.02
1035.979	921.05
1036.267	908.62
1036.554	925.57
1036.842	904.55
1037.129	908.85
1037.417	896.87
1037.704	918.11
1037.992	902.29
1038.279	876.98
1038.566	888.51
1038.853	888.51
1039.14	888.51
