Data from hue_280_FLMS001491_00025.txt Node
Date: Tue Feb 07 15:55:03 GMT 2017
User: dcchb
Spectrometer: FLMS00149
Trigger mode: 0
Integration Time (sec): 2.000000E-2
Scans to average: 10
Electric dark correction enabled: true
Nonlinearity correction enabled: false
Boxcar width: 0
XAxis mode: Wavelengths
Number of Pixels in Spectrum: 2048
>>>>>Begin Spectral Data<<<<<
341.393	-1.53
341.776	-1.53
342.16	-1.53
342.543	-49.21
342.927	-72.94
343.31	-63.22
343.693	-77.46
344.077	-58.93
344.46	-45.59
344.843	-62.77
345.226	-34.52
345.61	-25.71
345.993	-20.51
346.376	-4.92
346.759	27.17
347.142	18.81
347.525	46.38
347.908	34.41
348.291	60.17
348.674	88.42
349.057	118.25
349.44	115.31
349.823	138.13
350.206	155.53
350.588	191.24
350.971	217.68
351.354	218.36
351.737	219.03
352.119	233.5
352.502	261.29
352.884	282.08
353.267	289.09
353.65	282.53
354.032	295.64
354.414	306.72
354.797	304
355.179	304.23
355.562	329.99
355.944	293.61
356.326	310.1
356.709	331.12
357.091	348.07
357.473	313.49
357.855	325.02
358.238	332.7
358.62	321.63
359.002	322.76
359.384	331.35
359.766	333.16
360.148	342.42
360.53	359.37
360.912	343.1
361.294	327.96
361.676	341.29
362.057	338.13
362.439	298.35
362.821	332.7
363.203	339.26
363.584	327.28
363.966	311.23
364.348	322.31
364.729	331.8
365.111	317.56
365.493	317.56
365.874	308.52
366.256	297.68
366.637	315.53
367.019	313.27
367.4	323.21
367.781	302.87
368.163	315.75
368.544	297.22
368.925	293.38
369.306	315.98
369.688	326.83
370.069	304.23
370.45	314.62
370.831	311.69
371.212	317.79
371.593	307.62
371.974	327.28
372.355	318.01
372.736	316.21
373.117	299.26
373.498	324.57
373.879	310.78
374.26	316.21
374.641	312.36
375.021	316.66
375.402	317.56
375.783	307.62
376.163	322.31
376.544	319.37
376.925	331.57
377.305	321.4
377.686	326.15
378.066	330.67
378.447	343.55
378.827	341.74
379.208	338.35
379.588	301.97
379.968	326.6
380.349	322.53
380.729	328.86
381.109	343.55
381.489	337.67
381.87	320.73
382.25	346.26
382.63	352.82
383.01	330.9
383.39	335.41
383.77	353.95
384.15	360.95
384.53	348.3
384.91	348.07
385.29	349.43
385.67	344
386.049	352.14
386.429	345.36
386.809	360.27
387.189	362.31
387.568	346.26
387.948	362.98
388.328	360.05
388.707	371.57
389.087	366.37
389.466	377.22
389.846	389.88
390.225	375.64
390.605	354.4
390.984	355.53
391.363	394.4
391.743	378.8
392.122	365.02
392.501	378.58
392.881	381.29
393.26	376.09
393.639	360.05
394.018	383.55
394.397	367.96
394.776	384.68
395.155	390.55
395.534	378.58
395.913	376.09
396.292	395.98
396.671	407.73
397.05	387.84
397.429	400.72
397.808	414.06
398.186	408.86
398.565	406.15
398.944	399.82
399.323	391.91
399.701	413.38
400.08	404.57
400.458	414.96
400.837	405.02
401.215	426.03
401.594	407.5
401.972	407.28
402.351	416.77
402.729	424.9
403.107	428.29
403.486	445.92
403.864	459.03
404.242	425.81
404.62	448.41
404.999	437.79
405.377	461.97
405.755	456.32
406.133	462.87
406.511	487.95
406.889	450.67
407.267	471.68
407.645	493.83
408.023	473.26
408.401	490.67
408.779	482.76
409.156	463.1
409.534	492.47
409.912	513.72
410.29	510.78
410.667	496.99
411.045	524.56
411.422	520.49
411.8	527.27
412.178	554.39
412.555	544.9
412.933	550.32
413.31	560.49
413.687	553.71
414.065	556.65
414.442	585.13
414.819	592.81
415.197	619.02
415.574	586.03
415.951	602.07
416.328	612.92
416.705	627.84
417.082	625.35
417.46	652.02
417.837	651.79
418.214	638.46
418.591	663.77
418.967	654.05
419.344	687.95
419.721	667.38
420.098	661.28
420.475	688.4
420.852	703.31
421.228	718.68
421.605	718.91
421.982	720.72
422.358	719.13
422.735	741.05
423.111	750.55
423.488	770.66
423.864	766.59
424.241	802.97
424.617	787.15
424.994	807.49
425.37	816.98
425.746	813.37
426.123	809.98
426.499	821.28
426.875	842.07
427.251	838.45
427.627	862.63
428.003	866.93
428.379	888.62
428.756	890.88
429.132	906.02
429.507	925.68
429.883	907.83
430.259	930.88
430.635	946.47
431.011	965
431.387	983.08
431.763	958.22
432.138	1016.3
432.514	1007.04
432.89	1024.89
433.265	1025.79
433.641	1047.71
434.016	1048.62
434.392	1074.6
434.767	1083.64
435.143	1085.45
435.518	1137.65
435.894	1103.98
436.269	1139.01
436.644	1147.6
437.02	1171.78
437.395	1177.65
437.77	1213.13
438.145	1215.62
438.52	1223.53
438.895	1233.02
439.271	1241.38
439.646	1294.71
440.021	1265.56
440.395	1277.09
440.77	1283.19
441.145	1292.45
441.52	1313.47
441.895	1320.25
442.27	1343.52
442.645	1330.19
443.019	1339
443.394	1358.89
443.769	1379.23
444.143	1365.9
444.518	1384.65
444.892	1372.68
445.267	1388.49
445.641	1393.24
446.016	1431.43
446.39	1421.04
446.764	1448.38
447.139	1460.81
447.513	1463.07
447.887	1446.12
448.262	1440.47
448.636	1477.98
449.01	1492.67
449.384	1481.37
449.758	1484.54
450.132	1499.68
450.506	1512.33
450.88	1539.45
451.254	1551.88
451.628	1557.53
452.002	1591.2
452.376	1581.71
452.75	1595.95
453.123	1589.39
453.497	1595.04
453.871	1615.83
454.244	1638.88
454.618	1640.69
454.992	1697.64
455.365	1661.93
455.739	1725.21
456.112	1715.72
456.486	1719.79
456.859	1740.12
457.232	1740.12
457.606	1733.57
457.979	1795.49
458.352	1812.66
458.725	1824.87
459.099	1841.59
459.472	1875.49
459.845	1850.4
460.218	1885.88
460.591	1901.93
460.964	1874.81
461.337	1934.47
461.71	1963.62
462.083	1990.06
462.456	1997.52
462.829	1971.53
463.201	2026.67
463.574	2022.6
463.947	2014.92
464.32	2083.17
464.692	2059.66
465.065	2087.23
465.438	2115.26
465.81	2161.58
466.183	2152.09
466.555	2220.34
466.928	2240.45
467.3	2196.61
467.672	2239.55
468.045	2286.32
468.417	2259.88
468.789	2309.37
469.161	2290.62
469.534	2330.62
469.906	2360.45
470.278	2401.35
470.65	2386.66
471.022	2424.17
471.394	2478.18
471.766	2505.08
472.138	2510.72
472.51	2552.31
472.882	2565.41
473.253	2611.51
473.625	2635.02
473.997	2663.26
474.369	2688.12
474.74	2701.23
475.112	2763.15
475.484	2766.76
475.855	2795.69
476.227	2846.31
476.598	2924.73
476.97	2915.91
477.341	2965.63
477.713	3005.4
478.084	2982.12
478.455	3093.76
478.827	3094.66
479.198	3148
479.569	3171.05
479.94	3243.81
480.311	3238.16
480.682	3279.52
481.053	3349.8
481.424	3401.1
481.795	3406.07
482.166	3460.08
482.537	3497.14
482.908	3566.74
483.279	3542.56
483.65	3639.73
484.021	3678.6
484.391	3688.55
484.762	3701.88
485.133	3778.94
485.503	3787.98
485.874	3856.45
486.244	3873.63
486.615	3923.34
486.985	3944.13
487.356	4009.44
487.726	4042.89
488.097	4118.37
488.467	4133.51
488.837	4147.29
489.207	4178.7
489.578	4260.06
489.948	4308.64
490.318	4329.89
490.688	4342.77
491.058	4431.8
491.428	4430.45
491.798	4490.56
492.168	4556.55
492.538	4570.33
492.908	4628.86
493.278	4680.61
493.648	4655.3
494.017	4708.63
494.387	4782.08
494.757	4735.53
495.126	4765.13
495.496	4825.92
495.866	4821.85
496.235	4895.52
496.605	4856.2
496.974	4976.65
497.344	4936.65
497.713	4989.3
498.082	4982.07
498.452	5038.79
498.821	5021.39
499.19	5042.41
499.559	5109.3
499.928	5104.1
500.298	5106.81
500.667	5183.87
501.036	5147.94
501.405	5206.93
501.774	5213.03
502.143	5273.36
502.512	5296.41
502.88	5261.16
503.249	5325.11
503.618	5365.79
503.987	5363.98
504.356	5370.54
504.724	5388.84
505.093	5352.01
505.462	5431.78
505.83	5424.32
506.199	5490.53
506.567	5528.05
506.936	5500.93
507.304	5520.14
507.672	5575.96
508.041	5565.11
508.409	5581.15
508.777	5626.12
509.145	5650.08
509.514	5635.84
509.882	5659.79
510.25	5670.64
510.618	5698.89
510.986	5733.92
511.354	5753.8
511.722	5816.17
512.09	5836.06
512.458	5791.32
512.826	5818.21
513.193	5823.86
513.561	5846
513.929	5883.52
514.297	5930.97
514.664	5929.39
515.032	5963.97
515.4	5967.13
515.767	5937.53
516.135	6011.2
516.502	5978.2
516.869	6009.39
517.237	6013.01
517.604	6031.99
517.972	6059.33
518.339	6090.97
518.706	6039.9
519.073	6089.39
519.44	6107.92
519.808	6199.44
520.175	6172.1
520.542	6230.85
520.909	6230.18
521.276	6236.73
521.643	6244.41
522.009	6325.09
522.376	6284.64
522.743	6323.73
523.11	6318.53
523.477	6388.14
523.843	6370.51
524.21	6392.43
524.577	6452.99
524.943	6464.52
525.31	6520.56
525.676	6531.41
526.043	6563.73
526.409	6683.04
526.776	6654.12
527.142	6601.24
527.508	6620.67
527.874	6737.96
528.241	6759.2
528.607	6783.15
528.973	6835.58
529.339	6850.5
529.705	6872.19
530.071	6939.99
530.437	6868.58
530.803	6907.67
531.169	6951.06
531.535	6922.81
531.901	6927.56
532.267	6958.74
532.632	7021.57
532.998	6990.61
533.364	7021.57
533.73	7064.5
534.095	7061.34
534.461	7066.76
534.826	7133.65
535.192	7146.99
535.557	7136.14
535.923	7145.86
536.288	7164.39
536.653	7181.56
537.019	7185.4
537.384	7160.55
537.749	7210.26
538.114	7261.33
538.479	7224.73
538.845	7321.67
539.21	7330.26
539.575	7265.85
539.94	7299.3
540.305	7332.29
540.67	7332.97
541.034	7296.81
541.399	7323.71
541.764	7376.13
542.129	7359.19
542.494	7428.11
542.858	7376.13
543.223	7431.05
543.587	7470.37
543.952	7472.85
544.316	7519.63
544.681	7457.71
545.045	7588.33
545.41	7588.78
545.774	7505.62
546.138	7586.75
546.503	7566.41
546.867	7631.72
547.231	7666.52
547.595	7656.8
547.959	7669.69
548.324	7693.64
548.688	7643.02
549.052	7656.13
549.416	7641.44
549.779	7683.24
550.143	7672.62
550.507	7730.47
550.871	7727.31
551.235	7700.19
551.599	7784.94
551.962	7819.06
552.326	7791.94
552.689	7780.64
553.053	7794.88
553.417	7847.99
553.78	7893.18
554.143	7812.96
554.507	7901.09
554.87	7862.9
555.234	7942.67
555.597	7877.36
555.96	7955.55
556.323	7963.24
556.686	7943.12
557.05	8035.1
557.413	8002.78
557.776	8042.78
558.139	8074.19
558.502	8092.95
558.865	8130.24
559.228	8180.63
559.59	8168.2
559.953	8136.34
560.316	8227.18
560.679	8194.42
561.041	8259.05
561.404	8277.8
561.767	8324.81
562.129	8222.21
562.492	8325.49
562.854	8351.48
563.217	8330.68
563.579	8389.67
563.941	8416.11
564.304	8433.51
564.666	8480.06
565.028	8491.58
565.39	8494.52
565.753	8545.14
566.115	8581.75
566.477	8592.6
566.839	8645.48
567.201	8684.35
567.563	8695.2
567.925	8744.46
568.287	8799.37
568.648	8673.73
569.01	8855.19
569.372	8889.77
569.734	8891.8
570.095	8895.87
570.457	8899.03
570.819	8923.21
571.18	8936.32
571.542	8972.93
571.903	9047.5
572.265	9056.32
572.626	9057.45
572.987	9102.19
573.349	9137.44
573.71	9141.51
574.071	9233.03
574.432	9274.39
574.794	9295.18
575.155	9292.02
575.516	9339.02
575.877	9386.93
576.238	9375.4
576.599	9449.07
576.96	9493.14
577.32	9524.33
577.681	9514.16
578.042	9605.68
578.403	9699.46
578.763	9634.38
579.124	9707.6
579.485	9710.76
579.845	9785.11
580.206	9794.83
580.566	9943.3
580.927	9909.4
581.287	9943.07
581.648	9968.16
582.008	9994.6
582.368	10103.75
582.728	10130.86
583.089	10157.3
583.449	10239.34
583.809	10310.29
584.169	10323.17
584.529	10383.29
584.889	10430.52
585.249	10491.76
585.609	10496.5
585.969	10605.43
586.329	10593
586.688	10704.86
587.048	10743.05
587.408	10782.15
587.768	10846.55
588.127	10899.66
588.487	10950.5
588.846	11044.74
589.206	11164.06
589.565	11202.02
589.925	11262.81
590.284	11214
590.643	11337.16
591.003	11358.85
591.362	11485.86
591.721	11468.68
592.08	11638.62
592.44	11685.85
592.799	11704.16
593.158	11776.47
593.517	11814.66
593.876	11926.07
594.235	11983.92
594.593	12049.01
594.952	12079.06
595.311	12154.99
595.67	12133.3
596.029	12310.47
596.387	12324.93
596.746	12443.35
597.104	12382.56
597.463	12423.01
597.822	12619.16
598.18	12564.47
598.538	12642.44
598.897	12783.68
599.255	12658.93
599.613	12937.12
599.972	12828.19
600.33	12920.17
600.688	12972.82
601.046	13046.49
601.404	13076.32
601.762	13165.36
602.12	13102.99
602.478	13309.76
602.836	13192.25
603.194	13250.1
603.552	13274.51
603.91	13314.96
604.268	13479.48
604.625	13470.44
604.983	13440.83
605.341	13481.74
605.698	13556.31
606.056	13547.95
606.413	13650.55
606.771	13716.31
607.128	13822.97
607.485	13648.51
607.843	13721.96
608.2	13808.51
608.557	13924.66
608.914	13855.51
609.272	13914.94
609.629	13952.68
609.986	14007.82
610.343	13982.74
610.7	14192.9
611.057	14107.48
611.414	14193.58
611.771	14170.76
612.127	14182.06
612.484	14178.89
612.841	14283.3
613.198	14278.1
613.554	14289.85
613.911	14429.96
614.267	14366.91
614.624	14406.01
614.98	14387.7
615.337	14521.03
615.693	14418.43
616.05	14479.22
616.406	14570.07
616.762	14498.88
617.118	14505.21
617.475	14646
617.831	14596.28
618.187	14754.47
618.543	14681.03
618.899	14808.03
619.255	14752.89
619.611	14656.39
619.967	14735.94
620.323	14850.51
620.678	14719.67
621.034	14693.23
621.39	14782.72
621.746	14833.79
622.101	14925.99
622.457	14802.38
622.812	14885.77
623.168	14844.41
623.523	14875.37
623.879	14930.06
624.234	14854.58
624.589	14835.37
624.945	14955.82
625.3	14955.14
625.655	14850.97
626.01	14972.09
626.365	14922.83
626.72	14890.29
627.075	14873.11
627.43	14973
627.785	14851.42
628.14	14962.83
628.495	15024.29
628.85	14891.19
629.205	14912.21
629.559	15072.88
629.914	14898.65
630.269	14933.68
630.623	14978.19
630.978	14845.09
631.332	14984.3
631.687	14954.24
632.041	14865.88
632.396	14872.21
632.75	14871.98
633.104	14891.64
633.459	14786.33
633.813	14852.55
634.167	14824.3
634.521	14787.01
634.875	14850.74
635.229	14755.83
635.583	14726.9
635.937	14776.39
636.291	14740.23
636.645	14794.7
636.999	14768.93
637.352	14752.89
637.706	14641.71
638.06	14668.37
638.413	14646.23
638.767	14611.88
639.121	14641.48
639.474	14570.52
639.828	14561.93
640.181	14633.34
640.534	14646.45
640.888	14566
641.241	14495.95
641.594	14484.65
641.947	14631.99
642.301	14550.86
642.654	14523.52
643.007	14617.3
643.36	14551.54
643.713	14463.18
644.066	14583.4
644.419	14506.79
644.771	14352
645.124	14305.67
645.477	14284.65
645.83	14205.56
646.182	14137.54
646.535	14065.68
646.888	14078.56
647.24	14118.78
647.593	14146.8
647.945	14050.31
648.298	14011.89
648.65	14042.17
649.002	13992.91
649.355	14058.44
649.707	14002.85
650.059	14076.75
650.411	14302.05
650.763	14286.01
651.115	14483.07
651.467	14429.28
651.819	14340.02
652.171	14375.27
652.523	14261.38
652.875	14280.58
653.227	14314.93
653.578	14418.66
653.93	14365.78
654.282	14279.68
654.633	14307.02
654.985	14334.37
655.337	14352.45
655.688	14366.91
656.039	14343.86
656.391	14329.4
656.742	14316.06
657.094	14296.63
657.445	14384.76
657.796	14427.93
658.147	14397.42
658.498	14286.91
658.849	14447.59
659.2	14408.49
659.551	14394.48
659.902	14397.19
660.253	14418.43
660.604	14420.24
660.955	14367.36
661.306	14434.48
661.656	14366.46
662.007	14509.51
662.358	14459.34
662.708	14482.61
663.059	14395.61
663.409	14398.1
663.76	14491.88
664.11	14512.22
664.461	14526.91
664.811	14410.75
665.161	14324.88
665.511	14439.22
665.862	14437.19
666.212	14472.67
666.562	14424.76
666.912	14442.39
667.262	14476.06
667.612	14463.18
667.962	14440.35
668.312	14367.59
668.662	14500.92
669.011	14330.75
669.361	14389.28
669.711	14455.04
670.06	14418.66
670.41	14397.42
670.76	14339.11
671.109	14404.88
671.459	14449.17
671.808	14316.52
672.157	14436.74
672.507	14279.68
672.856	14288.72
673.205	14345.89
673.554	14311.32
673.904	14296.18
674.253	14353.13
674.602	14326.69
674.951	14142.74
675.3	14067.48
675.649	14275.61
675.998	14188.61
676.346	14252.56
676.695	14229.51
677.044	14213.02
677.393	14211.43
677.741	14217.31
678.09	14217.99
678.438	14097.09
678.787	14278.33
679.135	14147.26
679.484	14089.18
679.832	14110.19
680.181	14021.83
680.529	14022.06
680.877	14077.88
681.225	13975.28
681.573	14109.29
681.922	13972.12
682.27	13930.99
682.618	13890.99
682.966	13914.27
683.314	13952.23
683.661	13874.72
684.009	13761.28
684.357	13799.47
684.705	13746.59
685.053	13763.31
685.4	13716.31
685.748	13662.97
686.095	13660.26
686.443	13585.69
686.79	13511.79
687.138	13566.03
687.485	13573.94
687.832	13435.41
688.18	13468.4
688.527	13376.65
688.874	13390.89
689.221	13376.43
689.568	13317.67
689.915	13229.54
690.262	13282.87
690.609	13299.14
690.956	13165.36
691.303	13179.82
691.65	13088.3
691.997	13098.47
692.344	12990.22
692.69	12969.88
693.037	12985.03
693.383	12834.97
693.73	12924.01
694.077	12839.49
694.423	12826.61
694.769	12715.88
695.116	12792.04
695.462	12733.73
695.808	12652.38
696.155	12703.23
696.501	12519.28
696.847	12615.09
697.193	12454.19
697.539	12530.35
697.885	12414.65
698.231	12340.07
698.577	12328.32
698.923	12321.99
699.269	12267.98
699.614	12134.43
699.96	12150.47
700.306	12102.79
700.651	12082.9
700.997	12024.83
701.342	12024.37
701.688	11992.51
702.033	11849.91
702.379	11863.93
702.724	11748
703.069	11754.1
703.415	11643.37
703.76	11732.86
704.105	11704.38
704.45	11630.71
704.795	11586.19
705.14	11482.01
705.485	11510.94
705.83	11471.17
706.175	11455.12
706.52	11400.43
706.865	11403.37
707.209	11380.55
707.554	11252.87
707.899	11355.46
708.243	11221.91
708.588	11217.39
708.932	11124.51
709.277	11188.46
709.621	11150.95
709.966	11135.13
710.31	11079.99
710.654	10989.15
710.998	10957.96
711.342	11015.59
711.687	10948.47
712.031	10865.76
712.375	10789.6
712.719	10885.19
713.063	10778.98
713.407	10823.95
713.75	10832.54
714.094	10738.08
714.438	10706.67
714.782	10696.27
715.125	10729.94
715.469	10731.53
715.812	10695.37
716.156	10603.85
716.499	10642.04
716.843	10656.95
717.186	10544.86
717.53	10643.17
717.873	10568.37
718.216	10563.85
718.559	10586.44
718.902	10524.75
719.246	10496.05
719.589	10482.49
719.932	10438.65
720.275	10426.45
720.617	10380.8
720.96	10442.72
721.303	10420.8
721.646	10353.91
721.989	10329.5
722.331	10462.83
722.674	10371.76
723.016	10335.15
723.359	10341.03
723.701	10349.61
724.044	10233.01
724.386	10323.4
724.729	10283.85
725.071	10188.94
725.413	10282.72
725.755	10255.15
726.097	10275.27
726.439	10188.94
726.782	10165.66
727.124	10224.87
727.465	10133.8
727.807	10161.15
728.149	10190.97
728.491	10136.74
728.833	10154.14
729.175	10138.32
729.516	10126.57
729.858	10090.64
730.199	10149.17
730.541	10077.31
730.882	10104.88
731.224	10181.94
731.565	10077.53
731.906	10147.59
732.248	10157.3
732.589	10110.75
732.93	10086.57
733.271	10098.1
733.612	10044.54
733.953	10108.04
734.294	10093.8
734.635	10100.36
734.976	10107.81
735.317	10063.07
735.658	10127.7
735.999	10145.1
736.339	10072.33
736.68	10080.02
737.021	10145.1
737.361	10010.41
737.702	10136.74
738.042	10154.82
738.383	10091.32
738.723	10127.47
739.063	10100.36
739.404	10157.76
739.744	10146.91
740.084	10151.88
740.424	10148.04
740.764	10147.13
741.104	10251.31
741.444	10122.95
741.784	10152.78
742.124	10246.34
742.464	10295.6
742.804	10203.63
743.143	10268.94
743.483	10312.78
743.823	10255.38
744.162	10350.74
744.502	10351.42
744.841	10312.55
745.181	10477.3
745.52	10465.54
745.86	10488.37
746.199	10557.29
746.538	10541.47
746.877	10642.04
747.216	10709.38
747.556	10729.27
747.895	10738.98
748.234	10786.44
748.573	10830.05
748.911	10842.94
749.25	10947.34
749.589	10952.99
749.928	11025.76
750.267	11113.66
750.605	11216.48
750.944	11291.51
751.283	11285.86
751.621	11389.59
751.96	11477.04
752.298	11540.77
752.636	11699.18
752.975	11661.44
753.313	11793.64
753.651	12009.23
753.989	12002
754.327	12144.82
754.666	12224.14
755.004	12314.99
755.342	12495.32
755.679	12672.04
756.017	12617.13
756.355	12806.05
756.693	12895.08
757.031	13093.5
757.368	13166.94
757.706	13248.52
758.044	13429.76
758.381	13619.59
758.719	13743.88
759.056	13846.92
759.394	13966.02
759.731	14020.48
760.068	14213.92
760.405	14278.55
760.743	14418.43
761.08	14762.61
761.417	14789.95
761.754	14885.99
762.091	15027.68
762.428	15136.16
762.765	15301.12
763.102	15488.01
763.438	15541.57
763.775	15668.12
764.112	15853.88
764.449	16015
764.785	16068.11
765.122	16133.42
765.458	16235.11
765.795	16445.5
766.131	16458.38
766.467	16646.4
766.804	16690.01
767.14	16714.19
767.476	16911.7
767.812	16924.58
768.148	17122.54
768.485	17131.36
768.821	17259.94
769.157	17371.13
769.492	17382.42
769.828	17487.96
770.164	17565.02
770.5	17599.82
770.836	17659.25
771.171	17683.66
771.507	17784.22
771.842	17768.85
772.178	17823.32
772.513	17924.33
772.849	17954.39
773.184	18052.46
773.519	18154.61
773.855	18047.04
774.19	18035.74
774.525	18040.26
774.86	18221.95
775.195	18245
775.53	18249.29
775.865	18249.52
776.2	18230.99
776.535	18172.23
776.87	18298.56
777.205	18245.23
777.539	18259.46
777.874	18407.26
778.209	18238.67
778.543	18315.28
778.878	18183.53
779.212	18351.89
779.547	18244.55
779.881	18295.62
780.215	18282.29
780.55	18371.1
780.884	18254.72
781.218	18173.14
781.552	18241.38
781.886	18240.93
782.22	18183.99
782.554	18168.62
782.888	18123.2
783.222	18015.4
783.556	18004.1
783.889	18012.92
784.223	18047.27
784.557	17919.81
784.89	17988.74
785.224	17968.17
785.557	17938.34
785.891	17926.14
786.224	17881.62
786.558	17813.15
786.891	17743.09
787.224	17692.7
787.557	17647.95
787.891	17701.29
788.224	17698.35
788.557	17691.12
788.89	17589.2
789.223	17621.06
789.556	17470.33
789.888	17483.44
790.221	17389.2
790.554	17315.31
790.887	17354.18
791.219	17338.81
791.552	17262.2
791.884	17200.28
792.217	17168.64
792.549	17121.41
792.882	17124.13
793.214	17018.14
793.546	17014.07
793.879	16918.48
794.211	16905.83
794.543	16876.45
794.875	16881.65
795.207	16934.53
795.539	16781.76
795.871	16815.21
796.203	16654.99
796.535	16657.7
796.867	16534.54
797.198	16441.21
797.53	16480.98
797.862	16470.13
798.193	16437.59
798.525	16302.68
798.856	16422.45
799.188	16269.69
799.519	16265.62
799.85	16181.55
800.182	16185.17
800.513	16229.69
800.844	16031.5
801.175	16123.02
801.506	16078.5
801.837	16000.31
802.168	15894.1
802.499	15936.59
802.83	15883.71
803.161	15842.8
803.491	15779.75
803.822	15775.23
804.153	15638.06
804.483	15588.35
804.814	15586.99
805.145	15627.44
805.475	15645.29
805.805	15547.44
806.136	15428.58
806.466	15456.6
806.796	15417.05
807.126	15359.2
807.457	15284.17
807.787	15250.05
808.117	15206.44
808.447	15186.32
808.777	15203.95
809.107	15162.14
809.436	15067
809.766	15192.43
810.096	15059.1
810.426	14988.36
810.755	14974.13
811.085	14976.39
811.414	14937.06
811.744	14844.19
812.073	14845.09
812.403	14882.6
812.732	14773
813.061	14756.5
813.39	14634.25
813.719	14729.39
814.049	14642.16
814.378	14653.91
814.707	14628.6
815.036	14516.06
815.365	14528.49
815.693	14406.68
816.022	14411.88
816.351	14305.22
816.68	14342.73
817.008	14399.45
817.337	14279
817.665	14147.93
817.994	14240.59
818.322	14268.16
818.651	14195.62
818.979	14080.82
819.307	14083.08
819.636	14168.05
819.964	14044.21
820.292	14086.01
820.62	14003.53
820.948	14076.75
821.276	14033.13
821.604	13967.37
821.932	14003.3
822.259	14020.93
822.587	13999.91
822.915	13942.29
823.243	13995.39
823.57	14006.02
823.898	13978.67
824.225	13914.04
824.553	13942.29
824.88	14001.5
825.207	14028.84
825.535	13931.44
825.862	14085.79
826.189	13898.22
826.516	14054.15
826.843	13991.1
827.17	14060.25
827.497	14093.02
827.824	14112.68
828.151	14025
828.478	14043.08
828.805	14076.52
829.131	13962.85
829.458	13993.36
829.785	13926.92
830.111	14006.47
830.438	14036.98
830.764	14032
831.09	14015.73
831.417	13891.67
831.743	13994.26
832.069	14087.14
832.395	13958.56
832.722	13932.35
833.048	13975.96
833.374	13982.51
833.7	13858
834.026	13988.62
834.351	13891.89
834.677	13846.02
835.003	13887.6
835.329	13856.87
835.654	13824.55
835.98	13810.77
836.306	13836.75
836.631	13828.85
836.956	13812.12
837.282	13792.46
837.607	13707.49
837.932	13675.86
838.258	13735.51
838.583	13681.73
838.908	13613.48
839.233	13594.73
839.558	13658.91
839.883	13589.3
840.208	13549.98
840.533	13529.64
840.858	13495.52
841.182	13567.16
841.507	13548.85
841.832	13432.7
842.156	13396.09
842.481	13387.95
842.805	13354.51
843.13	13295.98
843.454	13354.06
843.778	13231.57
844.103	13181.18
844.427	13160.84
844.751	13147.06
845.075	13166.04
845.399	13149.99
845.723	12990
846.047	13063.22
846.371	12937.34
846.695	12893.5
847.019	12801.75
847.343	12731.47
847.666	12668.2
847.99	12658.48
848.313	12647.41
848.637	12505.26
848.96	12573.29
849.284	12491.71
849.607	12354.53
849.931	12338.26
850.254	12352.95
850.577	12229.79
850.9	12127.65
851.223	12183.24
851.546	12107.53
851.869	12095.56
852.192	12126.07
852.515	11941.44
852.838	11903.7
853.161	11945.73
853.483	11844.04
853.806	11804.72
854.129	11826.86
854.451	11675.46
854.774	11738.73
855.096	11626.42
855.419	11644.04
855.741	11644.72
856.063	11532.63
856.385	11462.13
856.708	11486.08
857.03	11407.67
857.352	11452.41
857.674	11304.17
857.996	11390.49
858.318	11231.63
858.64	11310.27
858.961	11280.66
859.283	11227.56
859.605	11146.66
859.926	11133.1
860.248	11146.43
860.57	11077.96
860.891	11126.54
861.212	10987.79
861.534	10951.63
861.855	11028.47
862.176	11030.5
862.498	11046.77
862.819	11025.76
863.14	10909.83
863.461	10928.36
863.782	10907.79
864.103	10922.03
864.424	10819.88
864.745	10926.55
865.065	10808.36
865.386	10771.07
865.707	10742.6
866.027	10747.34
866.348	10768.13
866.668	10740.11
866.989	10672.54
867.309	10648.14
867.63	10689.04
867.95	10585.31
868.27	10567.46
868.59	10595.71
868.91	10619.89
869.23	10533.79
869.55	10483.17
869.87	10551.19
870.19	10511.87
870.51	10517.29
870.83	10477.07
871.15	10389.84
871.469	10413.34
871.789	10483.17
872.109	10489.5
872.428	10427.8
872.748	10335.15
873.067	10375.38
873.386	10310.07
873.706	10291.54
874.025	10265.32
874.344	10221.03
874.663	10282.72
874.982	10298.09
875.301	10298.77
875.62	10207.02
875.939	10220.58
876.258	10298.32
876.577	10128.6
876.896	10146.23
877.214	10156.4
877.533	10163.18
877.852	10124.54
878.17	10089.73
878.489	10167.92
878.807	10096.74
879.125	10015.39
879.444	10052.67
879.762	10009.51
880.08	10057.87
880.398	9982.39
880.716	9999.12
881.034	9954.37
881.352	9972.68
881.67	9919.57
881.988	9892.45
882.306	9811.32
882.624	9818.78
882.941	9794.83
883.259	9762.51
883.577	9816.07
883.894	9765.45
884.212	9695.62
884.529	9678.22
884.846	9688.84
885.164	9652.46
885.481	9586.47
885.798	9568.39
886.115	9569.75
886.432	9518
886.75	9555.06
887.067	9525.68
887.383	9562.97
887.7	9471.9
888.017	9487.26
888.334	9415.63
888.651	9360.71
888.967	9420.37
889.284	9322.75
889.6	9323.65
889.917	9236.42
890.233	9238.23
890.55	9219.25
890.866	9194.84
891.182	9218.35
891.498	9160.04
891.815	9097.44
892.131	9057.22
892.447	9051.57
892.763	9070.78
893.079	9030.78
893.395	8970.89
893.71	8898.58
894.026	8934.28
894.342	8926.6
894.657	8859.48
894.973	8840.95
895.289	8820.62
895.604	8799.37
895.92	8741.97
896.235	8712.82
896.55	8723.44
896.865	8601.86
897.181	8700.84
897.496	8676.89
897.811	8522.77
898.126	8549.89
898.441	8532.71
898.756	8512.6
899.071	8474.18
899.386	8454.52
899.7	8381.76
900.015	8417.69
900.33	8276.68
900.644	8347.86
900.959	8335.43
901.273	8238.48
901.588	8199.84
901.902	8170.92
902.216	8122.1
902.531	8166.62
902.845	8155.77
903.159	8061.99
903.473	8042.78
903.787	8026.06
904.101	7973.41
904.415	7957.81
904.729	7996.23
905.042	7862.9
905.356	7855.67
905.67	7839.62
905.984	7832.39
906.297	7752.62
906.611	7703.58
906.924	7737.25
907.237	7746.07
907.551	7624.71
907.864	7655.9
908.177	7543.13
908.491	7670.59
908.804	7530.25
909.117	7511.95
909.43	7431.5
909.743	7400.31
910.056	7425.4
910.368	7400.99
910.681	7318.28
910.994	7375.23
911.307	7315.12
911.619	7212.97
911.932	7262.01
912.244	7193.99
912.557	7138.17
912.869	7110.6
913.181	7076.93
913.494	7090.04
913.806	7045.97
914.118	7022.47
914.43	6989.93
914.742	6937.28
915.054	6906.09
915.366	6919.87
915.678	6879.42
915.99	6826.54
916.302	6786.77
916.613	6783.38
916.925	6748.13
917.236	6771.18
917.548	6648.7
917.859	6683.72
918.171	6601.46
918.482	6622.71
918.794	6615.7
919.105	6552.2
919.416	6573.22
919.727	6551.75
920.038	6507.46
920.349	6466.1
920.66	6419.32
920.971	6451.64
921.282	6415.48
921.593	6341.81
921.903	6324.18
922.214	6293.68
922.525	6323.51
922.835	6276.95
923.146	6260
923.456	6216.62
923.767	6231.98
924.077	6189.95
924.387	6156.28
924.697	6036.28
925.008	6068.37
925.318	6058.43
925.628	6042.61
925.938	6049.16
926.248	5952.67
926.558	5899.79
926.867	5956.96
927.177	5883.74
927.487	5821.37
927.796	5803.52
928.106	5806.91
928.416	5779.57
928.725	5771.2
929.034	5747.48
929.344	5784.99
929.653	5780.47
929.962	5690.53
930.271	5664.77
930.581	5644.88
930.89	5610.76
931.199	5600.59
931.508	5555.62
931.817	5583.64
932.125	5561.72
932.434	5532.11
932.743	5459.57
933.051	5489.63
933.36	5411.89
933.669	5371.67
933.977	5393.59
934.286	5352.91
934.594	5370.54
934.902	5319.69
935.21	5271.1
935.519	5275.17
935.827	5301.84
936.135	5244.66
936.443	5230.43
936.751	5194.04
937.059	5198.56
937.367	5156.98
937.674	5138.23
937.982	5112.69
938.29	5044.22
938.597	5082.41
938.905	5034.5
939.213	5022.3
939.52	4978.23
939.827	5007.61
940.135	4958.12
940.442	4918.12
940.749	4916.76
941.056	4879.25
941.363	4841.74
941.67	4849.42
941.977	4846.03
942.284	4794.05
942.591	4806.03
942.898	4746.82
943.205	4748.86
943.511	4735.98
943.818	4659.37
944.125	4672.7
944.431	4687.16
944.738	4646.26
945.044	4619.82
945.35	4575.08
945.657	4592.03
945.963	4597.68
946.269	4535.76
946.575	4529.43
946.881	4476.77
947.187	4467.28
947.493	4515.19
947.799	4453.05
948.105	4381.86
948.41	4385.93
948.716	4361.3
949.022	4383.9
949.327	4346.61
949.633	4319.72
949.938	4316.33
950.244	4325.37
950.549	4242.88
950.854	4234.75
951.16	4291.47
951.465	4208.76
951.77	4196.56
952.075	4158.59
952.38	4198.36
952.685	4196.1
952.99	4088.08
953.294	4099.16
953.599	4064.36
953.904	4075.2
954.209	4044.47
954.513	4018.26
954.818	4021.65
955.122	4030.23
955.426	3986.39
955.731	3968.54
956.035	3953.85
956.339	3888.77
956.643	3919.28
956.948	3925.83
957.252	3830.01
957.556	3860.52
957.86	3869.79
958.163	3826.17
958.467	3811.26
958.771	3825.94
959.075	3817.36
959.378	3757.7
959.682	3753.63
959.985	3741.2
960.289	3742.56
960.592	3671.6
960.896	3695.33
961.199	3699.39
961.502	3696.46
961.805	3663.91
962.108	3612.39
962.411	3577.59
962.714	3606.29
963.017	3556.12
963.32	3571.49
963.623	3571.49
963.926	3580.08
964.228	3514.54
964.531	3501.43
964.833	3507.53
965.136	3487.87
965.438	3449.01
965.741	3445.16
966.043	3424.83
966.345	3408.78
966.648	3415.33
966.95	3387.76
967.252	3377.37
967.554	3364.26
967.856	3340.31
968.158	3311.16
968.46	3323.13
968.761	3285.17
969.063	3318.84
969.365	3246.3
969.666	3254.43
969.968	3225.51
970.269	3226.19
970.571	3242.91
970.872	3224.83
971.174	3189.58
971.475	3172.63
971.776	3161.1
972.077	3178.28
972.378	3136.7
972.679	3112.52
972.98	3115
973.281	3109.58
973.582	3129.01
973.883	3090.82
974.183	3020.99
974.484	3046.3
974.785	3045.63
975.085	3077.94
975.386	2987.55
975.686	3005.63
975.986	2995.23
976.287	2968.11
976.587	2899.64
976.887	2945.29
977.187	2924.95
977.487	2935.8
977.787	2896.7
978.087	2886.99
978.387	2876.82
978.687	2863.71
978.987	2860.77
979.286	2855.35
979.586	2835.69
979.885	2810.83
980.185	2813.32
980.484	2778.06
980.784	2735.35
981.083	2728.12
981.382	2739.87
981.682	2752.53
981.981	2731.74
982.28	2679.53
982.579	2681.12
982.878	2686.54
983.177	2671.4
983.475	2650.61
983.774	2647.9
984.073	2634.56
984.372	2611.74
984.67	2624.17
984.969	2584.17
985.267	2602.02
985.566	2588.46
985.864	2542.59
986.162	2569.93
986.461	2557.5
986.759	2568.58
987.057	2491.97
987.355	2507.56
987.653	2493.32
987.951	2518.63
988.249	2486.77
988.547	2482.25
988.844	2444.06
989.142	2460.1
989.44	2418.52
989.737	2428.92
990.035	2399.77
990.332	2419.2
990.63	2374.01
990.927	2373.33
991.224	2362.71
991.521	2345.08
991.819	2361.8
992.116	2337.62
992.413	2271.18
992.71	2310.5
993.006	2272.77
993.303	2321.58
993.6	2279.54
993.897	2260.56
994.193	2255.14
994.49	2261.69
994.787	2263.05
995.083	2218.08
995.379	2222.82
995.676	2169.04
995.972	2196.16
996.268	2180.11
996.565	2165.2
996.861	2136.72
997.157	2149.38
997.453	2166.1
997.749	2121.13
998.044	2080.45
998.34	2105.54
998.636	2063.05
998.932	2073.9
999.227	2061.7
999.523	2039.1
999.818	2067.12
1000.114	2051.75
1000.409	2028.93
1000.704	1984.64
1001	2026.44
1001.295	1979.44
1001.59	1964.3
1001.885	2002.26
1002.18	1962.94
1002.475	1987.12
1002.77	1953.23
1003.065	1927.92
1003.359	1925.2
1003.654	1904.19
1003.949	1899.67
1004.243	1866
1004.538	1869.61
1004.832	1846.34
1005.127	1880.46
1005.421	1876.39
1005.715	1858.09
1006.009	1836.39
1006.304	1802.49
1006.598	1798.88
1006.892	1823.96
1007.186	1794.13
1007.48	1804.75
1007.773	1768.37
1008.067	1777.64
1008.361	1775.6
1008.655	1732.67
1008.948	1704.19
1009.242	1721.37
1009.535	1720.01
1009.829	1686.79
1010.122	1691.54
1010.415	1694.25
1010.708	1658.32
1011.001	1659.9
1011.295	1640.69
1011.588	1645.21
1011.881	1633.01
1012.173	1600.92
1012.466	1626.45
1012.759	1611.09
1013.052	1596.85
1013.344	1598.88
1013.637	1589.39
1013.93	1609.96
1014.222	1593.69
1014.514	1555.04
1014.807	1539.68
1015.099	1539.45
1015.391	1523.86
1015.683	1511.88
1015.976	1490.19
1016.268	1516.63
1016.56	1480.7
1016.851	1468.04
1017.143	1450.41
1017.435	1447.25
1017.727	1478.21
1018.018	1459.45
1018.31	1439.79
1018.602	1427.36
1018.893	1431.21
1019.185	1391.88
1019.476	1389.85
1019.767	1379.91
1020.058	1385.33
1020.35	1398.89
1020.641	1342.17
1020.932	1364.09
1021.223	1337.65
1021.514	1334.71
1021.804	1329.74
1022.095	1317.31
1022.386	1322.51
1022.677	1317.99
1022.967	1291.77
1023.258	1283.64
1023.548	1277.99
1023.839	1248.39
1024.129	1279.8
1024.419	1251.1
1024.709	1224.21
1025	1247.26
1025.29	1226.92
1025.58	1200.48
1025.87	1223.53
1026.16	1218.78
1026.449	1198.9
1026.739	1165.22
1027.029	1210.19
1027.319	1184.21
1027.608	1170.42
1027.898	1147.82
1028.187	1155.28
1028.477	1157.09
1028.766	1152.12
1029.055	1122.29
1029.344	1139.69
1029.634	1120.93
1029.923	1131.55
1030.212	1106.92
1030.501	1101.27
1030.79	1082.74
1031.078	1083.64
1031.367	1061.72
1031.656	1083.64
1031.945	1050.2
1032.233	1065.57
1032.522	1033.25
1032.81	1027.6
1033.099	1012.01
1033.387	1007.94
1033.675	1026.24
1033.963	1014.04
1034.251	1016.53
1034.54	999.35
1034.828	1005
1035.116	1010.43
1035.403	987.6
1035.691	975.17
1035.979	979.47
1036.267	982.4
1036.554	944.89
1036.842	951.67
1037.129	961.84
1037.417	950.77
1037.704	953.48
1037.992	941.95
1038.279	927.04
1038.566	920.03
1038.853	920.03
1039.14	920.03
