Data from hue_270_FLMS001491_00094.txt Node
Date: Tue Feb 07 15:57:56 GMT 2017
User: dcchb
Spectrometer: FLMS00149
Trigger mode: 0
Integration Time (sec): 2.000000E-2
Scans to average: 10
Electric dark correction enabled: true
Nonlinearity correction enabled: false
Boxcar width: 0
XAxis mode: Wavelengths
Number of Pixels in Spectrum: 2048
>>>>>Begin Spectral Data<<<<<
341.393	-6.93
341.776	-6.93
342.16	-6.93
342.543	-48.74
342.927	-62.53
343.31	-57.33
343.693	-76.31
344.077	-81.06
344.46	-41.28
344.843	-48.52
345.226	-44
345.61	-43.09
345.993	-22.53
346.376	-8.97
346.759	5.49
347.142	30.13
347.525	51.37
347.908	76
348.291	76.45
348.674	86.85
349.057	96.79
349.44	114.87
349.823	141.76
350.206	173.63
350.588	177.02
350.971	203.68
351.354	207.07
351.737	242.55
352.119	252.72
352.502	245.04
352.884	272.38
353.267	281.42
353.65	289.33
354.032	274.87
354.414	299.05
354.797	310.34
355.179	295.43
355.562	306.73
355.944	330.23
356.326	305.6
356.709	344.24
357.091	327.07
357.473	333.17
357.855	337.24
358.238	313.96
358.62	339.5
359.002	324.81
359.384	341.3
359.766	349.44
360.148	326.39
360.53	336.11
360.912	335.88
361.294	348.99
361.676	331.14
362.057	327.29
362.439	350.12
362.821	314.64
363.203	323
363.584	336.56
363.966	315.54
364.348	308.76
364.729	302.21
365.111	298.37
365.493	329.55
365.874	324.58
366.256	328.88
366.637	307.86
367.019	293.4
367.4	298.14
367.781	316.22
368.163	317.35
368.544	299.95
368.925	318.48
369.306	311.93
369.688	301.08
370.069	311.02
370.45	302.44
370.831	307.63
371.212	311.25
371.593	322.1
371.974	307.86
372.355	304.24
372.736	307.18
373.117	309.22
373.498	297.01
373.879	291.59
374.26	302.66
374.641	326.16
375.021	306.96
375.402	306.5
375.783	314.64
376.163	337.01
376.544	350.8
376.925	341.76
377.305	339.5
377.686	338.14
378.066	333.85
378.447	316.67
378.827	334.53
379.208	340.63
379.588	340.63
379.968	321.64
380.349	330.23
380.729	334.75
381.109	332.27
381.489	343.56
381.87	347.18
382.25	341.53
382.63	326.16
383.01	339.27
383.39	341.76
383.77	335.66
384.15	324.36
384.53	346.5
384.91	336.78
385.29	347.18
385.67	341.98
386.049	359.38
386.429	341.53
386.809	360.51
387.189	352.6
387.568	356.22
387.948	358.48
388.328	344.69
388.707	378.82
389.087	366.61
389.466	376.33
389.846	376.33
390.225	360.51
390.605	374.52
390.984	375.43
391.363	375.88
391.743	376.78
392.122	383.34
392.501	387.41
392.881	355.09
393.26	404.81
393.639	392.6
394.018	398.25
394.397	384.69
394.776	393.96
395.155	395.09
395.534	393.28
395.913	391.25
396.292	387.18
396.671	406.61
397.05	395.99
397.429	413.62
397.808	398.25
398.186	381.76
398.565	413.85
398.944	400.96
399.323	406.84
399.701	419.49
400.08	402.32
400.458	430.12
400.837	419.72
401.215	417.23
401.594	425.6
401.972	436.44
402.351	414.3
402.729	423.79
403.107	441.19
403.486	434.41
403.864	436.22
404.242	448.42
404.62	456.78
404.999	435.99
405.377	452.26
405.755	470.79
406.133	464.01
406.511	485.71
406.889	446.39
407.267	458.36
407.645	462.66
408.023	481.64
408.401	481.87
408.779	500.62
409.156	483
409.534	500.4
409.912	517.12
410.29	501.3
410.667	500.17
411.045	504.92
411.422	521.86
411.8	524.58
412.178	544.92
412.555	555.08
412.933	559.83
413.31	564.8
413.687	578.36
414.065	584.46
414.442	590.34
414.819	579.04
415.197	585.82
415.574	606.83
415.951	607.96
416.328	630.11
416.705	626.04
417.082	613.39
417.46	647.74
417.837	652.71
418.214	652.48
418.591	652.93
418.967	661.07
419.344	660.39
419.721	670.11
420.098	682.99
420.475	691.8
420.852	694.97
421.228	710.11
421.605	706.94
421.982	730.67
422.358	733.84
422.735	751.92
423.111	764.12
423.488	769.77
423.864	781.29
424.241	786.94
424.617	782.87
424.994	806.6
425.37	813.16
425.746	809.09
426.123	825.36
426.499	835.08
426.875	860.84
427.251	872.59
427.627	864.91
428.003	871.01
428.379	891.12
428.756	903.78
429.132	919.37
429.507	932.93
429.883	930.89
430.259	946.94
430.635	961.63
431.011	948.52
431.387	988.07
431.763	976.99
432.138	1005.24
432.514	1023.55
432.89	1035.52
433.265	1057.22
433.641	1075.3
434.016	1098.8
434.392	1111.23
434.767	1101.28
435.143	1120.27
435.518	1122.98
435.894	1159.81
436.269	1193.49
436.644	1196.42
437.02	1239.36
437.395	1233.48
437.77	1249.08
438.145	1262.86
438.52	1250.66
438.895	1289.75
439.271	1288.17
439.646	1339.24
440.021	1329.75
440.395	1356.19
440.77	1338.57
441.145	1367.94
441.52	1390.77
441.895	1396.87
442.27	1416.08
442.645	1422.63
443.019	1452.91
443.394	1460.6
443.769	1460.37
444.143	1452.01
444.518	1470.77
444.892	1468.28
445.267	1478.9
445.641	1498.11
446.016	1513.48
446.39	1534.49
446.764	1558.45
447.139	1557.54
447.513	1560.71
447.887	1565.68
448.262	1573.14
448.636	1564.55
449.01	1579.46
449.384	1599.8
449.758	1587.15
450.132	1627.6
450.506	1645.45
450.88	1641.38
451.254	1634.83
451.628	1680.25
452.002	1663.08
452.376	1696.75
452.75	1686.13
453.123	1673.02
453.497	1736.3
453.871	1769.74
454.244	1778.1
454.618	1829.18
454.992	1826.69
455.365	1837.54
455.739	1821.49
456.112	1864.43
456.486	1854.26
456.859	1884.99
457.232	1932.9
457.606	1919.57
457.979	1956.18
458.352	1957.31
458.725	1978.78
459.099	2012.22
459.472	2037.08
459.845	2001.83
460.218	2052.45
460.591	2087.7
460.964	2103.52
461.337	2120.24
461.71	2166.12
462.083	2177.64
462.456	2192.33
462.829	2191.88
463.201	2207.47
463.574	2229.39
463.947	2214.25
464.32	2285.43
464.692	2290.63
465.065	2315.72
465.438	2346.9
465.81	2360.01
466.183	2390.29
466.555	2442.04
466.928	2446.56
467.3	2446.11
467.672	2477.07
468.045	2520.68
468.417	2527.91
468.789	2517.07
469.161	2566.33
469.534	2619.21
469.906	2673.22
470.278	2685.2
470.65	2693.11
471.022	2771.98
471.394	2778.75
471.766	2802.26
472.138	2812.88
472.51	2873.89
472.882	2883.38
473.253	2967.9
473.625	2940.56
473.997	3004.51
474.369	3014.68
474.74	3024.85
475.112	3070.95
475.484	3141
475.855	3176.71
476.227	3195.01
476.598	3245.18
476.97	3263.04
477.341	3319.31
477.713	3420.09
478.084	3424.39
478.455	3473.43
478.827	3526.53
479.198	3603.82
479.569	3575.57
479.94	3668.9
480.311	3659.41
480.682	3702.35
481.053	3812.63
481.424	3835
481.795	3871.38
482.166	3915.45
482.537	3959.06
482.908	4034.99
483.279	4074.54
483.65	4129.45
484.021	4161.77
484.391	4199.51
484.762	4232.5
485.133	4237.7
485.503	4337.13
485.874	4372.84
486.244	4435.21
486.615	4528.31
486.985	4574.19
487.356	4561.76
487.726	4622.77
488.097	4716.33
488.467	4725.82
488.837	4785.26
489.207	4805.37
489.578	4942.54
489.948	4937.34
490.318	4977.79
490.688	4964.23
491.058	5063.44
491.428	5056.21
491.798	5153.83
492.168	5229.99
492.538	5248.52
492.908	5272.7
493.278	5328.74
493.648	5323.09
494.017	5392.7
494.387	5457.55
494.757	5500.94
495.126	5524.22
495.496	5524.45
495.866	5566.48
496.235	5586.59
496.605	5611.67
496.974	5629.53
497.344	5681.28
497.713	5701.39
498.082	5772.35
498.452	5786.81
498.821	5816.41
499.19	5786.59
499.559	5848.73
499.928	5858.67
500.298	5920.59
500.667	5939.12
501.036	5958.78
501.405	5968.05
501.774	5997.2
502.143	6034.04
502.512	6038.33
502.88	6039.46
503.249	6048.27
503.618	6131.89
503.987	6112.45
504.356	6144.09
504.724	6163.52
505.093	6168.72
505.462	6180.47
505.83	6196.29
506.199	6227.7
506.567	6293.92
506.936	6318.77
507.304	6343.63
507.672	6408.49
508.041	6354.93
508.409	6370.75
508.777	6485.78
509.145	6470.18
509.514	6441.94
509.882	6503.18
510.25	6446.68
510.618	6529.39
510.986	6527.58
511.354	6596.73
511.722	6627.24
512.09	6639.22
512.458	6583.4
512.826	6655.71
513.193	6665.88
513.561	6644.64
513.929	6621.14
514.297	6732.77
514.664	6761.02
515.032	6751.53
515.4	6709.72
515.767	6762.15
516.135	6755.15
516.502	6759.21
516.869	6843.28
517.237	6851.42
517.604	6853.9
517.972	6939.78
518.339	6922.83
518.706	6924.86
519.073	6907.91
519.44	6904.75
519.808	6941.13
520.175	6921.92
520.542	6988.14
520.909	7001.47
521.276	6983.84
521.643	7061.81
522.009	7023.39
522.376	7076.49
522.743	7163.5
523.11	7117.85
523.477	7200.79
523.843	7288.24
524.21	7274.91
524.577	7307.68
524.943	7246.21
525.31	7266.32
525.676	7374.57
526.043	7348.35
526.409	7409.59
526.776	7493.66
527.142	7387.67
527.508	7429.93
527.874	7484.62
528.241	7504.51
528.607	7486.2
528.973	7507.44
529.339	7587.67
529.705	7567.33
530.071	7602.81
530.437	7628.8
530.803	7672.19
531.169	7649.14
531.535	7663.15
531.901	7695.69
532.267	7657.95
532.632	7699.53
532.998	7769.36
533.364	7737.72
533.73	7700.21
534.095	7823.14
534.461	7747.66
534.826	7740.21
535.192	7832.18
535.557	7834.44
535.923	7727.78
536.288	7796.7
536.653	7850.03
537.019	7831.05
537.384	7830.83
537.749	7841.9
538.114	7852.52
538.479	7857.49
538.845	7919.41
539.21	7897.04
539.575	7959.64
539.94	7928.45
540.305	7977.04
540.67	7892.07
541.034	7936.13
541.399	7988.34
541.764	8007.32
542.129	7951.5
542.494	7965.51
542.858	7967.54
543.223	7979.52
543.587	8022.01
543.952	8034.89
544.316	8053.87
544.681	7990.14
545.045	7971.61
545.41	8071.5
545.774	8003.93
546.138	8063.36
546.503	7997.15
546.867	8066.07
547.231	8043.02
547.595	8098.39
547.959	8113.3
548.324	8097.03
548.688	8100.42
549.052	8118.73
549.416	8094.77
549.779	8125.96
550.143	8092.97
550.507	8179.97
550.871	8167.54
551.235	8087.09
551.599	8187.43
551.962	8160.31
552.326	8167.31
552.689	8250.93
553.053	8196.47
553.417	8165.28
553.78	8277.14
554.143	8237.14
554.507	8293.86
554.87	8237.82
555.234	8290.93
555.597	8215.45
555.96	8238.27
556.323	8281.21
556.686	8270.36
557.05	8352.85
557.413	8357.36
557.776	8302.9
558.139	8349.23
558.502	8384.26
558.865	8448.21
559.228	8468.55
559.59	8444.37
559.953	8499.73
560.316	8568.21
560.679	8473.75
561.041	8521.43
561.404	8629.67
561.767	8694.08
562.129	8619.5
562.492	8659.05
562.854	8667.87
563.217	8694.53
563.579	8636.91
563.941	8747.41
564.304	8833.96
564.666	8782.44
565.028	8810.46
565.39	8854.3
565.753	8884.36
566.115	8957.58
566.477	8932.49
566.839	8960.51
567.201	9030.79
567.563	8955.77
567.925	9138.36
568.287	9099.27
568.648	9180.39
569.01	9195.31
569.372	9196.66
569.734	9160.73
570.095	9240.51
570.457	9327.28
570.819	9309.66
571.18	9243.67
571.542	9398.24
571.903	9324.57
572.265	9370.9
572.626	9384.23
572.987	9442.76
573.349	9482.76
573.71	9483.44
574.071	9516.88
574.432	9641.4
574.794	9626.71
575.155	9611.12
575.516	9609.08
575.877	9652.02
576.238	9680.49
576.599	9808.17
576.96	9784.67
577.32	9820.6
577.681	9810.66
578.042	9787.38
578.403	9867.38
578.763	9885.23
579.124	9902.18
579.485	9958.23
579.845	9997.1
580.206	10015.85
580.566	9989.41
580.927	10062.86
581.287	10094.04
581.648	10081.39
582.008	10181.05
582.368	10110.99
582.728	10179.69
583.089	10276.64
583.449	10231.44
583.809	10256.52
584.169	10283.42
584.529	10341.27
584.889	10379.23
585.249	10301.72
585.609	10349.85
585.969	10377.65
586.329	10434.82
586.688	10444.99
587.048	10486.57
587.408	10508.72
587.768	10536.52
588.127	10585.78
588.487	10564.31
588.846	10645.89
589.206	10515.05
589.565	10591.2
589.925	10699.68
590.284	10620.13
590.643	10762.5
591.003	10753.46
591.362	10813.57
591.721	10856.73
592.08	10815.15
592.44	10896.06
592.799	10928.37
593.158	10915.26
593.517	10897.86
593.876	10976.73
594.235	10894.47
594.593	11006.11
594.952	10976.96
595.311	10950.52
595.67	10961.36
596.029	11099.21
596.387	11067.35
596.746	11075.03
597.104	11062.15
597.463	11117.29
597.822	11150.96
598.18	11086.56
598.538	11171.75
598.897	11193.9
599.255	11097.63
599.613	11229.38
599.972	11196.84
600.33	11284.52
600.688	11135.37
601.046	11210.4
601.404	11319.1
601.762	11287.91
602.12	11338.98
602.478	11364.97
602.836	11343.73
603.194	11278.87
603.552	11329.94
603.91	11249.72
604.268	11418.75
604.625	11398.41
604.983	11388.25
605.341	11347.79
605.698	11449.26
606.056	11449.71
606.413	11378.98
606.771	11434.8
607.128	11469.37
607.485	11406.55
607.843	11395.25
608.2	11538.52
608.557	11494.46
608.914	11436.61
609.272	11524.06
609.629	11552.54
609.986	11603.16
610.343	11548.92
610.7	11536.26
611.057	11609.26
611.414	11615.81
611.771	11629.14
612.127	11598.64
612.484	11637.96
612.841	11684.51
613.198	11644.51
613.554	11643.83
613.911	11730.38
614.267	11693.77
614.624	11740.33
614.98	11731.97
615.337	11795.92
615.693	11809.25
616.05	11752.53
616.406	11771.74
616.762	11777.61
617.118	11759.76
617.475	11673.66
617.831	11854
618.187	11918.4
618.543	11874.56
618.899	11923.15
619.255	11884.5
619.611	11857.16
619.967	11868.01
620.323	11828.91
620.678	11880.21
621.034	11875.69
621.39	11947.33
621.746	11854.45
622.101	12032.75
622.457	11940.77
622.812	11921.79
623.168	11955.46
623.523	11994.11
623.879	11961.56
624.234	11914.56
624.589	11900.77
624.945	11898.06
625.3	11905.75
625.655	11978.51
626.01	11968.57
626.365	12042.92
626.72	11963.15
627.075	11910.27
627.43	11867.56
627.785	11880.44
628.14	11924.28
628.495	11950.49
628.85	11850.61
629.205	11827.1
629.559	11933.32
629.914	11811.96
630.269	11907.78
630.623	11843.38
630.978	11822.58
631.332	11856.93
631.687	11871.4
632.041	11828.23
632.396	11883.37
632.75	11757.28
633.104	11777.61
633.459	11665.3
633.813	11748.01
634.167	11698.52
634.521	11691.06
634.875	11739.42
635.229	11669.37
635.583	11635.02
635.937	11688.35
636.291	11582.82
636.645	11635.92
636.999	11635.47
637.352	11613.78
637.706	11566.09
638.06	11626.21
638.413	11621.01
638.767	11576.49
639.121	11599.99
639.474	11574.46
639.828	11540.33
640.181	11551.63
640.534	11497.4
640.888	11517.06
641.241	11358.64
641.594	11502.37
641.947	11475.48
642.301	11550.05
642.654	11530.61
643.007	11519.54
643.36	11430.73
643.713	11380.11
644.066	11434.12
644.419	11424.85
644.771	11311.86
645.124	11257.85
645.477	11223.05
645.83	11140.79
646.182	11060.12
646.535	11048.37
646.888	11092.21
647.24	10982.83
647.593	11096.73
647.945	11052.89
648.298	10983.96
648.65	10929.27
649.002	10965.21
649.355	11002.27
649.707	11042.49
650.059	11040.91
650.411	11164.3
650.763	11154.81
651.115	11240.9
651.467	11276.16
651.819	11292.43
652.171	11221.47
652.523	11241.36
652.875	11181.25
653.227	11154.81
653.578	11331.52
653.93	11216.27
654.282	11284.07
654.633	11175.14
654.985	11201.13
655.337	11237.74
655.688	11224.18
656.039	11261.47
656.391	11181.02
656.742	11184.41
657.094	11172.88
657.445	11244.29
657.796	11192.32
658.147	11203.62
658.498	11191.41
658.849	11213.11
659.2	11232.54
659.551	11204.97
659.902	11269.38
660.253	11276.16
660.604	11259.44
660.955	11169.72
661.306	11252.88
661.656	11174.69
662.007	11201.58
662.358	11257.18
662.708	11196.84
663.059	11173.79
663.409	11162.94
663.76	11251.98
664.11	11230.28
664.461	11255.82
664.811	11211.98
665.161	11204.75
665.511	11203.17
665.862	11183.51
666.212	11239.55
666.562	11230.96
666.912	11214.69
667.262	11266.22
667.612	11250.62
667.962	11256.95
668.312	11229.83
668.662	11298.08
669.011	11198.65
669.361	11236.61
669.711	11138.08
670.06	11171.98
670.41	11129.27
670.76	11138.08
671.109	11223.05
671.459	11144.64
671.808	11072.77
672.157	11132.21
672.507	11107.35
672.856	11147.57
673.205	11150.74
673.554	11127.91
673.904	11138.76
674.253	11120.46
674.602	11162.71
674.951	10928.6
675.3	10869.62
675.649	11055.83
675.998	11053.11
676.346	10993.23
676.695	11023.06
677.044	11010.4
677.393	11049.27
677.741	11093.11
678.09	11010.18
678.438	10934.92
678.787	10968.82
679.135	11018.99
679.484	10910.74
679.832	10895.6
680.181	10881.37
680.529	10944.64
680.877	10900.12
681.225	10871.42
681.573	10905.77
681.922	10810.18
682.27	10790.3
682.618	10821.93
682.966	10801.14
683.314	10843.4
683.661	10827.58
684.009	10649.96
684.357	10647.7
684.705	10674.82
685.053	10667.36
685.4	10691.77
685.748	10553.69
686.095	10571.09
686.443	10582.39
686.79	10586.23
687.138	10557.76
687.485	10506.01
687.832	10483.64
688.18	10459
688.527	10397.54
688.874	10404.32
689.221	10396.63
689.568	10336.07
689.915	10343.53
690.262	10253.13
690.609	10271.44
690.956	10230.99
691.303	10189.86
691.65	10180.82
691.997	10169.29
692.344	10098.79
692.69	10091.78
693.037	10101.73
693.383	9990.32
693.73	10003.88
694.077	9949.19
694.423	9940.15
694.769	9874.84
695.116	9910.77
695.462	9892.69
695.808	9850.89
696.155	9908.96
696.501	9810.21
696.847	9803.2
697.193	9628.74
697.539	9681.4
697.885	9604.11
698.231	9557.33
698.577	9571.8
698.923	9612.93
699.269	9458.58
699.614	9493.38
699.96	9396.66
700.306	9420.39
700.651	9397.56
700.997	9377
701.342	9349.66
701.688	9346.49
702.033	9266.27
702.379	9266.04
702.724	9262.2
703.069	9249.09
703.415	9097.23
703.76	9103.56
704.105	9072.6
704.45	9083
704.795	9082.32
705.14	8995.09
705.485	8927.97
705.83	8995.09
706.175	8943.79
706.52	8913.06
706.865	8902.66
707.209	8888.65
707.554	8850.23
707.899	8871.02
708.243	8781.76
708.588	8808.65
708.932	8730.46
709.277	8777.24
709.621	8733.85
709.966	8692.27
710.31	8698.82
710.654	8580.18
710.998	8594.87
711.342	8610.47
711.687	8610.24
712.031	8569.56
712.375	8521.88
712.719	8459.28
713.063	8490.24
713.407	8452.73
713.75	8436.23
714.094	8463.12
714.438	8424.03
714.782	8426.06
715.125	8411.15
715.469	8426.52
715.812	8375.67
716.156	8294.99
716.499	8374.99
716.843	8369.57
717.186	8268.1
717.53	8278.95
717.873	8347.65
718.216	8360.53
718.559	8287.99
718.902	8211.15
719.246	8242.79
719.589	8150.82
719.932	8116.92
720.275	8209.57
720.617	8151.95
720.96	8165.73
721.303	8160.76
721.646	8139.07
721.989	8101.33
722.331	8146.52
722.674	8116.47
723.016	8093.64
723.359	8067.88
723.701	8058.62
724.044	8065.4
724.386	8019.07
724.729	8036.24
725.071	8015.91
725.413	8054.32
725.755	8030.37
726.097	7959.64
726.439	8000.76
726.782	7994.21
727.124	7992.4
727.465	8005.96
727.807	8010.93
728.149	7925.51
728.491	7907.21
728.833	7971.84
729.175	7927.77
729.516	7971.61
729.858	7922.8
730.199	7946.53
730.541	7895.91
730.882	7969.58
731.224	7979.52
731.565	7904.27
731.906	7922.57
732.248	7911.95
732.589	7868.11
732.93	7905.4
733.271	7909.47
733.612	7910.15
733.953	7889.81
734.294	7879.19
734.635	7866.76
734.976	7873.99
735.317	7838.51
735.658	7867.43
735.999	7839.64
736.339	7841.9
736.68	7909.92
737.021	7880.32
737.361	7884.84
737.702	7871.28
738.042	7889.35
738.383	7878.96
738.723	7869.24
739.063	7872.18
739.404	7867.43
739.744	7931.39
740.084	7899.07
740.424	7948.79
740.764	7933.65
741.104	7983.14
741.444	7962.12
741.784	7891.39
742.124	7923.93
742.464	7941.1
742.804	7999.41
743.143	7982.91
743.483	7966.87
743.823	7980.2
744.162	8028.79
744.502	8113.76
744.841	8050.93
745.181	8133.42
745.52	8136.35
745.86	8176.13
746.199	8224.26
746.538	8279.17
746.877	8286.63
747.216	8342.22
747.556	8327.76
747.895	8347.42
748.234	8355.11
748.573	8427.42
748.911	8470.13
749.25	8532.95
749.589	8542.67
749.928	8652.27
750.267	8754.64
750.605	8823.12
750.944	8795.32
751.283	8857.01
751.621	8983.11
751.96	8986.05
752.298	9104.69
752.636	9162.99
752.975	9172.71
753.313	9292.48
753.651	9409.54
753.989	9431.69
754.327	9541.29
754.666	9573.6
755.004	9723.88
755.342	9890.66
755.679	9982.86
756.017	10038.9
756.355	10271.66
756.693	10288.84
757.031	10434.15
757.368	10588.72
757.706	10682.5
758.044	10743.97
758.381	10917.52
758.719	11010.63
759.056	11202.94
759.394	11348.47
759.731	11463.27
760.068	11690.61
760.405	11774.22
760.743	11892.87
761.08	12115.68
761.417	12219.41
761.754	12301.89
762.091	12487.43
762.428	12610.59
762.765	12756.35
763.102	12981.65
763.438	12972.38
763.775	13198.37
764.112	13397.68
764.449	13554.74
764.785	13684.91
765.122	13797.22
765.458	13900.5
765.795	14028.4
766.131	14253.26
766.467	14317.66
766.804	14442.85
767.14	14585.22
767.476	14733.69
767.812	14847.59
768.148	15001.94
768.485	14987.93
768.821	15184.76
769.157	15358.31
769.492	15471.98
769.828	15594.91
770.164	15641.47
770.5	15750.84
770.836	15794.23
771.171	15989.71
771.507	16077.16
771.842	15964.17
772.178	16211.85
772.513	16259.08
772.849	16318.74
773.184	16335.01
773.519	16551.05
773.855	16541.1
774.19	16629.24
774.525	16600.54
774.86	16850.02
775.195	16818.84
775.53	16931.15
775.865	16854.54
776.2	16869.68
776.535	16960.75
776.87	17033.75
777.205	17050.24
777.539	17048.44
777.874	17141.77
778.209	17115.1
778.543	17184.03
778.878	17241.2
779.212	17153.97
779.547	17247.75
779.881	17309.22
780.215	17172.27
780.55	17444.81
780.884	17260.18
781.218	17366.39
781.552	17382.21
781.886	17340.86
782.22	17368.88
782.554	17379.73
782.888	17217.02
783.222	17295.89
783.556	17297.47
783.889	17287.07
784.223	17193.97
784.557	17179.51
784.89	17328.43
785.224	17257.47
785.557	17179.96
785.891	17186.96
786.224	17141.31
786.558	17222.22
786.891	17111.49
787.224	17000.08
787.557	17170.01
787.891	17141.31
788.224	17156.91
788.557	17083.69
788.89	17189.9
789.223	17108.55
789.556	16983.8
789.888	17017.25
790.221	17022.45
790.554	16915.56
790.887	16865.16
791.219	16891.38
791.552	16826.07
791.884	16840.31
792.217	16771.38
792.549	16790.36
792.882	16586.75
793.214	16593.98
793.546	16668.56
793.879	16563.02
794.211	16573.19
794.543	16573.87
794.875	16590.14
795.207	16569.58
795.539	16480.54
795.871	16508.11
796.203	16441.45
796.535	16372.07
796.867	16380.2
797.198	16297.5
797.53	16400.77
797.862	16190.83
798.193	16271.96
798.525	16213.88
798.856	16201.68
799.188	15962.59
799.519	15993.1
799.85	15961.23
800.182	15921.91
800.513	15983.61
800.844	15862.48
801.175	15908.58
801.506	15963.49
801.837	15878.3
802.168	15728.02
802.499	15754.23
802.83	15698.87
803.161	15659.09
803.491	15688.92
803.822	15652.99
804.153	15563.96
804.483	15440.79
804.814	15469.72
805.145	15466.78
805.475	15485.09
805.805	15439.44
806.136	15319.89
806.466	15350.85
806.796	15343.62
807.126	15168.94
807.457	15208.71
807.787	15189.73
808.117	15179.11
808.447	15178.65
808.777	15150.18
809.107	15127.36
809.436	15123.06
809.766	14984.08
810.096	14997.19
810.426	14938.21
810.755	14897.08
811.085	14924.2
811.414	14999.22
811.744	14695.28
812.073	14798.1
812.403	14818.66
812.732	14729.17
813.061	14751.32
813.39	14563.3
813.719	14721.04
814.049	14712.45
814.378	14679.01
814.707	14569.41
815.036	14590.2
815.365	14425.23
815.693	14358.34
816.022	14401.27
816.351	14358.34
816.68	14350.43
817.008	14367.83
817.337	14219.81
817.665	14221.17
817.994	14310.88
818.322	14232.24
818.651	14169.64
818.979	14137.78
819.307	14241.05
819.636	14218.68
819.964	14053.03
820.292	14149.08
820.62	14086.48
820.948	14062.98
821.276	14116.76
821.604	13998.8
821.932	14170.32
822.259	14065.46
822.587	14019.36
822.915	13979.82
823.243	14065.24
823.57	13941.4
823.898	13975.52
824.225	14001.51
824.553	14096.65
824.88	14008.74
825.207	14137.55
825.535	14022.98
825.862	14091
826.189	14039.93
826.516	14117.44
826.843	14065.46
827.17	14145.91
827.497	14130.55
827.824	14102.98
828.151	14118.12
828.478	14091.68
828.805	14159.7
829.131	14059.59
829.458	14027.5
829.785	14010.78
830.111	14011.68
830.438	14164.44
830.764	14048.29
831.09	14165.35
831.417	14033.15
831.743	14103.88
832.069	14024.79
832.395	13976.2
832.722	14089.64
833.048	14117.67
833.374	14027.27
833.7	13987.95
834.026	14020.72
834.351	13925.81
834.677	13982.53
835.003	13972.13
835.329	13930.33
835.654	13954.96
835.98	13813.72
836.306	13857.11
836.631	13986.14
836.956	13929.87
837.282	13878.58
837.607	13799.48
837.932	13792.7
838.258	13772.82
838.583	13751.35
838.908	13660.28
839.233	13741.18
839.558	13694.63
839.883	13627.51
840.208	13648.75
840.533	13659.37
840.858	13607.85
841.182	13668.64
841.507	13552.48
841.832	13589.77
842.156	13588.64
842.481	13568.08
842.805	13409.44
843.13	13447.17
843.454	13394.97
843.778	13408.08
844.103	13378.25
844.427	13319.72
844.751	13348.87
845.075	13250.57
845.399	13258.03
845.723	13143.45
846.047	13170.8
846.371	12973.29
846.695	13052.16
847.019	12906.17
847.343	12919.73
847.666	12795.21
847.99	12807.19
848.313	12747.31
848.637	12745.27
848.96	12668.21
849.284	12623.92
849.607	12517.03
849.931	12496.47
850.254	12376.69
850.577	12350.93
850.9	12270.03
851.223	12334.44
851.546	12169.92
851.869	12166.53
852.192	12320.88
852.515	12069.58
852.838	12026.65
853.161	12016.7
853.483	11989.36
853.806	11976.25
854.129	11971.06
854.451	11846.31
854.774	11780.78
855.096	11771.96
855.419	11759.54
855.741	11713.43
856.063	11778.97
856.385	11580.33
856.708	11568.13
857.03	11628.24
857.352	11583.49
857.674	11517.28
857.996	11525.64
858.318	11452.2
858.64	11399.77
858.961	11402.26
859.283	11360.22
859.605	11340.79
859.926	11329.72
860.248	11296.04
860.57	11277.74
860.891	11244.75
861.212	11172.66
861.534	11117.29
861.855	11151.64
862.176	11039.55
862.498	11161.81
862.819	11071.42
863.14	11070.29
863.461	11052.21
863.782	10913.91
864.103	11034.13
864.424	10894.7
864.745	10977.64
865.065	10993.68
865.386	10844.76
865.707	10905.55
866.027	10808.83
866.348	10824.87
866.668	10862.38
866.989	10830.75
867.309	10756.4
867.63	10783.29
867.95	10742.84
868.27	10699
868.59	10712.56
868.91	10723.4
869.23	10668.49
869.55	10576.74
869.87	10711.43
870.19	10625.78
870.51	10688.38
870.83	10630.53
871.15	10561.6
871.469	10508.04
871.789	10552.56
872.109	10517.99
872.428	10491.32
872.748	10445.22
873.067	10468.95
873.386	10467.59
873.706	10456.07
874.025	10430.3
874.344	10375.62
874.663	10353.24
874.982	10299.69
875.301	10339.23
875.62	10310.08
875.939	10294.04
876.258	10346.69
876.577	10278.9
876.896	10298.33
877.214	10291.55
877.533	10282.29
877.852	10285
878.17	10266.47
878.489	10236.64
878.807	10206.58
879.125	10143.31
879.444	10190.99
879.762	10046.13
880.08	10082.74
880.398	10072.8
880.716	10130.43
881.034	10040.71
881.352	9963.42
881.67	9992.35
881.988	9951
882.306	9986.93
882.624	9953.93
882.941	9892.47
883.259	9798.46
883.577	9854.73
883.894	9890.66
884.212	9785.12
884.529	9779.47
884.846	9760.04
885.164	9714.39
885.481	9758.46
885.798	9736.99
886.115	9568.41
886.432	9679.82
886.75	9642.3
887.067	9657.22
887.383	9584.68
887.7	9585.58
888.017	9541.51
888.334	9603.43
888.651	9501.52
888.967	9428.3
889.284	9426.72
889.6	9431.24
889.917	9385.81
890.233	9318.7
890.55	9335.64
890.866	9367.51
891.182	9258.81
891.498	9235.31
891.815	9195.76
892.131	9210
892.447	9149.89
892.763	9105.82
893.079	9141.98
893.395	9100.85
893.71	9069.44
894.026	9021.53
894.342	8995.31
894.657	8957.8
894.973	8890.68
895.289	8893.62
895.604	8991.92
895.92	8813.62
896.235	8810.23
896.55	8785.6
896.865	8793.96
897.181	8692.72
897.496	8780.63
897.811	8659.05
898.126	8674.87
898.441	8570.69
898.756	8582.9
899.071	8496.12
899.386	8527.76
899.7	8503.8
900.015	8399.62
900.33	8412.73
900.644	8361.21
900.959	8386.52
901.273	8332.28
901.588	8321.21
901.902	8292.06
902.216	8212.28
902.531	8244.6
902.845	8228.78
903.159	8110.82
903.473	8107.2
903.787	8066.07
904.101	8024.72
904.415	8026.98
904.729	7969.8
905.042	7963.93
905.356	7949.47
905.67	7953.99
905.984	7930.94
906.297	7872.41
906.611	7771.17
906.924	7801.67
907.237	7770.04
907.551	7724.84
907.864	7745.4
908.177	7762.13
908.491	7663.37
908.804	7567.78
909.117	7577.05
909.43	7536.82
909.743	7470.16
910.056	7493.88
910.368	7465.19
910.681	7466.54
910.994	7417.95
911.307	7411.63
911.619	7265.42
911.932	7329.82
912.244	7258.41
912.557	7241.46
912.869	7147.45
913.181	7111.07
913.494	7115.59
913.806	7126.66
914.118	7091.18
914.43	7052.31
914.742	7038.76
915.054	6989.49
915.366	6901.58
915.678	6909.72
915.99	6937.52
916.302	6883.51
916.613	6880.34
916.925	6816.16
917.236	6836.73
917.548	6756.05
917.859	6783.62
918.171	6685.77
918.482	6679.67
918.794	6617.3
919.105	6587.47
919.416	6610.97
919.727	6561.93
920.038	6566.23
920.349	6510.41
920.66	6513.35
920.971	6457.75
921.282	6482.16
921.593	6386.57
921.903	6397.64
922.214	6416.4
922.525	6339.11
922.835	6319.9
923.146	6280.13
923.456	6276.52
923.767	6224.77
924.077	6228.83
924.387	6210.08
924.697	6131.89
925.008	6096.18
925.318	6096.18
925.628	6125.11
925.938	6082.85
926.248	6034.71
926.558	5957.2
926.867	6051.89
927.177	5991.55
927.487	5946.35
927.796	5893.7
928.106	5908.84
928.416	5891.67
928.725	5909.07
929.034	5769.18
929.344	5820.03
929.653	5814.61
929.962	5741.61
930.271	5679.7
930.581	5747.49
930.89	5697.77
931.199	5605.8
931.508	5629.98
931.817	5655.29
932.125	5634.72
932.434	5572.35
932.743	5598.79
933.051	5510.89
933.36	5498.46
933.669	5475.41
933.977	5434.73
934.286	5429.08
934.594	5411
934.902	5371.23
935.21	5375.3
935.519	5322.87
935.827	5341.4
936.135	5327.16
936.443	5293.94
936.751	5235.64
937.059	5204.23
937.367	5224.11
937.674	5207.62
937.982	5208.75
938.29	5162.42
938.597	5126.72
938.905	5061.18
939.213	5113.38
939.52	5055.76
939.827	5054.4
940.135	4998.58
940.442	5010.56
940.749	4996.32
941.056	4930.34
941.363	4968.75
941.67	4921.75
941.977	4877.23
942.284	4819.83
942.591	4896.21
942.898	4794.29
943.205	4853.73
943.511	4760.17
943.818	4826.61
944.125	4745.03
944.431	4737.57
944.738	4702.77
945.044	4682.66
945.35	4671.13
945.657	4626.62
945.963	4626.62
946.269	4537.8
946.575	4601.08
946.881	4584.81
947.187	4517.47
947.493	4469.78
947.799	4521.99
948.105	4522.66
948.41	4462.78
948.716	4442.67
949.022	4406.96
949.327	4415.1
949.633	4412.84
949.938	4374.64
950.244	4330.35
950.549	4330.58
950.854	4325.15
951.16	4298.71
951.465	4267.53
951.77	4271.14
952.075	4283.35
952.38	4277.7
952.685	4180.75
952.99	4174.88
953.294	4170.58
953.599	4148.89
953.904	4142.79
954.209	4086.52
954.513	4081.77
954.818	4060.3
955.122	4077.48
955.426	4077.93
955.731	4029.34
956.035	4028.21
956.339	4013.98
956.643	3950.48
956.948	3966.75
957.252	3976.92
957.556	3950.93
957.86	3929.01
958.163	3920.65
958.467	3915.67
958.771	3868.9
959.075	3898.5
959.378	3853.08
959.682	3819.63
959.985	3808.33
960.289	3804.94
960.592	3778.05
960.896	3705.28
961.199	3733.53
961.502	3743.48
961.805	3724.72
962.108	3650.37
962.411	3658.05
962.714	3613.08
963.017	3616.47
963.32	3669.35
963.623	3636.59
963.926	3615.79
964.228	3558.85
964.531	3555.01
964.833	3574.89
965.136	3511.39
965.438	3489.24
965.741	3470.71
966.043	3513.42
966.345	3475.23
966.648	3434.78
966.95	3439.3
967.252	3423.71
967.554	3399.3
967.856	3428.68
968.158	3369.25
968.46	3396.59
968.761	3342.36
969.063	3362.24
969.365	3367.21
969.666	3282.7
969.968	3279.08
970.269	3331.06
970.571	3299.19
970.872	3272.98
971.174	3281.11
971.475	3180.33
971.776	3201.79
972.077	3188.91
972.378	3199.76
972.679	3188.01
972.98	3172.87
973.281	3145.52
973.582	3126.77
973.883	3119.08
974.183	3075.02
974.484	3095.36
974.785	3086.77
975.085	3060.78
975.386	3051.29
975.686	3042.02
975.986	3032.31
976.287	3020.1
976.587	2958.64
976.887	2964.06
977.187	2975.59
977.487	2957.06
977.787	2906.43
978.087	2904.4
978.387	2906.43
978.687	2899.88
978.987	2885.42
979.286	2867.11
979.586	2858.98
979.885	2861.46
980.185	2849.04
980.484	2832.54
980.784	2800.9
981.083	2782.14
981.382	2777.17
981.682	2777.62
981.981	2763.61
982.28	2762.48
982.579	2746.67
982.878	2740.34
983.177	2684.52
983.475	2718.64
983.774	2673.22
984.073	2672.77
984.372	2662.37
984.67	2647.01
984.969	2651.75
985.267	2647.01
985.566	2619.66
985.864	2591.64
986.162	2594.13
986.461	2581.25
986.759	2541.47
987.057	2557.97
987.355	2529.72
987.653	2538.31
987.951	2480.68
988.249	2510.97
988.547	2504.41
988.844	2488.37
989.142	2459.44
989.44	2491.08
989.737	2449.05
990.035	2458.31
990.332	2418.76
990.63	2429.84
990.927	2383.06
991.224	2397.3
991.521	2371.76
991.819	2364.3
992.116	2386.67
992.413	2376.96
992.71	2378.31
993.006	2313.23
993.303	2305.55
993.6	2308.71
993.897	2315.94
994.193	2320.91
994.49	2273.91
994.787	2255.15
995.083	2225.1
995.379	2219.67
995.676	2230.52
995.972	2232.55
996.268	2207.02
996.565	2211.76
996.861	2176.28
997.157	2178.32
997.453	2178.77
997.749	2161.14
998.044	2167.02
998.34	2140.81
998.636	2140.35
998.932	2114.14
999.227	2073.69
999.523	2094.25
999.818	2099.9
1000.114	2081.37
1000.409	2030.75
1000.704	2056.51
1001	2013.58
1001.295	2028.27
1001.59	2019
1001.885	2029.4
1002.18	2010.19
1002.475	1980.81
1002.77	1999.11
1003.065	1964.99
1003.359	1977.19
1003.654	1935.16
1003.949	1919.57
1004.243	1938.32
1004.538	1904.65
1004.832	1898.33
1005.127	1882.96
1005.421	1861.72
1005.715	1856.52
1006.009	1834.6
1006.304	1831.66
1006.598	1819.68
1006.892	1806.8
1007.186	1803.86
1007.48	1808.84
1007.773	1795.96
1008.067	1790.31
1008.361	1749.18
1008.655	1795.28
1008.948	1776.97
1009.242	1738.78
1009.535	1725.22
1009.829	1744.21
1010.122	1726.8
1010.415	1701.04
1010.708	1699.01
1011.001	1689.74
1011.295	1672.79
1011.588	1651.33
1011.881	1639.8
1012.173	1629.63
1012.466	1612.23
1012.759	1612.91
1013.052	1594.83
1013.344	1590.76
1013.637	1593.93
1013.93	1582.85
1014.222	1598.22
1014.514	1567.04
1014.807	1536.3
1015.099	1546.02
1015.391	1533.36
1015.683	1503.76
1015.976	1506.92
1016.268	1516.64
1016.56	1498.56
1016.851	1499.47
1017.143	1492.91
1017.435	1464.44
1017.727	1490.43
1018.018	1473.7
1018.31	1449.3
1018.602	1436.64
1018.893	1434.38
1019.185	1396.42
1019.476	1410.65
1019.767	1393.71
1020.058	1423.76
1020.35	1391.9
1020.641	1352.58
1020.932	1386.47
1021.223	1366.81
1021.514	1373.82
1021.804	1348.06
1022.095	1338.79
1022.386	1322.3
1022.677	1322.52
1022.967	1291.56
1023.258	1301.51
1023.548	1259.47
1023.839	1267.16
1024.129	1260.15
1024.419	1265.35
1024.709	1264.9
1025	1249.76
1025.29	1263.31
1025.58	1235.74
1025.87	1265.35
1026.16	1211.79
1026.449	1232.35
1026.739	1188.97
1027.029	1218.12
1027.319	1202.52
1027.608	1184.45
1027.898	1174.73
1028.187	1146.71
1028.477	1150.32
1028.766	1139.93
1029.055	1156.42
1029.344	1138.35
1029.634	1123.2
1029.923	1099.02
1030.212	1129.53
1030.501	1122.08
1030.79	1117.33
1031.078	1111.91
1031.367	1090.21
1031.656	1082.75
1031.945	1073.71
1032.233	1063.77
1032.522	1068.07
1032.81	1061.51
1033.099	1013.83
1033.387	1051.79
1033.675	1011.12
1033.963	1036.43
1034.251	1005.69
1034.54	996.88
1034.828	1025.35
1035.116	1013.83
1035.403	996.88
1035.691	992.81
1035.979	973.6
1036.267	980.84
1036.554	995.98
1036.842	972.93
1037.129	966.15
1037.417	941.51
1037.704	942.19
1037.992	927.73
1038.279	944.45
1038.566	936.77
1038.853	936.77
1039.14	936.77
