Data from hue_10_FLMS001491_25.txt Node
Date: Mon Feb 06 15:31:39 GMT 2017
User: dcchb
Spectrometer: FLMS00149
Trigger mode: 0
Integration Time (sec): 2.000000E-2
Scans to average: 10
Electric dark correction enabled: true
Nonlinearity correction enabled: false
Boxcar width: 0
XAxis mode: Wavelengths
Number of Pixels in Spectrum: 2048
>>>>>Begin Spectral Data<<<<<
341.393	0.32
341.776	0.32
342.16	0.32
342.543	-73.12
342.927	-34.25
343.31	-72.44
343.693	-78.09
344.077	-51.2
344.46	-67.47
344.843	-46.91
345.226	-47.36
345.61	-24.76
345.993	-22.5
346.376	15.24
346.759	10.27
347.142	27.67
347.525	31.06
347.908	41.68
348.291	81
348.674	84.16
349.057	119.64
349.44	136.37
349.823	155.12
350.206	157.16
350.588	201.45
350.971	211.62
351.354	236.7
351.737	238.51
352.119	248.91
352.502	265.4
352.884	266.08
353.267	290.94
353.65	295.23
354.032	300.66
354.414	313.54
354.797	323.71
355.179	316.93
355.562	318.06
355.944	330.71
356.326	315.12
356.709	335.23
357.091	327.32
357.473	343.59
357.855	354.44
358.238	356.02
358.62	354.67
359.002	346.53
359.384	327.1
359.766	356.47
360.148	342.46
360.53	318.73
360.912	329.13
361.294	348.79
361.676	329.81
362.057	323.03
362.439	333.65
362.821	328.9
363.203	324.38
363.584	314.89
363.966	318.06
364.348	308.34
364.729	293.65
365.111	332.52
365.493	311.96
365.874	300.43
366.256	318.73
366.637	316.47
367.019	335.01
367.4	324.16
367.781	304.5
368.163	315.8
368.544	319.41
368.925	324.16
369.306	316.93
369.688	301.33
370.069	316.47
370.45	302.46
370.831	321.9
371.212	318.06
371.593	317.6
371.974	315.57
372.355	326.64
372.736	334.55
373.117	313.54
373.498	331.16
373.879	308.11
374.26	332.52
374.641	331.84
375.021	332.52
375.402	302.46
375.783	323.48
376.163	324.61
376.544	340.88
376.925	346.76
377.305	331.84
377.686	320.54
378.066	323.03
378.447	338.4
378.827	323.93
379.208	344.04
379.588	327.77
379.968	343.59
380.349	336.14
380.729	342.91
381.109	349.92
381.489	344.04
381.87	337.04
382.25	335.91
382.63	327.1
383.01	319.19
383.39	341.56
383.77	330.49
384.15	346.3
384.53	360.77
384.91	351.95
385.29	322.8
385.67	351.95
386.049	361.9
386.429	353.08
386.809	339.52
387.189	348.11
387.568	336.36
387.948	365.74
388.328	364.38
388.707	344.5
389.087	349.02
389.466	364.61
389.846	346.3
390.225	384.5
390.605	356.93
390.984	345.85
391.363	361.22
391.743	371.16
392.122	368.45
392.501	355.57
392.881	380.2
393.26	378.39
393.639	374.55
394.018	373.42
394.397	374.55
394.776	365.06
395.155	374.33
395.534	396.02
395.913	353.76
396.292	377.72
396.671	390.37
397.05	385.85
397.429	381.33
397.808	395.12
398.186	376.36
398.565	393.31
398.944	371.84
399.323	383.14
399.701	411.39
400.08	377.49
400.458	376.36
400.837	405.51
401.215	387.21
401.594	401.22
401.972	396.25
402.351	398.51
402.729	383.37
403.107	389.02
403.486	406.19
403.864	392.86
404.242	405.74
404.62	401.44
404.999	399.64
405.377	398.51
405.755	405.29
406.133	416.81
406.511	407.09
406.889	412.29
407.267	441.67
407.645	424.72
408.023	439.18
408.401	425.4
408.779	427.43
409.156	433.76
409.534	454.78
409.912	440.54
410.29	438.51
410.667	438.28
411.045	453.42
411.422	459.97
411.8	438.28
412.178	443.25
412.555	459.52
412.933	452.97
413.31	447.32
413.687	445.96
414.065	466.08
414.442	459.07
414.819	473.98
415.197	467.88
415.574	479.41
415.951	480.31
416.328	483.25
416.705	471.72
417.082	489.8
417.46	461.78
417.837	489.8
418.214	506.98
418.591	505.4
418.967	499.52
419.344	485.06
419.721	512.18
420.098	499.75
420.475	496.81
420.852	496.58
421.228	499.97
421.605	534.55
421.982	511.5
422.358	516.92
422.735	527.77
423.111	540.42
423.488	525.96
423.864	532.74
424.241	571.16
424.617	533.64
424.994	523.25
425.37	544.04
425.746	555.56
426.123	553.08
426.499	549.91
426.875	553.76
427.251	559.18
427.627	563.25
428.003	563.02
428.379	585.85
428.756	566.19
429.132	585.85
429.507	584.49
429.883	575.45
430.259	614.09
430.635	593.08
431.011	582
431.387	594.66
431.763	613.64
432.138	619.07
432.514	618.16
432.89	627.2
433.265	632.17
433.641	624.94
434.016	634.66
434.392	629.01
434.767	659.29
435.143	642.57
435.518	666.75
435.894	675.34
436.269	659.52
436.644	674.21
437.02	683.02
437.395	693.87
437.77	683.24
438.145	673.08
438.52	705.62
438.895	710.81
439.271	698.84
439.646	724.37
440.021	747.2
440.395	710.81
440.77	736.58
441.145	708.1
441.52	704.94
441.895	733.41
442.27	764.82
442.645	740.64
443.019	758.27
443.394	753.07
443.769	739.06
444.143	747.2
444.518	744.03
444.892	740.87
445.267	751.04
445.641	776.35
446.016	771.83
446.39	756.46
446.764	775.45
447.139	785.84
447.513	791.72
447.887	779.74
448.262	803.24
448.636	790.13
449.01	789.91
449.384	808.67
449.758	803.92
450.132	819.74
450.506	800.08
450.88	817.03
451.254	807.54
451.628	823.35
452.002	841.66
452.376	838.49
452.75	849.57
453.123	837.36
453.497	859.74
453.871	868.78
454.244	885.95
454.618	865.39
454.992	911.94
455.365	906.52
455.739	906.97
456.112	917.14
456.486	918.49
456.859	912.17
457.232	939.28
457.606	952.16
457.979	944.71
458.352	971.6
458.725	995.55
459.099	987.87
459.472	995.55
459.845	984.03
460.218	992.16
460.591	1005.72
460.964	1018.6
461.337	1020.19
461.71	1054.31
462.083	1063.57
462.456	1034.2
462.829	1073.52
463.201	1049.11
463.574	1086.17
463.947	1091.37
464.32	1103.35
464.692	1135.89
465.065	1125.49
465.438	1162.78
465.81	1153.06
466.183	1185.38
466.555	1193.29
466.928	1191.71
467.3	1198.26
467.672	1203.46
468.045	1242.1
468.417	1251.14
468.789	1287.3
469.161	1261.53
469.534	1287.52
469.906	1320.29
470.278	1351.93
470.65	1337.24
471.022	1387.63
471.394	1369.33
471.766	1387.86
472.138	1395.32
472.51	1447.07
472.882	1456.56
473.253	1488.42
473.625	1499.72
473.997	1532.04
474.369	1534.97
474.74	1554.41
475.112	1609.55
475.484	1604.58
475.855	1650.68
476.227	1659.72
476.598	1714.63
476.97	1738.81
477.341	1759.37
477.713	1798.02
478.084	1793.72
478.455	1835.3
478.827	1862.87
479.198	1936.55
479.569	1901.52
479.94	1995.75
480.311	2022.87
480.682	2014.28
481.053	2088.86
481.424	2122.75
481.795	2150.1
482.166	2194.17
482.537	2231.23
482.908	2296.31
483.279	2318.68
483.65	2386.25
484.021	2424.67
484.391	2429.64
484.762	2459.24
485.133	2522.29
485.503	2533.82
485.874	2577.66
486.244	2599.8
486.615	2697.66
486.985	2696.98
487.356	2779.01
487.726	2784.66
488.097	2865.33
488.467	2881.61
488.837	2905.33
489.207	2993.69
489.578	3014.48
489.948	3058.1
490.318	3151.43
490.688	3136.51
491.058	3190.07
491.428	3224.42
491.798	3277.98
492.168	3320.01
492.538	3326.57
492.908	3394.36
493.278	3430.74
493.648	3449.5
494.017	3474.13
494.387	3541.7
494.757	3596.39
495.126	3623.28
495.496	3641.13
495.866	3667.35
496.235	3701.24
496.605	3725.88
496.974	3818.08
497.344	3810.85
497.713	3843.84
498.082	3873.22
498.452	3882.71
498.821	3945.98
499.19	3921.58
499.559	3960.22
499.928	3997.96
500.298	4042.48
500.667	4077.05
501.036	4058.75
501.405	4075.7
501.774	4086.09
502.143	4184.85
502.512	4216.49
502.88	4229.82
503.249	4179.2
503.618	4249.7
503.987	4287.67
504.356	4305.97
504.724	4342.58
505.093	4357.05
505.462	4293.77
505.83	4374.45
506.199	4413.77
506.567	4449.93
506.936	4456.25
507.304	4442.24
507.672	4526.99
508.041	4524.5
508.409	4514.78
508.777	4607.89
509.145	4620.99
509.514	4555.46
509.882	4644.27
510.25	4670.03
510.618	4707.77
510.986	4704.38
511.354	4684.72
511.722	4778.73
512.09	4761.78
512.458	4729.92
512.826	4785.06
513.193	4787.77
513.561	4817.83
513.929	4837.49
514.297	4884.94
514.664	4914.32
515.032	4981.44
515.4	4904.6
515.767	4941.89
516.135	4996.8
516.502	4960.42
516.869	5034.77
517.237	5038.16
517.604	4962
517.972	5052.62
518.339	5106.41
518.706	5105.73
519.073	5087.65
519.44	5130.81
519.808	5134.2
520.175	5157.7
520.542	5183.92
520.909	5169.45
521.276	5217.59
521.643	5224.82
522.009	5293.74
522.376	5315.89
522.743	5319.73
523.11	5346.85
523.477	5353.18
523.843	5439.28
524.21	5431.59
524.577	5444.48
524.943	5516.79
525.31	5516.79
525.676	5546.17
526.043	5579.16
526.409	5639.5
526.776	5650.35
527.142	5674.07
527.508	5738.93
527.874	5768.76
528.241	5735.77
528.607	5740.06
528.973	5829.32
529.339	5835.88
529.705	5835.43
530.071	5893.96
530.437	5939.83
530.803	5926.04
531.169	5995.42
531.535	5975.99
531.901	6024.8
532.267	6045.14
532.632	6075.19
532.998	6088.53
533.364	6132.37
533.73	6127.62
534.095	6157.9
534.461	6212.36
534.826	6174.85
535.192	6212.14
535.557	6267.28
535.923	6265.02
536.288	6326.71
536.653	6321.74
537.019	6334.62
537.384	6385.92
537.749	6415.07
538.114	6467.95
538.479	6434.96
538.845	6450.55
539.21	6474.5
539.575	6550.21
539.94	6518.8
540.305	6533.03
540.67	6571.23
541.034	6641.96
541.399	6681.28
541.764	6629.76
542.129	6672.92
542.494	6749.53
542.858	6726.25
543.223	6794.72
543.587	6820.26
543.952	6787.72
544.316	6883.99
544.681	6847.83
545.045	6905.91
545.41	6906.81
545.774	6972.12
546.138	6917.21
546.503	6958.11
546.867	6997.88
547.231	7057.99
547.595	7060.03
547.959	7124.66
548.324	7189.06
548.688	7189.97
549.052	7186.35
549.416	7239.91
549.779	7258.67
550.143	7313.8
550.507	7283.3
550.871	7352.22
551.235	7352.22
551.599	7420.02
551.962	7424.76
552.326	7381.15
552.689	7461.37
553.053	7414.59
553.417	7457.08
553.78	7507.47
554.143	7508.38
554.507	7568.71
554.87	7555.83
555.234	7600.8
555.597	7584.53
555.96	7658.2
556.323	7680.12
556.686	7678.09
557.05	7776.62
557.413	7791.53
557.776	7776.39
558.139	7799.89
558.502	7822.04
558.865	7832.44
559.228	7911.98
559.59	7950.62
559.953	7965.99
560.316	8005.54
560.679	7958.76
561.041	8036.05
561.404	8047.12
561.767	8142.94
562.129	8097.51
562.492	8195.82
562.854	8128.92
563.217	8174.35
563.579	8220.67
563.941	8246.66
564.304	8295.47
564.666	8292.99
565.028	8338.18
565.39	8385.87
565.753	8345.64
566.115	8395.81
566.477	8487.56
566.839	8488.24
567.201	8504.51
567.563	8565.75
567.925	8632.19
568.287	8532.08
568.648	8681.68
569.01	8686.65
569.372	8697.95
569.734	8805.29
570.095	8765.29
570.457	8806.42
570.819	8846.65
571.18	8864.27
571.542	8930.26
571.903	8921.9
572.265	8996.25
572.626	9017.94
572.987	9018.17
573.349	9119.18
573.71	9194.43
574.071	9231.04
574.432	9293.64
574.794	9338.61
575.155	9421.32
575.516	9456.35
575.877	9497.7
576.238	9643.01
576.599	9713.29
576.96	9772.5
577.32	9784.93
577.681	9925.71
578.042	9944.92
578.403	10067.86
578.763	10136.78
579.124	10259.04
579.485	10383.33
579.845	10505.59
580.206	10588.52
580.566	10691.12
580.927	10806.82
581.287	10908.51
581.648	10955.74
582.008	11228.96
582.368	11292.23
582.728	11462.17
583.089	11644.76
583.449	11782.61
583.809	12019.44
584.169	12252.88
584.529	12342.37
584.889	12654
585.249	12795.92
585.609	12985.75
585.969	13188.9
586.329	13431.84
586.688	13667.76
587.048	13924.93
587.408	14093.97
587.768	14430.68
588.127	14584.8
588.487	14765.59
588.846	15192.92
589.206	15402.41
589.565	15671.1
589.925	15946.12
590.284	16228.6
590.643	16506.33
591.003	16792.2
591.362	17212.98
591.721	17489.13
592.08	17695
592.44	18135.67
592.799	18478.48
593.158	18761.19
593.517	18994.4
593.876	19373.6
594.235	19737.66
594.593	20053.58
594.952	20373.35
595.311	20671.42
595.67	21088.58
596.029	21461
596.387	21860.99
596.746	22287.87
597.104	22355.44
597.463	22886.28
597.822	23253.27
598.18	23439.26
598.538	23676.09
598.897	24149.29
599.255	24346.8
599.613	24973
599.972	25125.31
600.33	25623.83
600.688	25837.84
601.046	26305.62
601.404	26629.23
601.762	26912.84
602.12	27377.91
602.478	27696.55
602.836	28051.56
603.194	28145.57
603.552	28516.19
603.91	28760.47
604.268	29190.52
604.625	29459.66
604.983	29858.07
605.341	29951.85
605.698	30378.28
606.056	30685.17
606.413	31100.75
606.771	31287.41
607.128	31648.76
607.485	31822.99
607.843	32136.2
608.2	32541.62
608.557	32848.95
608.914	33073.13
609.272	33322.16
609.629	33461.37
609.986	34046.21
610.343	34151.97
610.7	34599.42
611.057	34780.2
611.414	34931.61
611.771	35176.58
612.127	35511.71
612.484	35812.49
612.841	36046.16
613.198	36143.78
613.554	36360.27
613.911	36738.34
614.267	36906.47
614.624	36965.45
614.98	37306.91
615.337	37548.26
615.693	37630.97
616.05	37684.53
616.406	38179.21
616.762	38196.38
617.118	38494.23
617.475	38538.07
617.831	38828.68
618.187	39035.23
618.543	39182.12
618.899	39377.82
619.255	39530.13
619.611	39661.65
619.967	39822.33
620.323	40037.69
620.678	40002.44
621.034	40098.03
621.39	40257.8
621.746	40366.5
622.101	40992.47
622.457	40640.16
622.812	41006.25
623.168	41167.6
623.523	41129.41
623.879	41424.09
624.234	41403.98
624.589	41498.89
624.945	41772.56
625.3	41769.17
625.655	41818.43
626.01	41891.65
626.365	41965.32
626.72	41907.47
627.075	42114.02
627.43	42041.71
627.785	42037.86
628.14	42341.36
628.495	42400.11
628.85	42369.38
629.205	42386.1
629.559	42618.19
629.914	42476.5
630.269	42649.15
630.623	42478.98
630.978	42631.29
631.332	42689.6
631.687	42824.74
632.041	42815.92
632.396	42861.8
632.75	42796.49
633.104	42916.71
633.459	42615.25
633.813	42737.05
634.167	42787.45
634.521	42894.56
634.875	43014.34
635.229	43069.93
635.583	42817.5
635.937	42962.36
636.291	42821.8
636.645	42951.74
636.999	42727.34
637.352	43014.56
637.706	42783.38
638.06	43055.46
638.413	42894.56
638.767	42776.83
639.121	42930.95
639.474	42762.59
639.828	42852.31
640.181	42910.83
640.534	42846.43
640.888	42697.51
641.241	42753.33
641.594	42755.58
641.947	42975.92
642.301	42721.46
642.654	42685.08
643.007	42899.99
643.36	42831.97
643.713	42861.57
644.066	42932.53
644.419	42691.63
644.771	42375.71
645.124	41992.22
645.477	42107.01
645.83	41703.64
646.182	41637.42
646.535	41683.07
646.888	41793.8
647.24	41624.54
647.593	41635.39
647.945	41588.16
648.298	41437.2
648.65	41472.45
649.002	41239.24
649.355	41420.25
649.707	41398.11
650.059	41582.28
650.411	41968.49
650.763	42063.4
651.115	42436.5
651.467	42468.59
651.819	42325.54
652.171	42356.5
652.523	42223.85
652.875	42245.77
653.227	42084.87
653.578	42377.52
653.93	42330.51
654.282	42048.48
654.633	42039.67
654.985	42125.54
655.337	42166.22
655.688	42289.38
656.039	42279.21
656.391	41990.86
656.742	42111.31
657.094	41971.88
657.445	42122.38
657.796	42123.06
658.147	42039.9
658.498	42021.37
658.849	42192.21
659.2	42079.44
659.551	41927.81
659.902	42183.17
660.253	41941.59
660.604	42060.91
660.955	41848.26
661.306	42109.95
661.656	41941.59
662.007	42003.06
662.358	41866.57
662.708	41857.08
663.059	41911.77
663.409	41655.05
663.76	42007.81
664.11	41835.61
664.461	41861.37
664.811	41994.25
665.161	41961.71
665.511	41727.14
665.862	41701.15
666.212	41983.18
666.562	41997.41
666.912	41976.4
667.262	41858.21
667.612	41794.48
667.962	41903.4
668.312	41777.98
668.662	42019.56
669.011	41887.81
669.361	41725.33
669.711	41806.91
670.06	41678.55
670.41	41538.67
670.76	41657.99
671.109	41707.7
671.459	41684.43
671.808	41711.54
672.157	41891.43
672.507	41454.6
672.856	41552.68
673.205	41482.62
673.554	41766.23
673.904	41402.4
674.253	41710.87
674.602	41581.6
674.951	41167.83
675.3	40801.96
675.649	41380.71
675.998	41228.85
676.346	41353.36
676.695	41484.66
677.044	41209.86
677.393	41421.83
677.741	41474.04
678.09	41422.06
678.438	41154.27
678.787	41226.59
679.135	41364.43
679.484	41017.78
679.832	41202.18
680.181	41024.56
680.529	41079.7
680.877	40954.95
681.225	40940.04
681.573	41081.96
681.922	40930.77
682.27	40712.25
682.618	40732.81
682.966	40612.59
683.314	40691.46
683.661	40529.43
684.009	40482.42
684.357	40440.39
684.705	40290.79
685.053	40294.18
685.4	40183
685.748	40065.49
686.095	39966.28
686.443	39925.38
686.79	39914.08
687.138	40082.89
687.485	40088.76
687.832	39838.37
688.18	39964.92
688.527	39678.38
688.874	39683.35
689.221	39742.1
689.568	39580.53
689.915	39372.4
690.262	39265.06
690.609	39288.33
690.956	39106.19
691.303	39102.12
691.65	38965.18
691.997	38943.26
692.344	38816.93
692.69	38761.11
693.037	38707.33
693.383	38423.95
693.73	38588.46
694.077	38321.13
694.423	38308.02
694.769	38114.12
695.116	38136.05
695.462	38015.82
695.808	37951.42
696.155	38075.26
696.501	37721.37
696.847	37659.45
697.193	37445.44
697.539	37529.28
697.885	37279.12
698.231	37274.15
698.577	37239.12
698.923	37177.43
699.269	37025.79
699.614	36825.8
699.96	36810.66
700.306	36727.27
700.651	36668.74
700.997	36531.12
701.342	36520.49
701.688	36385.13
702.033	36383.32
702.379	36257.22
702.724	36269.88
703.069	36275.76
703.415	35818.59
703.76	35928.65
704.105	35835.54
704.45	35748.09
704.795	35570.69
705.14	35490.92
705.485	35608.2
705.83	35388.77
706.175	35330.47
706.52	35324.59
706.865	35091.61
707.209	34983.13
707.554	34795.57
707.899	34810.93
708.243	34918.5
708.588	34890.48
708.932	34579.08
709.277	34593.54
709.621	34459.98
709.966	34348.12
710.31	34667.44
710.654	34088.02
710.998	34260.44
711.342	34121.01
711.687	34152.65
712.031	34006.66
712.375	33928.02
712.719	33987.91
713.063	33755.14
713.407	33924.18
713.75	33852.09
714.094	33678.76
714.438	33615.49
714.782	33562.61
715.125	33453.68
715.469	33450.74
715.812	33328.71
716.156	33016.86
716.499	33221.15
716.843	33194.03
717.186	32919.01
717.53	33038.1
717.873	32967.82
718.216	32974.37
718.559	32824.32
718.902	32563.08
719.246	32702.74
719.589	32618
719.932	32377.78
720.275	32552.92
720.617	32468.4
720.96	32350.43
721.303	32425.46
721.646	32303.66
721.989	32275.63
722.331	32259.59
722.674	32135.98
723.016	32077
723.359	31998.81
723.701	32137.56
724.044	31907.73
724.386	31705.71
724.729	31900.28
725.071	31834.52
725.413	31634.52
725.755	31682.43
726.097	31633.39
726.439	31433.85
726.782	31563.79
727.124	31564.47
727.465	31487.86
727.807	31416.67
728.149	31311.59
728.491	31346.62
728.833	31316.11
729.175	31178.49
729.516	31100.75
729.858	31015.1
730.199	31162.44
730.541	30989.11
730.882	30969
731.224	31045.61
731.565	30833.19
731.906	30764.04
732.248	30909.34
732.589	30715.9
732.93	30580.99
733.271	30626.86
733.612	30726.3
733.953	30688.33
734.294	30463.03
734.635	30510.48
734.976	30616.24
735.317	30292.18
735.658	30292.18
735.999	30321.11
736.339	30221.68
736.68	30201.79
737.021	30264.39
737.361	30259.42
737.702	30284.95
738.042	30097.61
738.383	30098.97
738.723	30141.68
739.063	30005.86
739.404	29981.68
739.744	29832.53
740.084	29771.07
740.424	29839.09
740.764	29793.89
741.104	29941.23
741.444	29597.96
741.784	29625.99
742.124	29728.13
742.464	29555.93
742.804	29505.09
743.143	29520.45
743.483	29473.45
743.823	29318.88
744.162	29369.04
744.502	29321.81
744.841	29199.78
745.181	29261.93
745.52	29215.38
745.86	29191.87
746.199	29124.08
746.538	29099.22
746.877	29082.72
747.216	29179.67
747.556	29014.03
747.895	29032.56
748.234	28841.37
748.573	28855.39
748.911	28847.25
749.25	28793.01
749.589	28691.77
749.928	28600.7
750.267	28791.66
750.605	28666.46
750.944	28653.36
751.283	28579.01
751.621	28644.54
751.96	28499.69
752.298	28413.82
752.636	28249.98
752.975	28155.29
753.313	28217.66
753.651	28230.54
753.989	28167.27
754.327	28056.76
754.666	27885.69
755.004	28052.24
755.342	28073.71
755.679	27862.87
756.017	27886.15
756.355	27788.52
756.693	27704
757.031	27849.99
757.368	27612.93
757.706	27611.8
758.044	27472.6
758.381	27584.91
758.719	27400.06
759.056	27371.13
759.394	27297.23
759.731	27129.33
760.068	27035.55
760.405	27050.01
760.743	26951.93
761.08	26980.86
761.417	26850.01
761.754	26749.9
762.091	26774.76
762.428	26629.46
762.765	26506.97
763.102	26532.28
763.438	26443.25
763.775	26275.79
764.112	26318.5
764.449	26281.22
764.785	26185.63
765.122	26001
765.458	25826.09
765.795	25962.58
766.131	25818.63
766.467	25690.72
766.804	25510.84
767.14	25634.91
767.476	25544.29
767.812	25459.54
768.148	25395.59
768.485	25293.67
768.821	25117.63
769.157	25099.78
769.492	25049.61
769.828	24989.05
770.164	24813.91
770.5	24712.22
770.836	24729.62
771.171	24554.93
771.507	24534.37
771.842	24385.9
772.178	24370.98
772.513	24422.06
772.849	24317.43
773.184	24118.33
773.519	24165.79
773.855	23977.32
774.19	23900.04
774.525	23846.7
774.86	23803.09
775.195	23815.52
775.53	23559.25
775.865	23569.2
776.2	23327.4
776.535	23199.49
776.87	23285.14
777.205	23096.44
777.539	23041.3
777.874	23072.03
778.209	22870.68
778.543	22728.77
778.878	22764.25
779.212	22589.34
779.547	22490.13
779.881	22531.94
780.215	22433.41
780.55	22353.64
780.884	22271.38
781.218	22235.9
781.552	22192.74
781.886	22053.53
782.22	21998.62
782.554	21877.72
782.888	21677.04
783.222	21630.26
783.556	21624.16
783.889	21523.37
784.223	21389.82
784.557	21313.66
784.89	21348.01
785.224	21105.98
785.557	21007.46
785.891	21051.75
786.224	21013.11
786.558	21035.03
786.891	20848.59
787.224	20734.69
787.557	20584.19
787.891	20644.3
788.224	20604.75
788.557	20543.97
788.89	20398.43
789.223	20448.6
789.556	20326.12
789.888	20230.3
790.221	20097.42
790.554	20041.83
790.887	20006.58
791.219	19928.39
791.552	19969.97
791.884	19833.02
792.217	19791.89
792.549	19679.81
792.882	19507.38
793.214	19435.97
793.546	19530.88
793.879	19324.56
794.211	19221.74
794.543	19299.25
794.875	19252.02
795.207	19266.71
795.539	19167.96
795.871	19107.17
796.203	18950.79
796.535	18975.87
796.867	18744.69
797.198	18714.86
797.53	18872.15
797.862	18576.56
798.193	18601.87
798.525	18465.83
798.856	18532.27
799.188	18310.35
799.519	18327.07
799.85	18206.4
800.182	18254.99
800.513	18294.31
800.844	18030.81
801.175	18197.59
801.506	18055.9
801.837	17893.87
802.168	17822.91
802.499	17825.17
802.83	17728.9
803.161	17842.34
803.491	17708.33
803.822	17655.91
804.153	17652.74
804.483	17439.41
804.814	17455.01
805.145	17337.27
805.475	17395.12
805.805	17345.86
806.136	17311.06
806.466	17284.84
806.796	17174.11
807.126	17085.07
807.457	17088.01
807.787	17115.13
808.117	16993.1
808.447	16887.56
808.777	16989.03
809.107	16807.11
809.436	16776.38
809.766	16758.98
810.096	16729.38
810.426	16669.27
810.755	16607.12
811.085	16620.23
811.414	16551.53
811.744	16446.9
812.073	16399.22
812.403	16423.85
812.732	16286.9
813.061	16229.28
813.39	16201.48
813.719	16175.72
814.049	16297.3
814.378	16199.22
814.707	16096.85
815.036	16046.68
815.365	15975.72
815.693	15794.94
816.022	15894.14
816.351	15780.47
816.68	15711.55
817.008	15775.73
817.337	15646.47
817.665	15682.17
817.994	15580.48
818.322	15643.08
818.651	15526.47
818.979	15457.77
819.307	15622.06
819.636	15396.3
819.964	15343.2
820.292	15481.95
820.62	15441.27
820.948	15354.05
821.276	15372.8
821.604	15345.46
821.932	15349.3
822.259	15317.66
822.587	15344.78
822.915	15310.66
823.243	15281.05
823.57	15255.06
823.898	15197.89
824.225	15211.68
824.553	15207.38
824.88	15232.47
825.207	15319.7
825.535	15219.13
825.862	15223.65
826.189	15206.03
826.516	15295.97
826.843	15323.31
827.17	15338.9
827.497	15228.85
827.824	15315.85
828.151	15298.91
828.478	15234.5
828.805	15295.29
829.131	15299.58
829.458	15267.27
829.785	15110.66
830.111	15147.72
830.438	15273.14
830.764	15226.82
831.09	15229.08
831.417	15151.79
831.743	15220.94
832.069	15154.5
832.395	15119.02
832.722	15154.73
833.048	15112.02
833.374	15194.73
833.7	15134.84
834.026	15101.17
834.351	15205.8
834.677	15088.97
835.003	15110.66
835.329	15092.13
835.654	15073.6
835.98	15013.04
836.306	14923.55
836.631	14983.66
836.956	15083.54
837.282	14900.27
837.607	14850.56
837.932	14833.83
838.258	14829.77
838.583	14788.86
838.908	14722.65
839.233	14749.77
839.558	14662.76
839.883	14625.25
840.208	14655.76
840.533	14579.15
840.858	14629.09
841.182	14640.84
841.507	14560.17
841.832	14458.48
842.156	14522.43
842.481	14459.38
842.805	14447.4
843.13	14384.58
843.454	14388.2
843.778	14341.19
844.103	14307.75
844.427	14239.72
844.751	14284.02
845.075	14238.82
845.399	14159.95
845.723	14081.08
846.047	14198.37
846.371	13965.16
846.695	14002.67
847.019	13887.64
847.343	13804.71
847.666	13737.82
847.99	13714.09
848.313	13711.6
848.637	13623.47
848.96	13596.58
849.284	13519.07
849.607	13348.22
849.931	13325.4
850.254	13285.4
850.577	13269.81
850.9	13204.5
851.223	13170.15
851.546	13040.66
851.869	13026.2
852.192	13068.68
852.515	12934.9
852.838	12866.88
853.161	12891.06
853.483	12793.21
853.806	12784.4
854.129	12720.67
854.451	12696.49
854.774	12688.35
855.096	12588.47
855.419	12550.05
855.741	12551.86
856.063	12509.83
856.385	12466.44
856.708	12401.35
857.03	12386.89
857.352	12366.1
857.674	12360.45
857.996	12243.39
858.318	12241.36
858.64	12202.94
858.961	12160.23
859.283	12091.08
859.605	12020.8
859.926	12123.62
860.248	12051.99
860.57	12074.81
860.891	11968.15
861.212	11891.99
861.534	11881.59
861.855	11864.65
862.176	11906.68
862.498	11870.3
862.819	11874.36
863.14	11802.05
863.461	11783.07
863.782	11637.53
864.103	11651.09
864.424	11592.34
864.745	11642.28
865.065	11594.82
865.386	11647.48
865.707	11635.05
866.027	11590.53
866.348	11479.57
866.668	11478.44
866.989	11516.41
867.309	11409.97
867.63	11464.66
867.95	11423.75
868.27	11369.52
868.59	11407.71
868.91	11422.85
869.23	11398.67
869.55	11287.26
869.87	11369.74
870.19	11305.56
870.51	11263.31
870.83	11258.33
871.15	11190.54
871.469	11202.29
871.789	11234.15
872.109	11180.82
872.428	11123.65
872.748	11118.68
873.067	11154.61
873.386	11100.37
873.706	11055.18
874.025	11077.1
874.344	11000.26
874.663	11043.88
874.982	10995.29
875.301	11066.47
875.62	10980.83
875.939	11011.11
876.258	10919.59
876.577	10922.75
876.896	10927.27
877.214	10824.45
877.533	10909.42
877.852	10850.89
878.17	10812.47
878.489	10857.44
878.807	10838.23
879.125	10736.99
879.444	10803.2
879.762	10733.83
880.08	10751.23
880.398	10741.06
880.716	10678.24
881.034	10681.4
881.352	10630.78
881.67	10593.04
881.988	10617.45
882.306	10577
882.624	10557.56
882.941	10467.85
883.259	10480.95
883.577	10486.6
883.894	10423.33
884.212	10413.84
884.529	10398.47
884.846	10340.39
885.164	10346.95
885.481	10330.9
885.798	10400.5
886.115	10246.38
886.432	10235.08
886.75	10141.08
887.067	10245.71
887.383	10188.76
887.7	10259.04
888.017	10099.27
888.334	10105.82
888.651	10119.61
888.967	10048.2
889.284	10015.88
889.6	10007.97
889.917	9933.17
890.233	9901.31
890.55	9912.38
890.866	9914.41
891.182	9913.96
891.498	9791.71
891.815	9816.79
892.131	9756.9
892.447	9717.36
892.763	9676
893.079	9657.25
893.395	9727.53
893.71	9673.29
894.026	9611.6
894.342	9549.23
894.657	9502.9
894.973	9535.89
895.289	9488.21
895.604	9513.07
895.92	9382.23
896.235	9379.51
896.55	9424.26
896.865	9335.45
897.181	9291.15
897.496	9291.15
897.811	9316.01
898.126	9241.21
898.441	9192.85
898.756	9169.35
899.071	9146.98
899.386	9179.07
899.7	9014.55
900.015	9022.23
900.33	8947.21
900.644	8947.89
900.959	8936.59
901.273	8878.06
901.588	8833.09
901.902	8792.64
902.216	8782.01
902.531	8770.94
902.845	8706.54
903.159	8699.08
903.473	8654.79
903.787	8609.59
904.101	8579.31
904.415	8608.23
904.729	8514
905.042	8441.01
905.356	8453.21
905.67	8452.76
905.984	8437.39
906.297	8397.62
906.611	8347.9
906.924	8328.69
907.237	8316.49
907.551	8260.67
907.864	8190.62
908.177	8221.58
908.491	8115.37
908.804	8090.73
909.117	8054.58
909.43	8043.73
909.743	7999.89
910.056	8001.24
910.368	7937.29
910.681	7921.25
910.994	7893
911.307	7862.27
911.619	7783.85
911.932	7819.78
912.244	7733.45
912.557	7783.85
912.869	7690.52
913.181	7693.68
913.494	7621.82
913.806	7575.04
914.118	7642.38
914.43	7562.61
914.742	7567.81
915.054	7464.08
915.366	7453.01
915.678	7417.08
915.99	7384.76
916.302	7307.93
916.613	7289.62
916.925	7322.17
917.236	7307.48
917.548	7191.55
917.859	7226.12
918.171	7202.85
918.482	7152.23
918.794	7124.21
919.105	7154.49
919.416	7060.03
919.727	7046.02
920.038	7008.95
920.349	6869.97
920.66	6893.02
920.971	6944.1
921.282	6921.27
921.593	6802.86
921.903	6800.82
922.214	6832.46
922.525	6746.14
922.835	6754.27
923.146	6716.98
923.456	6693.93
923.767	6621.85
924.077	6633.82
924.387	6580.49
924.697	6540.04
925.008	6540.04
925.318	6565.12
925.628	6493.94
925.938	6441.29
926.248	6396.09
926.558	6386.6
926.867	6370.33
927.177	6337.11
927.487	6317.67
927.796	6244.91
928.106	6297.79
928.416	6219.6
928.725	6214.85
929.034	6208.3
929.344	6194.29
929.653	6177.34
929.962	6103.44
930.271	6070.9
930.581	6082.42
930.89	6010.56
931.199	6015.53
931.508	6038.58
931.817	5915.88
932.125	5972.6
932.434	5926.5
932.743	5869.78
933.051	5794.52
933.36	5777.57
933.669	5785.94
933.977	5740.06
934.286	5740.51
934.594	5778.48
934.902	5676.11
935.21	5673.85
935.519	5697.58
935.827	5644.47
936.135	5614.64
936.443	5527.86
936.751	5521.08
937.059	5531.48
937.367	5513.4
937.674	5519.5
937.982	5485.6
938.29	5446.51
938.597	5420.07
938.905	5375.55
939.213	5350.69
939.52	5333.52
939.827	5334.87
940.135	5262.79
940.442	5238.83
940.749	5280.86
941.056	5243.58
941.363	5221.66
941.67	5126.74
941.977	5185.5
942.284	5107.99
942.591	5154.99
942.898	5106.18
943.205	5062.11
943.511	5053.3
943.818	5026.18
944.125	5003.13
944.431	4996.13
944.738	4989.35
945.044	4965.17
945.35	4943.02
945.657	4931.95
945.963	4875.22
946.269	4832.97
946.575	4841.33
946.881	4804.04
947.187	4805.4
947.493	4829.8
947.799	4798.62
948.105	4759.52
948.41	4684.04
948.716	4694.21
949.022	4648.56
949.327	4672.52
949.633	4610.15
949.938	4595.68
950.244	4580.09
950.549	4555.69
950.854	4544.16
951.16	4503.94
951.465	4511.62
951.77	4463.94
952.075	4499.42
952.38	4469.36
952.685	4424.62
952.99	4381.9
953.294	4397.72
953.599	4367.44
953.904	4320.66
954.209	4300.55
954.513	4304.39
954.818	4295.13
955.122	4257.16
955.426	4252.42
955.731	4232.3
956.035	4191.18
956.339	4183.72
956.643	4197.73
956.948	4178.97
957.252	4163.15
957.556	4148.92
957.86	4090.84
958.163	4091.74
958.467	4086.77
958.771	4098.3
959.075	4108.01
959.378	4076.15
959.682	3996.15
959.985	4017.62
960.289	3981.01
960.592	3915.93
960.896	3924.74
961.199	3944.4
961.502	3900.11
961.805	3919.32
962.108	3902.14
962.411	3875.03
962.714	3839.32
963.017	3816.27
963.32	3811.98
963.623	3796.38
963.926	3793.45
964.228	3754.35
964.531	3706.44
964.833	3774.24
965.136	3716.16
965.438	3675.93
965.741	3687.01
966.043	3635.26
966.345	3646.33
966.648	3646.78
966.95	3610.4
967.252	3583.28
967.554	3622.6
967.856	3549.16
968.158	3569.5
968.46	3525.2
968.761	3533.57
969.063	3511.42
969.365	3513
969.666	3468.26
969.968	3421.48
970.269	3443.4
970.571	3445.88
970.872	3432.33
971.174	3359.78
971.475	3361.82
971.776	3374.93
972.077	3331.08
972.378	3353.91
972.679	3340.8
972.98	3344.19
973.281	3304.19
973.582	3296.51
973.883	3246.12
974.183	3236.17
974.484	3256.96
974.785	3238.43
975.085	3230.75
975.386	3199.56
975.686	3160.69
975.986	3136.06
976.287	3165.67
976.587	3128.38
976.887	3163.18
977.187	3115.05
977.487	3122.95
977.787	3088.15
978.087	3038.44
978.387	3062.39
978.687	3017.42
978.987	3058.1
979.286	3016.52
979.586	2994.14
979.885	2971.55
980.185	2958.89
980.484	2980.59
980.784	2917.54
981.083	2908.95
981.382	2905.56
981.682	2907.82
981.981	2887.93
982.28	2848.61
982.579	2862.85
982.878	2876.63
983.177	2830.76
983.475	2840.02
983.774	2796.64
984.073	2794.83
984.372	2826.47
984.67	2769.74
984.969	2777.2
985.267	2792.79
985.566	2726.81
985.864	2713.25
986.162	2714.15
986.461	2700.14
986.759	2707.82
987.057	2660.14
987.355	2703.3
987.653	2661.72
987.951	2649.75
988.249	2635.51
988.547	2663.08
988.844	2607.26
989.142	2583.99
989.44	2556.19
989.737	2597.09
990.035	2576.75
990.332	2543.53
990.63	2532.01
990.927	2520.48
991.224	2551.44
991.521	2539.02
991.819	2480.94
992.116	2505.57
992.413	2447.04
992.71	2444.55
993.006	2468.96
993.303	2415.63
993.6	2438.45
993.897	2419.24
994.193	2401.17
994.49	2388.06
994.787	2382.18
995.083	2399.81
995.379	2365.46
995.676	2330.21
995.972	2342.64
996.268	2326.37
996.565	2303.54
996.861	2296.31
997.157	2306.7
997.453	2251.34
997.749	2288.4
998.044	2257.21
998.34	2245.46
998.636	2210.66
998.932	2237.33
999.227	2213.83
999.523	2216.31
999.818	2178.57
1000.114	2174.05
1000.409	2169.76
1000.704	2161.17
1001	2134.73
1001.295	2106.48
1001.59	2116.43
1001.885	2137.67
1002.18	2100.16
1002.475	2070.1
1002.77	2080.04
1003.065	2054.96
1003.359	2066.49
1003.654	2037.56
1003.949	2034.4
1004.243	2005.92
1004.538	1992.81
1004.832	2004.79
1005.127	2002.08
1005.421	1998.92
1005.715	1947.39
1006.009	1964.79
1006.304	1940.16
1006.598	1923.44
1006.892	1940.61
1007.186	1919.6
1007.48	1878.69
1007.773	1898.58
1008.067	1877.79
1008.361	1859.49
1008.655	1865.13
1008.948	1826.49
1009.242	1835.98
1009.535	1823.1
1009.829	1832.14
1010.122	1808.64
1010.415	1805.7
1010.708	1781.52
1011.001	1767.51
1011.295	1744.23
1011.588	1743.78
1011.881	1756.89
1012.173	1736.78
1012.466	1714.4
1012.759	1684.35
1013.052	1718.25
1013.344	1690.45
1013.637	1706.27
1013.93	1648.64
1014.222	1641.86
1014.514	1667.85
1014.807	1681.41
1015.099	1623.33
1015.391	1653.84
1015.683	1607.06
1015.976	1623.78
1016.268	1591.47
1016.56	1588.31
1016.851	1603.22
1017.143	1599.38
1017.435	1566.84
1017.727	1551.47
1018.018	1507.4
1018.31	1547.63
1018.602	1515.99
1018.893	1526.61
1019.185	1499.72
1019.476	1510.79
1019.767	1475.99
1020.058	1478.03
1020.35	1455.65
1020.641	1465.37
1020.932	1428.54
1021.223	1430.57
1021.514	1426.28
1021.804	1447.97
1022.095	1401.64
1022.386	1416.33
1022.677	1381.98
1022.967	1391.7
1023.258	1383.11
1023.548	1371.81
1023.839	1332.04
1024.129	1353.74
1024.419	1336.56
1024.709	1310.8
1025	1338.82
1025.29	1323
1025.58	1290.69
1025.87	1285.94
1026.16	1277.58
1026.449	1279.84
1026.739	1267.64
1027.029	1269.22
1027.319	1242.1
1027.608	1261.99
1027.898	1224.93
1028.187	1252.72
1028.477	1209.78
1028.766	1198.03
1029.055	1191.25
1029.344	1179.5
1029.634	1187.86
1029.923	1185.6
1030.212	1192.61
1030.501	1176.34
1030.79	1148.77
1031.078	1144.7
1031.367	1146.96
1031.656	1118.94
1031.945	1141.31
1032.233	1123.01
1032.522	1122.33
1032.81	1125.27
1033.099	1108.32
1033.387	1078.94
1033.675	1092.5
1033.963	1101.99
1034.251	1078.71
1034.54	1044.14
1034.828	1077.58
1035.116	1036
1035.403	1033.07
1035.691	1049.34
1035.979	1034.65
1036.267	1012.5
1036.554	1040.75
1036.842	1050.01
1037.129	995.78
1037.417	970.69
1037.704	981.99
1037.992	993.75
1038.279	1002.11
1038.566	963.46
1038.853	963.46
1039.14	963.46
