Data from hue_80_FLMS001491_98.txt Node
Date: Mon Feb 06 15:24:05 GMT 2017
User: dcchb
Spectrometer: FLMS00149
Trigger mode: 0
Integration Time (sec): 2.000000E-2
Scans to average: 10
Electric dark correction enabled: true
Nonlinearity correction enabled: false
Boxcar width: 0
XAxis mode: Wavelengths
Number of Pixels in Spectrum: 2048
>>>>>Begin Spectral Data<<<<<
341.393	-13.59
341.776	-13.59
342.16	-13.59
342.543	-66.24
342.927	-68.5
343.31	-68.73
343.693	-58.78
344.077	-64.66
344.46	-68.73
344.843	-68.95
345.226	-51.1
345.61	-42.96
345.993	-31.67
346.376	-9.07
346.759	30.48
347.142	41.33
347.525	69.12
347.908	62.34
348.291	64.6
348.674	80.65
349.057	116.13
349.44	129.91
349.823	141.89
350.206	176.92
350.588	202.68
350.971	205.84
351.354	239.97
351.737	246.97
352.119	241.1
352.502	261.43
352.884	275.22
353.267	294.88
353.65	299.62
354.032	309.12
354.414	300.75
354.797	313.18
355.179	332.39
355.562	338.27
355.944	324.93
356.326	326.97
356.709	342.79
357.091	321.55
357.473	333.52
357.855	355.44
358.238	337.82
358.62	327.87
359.002	340.75
359.384	351.83
359.766	342.79
360.148	346.18
360.53	333.52
360.912	330.58
361.294	324.71
361.676	305.05
362.057	329.23
362.439	343.47
362.821	344.82
363.203	332.17
363.584	308.44
363.966	311.38
364.348	310.02
364.729	293.75
365.111	334.88
365.493	319.29
365.874	326.97
366.256	339.4
366.637	339.4
367.019	330.13
367.4	313.86
367.781	327.65
368.163	315.44
368.544	353.86
368.925	324.71
369.306	314.54
369.688	321.55
370.069	316.35
370.45	301.43
370.831	316.57
371.212	312.73
371.593	306.18
371.974	304.82
372.355	326.74
372.736	323.58
373.117	331.04
373.498	319.96
373.879	320.19
374.26	317.03
374.641	322.22
375.021	336.91
375.402	316.35
375.783	315.67
376.163	340.75
376.544	337.82
376.925	346.4
377.305	350.47
377.686	334.43
378.066	326.06
378.447	347.31
378.827	350.7
379.208	328.55
379.588	343.47
379.968	331.94
380.349	338.95
380.729	332.17
381.109	355.44
381.489	360.64
381.87	347.08
382.25	342.79
382.63	351.15
383.01	373.3
383.39	346.63
383.77	344.14
384.15	341.88
384.53	345.95
384.91	344.6
385.29	345.73
385.67	374.43
386.049	346.4
386.429	361.09
386.809	354.31
387.189	342.56
387.568	350.92
387.948	351.37
388.328	360.87
388.707	362.45
389.087	362.9
389.466	374.65
389.846	362
390.225	348.44
390.605	398.61
390.984	355.67
391.363	362.9
391.743	386.18
392.122	383.46
392.501	354.99
392.881	389.79
393.26	390.02
393.639	365.39
394.018	366.06
394.397	413.52
394.776	407.64
395.155	395.22
395.534	379.4
395.913	375.33
396.292	394.76
396.671	407.87
397.05	391.15
397.429	406.51
397.808	412.39
398.186	381.88
398.565	417.14
398.944	401.77
399.323	401.77
399.701	398.61
400.08	384.37
400.458	397.02
400.837	407.42
401.215	397.25
401.594	413.29
401.972	381.88
402.351	420.53
402.729	427.53
403.107	410.13
403.486	413.29
403.864	436.34
404.242	427.31
404.62	447.87
404.999	428.44
405.377	420.75
405.755	441.54
406.133	429.34
406.511	435.89
406.889	453.97
407.267	440.41
407.645	437.47
408.023	446.51
408.401	458.04
408.779	446.74
409.156	458.94
409.534	462.11
409.912	469.56
410.29	468.43
410.667	464.82
411.045	473.86
411.422	468.89
411.8	470.92
412.178	482.44
412.555	490.35
412.933	492.39
413.31	508.21
413.687	484.7
414.065	481.77
414.442	488.55
414.819	514.08
415.197	500.98
415.574	522.67
415.951	548.88
416.328	522.67
416.705	505.72
417.082	516.34
417.46	533.07
417.837	526.96
418.214	529
418.591	531.03
418.967	532.84
419.344	523.12
419.721	555.89
420.098	562.89
420.475	564.93
420.852	546.17
421.228	558.83
421.605	562.67
421.982	545.27
422.358	561.54
422.735	579.62
423.111	568.54
423.488	555.21
423.864	590.46
424.241	595.66
424.617	581.2
424.994	600.41
425.37	601.54
425.746	591.59
426.123	604.7
426.499	604.25
426.875	632.95
427.251	625.04
427.627	632.27
428.003	630.92
428.379	631.14
428.756	623.91
429.132	640.63
429.507	647.64
429.883	660.29
430.259	674.76
430.635	637.7
431.011	647.41
431.387	677.69
431.763	711.82
432.138	688.77
432.514	686.96
432.89	676.79
433.265	715.43
433.641	706.39
434.016	732.61
434.392	731.03
434.767	733.51
435.143	723.79
435.518	730.35
435.894	763.79
436.269	755.43
436.644	727.86
437.02	749.1
437.395	759.05
437.77	765.83
438.145	785.71
438.52	776.67
438.895	819.39
439.271	813.28
439.646	827.29
440.021	812.15
440.395	821.42
440.77	811.48
441.145	810.12
441.52	829.33
441.895	828.88
442.27	822.32
442.645	844.47
443.019	844.7
443.394	845.37
443.769	840.4
444.143	863.23
444.518	874.53
444.892	904.58
445.267	871.59
445.641	892.15
446.016	891.25
446.39	892.15
446.764	906.61
447.139	891.93
447.513	914.3
447.887	916.56
448.262	926.95
448.636	938.7
449.01	948.2
449.384	949.33
449.758	963.79
450.132	966.5
450.506	973.96
450.88	954.3
451.254	952.72
451.628	989.78
452.002	971.25
452.376	997.01
452.75	999.04
453.123	1011.92
453.497	1037.01
453.871	1058.02
454.244	1025.26
454.618	1058.25
454.992	1049.89
455.365	1080.85
455.739	1110
456.112	1095.99
456.486	1092.15
456.859	1142.09
457.232	1125.82
457.606	1125.14
457.979	1153.61
458.352	1169.43
458.725	1172.14
459.099	1208.53
459.472	1215.53
459.845	1208.08
460.218	1235.42
460.591	1251.01
460.964	1266.61
461.337	1293.95
461.71	1299.15
462.083	1308.19
462.456	1327.62
462.829	1319.26
463.201	1343.21
463.574	1365.81
463.947	1382.31
464.32	1392.03
464.692	1407.84
465.065	1448.52
465.438	1482.87
465.81	1471.57
466.183	1499.82
466.555	1555.86
466.928	1540.27
467.3	1543.21
467.672	1588.18
468.045	1599.7
468.417	1650.32
468.789	1635.41
469.161	1654.84
469.534	1720.38
469.906	1747.04
470.278	1768.51
470.65	1775.52
471.022	1815.74
471.394	1853.26
471.766	1891.22
472.138	1924.21
472.51	1949.75
472.882	2006.25
473.253	2047.15
473.625	2059.58
473.997	2126.92
474.369	2162.4
474.74	2208.05
475.112	2224.09
475.484	2283.3
475.855	2338.22
476.227	2377.54
476.598	2470.87
476.97	2489.17
477.341	2605.1
477.713	2628.6
478.084	2712.22
478.455	2785.21
478.827	2823.85
479.198	2937.3
479.569	2982.72
479.94	3053.9
480.311	3123.96
480.682	3215.93
481.053	3344.74
481.424	3414.12
481.795	3476.94
482.166	3592.65
482.537	3664.96
482.908	3832.41
483.279	3862.02
483.65	3986.53
484.021	4101.56
484.391	4151.05
484.762	4269.24
485.133	4370.93
485.503	4490.02
485.874	4615.44
486.244	4713.29
486.615	4843.91
486.985	5006.85
487.356	5116.22
487.726	5202.55
488.097	5386.95
488.467	5470.56
488.837	5612.48
489.207	5746.94
489.578	5875.07
489.948	6022.19
490.318	6215.63
490.688	6274.16
491.058	6424.44
491.428	6562.51
491.798	6701.94
492.168	6916.63
492.538	6999.34
492.908	7125.43
493.278	7318.65
493.648	7414.92
494.017	7577.63
494.387	7719.77
494.757	7865.08
495.126	8083.83
495.496	8114.79
495.866	8200.21
496.235	8464.83
496.605	8510.93
496.974	8709.8
497.344	8771.04
497.713	8891.04
498.082	9073.41
498.452	9219.62
498.821	9338.03
499.19	9493.06
499.559	9519.5
499.928	9673.16
500.298	9785.03
500.667	9975.98
501.036	9991.12
501.405	10218.69
501.774	10281.96
502.143	10378.23
502.512	10558.56
502.88	10616.19
503.249	10667.26
503.618	10800.14
503.987	10953.13
504.356	10982.28
504.724	11117.19
505.093	11242.84
505.462	11324.65
505.83	11492.1
506.199	11601.7
506.567	11763.96
506.936	11801.7
507.304	12004.4
507.672	12006.21
508.041	12094.79
508.409	12203.94
508.777	12332.3
509.145	12469.02
509.514	12516.03
509.882	12610.26
510.25	12638.96
510.618	12825.85
510.986	12782.23
511.354	12911.04
511.722	13078.72
512.09	13189
512.458	13238.04
512.826	13318.72
513.193	13460.41
513.561	13476.91
513.929	13581.76
514.297	13717.58
514.664	13809.33
515.032	13780.85
515.4	13968.42
515.767	13960.28
516.135	14134.52
516.502	14092.48
516.869	14258.81
517.237	14302.87
517.604	14399.37
517.972	14333.61
518.339	14509.87
518.706	14636.2
519.073	14671.45
519.44	14718.23
519.808	14865.8
520.175	14790.54
520.542	14982.4
520.909	15092
521.276	15072.8
521.643	15225.11
522.009	15277.76
522.376	15375.84
522.743	15395.5
523.11	15505.78
523.477	15609.5
523.843	15593.23
524.21	15815.38
524.577	15878.2
524.943	15974.47
525.31	16011.98
525.676	16133.78
526.043	16208.59
526.409	16307.34
526.776	16326.32
527.142	16346.89
527.508	16368.81
527.874	16432.53
528.241	16632.98
528.607	16524.96
528.973	16731.06
529.339	16701.23
529.705	16760.21
530.071	16828.91
530.437	16882.47
530.803	16945.51
531.169	17050.14
531.535	16901.22
531.901	16916.82
532.267	17056.25
532.632	17060.09
532.998	17071.39
533.364	17191.38
533.73	17231.84
534.095	17387.54
534.461	17250.82
534.826	17337.37
535.192	17307.99
535.557	17461.21
535.923	17371.72
536.288	17389.35
536.653	17509.79
537.019	17399.97
537.384	17437.71
537.749	17477.25
538.114	17509.34
538.479	17432.73
538.845	17433.19
539.21	17420.3
539.575	17426.63
539.94	17451.04
540.305	17469.12
540.67	17345.73
541.034	17505.05
541.399	17510.02
541.764	17555.67
542.129	17496.69
542.494	17608.32
542.858	17464.6
543.223	17466.63
543.587	17591.15
543.952	17528.1
544.316	17479.74
544.681	17498.95
545.045	17531.49
545.41	17548.44
545.774	17463.47
546.138	17553.86
546.503	17538.04
546.867	17503.92
547.231	17550.7
547.595	17560.87
547.959	17499.85
548.324	17514.54
548.688	17525.84
549.052	17579.4
549.416	17584.82
549.779	17578.94
550.143	17454.2
550.507	17573.07
550.871	17488.55
551.235	17462.34
551.599	17588.21
551.962	17612.39
552.326	17529
552.689	17623.46
553.053	17579.4
553.417	17595.89
553.78	17721.31
554.143	17623.69
554.507	17533.52
554.87	17599.28
555.234	17718.38
555.597	17647.64
555.96	17640.64
556.323	17679.05
556.686	17546.4
557.05	17693.97
557.413	17719.96
557.776	17806.28
558.139	17740.07
558.502	17784.36
558.865	17784.81
559.228	17904.13
559.59	17893.96
559.953	17841.76
560.316	18046.73
560.679	17955.21
561.041	18032.04
561.404	18045.15
561.767	18056.22
562.129	18043.79
562.492	18098.93
562.854	18157.69
563.217	18114.98
563.579	18119.95
563.941	18246.95
564.304	18330.34
564.666	18347.51
565.028	18367.4
565.39	18310.22
565.753	18484.46
566.115	18453.72
566.477	18596.32
566.839	18581.4
567.201	18525.59
567.563	18641.06
567.925	18752.92
568.287	18731.46
568.648	18738.24
569.01	18799.03
569.372	18919.47
569.734	18792.47
570.095	18853.26
570.457	18938.68
570.819	18951.11
571.18	18939.36
571.542	19031.56
571.903	18997.66
572.265	19096.64
572.626	19025.23
572.987	19178
573.349	19124.21
573.71	19114.5
574.071	19183.65
574.432	19272.23
574.794	19367.37
575.155	19358.56
575.516	19242.4
575.877	19235.85
576.238	19366.02
576.599	19370.31
576.96	19333.7
577.32	19448.95
577.681	19476.07
578.042	19440.36
578.403	19473.13
578.763	19493.7
579.124	19417.09
579.485	19601.04
579.845	19511.32
580.206	19466.58
580.566	19610.76
580.927	19464.77
581.287	19611.21
581.648	19530.98
582.008	19610.53
582.368	19436.97
582.728	19603.3
583.089	19580.02
583.449	19480.14
583.809	19602.17
584.169	19527.82
584.529	19525.79
584.889	19648.95
585.249	19528.72
585.609	19564.66
585.969	19570.98
586.329	19479.91
586.688	19401.95
587.048	19467.26
587.408	19406.47
587.768	19521.27
588.127	19444.66
588.487	19501.61
588.846	19598.55
589.206	19407.82
589.565	19324.44
589.925	19488.05
590.284	19426.13
590.643	19365.34
591.003	19468.61
591.362	19558.55
591.721	19432
592.08	19476.3
592.44	19488.27
592.799	19411.21
593.158	19396.52
593.517	19417.31
593.876	19417.99
594.235	19349.52
594.593	19380.25
594.952	19359.69
595.311	19300.93
595.67	19379.35
596.029	19454.83
596.387	19403.98
596.746	19488.27
597.104	19346.13
597.463	19383.87
597.822	19431.1
598.18	19390.42
598.538	19335.28
598.897	19428.61
599.255	19352.68
599.613	19575.28
599.972	19490.98
600.33	19441.95
600.688	19380.25
601.046	19460.48
601.404	19391.55
601.762	19447.14
602.12	19586.35
602.478	19602.17
602.836	19471.55
603.194	19418.44
603.552	19449.86
603.91	19414.83
604.268	19472.91
604.625	19348.62
604.983	19504.77
605.341	19490.76
605.698	19472.68
606.056	19532.57
606.413	19526.92
606.771	19576.18
607.128	19503.41
607.485	19470.65
607.843	19552
608.2	19566.24
608.557	19646.23
608.914	19589.29
609.272	19615.5
609.629	19740.02
609.986	19786.8
610.343	19641.94
610.7	19957.41
611.057	19773.24
611.414	19772.56
611.771	19847.81
612.127	19839.68
612.484	19838.55
612.841	19808.72
613.198	19767.36
613.554	19869.96
613.911	19940.01
614.267	19891.88
614.624	19992.21
614.98	19992.44
615.337	19936.4
615.693	19921.03
616.05	19910.41
616.406	20029.5
616.762	19907.47
617.118	20035.15
617.475	20037.64
617.831	20051.42
618.187	20095.04
618.543	20023.4
618.899	20205.99
619.255	20112.89
619.611	20215.26
619.967	20227.69
620.323	20268.37
620.678	20176.39
621.034	20155.37
621.39	20221.13
621.746	20117.63
622.101	20356.27
622.457	20327.35
622.812	20253.45
623.168	20338.19
623.523	20215.71
623.879	20420.9
624.234	20168.48
624.589	20274.24
624.945	20351.53
625.3	20285.09
625.655	20308.82
626.01	20325.54
626.365	20258.2
626.72	20276.95
627.075	20218.42
627.43	20236.05
627.785	20102.49
628.14	20185.2
628.495	20370.06
628.85	20262.49
629.205	20178.2
629.559	20268.37
629.914	20145.66
630.269	20185.66
630.623	20015.04
630.978	20129.61
631.332	20192.44
631.687	20219.78
632.041	20090.97
632.396	20099.1
632.75	20062.95
633.104	20039.67
633.459	20036.28
633.813	20021.82
634.167	19935.49
634.521	20081.03
634.875	20064.98
635.229	19905.44
635.583	19903.63
635.937	19872.67
636.291	19888.49
636.645	19952.44
636.999	19856.4
637.352	19906.79
637.706	19788.6
638.06	19737.98
638.413	19769.17
638.767	19715.39
639.121	19774.82
639.474	19643.3
639.828	19678.78
640.181	19677.87
640.534	19679.91
640.888	19591.1
641.241	19511.78
641.594	19543.41
641.947	19651.66
642.301	19563.75
642.654	19605.56
643.007	19634.03
643.36	19520.59
643.713	19525.11
644.066	19621.83
644.419	19465.22
644.771	19372.57
645.124	19073.59
645.477	19201.95
645.83	19000.6
646.182	18940.72
646.535	18938.68
646.888	18895.97
647.24	18756.77
647.593	18886.25
647.945	18943.43
648.298	18693.72
648.65	18876.31
649.002	18759.48
649.355	18756.99
649.707	18833.83
650.059	18822.98
650.411	19074.05
650.763	19137.55
651.115	19356.07
651.467	19232.01
651.819	19219.35
652.171	19283.76
652.523	19246.25
652.875	19178.68
653.227	19153.59
653.578	19289.41
653.93	19288.05
654.282	19008.51
654.633	19116.08
654.985	19207.15
655.337	19234.72
655.688	19249.18
656.039	19270.2
656.391	19150.2
656.742	19171.9
657.094	19145.23
657.445	19204.89
657.796	19137.32
658.147	19141.39
658.498	19105.91
658.849	19214.16
659.2	19258
659.551	19156.53
659.902	19222.97
660.253	19164.44
660.604	19227.04
660.955	19182.74
661.306	19237.66
661.656	19163.76
662.007	19218.9
662.358	19175.74
662.708	19292.12
663.059	19203.76
663.409	19107.49
663.76	19221.84
664.11	19191.33
664.461	19300.71
664.811	19226.81
665.161	19326.92
665.511	19203.31
665.862	19296.87
666.212	19296.19
666.562	19370.31
666.912	19184.1
667.262	19232.46
667.612	19233.14
667.962	19239.69
668.312	19261.39
668.662	19186.81
669.011	19287.15
669.361	19227.94
669.711	19209.41
670.06	19191.33
670.41	19152.46
670.76	19201.95
671.109	19162.86
671.459	19186.13
671.808	19139.58
672.157	19161.73
672.507	19118.11
672.856	19039.02
673.205	19143.2
673.554	19011.9
673.904	19093.26
674.253	19149.07
674.602	19145.01
674.951	18862.3
675.3	18760.83
675.649	18933.26
675.998	19042.18
676.346	18977.78
676.695	18980.72
677.044	18804.45
677.393	18907.95
677.741	18871.34
678.09	18853.71
678.438	18833.15
678.787	18923.77
679.135	18858.46
679.484	18725.36
679.832	18792.92
680.181	18620.73
680.529	18720.16
680.877	18729.87
681.225	18663.44
681.573	18772.36
681.922	18524.68
682.27	18458.47
682.618	18540.5
682.966	18467.73
683.314	18477.9
683.661	18396.32
684.009	18318.59
684.357	18372.37
684.705	18332.6
685.053	18378.92
685.4	18280.62
685.748	18169.89
686.095	18179.61
686.443	18101.64
686.79	18015.54
687.138	18128.08
687.485	18059.38
687.832	17987.75
688.18	17997.01
688.527	17825.72
688.874	17922.44
689.221	17835.21
689.568	17795.66
689.915	17746.62
690.262	17736.91
690.609	17628.89
690.956	17510.47
691.303	17671.82
691.65	17412.85
691.997	17539.62
692.344	17354.09
692.69	17332.17
693.037	17252.85
693.383	17237.48
693.73	17291.27
694.077	17101.89
694.423	17086.3
694.769	17096.02
695.116	16968.34
695.462	16889.25
695.808	16899.87
696.155	16889.92
696.501	16682.24
696.847	16830.26
697.193	16581
697.539	16686.54
697.885	16442.25
698.231	16494.45
698.577	16415.13
698.923	16340.79
699.269	16200.22
699.614	16210.39
699.96	16163.16
700.306	16145.31
700.651	16037.74
700.997	16023.05
701.342	15983.96
701.688	15935.82
702.033	15905.32
702.379	15840.91
702.724	15675.72
703.069	15811.08
703.415	15643.4
703.76	15711.88
704.105	15575.16
704.45	15563.4
704.795	15423.97
705.14	15414.93
705.485	15423.07
705.83	15331.77
706.175	15322.28
706.52	15309.17
706.865	15209.06
707.209	15239.8
707.554	15133.13
707.899	15189.4
708.243	15048.62
708.588	15129.52
708.932	14909.86
709.277	14921.84
709.621	14866.25
709.966	14798
710.31	14893.82
710.654	14693.14
710.998	14724.56
711.342	14734.95
711.687	14578.12
712.031	14617.89
712.375	14582.64
712.719	14643.43
713.063	14544.9
713.407	14547.39
713.75	14435.75
714.094	14449.31
714.438	14362.76
714.782	14375.41
715.125	14249.31
715.469	14382.64
715.812	14261.74
716.156	14215.19
716.499	14191.91
716.843	14220.39
717.186	14121.86
717.53	14252.03
717.873	14173.61
718.216	14101.75
718.559	14012.94
718.902	14049.09
719.246	14079.83
719.589	14066.95
719.932	13972.94
720.275	13927.06
720.617	13892.71
720.96	13900.62
721.303	13873.28
721.646	13837.57
721.989	13842.55
722.331	13862.88
722.674	13822.66
723.016	13793.06
723.359	13882.77
723.701	13818.59
724.044	13709.89
724.386	13665.83
724.729	13808.65
725.071	13743.34
725.413	13730.91
725.755	13724.13
726.097	13687.75
726.439	13614.76
726.782	13649.56
727.124	13668.99
727.465	13513.51
727.807	13568.88
728.149	13533.4
728.491	13605.49
728.833	13568.88
729.175	13516.45
729.516	13509.45
729.858	13513.74
730.199	13576.56
730.541	13462.44
730.882	13428.32
731.224	13537.24
731.565	13484.36
731.906	13428.77
732.248	13463.57
732.589	13473.97
732.93	13321.66
733.271	13494.76
733.612	13442.78
733.953	13487.53
734.294	13473.97
734.635	13346.74
734.976	13463.57
735.317	13384.7
735.658	13415.21
735.999	13472.39
736.339	13387.64
736.68	13435.78
737.021	13381.99
737.361	13296.35
737.702	13421.99
738.042	13309.45
738.383	13384.03
738.723	13461.76
739.063	13386.96
739.404	13469.45
739.744	13332.5
740.084	13342.9
740.424	13468.09
740.764	13393.52
741.104	13434.19
741.444	13359.62
741.784	13391.71
742.124	13544.7
742.464	13438.26
742.804	13541.99
743.143	13502.22
743.483	13572.72
743.823	13519.39
744.162	13499.96
744.502	13610.91
744.841	13596.45
745.181	13702.89
745.52	13612.5
745.86	13701.31
746.199	13729.78
746.538	13738.14
746.877	13811.13
747.216	13802.55
747.556	13884.13
747.895	13944.01
748.234	13962.09
748.573	14030.79
748.911	14037.57
749.25	14097.23
749.589	14190.56
749.928	14176.32
750.267	14261.07
750.605	14286.15
750.944	14389.88
751.283	14352.14
751.621	14512.58
751.96	14440.04
752.298	14689.98
752.636	14785.57
752.975	14814.72
753.313	14870.99
753.651	15042.97
753.989	15054.04
754.327	15166.58
754.666	15226.24
755.004	15302.62
755.342	15451.77
755.679	15576.06
756.017	15541.03
756.355	15702.16
756.693	15783.51
757.031	15964.07
757.368	16020.34
757.706	16110.96
758.044	16243.84
758.381	16385.3
758.719	16396.15
759.056	16542.81
759.394	16743.49
759.731	16684.5
760.068	16835.69
760.405	16839.75
760.743	16966.53
761.08	17205.17
761.417	17216.92
761.754	17272.74
762.091	17507.53
762.428	17512.73
762.765	17602.67
763.102	17723.35
763.438	17728.09
763.775	17893.74
764.112	17932.16
764.449	18159.49
764.785	18137.8
765.122	18175.99
765.458	18191.58
765.795	18343.67
766.131	18492.14
766.467	18544.34
766.804	18495.53
767.14	18633.61
767.476	18760.61
767.812	18695.53
768.148	18824.34
768.485	18749.99
768.821	18767.61
769.157	18949.76
769.492	18952.69
769.828	18888.29
770.164	18886.25
770.5	18980.04
770.836	19015.29
771.171	18996.08
771.507	19136.64
771.842	18998.57
772.178	19077.89
772.513	19121.5
772.849	19072.92
773.184	19170.77
773.519	19151.33
773.855	19143.2
774.19	19203.53
774.525	19101.39
774.86	19165.8
775.195	19263.87
775.53	19202.18
775.865	19051.45
776.2	18989.53
776.535	19013.94
776.87	19110.2
777.205	18916.54
777.539	18951.11
777.874	19087.61
778.209	18915.63
778.543	18893.94
778.878	18827.73
779.212	18941.85
779.547	18839.7
779.881	18869.76
780.215	18756.77
780.55	18775.3
780.884	18781.85
781.218	18632.48
781.552	18674.51
781.886	18654.62
782.22	18625.47
782.554	18567.39
782.888	18424.35
783.222	18484.91
783.556	18305.93
783.889	18353.61
784.223	18275.65
784.557	18275.88
784.89	18461.41
785.224	18295.08
785.557	18093.51
785.891	18125.82
786.224	18178.02
786.558	18148.2
786.891	18110.23
787.224	17914.08
787.557	18006.5
787.891	17931.03
788.224	17783.23
788.557	17858.03
788.89	17853.97
789.223	17795.44
789.556	17579.4
789.888	17649.23
790.221	17621.43
790.554	17535.33
790.887	17526.52
791.219	17365.62
791.552	17375.33
791.884	17309.12
792.217	17184.38
792.549	17145.74
792.882	17122.91
793.214	17130.59
793.546	17200.42
793.879	17078.39
794.211	17018.06
794.543	16961.79
794.875	16868
795.207	16992.29
795.539	16878.85
795.871	16876.14
796.203	16734.67
796.535	16593.89
796.867	16503.27
797.198	16526.99
797.53	16612.87
797.862	16414.23
798.193	16444.96
798.525	16328.13
798.856	16373.33
799.188	16164.07
799.519	16152.32
799.85	16068.7
800.182	16151.41
800.513	16106.67
800.844	15996.84
801.175	15882.27
801.506	15985.09
801.837	15909.16
802.168	15946.9
802.499	15846.79
802.83	15801.36
803.161	15595.95
803.491	15737.86
803.822	15701.48
804.153	15628.94
804.483	15535.16
804.814	15458.55
805.145	15436.4
805.475	15499.9
805.805	15376.74
806.136	15424.42
806.466	15489.96
806.796	15275.95
807.126	15166.58
807.457	15186.01
807.787	15028.73
808.117	15153.02
808.447	14998.67
808.777	15061.27
809.107	15085.68
809.436	15015.62
809.766	14927.04
810.096	14967.49
810.426	14898.79
810.755	14888.17
811.085	14880.94
811.414	14896.3
811.744	14659.7
812.073	14715.29
812.403	14713.71
812.732	14649.08
813.061	14668.51
813.39	14535.41
813.719	14522.98
814.049	14599.36
814.378	14518.23
814.707	14472.13
815.036	14438.91
815.365	14370.67
815.693	14319.37
816.022	14281.63
816.351	14232.82
816.68	14073.95
817.008	14184.46
817.337	14092.48
817.665	13973.62
817.994	14056.55
818.322	14051.35
818.651	13986.27
818.979	13871.02
819.307	14053.61
819.636	13937.68
819.964	13777.01
820.292	13913.5
820.62	13900.4
820.948	13823.34
821.276	13880.28
821.604	13873.05
821.932	13833.96
822.259	13802.09
822.587	13844.35
822.915	13830.12
823.243	13814.75
823.57	13732.94
823.898	13799.83
824.225	13794.86
824.553	13829.44
824.88	13787.18
825.207	13836.44
825.535	13801.19
825.862	13887.52
826.189	13825.37
826.516	13792.6
826.843	13919.83
827.17	13895.65
827.497	13789.89
827.824	13751.7
828.151	13869.66
828.478	13810.46
828.805	13866.5
829.131	13777.01
829.458	13761.87
829.785	13715.09
830.111	13692.04
830.438	13829.21
830.764	13794.19
831.09	13798.93
831.417	13727.07
831.743	13743.57
832.069	13757.35
832.395	13652.04
832.722	13749.89
833.048	13690.01
833.374	13723.68
833.7	13632.16
834.026	13598.48
834.351	13720.97
834.677	13653.4
835.003	13685.04
835.329	13680.29
835.654	13617.01
835.98	13530.46
836.306	13564.81
836.631	13520.29
836.956	13608.2
837.282	13593.74
837.607	13532.27
837.932	13559.39
838.258	13466.06
838.583	13456.34
838.908	13322.11
839.233	13378.6
839.558	13403.46
839.883	13335.67
840.208	13309.45
840.533	13334.54
840.858	13318.72
841.182	13328.66
841.507	13262.9
841.832	13150.81
842.156	13076.92
842.481	13167.08
842.805	13132.06
843.13	13062.23
843.454	13096.8
843.778	12993.08
844.103	12978.61
844.427	12939.74
844.751	13062.91
845.075	12939.29
845.399	12961.21
845.723	12807.32
846.047	12879.18
846.371	12703.14
846.695	12700.65
847.019	12551.51
847.343	12546.53
847.666	12527.33
847.99	12473.09
848.313	12488.46
848.637	12378.63
848.96	12334.34
849.284	12278.52
849.607	12185.87
849.931	12156.26
850.254	12082.59
850.577	11998.53
850.9	11945.65
851.223	11983.39
851.546	11900.45
851.869	11777.06
852.192	11834.69
852.515	11717.86
852.838	11657.74
853.161	11743.39
853.483	11605.54
853.806	11610.06
854.129	11568.93
854.451	11547.46
854.774	11453.46
855.096	11457.98
855.419	11407.81
855.741	11337.53
856.063	11362.84
856.385	11309.73
856.708	11288.94
857.03	11234.48
857.352	11248.26
857.674	11223.86
857.996	11178.89
858.318	11145.67
858.64	11191.54
858.961	11137.31
859.283	11054.14
859.605	10928.5
859.926	10993.13
860.248	10939.8
860.57	10887.14
860.891	10876.3
861.212	10933.02
861.534	10849.63
861.855	10788.16
862.176	10752.91
862.498	10768.05
862.819	10770.08
863.14	10722.63
863.461	10736.86
863.782	10685.11
864.103	10632.01
864.424	10618
864.745	10610.77
865.065	10540.26
865.386	10587.26
865.707	10538.68
866.027	10477.89
866.348	10538.68
866.668	10458.45
866.989	10450.32
867.309	10425.91
867.63	10444.22
867.95	10394.5
868.27	10355.41
868.59	10396.53
868.91	10282.64
869.23	10368.29
869.55	10261.62
869.87	10342.3
870.19	10306.59
870.51	10342.75
870.83	10264.56
871.15	10285.13
871.469	10227.95
871.789	10268.85
872.109	10233.83
872.428	10179.14
872.748	10224.56
873.067	10241.51
873.386	10112.47
873.706	10222.75
874.025	10096.43
874.344	10031.12
874.663	10009.88
874.982	10032.02
875.301	10048.97
875.62	10005.81
875.939	9985.47
876.258	10032.93
876.577	9954.29
876.896	9956.32
877.214	9872.48
877.533	9933.95
877.852	9839.26
878.17	9925.81
878.489	9844.23
878.807	9889.2
879.125	9804.69
879.444	9814.85
879.762	9749.77
880.08	9824.8
880.398	9711.13
880.716	9829.32
881.034	9757.46
881.352	9795.42
881.67	9646.27
881.988	9690.79
882.306	9676.33
882.624	9677.91
882.941	9640.85
883.259	9548.42
883.577	9517.46
883.894	9505.48
884.212	9520.17
884.529	9485.82
884.846	9450.12
885.164	9452.38
885.481	9453.51
885.798	9471.59
886.115	9397.69
886.432	9397.69
886.75	9319.73
887.067	9327.86
887.383	9383
887.7	9337.13
888.017	9291.48
888.334	9260.97
888.651	9223.68
888.967	9232.95
889.284	9102.33
889.6	9094.42
889.917	9073.41
890.233	9057.81
890.55	9074.54
890.866	9092.84
891.182	9076.12
891.498	9044.25
891.815	8986.63
892.131	8900.08
892.447	8862.34
892.763	8804.03
893.079	8865.73
893.395	8799.51
893.71	8769.91
894.026	8739.85
894.342	8727.65
894.657	8729.46
894.973	8715.9
895.289	8676.35
895.604	8638.84
895.92	8547.32
896.235	8551.16
896.55	8580.54
896.865	8506.87
897.181	8426.19
897.496	8483.82
897.811	8460.31
898.126	8379.19
898.441	8367.21
898.756	8320.2
899.071	8330.83
899.386	8324.5
899.7	8237.5
900.015	8162.92
900.33	8209.02
900.644	8099.87
900.959	8131.96
901.273	8084.73
901.588	8034.34
901.902	8016.48
902.216	8012.64
902.531	8017.61
902.845	7995.69
903.159	7951.85
903.473	7898.97
903.787	7825.98
904.101	7779.43
904.415	7807.68
904.729	7831.18
905.042	7731.29
905.356	7728.58
905.67	7677.51
905.984	7673.89
906.297	7586.44
906.611	7629.15
906.924	7572.88
907.237	7555.25
907.551	7548.02
907.864	7529.04
908.177	7489.49
908.491	7483.62
908.804	7450.4
909.117	7372.66
909.43	7334.47
909.743	7309.61
910.056	7251.53
910.368	7200.46
910.681	7199.56
910.994	7169.27
911.307	7188.94
911.619	7127.24
911.932	7156.62
912.244	7021.26
912.557	7124.3
912.869	7014.48
913.181	6977.64
913.494	6962.05
913.806	6956.85
914.118	6920.02
914.43	6899
914.742	6872.56
915.054	6797.31
915.366	6792.34
915.678	6750.98
915.99	6766.12
916.302	6698.1
916.613	6666.24
916.925	6666.01
917.236	6673.92
917.548	6644.54
917.859	6579.69
918.171	6554.15
918.482	6551.21
918.794	6508.73
919.105	6444.1
919.416	6439.8
919.727	6434.83
920.038	6416.3
920.349	6326.59
920.66	6309.64
920.971	6346.25
921.282	6320.94
921.593	6248.17
921.903	6181.28
922.214	6176.53
922.525	6195.06
922.835	6197.32
923.146	6123.88
923.456	6101.28
923.767	6026.71
924.077	6039.81
924.387	6071.68
924.697	5999.36
925.008	5974.96
925.318	5980.15
925.628	5957.33
925.938	5953.04
926.248	5815.19
926.558	5864.9
926.867	5818.35
927.177	5797.56
927.487	5746.26
927.796	5706.94
928.106	5722.08
928.416	5702.87
928.725	5701.06
929.034	5677.34
929.344	5699.93
929.653	5646.15
929.962	5615.87
930.271	5611.8
930.581	5574.74
930.89	5486.83
931.199	5468.98
931.508	5480.73
931.817	5454.07
932.125	5412.94
932.434	5446.16
932.743	5360.51
933.051	5338.14
933.36	5352.37
933.669	5317.8
933.977	5249.55
934.286	5326.61
934.594	5215.88
934.902	5231.47
935.21	5196.67
935.519	5174.07
935.827	5168.65
936.135	5157.58
936.443	5113.74
936.751	5054.75
937.059	5079.16
937.367	5041.2
937.674	5057.69
937.982	5015.89
938.29	5020.86
938.597	5008.88
938.905	4916
939.213	4906.74
939.52	4935.44
939.827	4934.31
940.135	4871.03
940.442	4822.22
940.749	4842.78
941.056	4829.22
941.363	4777.47
941.67	4799.39
941.977	4763.01
942.284	4744.48
942.591	4704.48
942.898	4686.63
943.205	4652.73
943.511	4611.83
943.818	4626.52
944.125	4613.41
944.431	4602.11
944.738	4572.96
945.044	4562.11
945.35	4531.83
945.657	4483.47
945.963	4505.84
946.269	4454.32
946.575	4456.58
946.881	4384.94
947.187	4400.53
947.493	4393.75
947.799	4340.87
948.105	4367.31
948.41	4342
948.716	4314.66
949.022	4301.33
949.327	4306.75
949.633	4231.72
949.938	4253.42
950.244	4225.85
950.549	4177.49
950.854	4158.96
951.16	4144.27
951.465	4093.65
951.77	4126.19
952.075	4128
952.38	4102.01
952.685	4108.56
952.99	4080.54
953.294	4076.93
953.599	4010.49
953.904	4005.74
954.209	4004.39
954.513	3971.17
954.818	3975.23
955.122	3936.82
955.426	3913.99
955.731	3937.95
956.035	3861.57
956.339	3908.8
956.643	3902.24
956.948	3855.24
957.252	3878.29
957.556	3821.79
957.86	3800.32
958.163	3812.53
958.467	3786.76
958.771	3764.84
959.075	3742.92
959.378	3724.17
959.682	3705.64
959.985	3687.78
960.289	3681.68
960.592	3633.55
960.896	3639.42
961.199	3616.6
961.502	3632.19
961.805	3641.23
962.108	3601.46
962.411	3522.37
962.714	3534.57
963.017	3535.47
963.32	3551.97
963.623	3516.72
963.926	3468.58
964.228	3462.93
964.531	3478.07
964.833	3488.47
965.136	3412.09
965.438	3447.34
965.741	3386.1
966.043	3443.27
966.345	3349.04
966.648	3363.95
966.95	3365.76
967.252	3311.3
967.554	3322.37
967.856	3316.95
968.158	3264.07
968.46	3258.19
968.761	3240.79
969.063	3241.47
969.365	3225.2
969.666	3252.77
969.968	3182.49
970.269	3187.01
970.571	3170.96
970.872	3130.28
971.174	3153.56
971.475	3133.45
971.776	3110.62
972.077	3069.72
972.378	3107.01
972.679	3080.12
972.98	3107.91
973.281	3038.08
973.582	3051.42
973.883	3048.25
974.183	2985.66
974.484	3001.93
974.785	2995.83
975.085	2976.62
975.386	2969.61
975.686	2955.83
975.986	2921.48
976.287	2935.26
976.587	2912.21
976.887	2878.31
977.187	2883.06
977.487	2890.52
977.787	2837.41
978.087	2862.72
978.387	2827.24
978.687	2849.39
978.987	2812.33
979.286	2772.1
979.586	2778.88
979.885	2773.01
980.185	2752.67
980.484	2728.49
980.784	2728.94
981.083	2704.76
981.382	2693.23
981.682	2733.91
981.981	2738.2
982.28	2672.22
982.579	2684.19
982.878	2656.17
983.177	2633.35
983.475	2639.68
983.774	2619.79
984.073	2606.91
984.372	2607.13
984.67	2601.94
984.969	2582.5
985.267	2550.19
985.566	2549.74
985.864	2539.57
986.162	2537.31
986.461	2502.96
986.759	2494.37
987.057	2509.51
987.355	2475.16
987.653	2459.57
987.951	2457.76
988.249	2451.43
988.547	2464.99
988.844	2433.58
989.142	2394.03
989.44	2392.45
989.737	2410.76
990.035	2391.1
990.332	2372.56
990.63	2358.1
990.927	2352.45
991.224	2340.93
991.521	2335.73
991.819	2297.31
992.116	2328.72
992.413	2273.36
992.71	2288.05
993.006	2309.29
993.303	2267.03
993.6	2278.1
993.897	2290.31
994.193	2252.57
994.49	2231.1
994.787	2221.61
995.083	2229.52
995.379	2195.85
995.676	2180.25
995.972	2170.99
996.268	2158.79
996.565	2126.24
996.861	2168.5
997.157	2116.75
997.453	2124.44
997.749	2085.79
998.044	2109.52
998.34	2085.34
998.636	2104.78
998.932	2046.92
999.227	2059.8
999.523	2060.93
999.818	2022.52
1000.114	2034.72
1000.409	2035.62
1000.704	2009.41
1001	1996.3
1001.295	1994.04
1001.59	1963.76
1001.885	1948.4
1002.18	1948.17
1002.475	1941.84
1002.77	1920.37
1003.065	1912.01
1003.359	1898.45
1003.654	1886.02
1003.949	1911.33
1004.243	1890.54
1004.538	1887.83
1004.832	1851.9
1005.127	1853.48
1005.421	1852.35
1005.715	1836.99
1006.009	1861.17
1006.304	1786.59
1006.598	1780.49
1006.892	1802.86
1007.186	1769.87
1007.48	1773.94
1007.773	1726.03
1008.067	1746.37
1008.361	1740.49
1008.655	1717.21
1008.948	1706.82
1009.242	1731
1009.535	1704.79
1009.829	1718.34
1010.122	1674.05
1010.415	1676.54
1010.708	1683.77
1011.001	1649.19
1011.295	1620.49
1011.588	1625.69
1011.881	1630.89
1012.173	1624.79
1012.466	1618.91
1012.759	1615.97
1013.052	1583.21
1013.344	1599.93
1013.637	1593.6
1013.93	1595.18
1014.222	1557.9
1014.514	1550.21
1014.807	1531.23
1015.099	1553.15
1015.391	1524.23
1015.683	1519.93
1015.976	1516.54
1016.268	1508.41
1016.56	1466.6
1016.851	1498.01
1017.143	1476.32
1017.435	1484.68
1017.727	1456.66
1018.018	1426.6
1018.31	1431.57
1018.602	1432.48
1018.893	1420.95
1019.185	1408.3
1019.476	1415.53
1019.767	1411.91
1020.058	1367.85
1020.35	1405.81
1020.641	1393.83
1020.932	1355.87
1021.223	1369.2
1021.514	1351.12
1021.804	1322.2
1022.095	1315.19
1022.386	1325.13
1022.677	1322.42
1022.967	1324.23
1023.258	1284.91
1023.548	1248.75
1023.839	1315.64
1024.129	1276.1
1024.419	1256.44
1024.709	1228.64
1025	1248.07
1025.29	1244.91
1025.58	1219.6
1025.87	1226.83
1026.16	1204.91
1026.449	1202.88
1026.739	1199.26
1027.029	1141.18
1027.319	1199.26
1027.608	1175.99
1027.898	1171.24
1028.187	1144.57
1028.477	1141.41
1028.766	1142.77
1029.055	1114.29
1029.344	1137.57
1029.634	1091.92
1029.923	1133.5
1030.212	1119.49
1030.501	1125.59
1030.79	1082.43
1031.078	1075.42
1031.367	1090.56
1031.656	1073.16
1031.945	1053.96
1032.233	1064.8
1032.522	1060.96
1032.81	1052.15
1033.099	1046.27
1033.387	1041.75
1033.675	1056.67
1033.963	1013.96
1034.251	1021.64
1034.54	1011.02
1034.828	966.05
1035.116	986.61
1035.403	991.13
1035.691	1020.28
1035.979	966.5
1036.267	947.07
1036.554	949.1
1036.842	948.42
1037.129	946.39
1037.417	930.79
1037.704	949.78
1037.992	930.79
1038.279	905.94
1038.566	941.42
1038.853	941.42
1039.14	941.42
