Data from hue_22_FLMS001491_00019.txt Node
Date: Tue Feb 07 17:09:41 GMT 2017
User: dcchb
Spectrometer: FLMS00149
Trigger mode: 0
Integration Time (sec): 2.000000E-2
Scans to average: 10
Electric dark correction enabled: true
Nonlinearity correction enabled: false
Boxcar width: 0
XAxis mode: Wavelengths
Number of Pixels in Spectrum: 2048
>>>>>Begin Spectral Data<<<<<
341.393	0.41
341.776	0.41
342.16	0.41
342.543	-80.49
342.927	-52.7
343.31	-74.84
343.693	-58.8
344.077	-88.4
344.46	-32.36
344.843	-73.03
345.226	-47.5
345.61	-35.07
345.993	-39.36
346.376	3.35
346.759	13.74
347.142	40.41
347.525	40.86
347.908	55.78
348.291	82.89
348.674	79.05
349.057	133.29
349.44	123.34
349.823	146.62
350.206	152.72
350.588	192.72
350.971	212.61
351.354	231.59
351.737	247.86
352.119	265.49
352.502	258.26
352.884	266.84
353.267	291.48
353.65	298.25
354.032	274.98
354.414	310.91
354.797	320.85
355.179	324.24
355.562	331.25
355.944	333.73
356.326	345.03
356.709	345.03
357.091	335.77
357.473	360.63
357.855	357.01
358.238	356.56
358.62	356.33
359.002	355.2
359.384	343.68
359.766	358.37
360.148	355.88
360.53	348.2
360.912	342.77
361.294	335.09
361.676	345.26
362.057	335.32
362.439	335.99
362.821	337.35
363.203	328.76
363.584	324.24
363.966	332.38
364.348	331.25
364.729	342.32
365.111	313.62
365.493	328.08
365.874	306.39
366.256	336.22
366.637	330.12
367.019	306.39
367.4	312.49
367.781	310.46
368.163	319.05
368.544	332.15
368.925	327.86
369.306	316.33
369.688	318.37
370.069	305.03
370.45	331.7
370.831	312.94
371.212	309.1
371.593	311.36
371.974	318.82
372.355	317.01
372.736	332.15
373.117	328.31
373.498	320.85
373.879	309.33
374.26	320.85
374.641	319.27
375.021	310.46
375.402	311.59
375.783	334.86
376.163	333.51
376.544	352.26
376.925	340.74
377.305	322.66
377.686	343.23
378.066	333.51
378.447	329.89
378.827	330.12
379.208	348.2
379.588	359.5
379.968	346.84
380.349	330.12
380.729	349.78
381.109	364.92
381.489	356.78
381.87	315.88
382.25	328.99
382.63	334.41
383.01	328.99
383.39	351.13
383.77	366.95
384.15	344.36
384.53	360.4
384.91	367.63
385.29	344.58
385.67	354.07
386.049	354.98
386.429	362.66
386.809	350
387.189	363.56
387.568	370.57
387.948	383.68
388.328	365.82
388.707	364.02
389.087	379.16
389.466	380.29
389.846	378.48
390.225	374.86
390.605	386.84
390.984	376.44
391.363	371.25
391.743	372.15
392.122	372.15
392.501	378.93
392.881	378.25
393.26	379.16
393.639	382.32
394.018	374.86
394.397	376.22
394.776	400.63
395.155	398.37
395.534	414.18
395.913	388.2
396.292	400.4
396.671	387.52
397.05	399.04
397.429	414.18
397.808	408.76
398.186	407.86
398.565	394.52
398.944	399.5
399.323	424.35
399.701	404.69
400.08	407.18
400.458	404.01
400.837	402.88
401.215	436.56
401.594	436.56
401.972	420.74
402.351	416.22
402.729	428.42
403.107	430.68
403.486	433.62
403.864	446.27
404.242	431.58
404.62	444.69
404.999	449.44
405.377	432.71
405.755	429.78
406.133	431.36
406.511	451.47
406.889	445.14
407.267	441.53
407.645	456.89
408.023	446.05
408.401	420.51
408.779	463.9
409.156	482.43
409.534	452.15
409.912	469.32
410.29	466.84
410.667	467.06
411.045	461.64
411.422	479.27
411.8	503.45
412.178	517.46
412.555	476.1
412.933	491.7
413.31	489.21
413.687	506.61
414.065	506.38
414.442	495.54
414.819	531.47
415.197	522.2
415.574	525.14
415.951	525.37
416.328	502.77
416.705	521.98
417.082	506.61
417.46	527.4
417.837	530.34
418.214	508.64
418.591	528.76
418.967	550.23
419.344	538.93
419.721	549.55
420.098	551.36
420.475	570.79
420.852	566.95
421.228	565.14
421.605	557.23
421.982	554.97
422.358	578.02
422.735	559.72
423.111	563.33
423.488	570.56
423.864	573.95
424.241	579.38
424.617	595.87
424.994	568.3
425.37	599.72
425.746	577.57
426.123	615.53
426.499	600.62
426.875	606.72
427.251	617.57
427.627	632.48
428.003	618.47
428.379	625.03
428.756	644.01
429.132	636.33
429.507	638.13
429.883	665.93
430.259	670.22
430.635	654.4
431.011	653.5
431.387	650.34
431.763	686.04
432.138	701.41
432.514	708.19
432.89	675.42
433.265	697.34
433.641	698.02
434.016	709.09
434.392	704.12
434.767	729.2
435.143	694.63
435.518	735.76
435.894	748.86
436.269	749.54
436.644	752.03
437.02	760.16
437.395	759.71
437.77	758.13
438.145	775.98
438.52	776.21
438.895	812.37
439.271	779.15
439.646	825.02
440.021	822.31
440.395	796.09
440.77	812.82
441.145	789.09
441.52	840.39
441.895	836.55
442.27	849.65
442.645	825.47
443.019	844
443.394	817.34
443.769	846.26
444.143	839.71
444.518	852.82
444.892	886.94
445.267	846.26
445.641	865.47
446.016	895.3
446.39	875.19
446.764	906.6
447.139	879.26
447.513	900.5
447.887	882.87
448.262	912.25
448.636	914.74
449.01	891.46
449.384	933.27
449.758	927.62
450.132	934.62
450.506	938.92
450.88	952.02
451.254	940.5
451.628	948.18
452.002	971.01
452.376	990.67
452.75	977.56
453.123	996.32
453.497	1011.46
453.871	1022.53
454.244	1020.5
454.618	1006.71
454.992	1051.46
455.365	1045.35
455.739	1053.72
456.112	1063.43
456.486	1078.57
456.859	1098.23
457.232	1064.11
457.606	1116.76
457.979	1119.48
458.352	1142.98
458.725	1147.05
459.099	1144.11
459.472	1149.98
459.845	1187.72
460.218	1182.53
460.591	1208.29
460.964	1206.03
461.337	1219.13
461.71	1222.3
462.083	1255.97
462.456	1261.85
462.829	1262.75
463.201	1293.26
463.574	1297.78
463.947	1315.4
464.32	1343.2
464.692	1340.49
465.065	1368.06
465.438	1363.54
465.81	1392.01
466.183	1398.11
466.555	1430.88
466.928	1416.64
467.3	1451.67
467.672	1457.55
468.045	1497.09
468.417	1500.71
468.789	1495.29
469.161	1514.95
469.534	1541.84
469.906	1558.11
470.278	1581.38
470.65	1612.57
471.022	1626.58
471.394	1690.31
471.766	1654.6
472.138	1707.48
472.51	1729.63
472.882	1759.91
473.253	1759.46
473.625	1799.91
473.997	1858.67
474.369	1810.53
474.74	1902.51
475.112	1904.99
475.484	1913.58
475.855	2002.84
476.227	1996.97
476.598	2036.97
476.97	2079
477.341	2121.48
477.713	2146.12
478.084	2192.22
478.455	2250.52
478.827	2236.73
479.198	2325.32
479.569	2311.54
479.94	2429.05
480.311	2420.46
480.682	2475.6
481.053	2525.77
481.424	2559.66
481.795	2626.78
482.166	2704.97
482.537	2687.12
482.908	2752.65
483.279	2837.4
483.65	2844.85
484.021	2942.03
484.391	2946.32
484.762	2976.38
485.133	3007.34
485.503	3090.5
485.874	3097.73
486.244	3164.17
486.615	3232.87
486.985	3267.67
487.356	3302.47
487.726	3392.64
488.097	3427.21
488.467	3486.87
488.837	3532.75
489.207	3591.5
489.578	3685.96
489.948	3683.02
490.318	3725.96
490.688	3768.22
491.058	3854.77
491.428	3869.01
491.798	3935.45
492.168	3992.4
492.538	4010.02
492.908	4048.89
493.278	4131.37
493.648	4164.59
494.017	4218.15
494.387	4216.57
494.757	4278.49
495.126	4363.46
495.496	4312.39
495.866	4412.95
496.235	4439.84
496.605	4517.13
496.974	4564.58
497.344	4496.56
497.713	4624.02
498.082	4625.82
498.452	4662.89
498.821	4716.9
499.19	4732.26
499.559	4793.96
499.928	4804.58
500.298	4848.64
500.667	4910.34
501.036	4915.31
501.405	4947.17
501.774	4949.21
502.143	4967.51
502.512	5086.83
502.88	5082.99
503.249	5111.69
503.618	5097.45
503.987	5143.78
504.356	5148.97
504.724	5222.65
505.093	5247.28
505.462	5249.54
505.83	5311.91
506.199	5326.37
506.567	5406.14
506.936	5373.38
507.304	5443.88
507.672	5442.3
508.041	5501.06
508.409	5484.11
508.777	5555.07
509.145	5586.93
509.514	5572.92
509.882	5610.43
510.25	5659.02
510.618	5688.62
510.986	5665.57
511.354	5750.99
511.722	5770.2
512.09	5833.02
512.458	5812.69
512.826	5865.34
513.193	5893.81
513.561	5914.83
513.929	5931.1
514.297	6016.3
514.664	5978.11
515.032	6056.97
515.4	6016.3
515.767	6062.4
516.135	6069.4
516.502	6098.55
516.869	6218.1
517.237	6146.01
517.604	6157.08
517.972	6237.53
518.339	6255.16
518.706	6221.04
519.073	6277.98
519.44	6350.98
519.808	6379
520.175	6407.47
520.542	6468.94
520.909	6435.49
521.276	6529.05
521.643	6550.07
522.009	6592.33
522.376	6581.71
522.743	6633.23
523.11	6682.27
523.477	6772.89
523.843	6768.14
524.21	6823.28
524.577	6852.43
524.943	6855.82
525.31	6906.44
525.676	6944.41
526.043	7039.55
526.409	7051.98
526.776	7101.69
527.142	7184.85
527.508	7194.12
527.874	7202.03
528.241	7230.5
528.607	7236.6
528.973	7322.93
529.339	7290.39
529.705	7390.05
530.071	7455.81
530.437	7433.89
530.803	7476.15
531.169	7507.33
531.535	7570.61
531.901	7558.18
532.267	7614.45
532.632	7681.79
532.998	7714.78
533.364	7700.32
533.73	7755.23
534.095	7843.82
534.461	7749.13
534.826	7889.24
535.192	7935.12
535.557	7927.88
535.923	7945.29
536.288	8032.06
536.653	8043.36
537.019	8067.54
537.384	8067.54
537.749	8102.34
538.114	8139.63
538.479	8240.64
538.845	8248.78
539.21	8153.64
539.575	8253.75
539.94	8263.7
540.305	8339.85
540.67	8341.21
541.034	8376.23
541.399	8450.13
541.764	8430.47
542.129	8526.74
542.494	8541.43
542.858	8613.97
543.223	8598.38
543.587	8660.97
543.952	8649.9
544.316	8695.32
544.681	8712.5
545.045	8818.26
545.41	8782.1
545.774	8794.75
546.138	8894.19
546.503	8868.2
546.867	8868.2
547.231	8999.27
547.595	8954.07
547.959	9034.07
548.324	9019.16
548.688	9043.34
549.052	9069.78
549.416	9122.66
549.779	9150.45
550.143	9121.75
550.507	9263.67
550.871	9266.38
551.235	9246.72
551.599	9256.66
551.962	9341.63
552.326	9300.5
552.689	9411.91
553.053	9444.68
553.417	9448.07
553.78	9564.23
554.143	9548.41
554.507	9573.94
554.87	9607.84
555.234	9665.69
555.597	9642.42
555.96	9627.5
556.323	9678.57
556.686	9734.39
557.05	9803.32
557.413	9820.04
557.776	9876.08
558.139	9892.8
558.502	9879.7
558.865	9985.68
559.228	9991.11
559.59	10023.2
559.953	10036.3
560.316	10085.34
560.679	10162.85
561.041	10162.18
561.404	10294.38
561.767	10349.74
562.129	10241.04
562.492	10424.54
562.854	10401.49
563.217	10358.56
563.579	10428.61
563.941	10523.97
564.304	10523.07
564.666	10637.42
565.028	10639.45
565.39	10650.3
565.753	10660.02
566.115	10730.3
566.477	10740.69
566.839	10824.53
567.201	10854.81
567.563	10829.96
567.925	10902.04
568.287	10997.63
568.648	10969.39
569.01	11032.89
569.372	11040.57
569.734	11136.84
570.095	11150.4
570.457	11180.91
570.819	11256.16
571.18	11271.3
571.542	11344.52
571.903	11409.15
572.265	11438.53
572.626	11491.86
572.987	11497.96
573.349	11589.26
573.71	11647.79
574.071	11719.65
574.432	11728.24
574.794	11885.97
575.155	11915.58
575.516	11898.4
575.877	12062.47
576.238	12040.54
576.599	12117.15
576.96	12189.02
577.32	12230.37
577.681	12411.83
578.042	12426.07
578.403	12559.18
578.763	12567.08
579.124	12703.35
579.485	12865.38
579.845	12921.2
580.206	13043.46
580.566	13124.36
580.927	13231.7
581.287	13438.25
581.648	13471.02
582.008	13643.89
582.368	13813.83
582.728	13948.74
583.089	14005.92
583.449	14214.27
583.809	14368.39
584.169	14624.66
584.529	14748.27
584.889	14947.59
585.249	15058.77
585.609	15200.69
585.969	15589.6
586.329	15671.86
586.688	15958.41
587.048	16144.17
587.408	16381.45
587.768	16638.62
588.127	16828.44
588.487	17029.34
588.846	17392.72
589.206	17523.56
589.565	17798.13
589.925	18106.83
590.284	18268.63
590.643	18591.79
591.003	18943.87
591.362	19248.04
591.721	19513.57
592.08	19816.61
592.44	20065.42
592.799	20404.39
593.158	20689.13
593.517	20972.29
593.876	21252.28
594.235	21545.15
594.593	21929.78
594.952	22242.31
595.311	22466.03
595.67	22927.94
596.029	23225.79
596.387	23617.42
596.746	23931.98
597.104	24175.37
597.463	24529.71
597.822	24780.55
598.18	25129.69
598.538	25495.56
598.897	25823.23
599.255	26027.52
599.613	26576.43
599.972	26755.64
600.33	27201.5
600.688	27370.76
601.046	27837.87
601.404	28295.71
601.762	28351.53
602.12	28792.19
602.478	29137.72
602.836	29466.75
603.194	29502.46
603.552	29977.02
603.91	30120.52
604.268	30588.08
604.625	30784.68
604.983	31152.36
605.341	31369.08
605.698	31660.14
606.056	32189.85
606.413	32368.15
606.771	32640.23
607.128	32929.26
607.485	33024.17
607.843	33312.75
608.2	33778.5
608.557	33971.95
608.914	34213.75
609.272	34653.28
609.629	34858.02
609.986	35180.05
610.343	35277.45
610.7	35865.23
611.057	35942.06
611.414	36030.42
611.771	36273.35
612.127	36777.97
612.484	36846.22
612.841	37072.2
613.198	37155.36
613.554	37323.04
613.911	37808.23
614.267	37899.07
614.624	38080.76
614.98	38330.48
615.337	38599.62
615.693	38544.71
616.05	38855.66
616.406	39364.12
616.762	39235.54
617.118	39571.8
617.475	39582.19
617.831	39775.41
618.187	39956.2
618.543	40318.45
618.899	40489.06
619.255	40582.17
619.611	40671.2
619.967	40935.38
620.323	41100.57
620.678	41160.46
621.034	41187.8
621.39	41284.97
621.746	41300.11
622.101	41914.34
622.457	41631.41
622.812	41838.41
623.168	42070.04
623.523	42125.86
623.879	42378.73
624.234	42233.42
624.589	42451.27
624.945	42546.64
625.3	42618.5
625.655	42699.4
626.01	42846.29
626.365	42971.26
626.72	43078.82
627.075	42973.06
627.43	43074.08
627.785	43056.9
628.14	43126.73
628.495	43296.45
628.85	43391.36
629.205	43399.72
629.559	43511.81
629.914	43489.89
630.269	43607.4
630.623	43418.25
630.978	43480.4
631.332	43727.4
631.687	43796.32
632.041	43580.73
632.396	43765.36
632.75	43603.33
633.104	43776.66
633.459	43687.17
633.813	43773.04
634.167	43870.44
634.521	43771.91
634.875	43930.1
635.229	43982.53
635.583	43722.2
635.937	43829.99
636.291	43815.53
636.645	43821.86
636.999	43758.58
637.352	43893.04
637.706	43622.54
638.06	43871.35
638.413	43823.21
638.767	43720.62
639.121	43877.67
639.474	43648.53
639.828	43670.45
640.181	43690.79
640.534	43795.19
640.888	43620.05
641.241	43572.82
641.594	43673.39
641.947	43787.73
642.301	43780.5
642.654	43656.21
643.007	43772.14
643.36	43641.07
643.713	43667.96
644.066	43778.69
644.419	43667.96
644.771	43281.31
645.124	43102.55
645.477	42894.87
645.83	42833.18
646.182	42775.78
646.535	42605.17
646.888	42689.23
647.24	42435.45
647.593	42616.46
647.945	42545.73
648.298	42533.53
648.65	42357.71
649.002	42431.16
649.355	42580.98
649.707	42469.12
650.059	42687.65
650.411	43091.03
650.763	43037.02
651.115	43539.6
651.467	43448.53
651.819	43422.09
652.171	43322.21
652.523	43276.56
652.875	43172.83
653.227	43045.15
653.578	43493.96
653.93	43163.79
654.282	43067.53
654.633	43098.03
654.985	43167.41
655.337	43143.91
655.688	43276.11
656.039	43304.81
656.391	42840.41
656.742	43097.13
657.094	43100.07
657.445	43197.47
657.796	43170.35
658.147	43017.13
658.498	43000.86
658.849	43094.64
659.2	42910.24
659.551	42864.14
659.902	42999.73
660.253	42949.79
660.604	43100.75
660.955	42788.21
661.306	43006.06
661.656	42919.73
662.007	43094.87
662.358	42987.53
662.708	43046.74
663.059	42912.95
663.409	42762
663.76	42952.27
664.11	42980.52
664.461	43002.44
664.811	43063.91
665.161	42847.87
665.511	42889.9
665.862	42938.94
666.212	42908.43
666.562	42962.44
666.912	42792.96
667.262	42764.48
667.612	42928.77
667.962	42928.09
668.312	42848.55
668.662	43060.29
669.011	42947.98
669.361	42793.41
669.711	42698.04
670.06	42822.56
670.41	42792.73
670.76	42645.16
671.109	42764.71
671.459	42828.44
671.808	42626.18
672.157	42689.23
672.507	42471.84
672.856	42511.38
673.205	42609.68
673.554	42637.93
673.904	42506.64
674.253	42844.93
674.602	42487.2
674.951	42130.38
675.3	41853.32
675.649	42438.84
675.998	42456.47
676.346	42522.46
676.695	42746.63
677.044	42386.87
677.393	42383.93
677.741	42595.45
678.09	42427.77
678.438	42168.11
678.787	42443.81
679.135	42366.53
679.484	42267.55
679.832	42339.86
680.181	42109.36
680.529	42152.3
680.877	42064.16
681.225	42109.58
681.573	42195.46
681.922	41913.88
682.27	41746.66
682.618	41903.04
682.966	41599.54
683.314	41986.42
683.661	41609.26
684.009	41481.8
684.357	41529.49
684.705	41429.6
685.053	41587.11
685.4	41453.33
685.748	41129.72
686.095	41265.31
686.443	41096.28
686.79	41012.66
687.138	41078.88
687.485	41157.97
687.832	40875.94
688.18	41040.91
688.527	40792.33
688.874	40726.12
689.221	40650.19
689.568	40647.02
689.915	40412.23
690.262	40643.63
690.609	40432.34
690.956	40365.9
691.303	40279.35
691.65	40003.88
691.997	39975.63
692.344	39784.22
692.69	39893.37
693.037	39763.88
693.383	39442.99
693.73	39589.65
694.077	39422.42
694.423	39459.94
694.769	39153.73
695.116	39178.59
695.462	39195.76
695.808	39071.25
696.155	39062.66
696.501	38713.52
696.847	38780.86
697.193	38548.55
697.539	38685.04
697.885	38343.36
698.231	38395.56
698.577	38377.71
698.923	38177.71
699.269	38128.45
699.614	37894.1
699.96	37884.61
700.306	37777.5
700.651	37816.82
700.997	37600.55
701.342	37573.43
701.688	37450.72
702.033	37511.74
702.379	37367.56
702.724	37114.46
703.069	37176.38
703.415	36993.79
703.76	36992.43
704.105	36914.47
704.45	36823.85
704.795	36703.17
705.14	36692.1
705.485	36620.24
705.83	36340.7
706.175	36416.4
706.52	36356.97
706.865	36184.54
707.209	36119.46
707.554	35998.11
707.899	36116.52
708.243	35860.03
708.588	35882.4
708.932	35630.21
709.277	35653.48
709.621	35650.55
709.966	35423.21
710.31	35630.43
710.654	35200.61
710.998	35206.04
711.342	35347.5
711.687	35159.26
712.031	35002.65
712.375	34915.42
712.719	34975.08
713.063	34851.02
713.407	35010.34
713.75	34665.49
714.094	34663.9
714.438	34637.24
714.782	34644.7
715.125	34432.72
715.469	34540.52
715.812	34341.43
716.156	34237.93
716.499	34071.6
716.843	34169.68
717.186	33958.61
717.53	34209
717.873	34160.19
718.216	33975.56
718.559	33799.75
718.902	33653.54
719.246	33809.69
719.589	33642.69
719.932	33651.73
720.275	33458.96
720.617	33511.39
720.96	33552.3
721.303	33452.41
721.646	33511.62
721.989	33409.7
722.331	33464.16
722.674	33194.11
723.016	33182.14
723.359	33213.77
723.701	33097.62
724.044	32874.12
724.386	32773.56
724.729	32956.61
725.071	32867.12
725.413	32772.66
725.755	32745.76
726.097	32644.07
726.439	32538.54
726.782	32519.55
727.124	32593
727.465	32397.07
727.807	32374.93
728.149	32350.75
728.491	32275.49
728.833	32302.84
729.175	32236.4
729.516	32093.13
729.858	32073.92
730.199	32287.02
730.541	32062.39
730.882	32049.06
731.224	32217.87
731.565	31881.61
731.906	31851.1
732.248	31850.19
732.589	31712.57
732.93	31593.48
733.271	31636.64
733.612	31727.94
733.953	31650.88
734.294	31429.64
734.635	31570.88
734.976	31536.98
735.317	31470.54
735.658	31254.96
735.999	31312.81
736.339	31289.98
736.68	31389.19
737.021	31239.81
737.361	31086.6
737.702	31264.9
738.042	31194.39
738.383	31094.96
738.723	31228.74
739.063	31012.25
739.404	31016.77
739.744	30969.99
740.084	30716.66
740.424	30787.62
740.764	30696.55
741.104	30777.23
741.444	30699.49
741.784	30675.54
742.124	30768.41
742.464	30601.86
742.804	30720.96
743.143	30385.83
743.483	30450.91
743.823	30364.81
744.162	30331.14
744.502	30418.14
744.841	30185.6
745.181	30414.3
745.52	30171.37
745.86	30307.86
746.199	30236.22
746.538	30069
746.877	30138.15
747.216	30220.18
747.556	30028.77
747.895	30079.84
748.234	29924.82
748.573	29833.52
748.911	29828.1
749.25	29695.45
749.589	29654.32
749.928	29768.89
750.267	29700.42
750.605	29682.34
750.944	29646.41
751.283	29517.15
751.621	29589.01
751.96	29324.38
752.298	29340.66
752.636	29439.41
752.975	29229.25
753.313	29186.08
753.651	29261.79
753.989	29176.59
754.327	29106.54
754.666	28986.77
755.004	28978.86
755.342	28901.12
755.679	28867.9
756.017	28739.31
756.355	28718.98
756.693	28656.83
757.031	28547.46
757.368	28479.89
757.706	28465.42
758.044	28315.37
758.381	28492.09
758.719	28354.92
759.056	28355.82
759.394	28183.62
759.731	28080.12
760.068	28043.29
760.405	27957.19
760.743	27815.5
761.08	27759.91
761.417	27721.26
761.754	27702.05
762.091	27627.71
762.428	27548.61
762.765	27505.68
763.102	27464.32
763.438	27278.56
763.775	27151.56
764.112	27199.02
764.449	27222.29
764.785	27062.52
765.122	26846.26
765.458	26928.06
765.795	26835.64
766.131	26720.61
766.467	26724.23
766.804	26487.4
767.14	26370.56
767.476	26428.19
767.812	26236.33
768.148	26361.75
768.485	26163.11
768.821	25957.92
769.157	26048.76
769.492	25884.93
769.828	25865.27
770.164	25639.06
770.5	25594.76
770.836	25582.56
771.171	25363.81
771.507	25434.54
771.842	25248.56
772.178	25231.61
772.513	25062.8
772.849	25014.22
773.184	24890.38
773.519	24936.03
773.855	24808.12
774.19	24626.65
774.525	24691.29
774.86	24646.77
775.195	24577.39
775.53	24414.68
775.865	24227.57
776.2	24175.37
776.535	23948.71
776.87	24015.15
777.205	23842.27
777.539	23817.64
777.874	23837.3
778.209	23635.49
778.543	23601.82
778.878	23427.59
779.212	23468.95
779.547	23347.14
779.881	23388.27
780.215	23176.3
780.55	23252.45
780.884	23079.12
781.218	23001.61
781.552	22957.55
781.886	22957.09
782.22	22656.76
782.554	22643.2
782.888	22418.58
783.222	22351.01
783.556	22280.5
783.889	22224.68
784.223	22094.52
784.557	22047.51
784.89	22011.81
785.224	21899.49
785.557	21773.4
785.891	21728.2
786.224	21667.18
786.558	21744.92
786.891	21423.12
787.224	21469.45
787.557	21330.47
787.891	21317.82
788.224	21362.33
788.557	21342.67
788.89	21224.26
789.223	21219.51
789.556	20964.15
789.888	20961.67
790.221	20868.11
790.554	20668.34
790.887	20698.17
791.219	20644.61
791.552	20463.15
791.884	20518.74
792.217	20453.88
792.549	20362.81
792.882	20152.2
793.214	20247.56
793.546	20150.61
793.879	20055.7
794.211	19849.61
794.543	19853.9
794.875	19863.62
795.207	19934.12
795.539	19832.88
795.871	19666.56
796.203	19718.54
796.535	19375.95
796.867	19528.03
797.198	19365.1
797.53	19367.13
797.862	19289.85
798.193	19281.94
798.525	19084.2
798.856	19133.24
799.188	19052.34
799.519	18923.53
799.85	18858.9
800.182	18848.95
800.513	18940.02
800.844	18675.62
801.175	18718.11
801.506	18751.1
801.837	18601.5
802.168	18580.03
802.499	18499.58
802.83	18377.78
803.161	18369.42
803.491	18292.58
803.822	18289.87
804.153	18243.09
804.483	18079.71
804.814	18141.4
805.145	18068.86
805.475	18022.31
805.805	17859.6
806.136	17943.89
806.466	17859.15
806.796	17787.06
807.126	17689.21
807.457	17660.28
807.787	17710.23
808.117	17647.86
808.447	17414.19
808.777	17477.69
809.107	17373.29
809.436	17422.78
809.766	17315.21
810.096	17267.07
810.426	17221.88
810.755	17156.34
811.085	17180.07
811.414	17152.5
811.744	16995.89
812.073	16947.76
812.403	16964.48
812.732	16871.15
813.061	16846.07
813.39	16805.39
813.719	16774.43
814.049	16854.66
814.378	16716.81
814.707	16660.99
815.036	16658.28
815.365	16556.36
815.693	16454.67
816.022	16495.8
816.351	16495.8
816.68	16342.8
817.008	16378.74
817.337	16193.2
817.665	16159.08
817.994	16286.54
818.322	16101.68
818.651	16195.69
818.979	16049.03
819.307	16139.42
819.636	16059.42
819.964	15959.09
820.292	16005.19
820.62	15946.88
820.948	15877.73
821.276	15987.56
821.604	15976.26
821.932	15905.3
822.259	15848.13
822.587	15894.91
822.915	15909.6
823.243	15883.38
823.57	15835.7
823.898	15868.92
824.225	15801.35
824.553	15808.36
824.88	15778.98
825.207	15872.76
825.535	15772.65
825.862	15841.57
826.189	15777.62
826.516	15792.54
826.843	15890.61
827.17	15897.62
827.497	15842.03
827.824	15861.46
828.151	15878.18
828.478	15800.9
828.805	15883.61
829.131	15827.11
829.458	15759.09
829.785	15676.61
830.111	15809.71
830.438	15852.87
830.764	15738.53
831.09	15809.49
831.417	15723.84
831.743	15755.48
832.069	15734.01
832.395	15631.41
832.722	15721.8
833.048	15732.43
833.374	15638.42
833.7	15610.17
834.026	15590.51
834.351	15651.98
834.677	15643.39
835.003	15653.33
835.329	15647.68
835.654	15544.18
835.98	15489.04
836.306	15519.78
836.631	15420.57
836.956	15515.71
837.282	15510.51
837.607	15419.67
837.932	15422.6
838.258	15418.31
838.583	15352.32
838.908	15293.11
839.233	15319.1
839.558	15289.5
839.883	15225.77
840.208	15172.44
840.533	15144.87
840.858	15203.85
841.182	15130.63
841.507	15139.67
841.832	15068.04
842.156	15012.67
842.481	15030.52
842.805	15035.49
843.13	14918.89
843.454	14980.58
843.778	14833.92
844.103	14831.43
844.427	14790.08
844.751	14734.71
845.075	14725.67
845.399	14675.5
845.723	14660.14
846.047	14612.45
846.371	14457.88
846.695	14475.74
847.019	14426.47
847.343	14343.54
847.666	14234.39
847.99	14231
848.313	14166.82
848.637	14061.06
848.96	14106.71
849.284	13989.87
849.607	13928.63
849.931	13945.58
850.254	13687.28
850.577	13638.92
850.9	13639.15
851.223	13615.42
851.546	13535.42
851.869	13476.67
852.192	13579.49
852.515	13492.48
852.838	13266.28
853.161	13361.87
853.483	13291.81
853.806	13242.32
854.129	13194.64
854.451	13194.41
854.774	13086.85
855.096	13006.62
855.419	13046.17
855.741	13107.41
856.063	12934.08
856.385	12834.87
856.708	12837.36
857.03	12846.17
857.352	12852.95
857.674	12786.74
857.996	12743.8
858.318	12674.2
858.64	12612.28
858.961	12585.84
859.283	12584.94
859.605	12522.34
859.926	12518.95
860.248	12479.18
860.57	12436.47
860.891	12449.57
861.212	12323.48
861.534	12347.66
861.855	12279.18
862.176	12330.71
862.498	12306.75
862.819	12320.99
863.14	12210.71
863.461	12156.47
863.782	12165.51
864.103	12127.1
864.424	12124.16
864.745	12173.87
865.065	12116.7
865.386	11974.78
865.707	11987.21
866.027	12009.59
866.348	12039.42
866.668	11975.46
866.989	11939.76
867.309	11815.01
867.63	11832.64
867.95	11885.29
868.27	11871.74
868.59	11813.88
868.91	11764.39
869.23	11716.94
869.55	11684.17
869.87	11786.31
870.19	11747.45
870.51	11732.08
870.83	11735.47
871.15	11686.2
871.469	11651.63
871.789	11671.06
872.109	11629.71
872.428	11630.39
872.748	11565.98
873.067	11585.87
873.386	11513.1
873.706	11480.11
874.025	11506.1
874.344	11489.83
874.663	11494.57
874.982	11403.5
875.301	11412.54
875.62	11388.13
875.939	11370.96
876.258	11310.39
876.577	11312.88
876.896	11305.88
877.214	11239.44
877.533	11285.76
877.852	11314.46
878.17	11271.07
878.489	11231.53
878.807	11185.2
879.125	11234.69
879.444	11194.01
879.762	11137.29
880.08	11141.13
880.398	11076.73
880.716	11094.13
881.034	11042.83
881.352	11050.97
881.67	11007.8
881.988	11018.2
882.306	10964.87
882.624	10984.98
882.941	10913.79
883.259	10946.34
883.577	10900.46
883.894	10843.74
884.212	10830.18
884.529	10809.39
884.846	10789.5
885.164	10755.16
885.481	10744.76
885.798	10657.08
886.115	10728.72
886.432	10644.42
886.75	10611.43
887.067	10622.73
887.383	10570.08
887.7	10637.87
888.017	10514.48
888.334	10539.57
888.651	10418.44
888.967	10470.64
889.284	10449.85
889.6	10441.72
889.917	10299.57
890.233	10330.76
890.55	10303.64
890.866	10295.96
891.182	10185.23
891.498	10173.25
891.815	10171.22
892.131	10152.69
892.447	10187.03
892.763	10054.61
893.079	10067.94
893.395	10023.87
893.71	9980.03
894.026	9933.26
894.342	9948.17
894.657	9876.76
894.973	9850.55
895.289	9824.33
895.604	9860.49
895.92	9733.26
896.235	9748.85
896.55	9730.78
896.865	9676.54
897.181	9639.93
897.496	9683.32
897.811	9617.11
898.126	9599.48
898.441	9587.5
898.756	9544.34
899.071	9466.6
899.386	9452.36
899.7	9341.86
900.015	9356.1
900.33	9265.48
900.644	9257.79
900.959	9222.09
901.273	9210.56
901.588	9179.83
901.902	9166.5
902.216	9096.89
902.531	9074.75
902.845	9065.93
903.159	8995.2
903.473	8980.74
903.787	8917.24
904.101	8931.93
904.415	8940.06
904.729	8836.79
905.042	8835.88
905.356	8813.51
905.67	8782.78
905.984	8724.93
906.297	8692.84
906.611	8646.74
906.924	8639.73
907.237	8625.72
907.551	8533.29
907.864	8548.89
908.177	8511.37
908.491	8467.98
908.804	8364.26
909.117	8373.07
909.43	8350.92
909.743	8320.19
910.056	8290.59
910.368	8220.98
910.681	8230.93
910.994	8232.28
911.307	8149.12
911.619	8072.74
911.932	8166.52
912.244	8053.76
912.557	8002.01
912.869	8036.36
913.181	7964.72
913.494	7954.78
913.806	7910.71
914.118	7917.04
914.43	7806.08
914.742	7785.74
915.054	7861.22
915.366	7776.48
915.678	7779.19
915.99	7689.92
916.302	7610.83
916.613	7592.98
916.925	7584.39
917.236	7550.95
917.548	7501.68
917.859	7537.61
918.171	7492.42
918.482	7468.91
918.794	7442.93
919.105	7361.8
919.416	7278.41
919.727	7313.44
920.038	7289.03
920.349	7269.82
920.66	7169.26
920.971	7174.91
921.282	7154.8
921.593	7117.96
921.903	7089.49
922.214	7028.93
922.525	7013.56
922.835	6987.12
923.146	7003.16
923.456	6934.24
923.767	6933.56
924.077	6899.21
924.387	6897.63
924.697	6757.75
925.008	6804.3
925.318	6782.15
925.628	6738.76
925.938	6711.87
926.248	6663.29
926.558	6645.21
926.867	6650.4
927.177	6625.55
927.487	6568.6
927.796	6453.12
928.106	6503.74
928.416	6493.35
928.725	6386
929.034	6403.86
929.344	6401.37
929.653	6451.31
929.962	6344.88
930.271	6294.93
930.581	6254.71
930.89	6252.67
931.199	6170.42
931.508	6182.62
931.817	6182.17
932.125	6129.97
932.434	6116.18
932.743	6073.02
933.051	6070.08
933.36	6043.87
933.669	5960.25
933.977	5992.57
934.286	6014.71
934.594	5947.82
934.902	5951.44
935.21	5817.21
935.519	5932.46
935.827	5845
936.135	5832.12
936.443	5724.55
936.751	5774.27
937.059	5779.69
937.367	5735.17
937.674	5690.43
937.982	5665.35
938.29	5658.57
938.597	5605.91
938.905	5557.78
939.213	5574.27
939.52	5518.46
939.827	5560.04
940.135	5545.35
940.442	5466.93
940.749	5443.88
941.056	5430.32
941.363	5402.75
941.67	5351
941.977	5342.87
942.284	5281.4
942.591	5323.21
942.898	5310.33
943.205	5298.58
943.511	5220.16
943.818	5215.41
944.125	5198.47
944.431	5164.12
944.738	5132.7
945.044	5109.43
945.35	5086.15
945.657	5063.55
945.963	5035.31
946.269	5027.17
946.575	4987.17
946.881	4972.26
947.187	4993.5
947.493	4995.31
947.799	4943.1
948.105	4899.04
948.41	4880.28
948.716	4819.72
949.022	4912.82
949.327	4836.89
949.633	4739.49
949.938	4733.62
950.244	4764.35
950.549	4758.93
950.854	4738.36
951.16	4738.59
951.465	4646.84
951.77	4635.54
952.075	4603.68
952.38	4612.04
952.685	4578.14
952.99	4576.56
953.294	4535.21
953.599	4546.28
953.904	4527.75
954.209	4495.88
954.513	4487.07
954.818	4441.65
955.122	4458.6
955.426	4437.13
955.731	4424.7
956.035	4402.33
956.339	4356.91
956.643	4343.8
956.948	4308.54
957.252	4293.86
957.556	4291.82
957.86	4266.29
958.163	4259.51
958.467	4217.25
958.771	4214.99
959.075	4211.15
959.378	4161.43
959.682	4170.92
959.985	4183.12
960.289	4096.12
960.592	4073.3
960.896	4063.35
961.199	4077.36
961.502	4060.42
961.805	4046.4
962.108	4019.29
962.411	3975.9
962.714	3981.32
963.017	3965.5
963.32	3976.58
963.623	3922.57
963.926	3959.18
964.228	3908.33
964.531	3870.14
964.833	3875.79
965.136	3838.73
965.438	3839.86
965.741	3762.34
966.043	3786.07
966.345	3774.32
966.648	3756.47
966.95	3793.76
967.252	3751.05
967.554	3709.92
967.856	3733.64
968.158	3646.87
968.46	3645.06
968.761	3689.8
969.063	3615.91
969.365	3604.16
969.666	3629.92
969.968	3564.61
970.269	3561.22
970.571	3522.35
970.872	3532.75
971.174	3475.35
971.475	3509.92
971.776	3467.21
972.077	3486.65
972.378	3435.57
972.679	3457.49
972.98	3421.11
973.281	3430.6
973.582	3381.34
973.883	3380.66
974.183	3378.63
974.484	3356.93
974.785	3332.3
975.085	3335.92
975.386	3327.1
975.686	3309.25
975.986	3252.3
976.287	3296.14
976.587	3249.14
976.887	3261.11
977.187	3227.22
977.487	3220.21
977.787	3191.96
978.087	3179.99
978.387	3140.89
978.687	3172.53
978.987	3124.4
979.286	3117.62
979.586	3127.78
979.885	3112.87
980.185	3092.76
980.484	3048.01
980.784	3087.11
981.083	3043.27
981.382	3049.14
981.682	3050.72
981.981	2989.94
982.28	3032.87
982.579	3002.59
982.878	3039.88
983.177	2960.56
983.475	2940.9
983.774	2875.36
984.073	2905.42
984.372	2871.07
984.67	2881.69
984.969	2857.28
985.267	2896.38
985.566	2853.89
985.864	2807.12
986.162	2857.96
986.461	2807.57
986.759	2798.75
987.057	2798.08
987.355	2779.77
987.653	2769.6
987.951	2756.95
988.249	2761.47
988.547	2730.51
988.844	2723.73
989.142	2716.27
989.44	2662.94
989.737	2684.86
990.035	2629.49
990.332	2650.96
990.63	2617.52
990.927	2631.3
991.224	2659.1
991.521	2581.13
991.819	2618.87
992.116	2584.75
992.413	2586.78
992.71	2562.83
993.006	2541.36
993.303	2525.09
993.6	2540.91
993.897	2490.74
994.193	2516.5
994.49	2479.67
994.787	2471.76
995.083	2448.25
995.379	2439.22
995.676	2438.99
995.972	2431.98
996.268	2417.3
996.565	2410.97
996.861	2401.25
997.157	2357.64
997.453	2365.32
997.749	2373.91
998.044	2347.92
998.34	2318.99
998.636	2341.59
998.932	2306.34
999.227	2278.09
999.523	2284.87
999.818	2239.45
1000.114	2277.86
1000.409	2227.47
1000.704	2236.06
1001	2217.3
1001.295	2221.59
1001.59	2194.48
1001.885	2162.61
1002.18	2152.67
1002.475	2143.4
1002.77	2135.04
1003.065	2119.9
1003.359	2151.99
1003.654	2095.95
1003.949	2111.31
1004.243	2124.65
1004.538	2082.16
1004.832	2067.25
1005.127	2068.6
1005.421	2068.83
1005.715	2037.42
1006.009	2040.13
1006.304	2019.11
1006.598	1989.96
1006.892	2011.43
1007.186	1968.72
1007.48	1931.88
1007.773	1968.49
1008.067	1946.8
1008.361	1937.31
1008.655	1914.48
1008.948	1900.25
1009.242	1906.12
1009.535	1892.34
1009.829	1867.25
1010.122	1860.25
1010.415	1885.78
1010.708	1846.69
1011.001	1853.92
1011.295	1818.21
1011.588	1818.44
1011.881	1812.34
1012.173	1785
1012.466	1778.22
1012.759	1776.86
1013.052	1770.08
1013.344	1744.54
1013.637	1724.21
1013.93	1724.21
1014.222	1712.23
1014.514	1691.66
1014.807	1688.27
1015.099	1678.11
1015.391	1690.08
1015.683	1678.33
1015.976	1669.29
1016.268	1646.69
1016.56	1632.01
1016.851	1639.69
1017.143	1636.07
1017.435	1601.05
1017.727	1602.18
1018.018	1577.32
1018.31	1560.37
1018.602	1589.52
1018.893	1564.89
1019.185	1557.43
1019.476	1521.95
1019.767	1548.84
1020.058	1511.33
1020.35	1488.73
1020.641	1485.12
1020.932	1493.93
1021.223	1459.35
1021.514	1454.83
1021.804	1445.8
1022.095	1444.21
1022.386	1439.02
1022.677	1448.73
1022.967	1438.11
1023.258	1410.09
1023.548	1413.71
1023.839	1401.5
1024.129	1401.73
1024.419	1380.03
1024.709	1359.24
1025	1371
1025.29	1340.04
1025.58	1353.14
1025.87	1330.09
1026.16	1318.79
1026.449	1330.32
1026.739	1281.28
1027.029	1279.25
1027.319	1283.99
1027.608	1290.09
1027.898	1264.78
1028.187	1268.62
1028.477	1285.35
1028.766	1243.99
1029.055	1228.4
1029.344	1242.41
1029.634	1225.01
1029.923	1179.59
1030.212	1201.06
1030.501	1193.6
1030.79	1187.72
1031.078	1172.81
1031.367	1191.56
1031.656	1176.42
1031.945	1159.25
1032.233	1152.47
1032.522	1155.86
1032.81	1152.92
1033.099	1129.65
1033.387	1133.94
1033.675	1113.6
1033.963	1103.21
1034.251	1082.19
1034.54	1085.35
1034.828	1084.22
1035.116	1084.45
1035.403	1094.84
1035.691	1058.69
1035.979	1065.92
1036.267	1039.25
1036.554	1048.97
1036.842	1039.93
1037.129	1045.58
1037.417	1024.11
1037.704	1011.91
1037.992	1016.2
1038.279	1002.64
1038.566	987.5
1038.853	987.5
1039.14	987.5
