Data from hue_28_FLMS001491_00099.txt Node
Date: Tue Feb 07 17:18:05 GMT 2017
User: dcchb
Spectrometer: FLMS00149
Trigger mode: 0
Integration Time (sec): 2.000000E-2
Scans to average: 10
Electric dark correction enabled: true
Nonlinearity correction enabled: false
Boxcar width: 0
XAxis mode: Wavelengths
Number of Pixels in Spectrum: 2048
>>>>>Begin Spectral Data<<<<<
341.393	-39.96
341.776	-39.96
342.16	-39.96
342.543	-74.76
342.927	-75.66
343.31	-91.25
343.693	-66.4
344.077	-68.2
344.46	-65.72
344.843	-63.91
345.226	-32.95
345.61	-43.8
345.993	-9.9
346.376	11.34
346.759	8.18
347.142	26.03
347.525	48.18
347.908	60.15
348.291	66.03
348.674	110.55
349.057	111.68
349.44	111.9
349.823	133.37
350.206	170.43
350.588	199.13
350.971	215.63
351.354	216.99
351.737	233.48
352.119	247.04
352.502	247.95
352.884	267.38
353.267	262.41
353.65	294.72
354.032	293.14
354.414	305.35
354.797	300.6
355.179	336.3
355.562	324.33
355.944	346.47
356.326	324.55
356.709	328.4
357.091	330.43
357.473	334.5
357.855	339.69
358.238	335.17
358.62	325.46
359.002	318.23
359.384	325.01
359.766	325.01
360.148	346.7
360.53	335.17
360.912	327.04
361.294	328.62
361.676	338.56
362.057	336.08
362.439	309.64
362.821	313.71
363.203	308.73
363.584	333.37
363.966	332.69
364.348	324.33
364.729	311.9
365.111	302.41
365.493	337.43
365.874	320.94
366.256	320.49
366.637	313.03
367.019	329.53
367.4	298.11
367.781	302.63
368.163	294.72
368.544	307.38
368.925	311.22
369.306	337.43
369.688	321.84
370.069	339.69
370.45	288.85
370.831	307.38
371.212	297.44
371.593	320.71
371.974	325.23
372.355	320.03
372.736	314.84
373.117	324.78
373.498	310.09
373.879	317.32
374.26	320.03
374.641	319.13
375.021	298.79
375.402	324.55
375.783	316.19
376.163	334.5
376.544	325.46
376.925	303.09
377.305	308.28
377.686	317.55
378.066	321.39
378.447	323.65
378.827	313.93
379.208	310.09
379.588	313.93
379.968	326.59
380.349	325.23
380.729	312.35
381.109	331.33
381.489	326.81
381.87	338.11
382.25	322.07
382.63	344.67
383.01	355.74
383.39	344.44
383.77	329.07
384.15	343.31
384.53	342.18
384.91	329.53
385.29	354.38
385.67	364.33
386.049	347.38
386.429	350.99
386.809	355.29
387.189	336.76
387.568	320.49
387.948	354.16
388.328	338.56
388.707	344.21
389.087	355.06
389.466	343.31
389.846	367.72
390.225	360.71
390.605	353.71
390.984	359.13
391.363	360.71
391.743	360.48
392.122	374.04
392.501	364.55
392.881	371.56
393.26	359.35
393.639	370.88
394.018	378.79
394.397	370.88
394.776	377.21
395.155	373.82
395.534	360.94
395.913	345.12
396.292	359.13
396.671	399.13
397.05	380.82
397.429	383.31
397.808	376.76
398.186	380.15
398.565	386.7
398.944	353.48
399.323	386.92
399.701	401.84
400.08	398.68
400.458	379.24
400.837	382.18
401.215	396.64
401.594	401.61
401.972	389.18
402.351	382.86
402.729	400.26
403.107	398.68
403.486	407.72
403.864	403.2
404.242	401.84
404.62	414.72
404.999	405.23
405.377	420.37
405.755	398.9
406.133	409.75
406.511	412.01
406.889	451.78
407.267	424.66
407.645	428.96
408.023	419.24
408.401	424.89
408.779	409.07
409.156	430.99
409.534	443.65
409.912	442.29
410.29	439.58
410.667	431.9
411.045	413.59
411.422	453.82
411.8	476.41
412.178	444.1
412.555	465.11
412.933	470.31
413.31	459.01
413.687	454.72
414.065	462.86
414.442	465.57
414.819	478
415.197	470.09
415.574	484.55
415.951	479.8
416.328	476.87
416.705	494.27
417.082	493.59
417.46	493.59
417.837	508.28
418.214	492.46
418.591	485.45
418.967	500.37
419.344	502.85
419.721	501.95
420.098	510.09
420.475	500.59
420.852	532.91
421.228	518.22
421.605	520.25
421.982	529.29
422.358	529.97
422.735	524.55
423.111	535.85
423.488	560.48
423.864	531.55
424.241	563.19
424.617	541.05
424.994	548.5
425.37	555.28
425.746	564.55
426.123	568.61
426.499	580.59
426.875	575.85
427.251	583.76
427.627	557.32
428.003	592.8
428.379	592.34
428.756	593.47
429.132	590.54
429.507	607.48
429.883	596.86
430.259	640.48
430.635	602.96
431.011	617.2
431.387	616.75
431.763	644.32
432.138	624.43
432.514	642.06
432.89	647.71
433.265	649.74
433.641	646.58
434.016	654.94
434.392	671.89
434.767	689.29
435.143	678.44
435.518	689.06
435.894	681.38
436.269	680.02
436.644	700.59
437.02	715.96
437.395	718.22
437.77	710.76
438.145	712.11
438.52	727.48
438.895	725
439.271	746.24
439.646	732
440.021	740.59
440.395	744.43
440.77	759.8
441.145	759.57
441.52	767.93
441.895	747.59
442.27	771.55
442.645	746.24
443.019	788.5
443.394	763.86
443.769	791.43
444.143	792.11
444.518	788.04
444.892	774.03
445.267	803.41
445.641	799.8
446.016	817.42
446.39	813.81
446.764	813.35
447.139	817.42
447.513	822.85
447.887	846.57
448.262	844.99
448.636	836.63
449.01	835.05
449.384	835.27
449.758	843.41
450.132	854.71
450.506	864.88
450.88	860.58
451.254	882.51
451.628	901.71
452.002	876.4
452.376	903.07
452.75	884.76
453.123	903.3
453.497	915.72
453.871	914.82
454.244	929.74
454.618	947.81
454.992	939.68
455.365	946.01
455.739	978.1
456.112	972.9
456.486	981.26
456.859	1000.02
457.232	1039.34
457.606	995.04
457.979	1020.58
458.352	1039.34
458.725	1066
459.099	1046.79
459.472	1088.15
459.845	1072.78
460.218	1073.46
460.591	1114.82
460.964	1115.27
461.337	1112.56
461.71	1151.2
462.083	1143.29
462.456	1150.07
462.829	1203.17
463.201	1163.4
463.574	1198.2
463.947	1192.78
464.32	1196.62
464.692	1232.1
465.065	1260.8
465.438	1240.24
465.81	1265.32
466.183	1308.71
466.555	1301.7
466.928	1301.25
467.3	1336.05
467.672	1326.56
468.045	1366.33
468.417	1388.93
468.789	1403.85
469.161	1425.99
469.534	1419.89
469.906	1437.07
470.278	1476.61
470.65	1483.39
471.022	1519.55
471.394	1550.06
471.766	1573.56
472.138	1561.13
472.51	1595.25
472.882	1656.5
473.253	1652.2
473.625	1677.96
473.997	1748.02
474.369	1745.08
474.74	1777.17
475.112	1795.02
475.484	1809.94
475.855	1832.76
476.227	1862.59
476.598	1950.27
476.97	1943.95
477.341	1988.69
477.713	2048.58
478.084	2087.45
478.455	2085.86
478.827	2143.04
479.198	2219.42
479.569	2214.45
479.94	2289.93
480.311	2310.49
480.682	2401.34
481.053	2453.09
481.424	2459.86
481.795	2507.1
482.166	2554.33
482.537	2548
482.908	2654.21
483.279	2652.18
483.65	2765.39
484.021	2816.24
484.391	2810.59
484.762	2875.22
485.133	2929.68
485.503	2947.31
485.874	3059.62
486.244	3081.77
486.615	3150.24
486.985	3230.69
487.356	3275.44
487.726	3322.21
488.097	3430.46
488.467	3471.82
488.837	3525.6
489.207	3578.25
489.578	3644.01
489.948	3694.86
490.318	3720.62
490.688	3729.66
491.058	3841.52
491.428	3894.86
491.798	3945.25
492.168	4024.12
492.538	4010.11
492.908	4138.24
493.278	4166.26
493.648	4178.69
494.017	4284.68
494.387	4331
494.757	4394.96
495.126	4448.51
495.496	4464.78
495.866	4553.82
496.235	4589.75
496.605	4585.01
496.974	4681.5
497.344	4729.41
497.713	4773.7
498.082	4806.47
498.452	4839.69
498.821	4880.59
499.19	4915.39
499.559	4966.47
499.928	5002.4
500.298	5063.41
500.667	5094.6
501.036	5082.39
501.405	5120.13
501.774	5196.29
502.143	5234.26
502.512	5251.66
502.88	5284.2
503.249	5313.12
503.618	5365.33
503.987	5396.74
504.356	5386.34
504.724	5472.89
505.093	5478.99
505.462	5515.38
505.83	5555.83
506.199	5609.61
506.567	5683.51
506.936	5661.14
507.304	5742.72
507.672	5753.79
508.041	5767.35
508.409	5827.01
508.777	5860.91
509.145	5912.2
509.514	5927.8
509.882	5947.91
510.25	5961.47
510.618	6050.5
510.986	6018.64
511.354	6086.44
511.722	6095.48
512.09	6138.19
512.458	6116.94
512.826	6231.74
513.193	6202.82
513.561	6231.06
513.929	6265.87
514.297	6345.64
514.664	6338.86
515.032	6351.97
515.4	6405.52
515.767	6444.84
516.135	6424.73
516.502	6448.91
516.869	6525.97
517.237	6552.86
517.604	6604.61
517.972	6619.3
518.339	6605.07
518.706	6648.23
519.073	6707.89
519.44	6648.68
519.808	6795.12
520.175	6780.66
520.542	6801.9
520.909	6873.76
521.276	6807.1
521.643	6869.24
522.009	6971.84
522.376	6991.95
522.743	7052.29
523.11	7035.56
523.477	7136.35
523.843	7097.93
524.21	7190.81
524.577	7265.84
524.943	7296.8
525.31	7304.03
525.676	7322.11
526.043	7353.3
526.409	7373.18
526.776	7477.13
527.142	7505.38
527.508	7544.93
527.874	7633.29
528.241	7678.94
528.607	7659.95
528.973	7762.55
529.339	7685.94
529.705	7843.9
530.071	7887.74
530.437	7836.22
530.803	7932.49
531.169	7986.73
531.535	8011.36
531.901	8002.54
532.267	8002.32
532.632	8123.9
532.998	8121.86
533.364	8129.77
533.73	8184.91
534.095	8280.5
534.461	8308.98
534.826	8384.45
535.192	8358.01
535.557	8399.82
535.923	8395.08
536.288	8462.19
536.653	8427.17
537.019	8449.99
537.384	8587.16
537.749	8553.49
538.114	8550.33
538.479	8611.57
538.845	8660.61
539.21	8606.37
539.575	8654.96
539.94	8802.07
540.305	8758.91
540.67	8741.06
541.034	8860.37
541.399	8845.91
541.764	8958.45
542.129	8976.98
542.494	9021.5
542.858	9004.33
543.223	9042.74
543.587	9132.46
543.952	9138.56
544.316	9204.09
544.681	9227.6
545.045	9255.62
545.41	9298.1
545.774	9235.73
546.138	9287.48
546.503	9310.08
546.867	9349.4
547.231	9526.57
547.595	9442.51
547.959	9519.34
548.324	9519.57
548.688	9607.25
549.052	9629.17
549.416	9671.43
549.779	9671.65
550.143	9677.53
550.507	9675.04
550.871	9765.44
551.235	9713.01
551.599	9835.04
551.962	9804.98
552.326	9882.72
552.689	9945.77
553.053	9806.79
553.417	9958.65
553.78	10034.58
554.143	10020.8
554.507	10047.91
554.87	10043.85
555.234	10141.7
555.597	10139.44
555.96	10205.88
556.323	10209.72
556.686	10174.01
557.05	10322.03
557.413	10330.62
557.776	10365.19
558.139	10438.64
558.502	10477.96
558.865	10441.12
559.228	10490.39
559.59	10534.45
559.953	10575.81
560.316	10702.36
560.679	10601.35
561.041	10739.2
561.404	10735.13
561.767	10814
562.129	10725.86
562.492	10862.81
562.854	10840.21
563.217	10852.86
563.579	10914.78
563.941	10919.76
564.304	11069.36
564.666	11029.58
565.028	11018.96
565.39	11112.29
565.753	11176.25
566.115	11180.31
566.477	11239.07
566.839	11215.57
567.201	11340.08
567.563	11407.65
567.925	11442.91
568.287	11440.19
568.648	11519.29
569.01	11461.21
569.372	11636.57
569.734	11619.85
570.095	11672.28
570.457	11720.64
570.819	11865.04
571.18	11823.46
571.542	11910.24
571.903	11931.48
572.265	12001.53
572.626	12045.83
572.987	12036.11
573.349	12187.74
573.71	12189.78
574.071	12258.25
574.432	12258.93
574.794	12573.72
575.155	12444.69
575.516	12466.16
575.877	12600.84
576.238	12647.17
576.599	12749.99
576.96	12830.21
577.32	13006.93
577.681	13024.56
578.042	13213.71
578.403	13198.34
578.763	13355.85
579.124	13465.23
579.485	13592.23
579.845	13738.89
580.206	13800.81
580.566	13872.22
580.927	14070.86
581.287	14259.55
581.648	14415.71
582.008	14584.29
582.368	14598.75
582.728	14860.44
583.089	14928.24
583.449	15010.5
583.809	15407.09
584.169	15495.23
584.529	15745.17
584.889	16021.09
585.249	16106.74
585.609	16200.52
585.969	16503.79
586.329	16690
586.688	16989.43
587.048	17169.99
587.408	17487.27
587.768	17666.7
588.127	17889.52
588.487	18151.66
588.846	18452.66
589.206	18592.1
589.565	18894.69
589.925	19225.3
590.284	19437.95
590.643	19650.6
591.003	20030.7
591.362	20283.35
591.721	20552.95
592.08	20894.18
592.44	21064.57
592.799	21408.07
593.158	21716.08
593.517	21861.39
593.876	22356.97
594.235	22406.46
594.593	22829.05
594.952	23131.64
595.311	23445.3
595.67	23724.39
596.029	24146.3
596.387	24428.78
596.746	24803.01
597.104	24964.13
597.463	25215.2
597.822	25643.44
598.18	25865.8
598.538	26010.88
598.897	26557.08
599.255	26571.77
599.613	27228.93
599.972	27315.71
600.33	27701.69
600.688	27853.32
601.046	28224.16
601.404	28468.45
601.762	28875.44
602.12	29084.25
602.478	29442.88
602.836	29512.03
603.194	29780.73
603.552	30138.01
603.91	30176.88
604.268	30627.49
604.625	30784.09
604.983	31124.42
605.341	31228.15
605.698	31597.18
606.056	31939.54
606.413	32178.86
606.771	32446.42
607.128	32589.47
607.485	32805.96
607.843	32991.94
608.2	33399.39
608.557	33723.68
608.914	33688.65
609.272	34012.93
609.629	34391.68
609.986	34556.42
610.343	34501.73
610.7	35077.31
611.057	35123.19
611.414	35397.53
611.771	35456.29
612.127	35738.54
612.484	35866.44
612.841	36265.08
613.198	36273.44
613.554	36466.88
613.911	36831.84
614.267	36871.62
614.624	37063.93
614.98	37100.54
615.337	37495.78
615.693	37564.25
616.05	37617.13
616.406	37991.59
616.762	38015.99
617.118	38210.79
617.475	38248.08
617.831	38537.79
618.187	38550.67
618.543	38713.6
618.899	38951.33
619.255	39016.42
619.611	39050.09
619.967	39403.98
620.323	39474.48
620.678	39444.2
621.034	39468.16
621.39	39625.44
621.746	39612.11
622.101	40096.84
622.457	39841.25
622.812	40100
623.168	40248.93
623.523	40307.68
623.879	40486.66
624.234	40324.86
624.589	40460.22
624.945	40569.6
625.3	40806.43
625.655	40810.49
626.01	40814.79
626.365	40980.66
626.72	41035.8
627.075	41127.77
627.43	41082.58
627.785	40999.42
628.14	41297.26
628.495	41261.33
628.85	41350.82
629.205	41164.16
629.559	41464.04
629.914	41342.23
630.269	41406.19
630.623	41434.21
630.978	41331.16
631.332	41628.78
631.687	41798.94
632.041	41552.4
632.396	41679.62
632.75	41625.39
633.104	41735.67
633.459	41622.45
633.813	41567.54
634.167	41601.89
634.521	41611.83
634.875	41768.21
635.229	41596.91
635.583	41598.72
635.937	41557.37
636.291	41630.36
636.645	41596.91
636.999	41683.69
637.352	41789.9
637.706	41542
638.06	41710.36
638.413	41628.78
638.767	41587.88
639.121	41639.4
639.474	41429.91
639.828	41551.27
640.181	41661.09
640.534	41603.47
640.888	41580.19
641.241	41370.93
641.594	41323.25
641.947	41720.08
642.301	41469.91
642.654	41466.07
643.007	41600.76
643.36	41399.63
643.713	41504.26
644.066	41634.2
644.419	41237.83
644.771	41053.65
645.124	40704.51
645.477	40754
645.83	40495.7
646.182	40217.97
646.535	40359.43
646.888	40438.75
647.24	40139.55
647.593	40395.82
647.945	40357.85
648.298	40051.42
648.65	40163.96
649.002	40047.35
649.355	40267.01
649.707	40085.09
650.059	40347.91
650.411	40852.3
650.763	40790.38
651.115	41244.83
651.467	41110.6
651.819	41091.84
652.171	41146.08
652.523	40918.74
652.875	40973.88
653.227	40764.39
653.578	41047.78
653.93	41099.75
654.282	40739.76
654.633	40690.05
654.985	40810.49
655.337	40833.54
655.688	40888.46
656.039	40853.66
656.391	40730.72
656.742	40743.38
657.094	40734.79
657.445	41024.73
657.796	40920.1
658.147	40699.99
658.498	40805.98
658.849	40815.01
659.2	40667.67
659.551	40608.24
659.902	40755.35
660.253	40799.65
660.604	40819.76
660.955	40580.44
661.306	40725.53
661.656	40628.35
662.007	40748.12
662.358	40712.42
662.708	40611.86
663.059	40757.61
663.409	40386.78
663.76	40761.23
664.11	40793.32
664.461	40764.17
664.811	40822.47
665.161	40840.32
665.511	40540.45
665.862	40795.81
666.212	40709.03
666.562	40624.74
666.912	40605.75
667.262	40601.23
667.612	40600.56
667.962	40669.26
668.312	40532.31
668.662	40706.77
669.011	40591.52
669.361	40645.53
669.711	40448.24
670.06	40541.8
670.41	40378.87
670.76	40335.25
671.109	40666.32
671.459	40450.73
671.808	40377.74
672.157	40558.52
672.507	40189.04
672.856	40338.42
673.205	40389.49
673.554	40445.53
673.904	40219.78
674.253	40456.15
674.602	40422.26
674.951	39742.05
675.3	39592.45
675.649	40162.38
675.998	40313.33
676.346	40234.92
676.695	40414.8
677.044	40029.5
677.393	40228.14
677.741	40069.05
678.09	40209.61
678.438	40145.43
678.787	40072.89
679.135	40215.03
679.484	39698.43
679.832	40009.61
680.181	39642.84
680.529	39930.74
680.877	39853.01
681.225	39838.32
681.573	40054.36
681.922	39709.96
682.27	39617.31
682.618	39680.35
682.966	39495.5
683.314	39751.31
683.661	39528.95
684.009	39328.05
684.357	39290.53
684.705	39197.66
685.053	39238.78
685.4	39243.3
685.748	38953.82
686.095	39012.8
686.443	38868.85
686.79	38894.84
687.138	38973.48
687.485	38752.92
687.832	38653.49
688.18	38731.68
688.527	38559.25
688.874	38514.51
689.221	38393.38
689.568	38247.4
689.915	38238.58
690.262	38478.8
690.609	38140.28
690.956	37960.85
691.303	38253.05
691.65	37643.12
691.997	37829.33
692.344	37610.8
692.69	37669.79
693.037	37625.49
693.383	37350.7
693.73	37443.58
694.077	37257.14
694.423	37376.46
694.769	37227.54
695.116	37077.71
695.462	37127.2
695.808	36842.46
696.155	37039.75
696.501	36745.06
696.847	36700.32
697.193	36546.88
697.539	36624.39
697.885	36321.8
698.231	36241.8
698.577	36204.51
698.923	36290.84
699.269	36045.65
699.614	35946.67
699.96	35844.07
700.306	35856.27
700.651	35709.39
700.997	35525.21
701.342	35540.12
701.688	35508.71
702.033	35360.47
702.379	35295.84
702.724	35201.83
703.069	35364.31
703.415	34967.71
703.76	34940.59
704.105	35036.64
704.45	35029.4
704.795	34583.77
705.14	34608.85
705.485	34439.59
705.83	34498.12
706.175	34460.15
706.52	34272.36
706.865	34317.78
707.209	34149.43
707.554	33984.91
707.899	33992.82
708.243	34001.41
708.588	33915.31
708.932	33693.39
709.277	33820.17
709.621	33771.13
709.966	33586.73
710.31	33635.77
710.654	33152.39
710.998	33379.5
711.342	33277.36
711.687	33107.42
712.031	33068.33
712.375	33065.16
712.719	33057.48
713.063	32995.78
713.407	33136.12
713.75	32828.11
714.094	32857.03
714.438	32757.15
714.782	32798.5
715.125	32575.91
715.469	32613.87
715.812	32590.6
716.156	32382.02
716.499	32387.67
716.843	32410.49
717.186	32225.64
717.53	32350.38
717.873	32334.56
718.216	32133.43
718.559	32022.93
718.902	31859.09
719.246	31959.65
719.589	31873.33
719.932	31689.83
720.275	31684.86
720.617	31617.97
720.96	31655.26
721.303	31590.4
721.646	31653
721.989	31427.69
722.331	31514.47
722.674	31436.96
723.016	31356.96
723.359	31498.42
723.701	31359.67
724.044	31148.38
724.386	31160.13
724.729	31186.12
725.071	31032.22
725.413	31113.35
725.755	31046.01
726.097	30824.77
726.439	30791.55
726.782	30800.36
727.124	30832.68
727.465	30676.52
727.807	30650.99
728.149	30554.72
728.491	30520.14
728.833	30567.37
729.175	30420.26
729.516	30336.19
729.858	30351.79
730.199	30433.59
730.541	30360.15
730.882	30253.94
731.224	30350.88
731.565	30164
731.906	30244.9
732.248	30172.81
732.589	30034.51
732.93	29986.82
733.271	29988.86
733.612	30033.6
733.953	29892.59
734.294	29759.94
734.635	29736.89
734.976	29831.8
735.317	29734.63
735.658	29655.31
735.999	29637.23
736.339	29556.78
736.68	29624.35
737.021	29554.07
737.361	29433.39
737.702	29622.54
738.042	29425.71
738.383	29358.59
738.723	29337.58
739.063	29207.41
739.404	29336.67
739.744	29327.63
740.084	29158.37
740.424	29205.15
740.764	29055.1
741.104	29302.77
741.444	29039.5
741.784	29043.57
742.124	29012.84
742.464	28914.76
742.804	28894.65
743.143	28773.75
743.483	28825.27
743.823	28760.64
744.162	28625.96
744.502	28655.56
744.841	28558.39
745.181	28726.07
745.52	28647.42
745.86	28613.75
746.199	28479.07
746.538	28353.65
746.877	28519.29
747.216	28501.44
747.556	28357.49
747.895	28341.44
748.234	28322.46
748.573	28305.51
748.911	28093.99
749.25	28282.46
749.589	27957.95
749.928	28062.13
750.267	28082.24
750.605	27942.81
750.944	27941.45
751.283	27820.55
751.621	27949.14
751.96	27757.73
752.298	27812.42
752.636	27829.59
752.975	27570.39
753.313	27615.36
753.651	27643.38
753.989	27545.53
754.327	27494.91
754.666	27426.89
755.004	27270.06
755.342	27430.51
755.679	27276.16
756.017	27211.98
756.355	27308.48
756.693	27078.43
757.031	27229.16
757.368	26891.76
757.706	26928.6
758.044	26938.77
758.381	26951.2
758.719	26744.65
759.056	26794.37
759.394	26707.81
759.731	26414.26
760.068	26470.53
760.405	26385.56
760.743	26276.41
761.08	26324.32
761.417	26188.28
761.754	26180.82
762.091	26152.58
762.428	26039.81
762.765	25846.82
763.102	26026.7
763.438	25801.17
763.775	25724.11
764.112	25716.2
764.449	25720.04
764.785	25657.67
765.122	25437.34
765.458	25245.71
765.795	25296.33
766.131	25366.16
766.467	25177.91
766.804	25125.03
767.14	25009.55
767.476	24965.04
767.812	24783.57
768.148	24796.68
768.485	24661.77
768.821	24621.09
769.157	24532.5
769.492	24498.83
769.828	24354.43
770.164	24210.48
770.5	24137.03
770.836	24139.07
771.171	23949.47
771.507	23932.97
771.842	23818.4
772.178	23861.11
772.513	23805.07
772.849	23706.76
773.184	23511.06
773.519	23535.92
773.855	23315.59
774.19	23273.55
774.525	23285.31
774.86	23290.73
775.195	23195.14
775.53	23170.05
775.865	22944.07
776.2	22754.47
776.535	22718.32
776.87	22644.19
777.205	22695.49
777.539	22449.85
777.874	22502.28
778.209	22353.58
778.543	22231.1
778.878	22132.12
779.212	22145.67
779.547	21965.79
779.881	22080.37
780.215	21942.06
780.55	21883.08
780.884	21781.39
781.218	21655.29
781.552	21642.19
781.886	21501.62
782.22	21419.14
782.554	21402.64
782.888	21171.01
783.222	21160.62
783.556	20960.4
783.889	21067.29
784.223	20884.69
784.557	20805.6
784.89	20773.73
785.224	20827.97
785.557	20685.83
785.891	20606.05
786.224	20475.44
786.558	20527.41
786.891	20254.88
787.224	20222.56
787.557	20227.08
787.891	20087.2
788.224	20093.3
788.557	20164.71
788.89	19955.22
789.223	19858.05
789.556	19857.83
789.888	19735.57
790.221	19676.14
790.554	19610.37
790.887	19575.35
791.219	19587.55
791.552	19553.2
791.884	19314.11
792.217	19263.04
792.549	19204.28
792.882	19066.66
793.214	18965.87
793.546	19135.81
793.879	18913.22
794.211	18799.1
794.543	18948.47
794.875	18869.83
795.207	18889.49
795.539	18753
795.871	18692.43
796.203	18507.13
796.535	18470.29
796.867	18453.34
797.198	18335.38
797.53	18422.38
797.862	18172.45
798.193	18214.03
798.525	18128.38
798.856	18114.14
799.188	17904.2
799.519	17840.03
799.85	17806.13
800.182	17812.68
800.513	17815.85
800.844	17716.86
801.175	17752.57
801.506	17673.7
801.837	17551.45
802.168	17519.13
802.499	17452.24
802.83	17405.91
803.161	17331.79
803.491	17280.04
803.822	17215.18
804.153	17186.03
804.483	17098.35
804.814	17018.35
805.145	16968.41
805.475	16954.85
805.805	16872.14
806.136	16900.39
806.466	16877.56
806.796	16843.44
807.126	16772.26
807.457	16652.03
807.787	16641.19
808.117	16547.63
808.447	16533.39
808.777	16650.23
809.107	16421.76
809.436	16468.08
809.766	16389.67
810.096	16382.89
810.426	16285.49
810.755	16234.19
811.085	16256.79
811.414	16254.76
811.744	16032.62
812.073	16020.19
812.403	16042.33
812.732	15952.39
813.061	15974.09
813.39	15911.71
813.719	15871.72
814.049	15889.57
814.378	15764.83
814.707	15742.91
815.036	15771.61
815.365	15685.51
815.693	15546.98
816.022	15611.38
816.351	15536.58
816.68	15358.96
817.008	15424.5
817.337	15288.68
817.665	15291.84
817.994	15294.1
818.322	15238.51
818.651	15200.09
818.979	15098.85
819.307	15254.1
819.636	15196.93
819.964	15093.2
820.292	15112.87
820.62	15116.48
820.948	15014.56
821.276	15115.58
821.604	14963.26
821.932	15124.62
822.259	15055.92
822.587	14935.47
822.915	15003.72
823.243	14978.86
823.57	14909.71
823.898	14983.6
824.225	14850.5
824.553	14948.58
824.88	14832.87
825.207	14946.32
825.535	14827.68
825.862	14962.36
826.189	14774.34
826.516	14953.55
826.843	15009.37
827.17	14955.81
827.497	14959.88
827.824	14836.26
828.151	14950.16
828.478	14961.46
828.805	14982.25
829.131	14954.45
829.458	14882.81
829.785	14800.33
830.111	14885.75
830.438	14931.4
830.764	14819.09
831.09	14883.94
831.417	14830.39
831.743	14882.81
832.069	14897.05
832.395	14825.42
832.722	14817.05
833.048	14888.46
833.374	14893.44
833.7	14801.69
834.026	14783.83
834.351	14759.2
834.677	14731.41
835.003	14754.91
835.329	14713.1
835.654	14677.85
835.98	14594.01
836.306	14618.19
836.631	14532.54
836.956	14649.37
837.282	14654.12
837.607	14532.32
837.932	14459.55
838.258	14488.25
838.583	14469.04
838.908	14381.13
839.233	14455.26
839.558	14413.22
839.883	14375.03
840.208	14355.37
840.533	14344.3
840.858	14326.45
841.182	14300.46
841.507	14265.88
841.832	14171.65
842.156	14179.56
842.481	14220.69
842.805	14090.75
843.13	14156.51
843.454	14127.58
843.778	14024.31
844.103	14041.93
844.427	13934.37
844.751	13930.75
845.075	13994.25
845.399	13874.93
845.723	13760.13
846.047	13798.32
846.371	13784.09
846.695	13697.99
847.019	13570.08
847.343	13492.57
847.666	13481.04
847.99	13392.91
848.313	13465.23
848.637	13315.17
848.96	13289.41
849.284	13313.82
849.607	13140.94
849.931	13099.36
850.254	13018.46
850.577	12961.51
850.9	12811.46
851.223	12920.61
851.546	12818.46
851.869	12669.54
852.192	12841.51
852.515	12685.58
852.838	12665.25
853.161	12685.58
853.483	12530.79
853.806	12545.02
854.129	12471.13
854.451	12409.66
854.774	12419.15
855.096	12311.58
855.419	12331.7
855.741	12233.84
856.063	12213.05
856.385	12240.62
856.708	12094.41
857.03	12127.41
857.352	12096.67
857.674	11993.85
857.996	12001.08
858.318	11856.23
858.64	11947.07
858.961	11926.96
859.283	11893.51
859.605	11810.81
859.926	11761.32
860.248	11799.05
860.57	11710.24
860.891	11735.78
861.212	11660.07
861.534	11664.37
861.855	11583.24
862.176	11666.18
862.498	11617.59
862.819	11579.4
863.14	11501.66
863.461	11520.42
863.782	11458.05
864.103	11452.62
864.424	11443.13
864.745	11486.97
865.065	11383.47
865.386	11283.36
865.707	11370.82
866.027	11293.76
866.348	11331.5
866.668	11274.55
866.989	11318.84
867.309	11193.42
867.63	11218.05
867.95	11239.29
868.27	11129.92
868.59	11179.64
868.91	11082.01
869.23	11115.46
869.55	11071.16
869.87	11064.84
870.19	11090.37
870.51	11081.33
870.83	11073.42
871.15	11024.61
871.469	11084.5
871.789	11042.01
872.109	10971.51
872.428	10918.85
872.748	10874.78
873.067	10957.27
873.386	11010.6
873.706	10904.61
874.025	10814.45
874.344	10767.44
874.663	10845.41
874.982	10786.65
875.301	10797.72
875.62	10763.15
875.939	10721.57
876.258	10752.3
876.577	10693.09
876.896	10737.84
877.214	10726.77
877.533	10688.8
877.852	10715.69
878.17	10693.77
878.489	10549.37
878.807	10633.21
879.125	10563.15
879.444	10589.82
879.762	10530.39
880.08	10508.92
880.398	10479.31
880.716	10482.48
881.034	10416.49
881.352	10509.14
881.67	10378.53
881.988	10400.45
882.306	10355.48
882.624	10322.93
882.941	10280.45
883.259	10303.73
883.577	10230.73
883.894	10317.51
884.212	10261.24
884.529	10216.04
884.846	10131.75
885.164	10168.36
885.481	10181.7
885.798	10124.75
886.115	10069.83
886.432	10122.49
886.75	9976.05
887.067	9994.81
887.383	9985.09
887.7	9945.09
888.017	9977.41
888.334	9932.89
888.651	9876.84
888.967	9887.01
889.284	9783.74
889.6	9794.14
889.917	9735.61
890.233	9749.62
890.55	9654.93
890.866	9711.43
891.182	9750.29
891.498	9651.99
891.815	9635.04
892.131	9604.08
892.447	9547.81
892.763	9517.31
893.079	9460.13
893.395	9450.19
893.71	9407.7
894.026	9412.68
894.342	9372
894.657	9317.09
894.973	9284.54
895.289	9349.18
895.604	9274.83
895.92	9207.03
896.235	9165.9
896.55	9162.29
896.865	9155.96
897.181	9141.27
897.496	9087.26
897.811	9018.79
898.126	9087.94
898.441	9008.85
898.756	8973.37
899.071	8942.41
899.386	8909.41
899.7	8826.25
900.015	8813.6
900.33	8753.26
900.644	8764.33
900.959	8707.61
901.273	8781.28
901.588	8646.37
901.902	8681.17
902.216	8655.41
902.531	8570.89
902.845	8523.89
903.159	8494.06
903.473	8457.22
903.787	8448.63
904.101	8395.08
904.415	8421.52
904.729	8347.17
905.042	8381.74
905.356	8335.87
905.67	8254.97
905.984	8289.54
906.297	8180.17
906.611	8186.72
906.924	8202.76
907.237	8211.13
907.551	8133.61
907.864	8042.09
908.177	8097
908.491	8046.38
908.804	8006.39
909.117	7891.13
909.43	7896.33
909.743	7856.11
910.056	7828.09
910.368	7774.53
910.681	7806.62
910.994	7730.01
911.307	7704.7
911.619	7698.15
911.932	7715.77
912.244	7626.28
912.557	7570.92
912.869	7529.34
913.181	7486.17
913.494	7469.22
913.806	7417.25
914.118	7440.98
914.43	7364.59
914.742	7403.92
915.054	7337.48
915.366	7311.04
915.678	7292.05
915.99	7268.33
916.302	7191.27
916.613	7143.58
916.925	7167.09
917.236	7159.4
917.548	7084.83
917.859	7064.26
918.171	7026.07
918.482	6997.37
918.794	6954.66
919.105	6986.75
919.416	6940.65
919.727	6923.93
920.038	6899.3
920.349	6866.75
920.66	6718.96
920.971	6732.97
921.282	6764.84
921.593	6711.05
921.903	6661.56
922.214	6638.29
922.525	6635.12
922.835	6620.43
923.146	6570.72
923.456	6544.28
923.767	6527.33
924.077	6440.78
924.387	6492.98
924.697	6399.65
925.008	6383.6
925.318	6363.94
925.628	6391.06
925.938	6256.15
926.248	6250.5
926.558	6220.44
926.867	6225.64
927.177	6217.51
927.487	6173.21
927.796	6108.81
928.106	6079.66
928.416	6077.4
928.725	6119.66
929.034	6039.21
929.344	6079.43
929.653	6003.5
929.962	5943.16
930.271	5915.82
930.581	5966.89
930.89	5862.26
931.199	5888.02
931.508	5866.78
931.817	5796.27
932.125	5794.01
932.434	5807.35
932.743	5695.71
933.051	5758.99
933.36	5698.2
933.669	5691.42
933.977	5630.18
934.286	5698.65
934.594	5699.55
934.902	5629.27
935.21	5623.85
935.519	5559.67
935.827	5562.61
936.135	5511.99
936.443	5451.65
936.751	5453.68
937.059	5418.66
937.367	5430.86
937.674	5416.85
937.982	5395.38
938.29	5374.59
938.597	5316.51
938.905	5280.36
939.213	5330.75
939.52	5228.15
939.827	5259.34
940.135	5210.98
940.442	5215.05
940.749	5170.08
941.056	5153.81
941.363	5135.27
941.67	5071.55
941.977	5046.92
942.284	5049.18
942.591	5050.53
942.898	4979.12
943.205	4987.48
943.511	4988.84
943.818	4916.3
944.125	4833.36
944.431	4880.59
944.738	4876.98
945.044	4840.37
945.35	4847.37
945.657	4804.21
945.963	4765.57
946.269	4755.85
946.575	4720.6
946.881	4701.39
947.187	4755.62
947.493	4709.75
947.799	4695.29
948.105	4655.06
948.41	4614.16
948.716	4594.95
949.022	4590.43
949.327	4592.69
949.633	4521.96
949.938	4519.92
950.244	4514.95
950.549	4451.45
950.854	4441.06
951.16	4467.95
951.465	4397.67
951.77	4397.44
952.075	4382.53
952.38	4366.03
952.685	4355.86
952.99	4312.92
953.294	4301.4
953.599	4288.74
953.904	4284.9
954.209	4256.2
954.513	4252.36
954.818	4210.33
955.122	4215.75
955.426	4206.94
955.731	4159.93
956.035	4123.55
956.339	4165.58
956.643	4134.17
956.948	4055.53
957.252	4072.7
957.556	4062.99
957.86	4066.38
958.163	3998.13
958.467	4002.87
958.771	3957.45
959.075	4015.3
959.378	3992.71
959.682	3938.02
959.985	3936.66
960.289	3888.98
960.592	3896.44
960.896	3826.83
961.199	3813.5
961.502	3819.6
961.805	3819.38
962.108	3808.53
962.411	3759.72
962.714	3752.71
963.017	3769.66
963.32	3775.31
963.623	3704.13
963.926	3698.25
964.228	3662.54
964.531	3697.57
964.833	3632.49
965.136	3670
965.438	3626.16
965.741	3566.05
966.043	3609.66
966.345	3578.25
966.648	3578.25
966.95	3526.05
967.252	3523.11
967.554	3543.9
967.856	3527.18
968.158	3500.52
968.46	3489.44
968.761	3482.44
969.063	3447.41
969.365	3463.23
969.666	3446.73
969.968	3398.6
970.269	3363.8
970.571	3339.16
970.872	3371.03
971.174	3345.27
971.475	3328.99
971.776	3298.71
972.077	3295.77
972.378	3278.15
972.679	3245.38
972.98	3281.76
973.281	3242.44
973.582	3253.74
973.883	3217.58
974.183	3213.97
974.484	3146.85
974.785	3177.36
975.085	3159.96
975.386	3187.3
975.686	3088.55
975.986	3114.54
976.287	3072.96
976.587	3081.09
976.887	3127.19
977.187	3039.06
977.487	3003.81
977.787	2999.74
978.087	3045.61
978.387	3049.45
978.687	2978.27
978.987	2978.27
979.286	2938.27
979.586	2933.3
979.885	2949.57
980.185	2893.75
980.484	2889.01
980.784	2883.13
981.083	2901.89
981.382	2871.83
981.682	2871.61
981.981	2843.58
982.28	2814.66
982.579	2814.66
982.878	2864.15
983.177	2806.97
983.475	2846.07
983.774	2724.49
984.073	2738.05
984.372	2750.25
984.67	2740.99
984.969	2780.53
985.267	2731.04
985.566	2736.69
985.864	2675.23
986.162	2692.17
986.461	2669.12
986.759	2645.62
987.057	2623.7
987.355	2612.86
987.653	2613.76
987.951	2585.74
988.249	2583.7
988.547	2577.6
988.844	2569.69
989.142	2542.8
989.44	2537.15
989.737	2531.5
990.035	2511.84
990.332	2504.84
990.63	2490.6
990.927	2493.99
991.224	2489.24
991.521	2470.94
991.819	2471.62
992.116	2444.5
992.413	2420.32
992.71	2424.84
993.006	2392.97
993.303	2425.52
993.6	2387.55
993.897	2360.43
994.193	2372.18
994.49	2377.83
994.787	2348.68
995.083	2328.12
995.379	2320.66
995.676	2313.43
995.972	2282.69
996.268	2298.51
996.565	2286.76
996.861	2229.81
997.157	2286.31
997.453	2261.9
997.749	2252.86
998.044	2223.94
998.34	2203.15
998.636	2191.17
998.932	2193.43
999.227	2177.84
999.523	2146.43
999.818	2132.19
1000.114	2118.63
1000.409	2135.58
1000.704	2117.05
1001	2119.99
1001.295	2094.9
1001.59	2086.54
1001.885	2100.55
1002.18	2056.94
1002.475	2082.02
1002.77	2046.99
1003.065	2000.44
1003.359	2004.96
1003.654	2005.87
1003.949	2002.7
1004.243	1997.73
1004.538	1962.48
1004.832	1975.13
1005.127	1979.43
1005.421	1919.77
1005.715	1932.65
1006.009	1900.56
1006.304	1921.12
1006.598	1903.72
1006.892	1888.81
1007.186	1881.8
1007.48	1849.49
1007.773	1835.93
1008.067	1852.88
1008.361	1833.21
1008.655	1849.49
1008.948	1821.46
1009.242	1780.56
1009.535	1811.52
1009.829	1801.35
1010.122	1760.45
1010.415	1776.72
1010.708	1755.48
1011.001	1746.44
1011.295	1730.62
1011.588	1719.55
1011.881	1711.86
1012.173	1717.96
1012.466	1695.59
1012.759	1666.44
1013.052	1681.35
1013.344	1684.52
1013.637	1652.88
1013.93	1635.71
1014.222	1650.62
1014.514	1647.46
1014.807	1624.86
1015.099	1618.53
1015.391	1583.05
1015.683	1597.06
1015.976	1573.33
1016.268	1557.74
1016.56	1563.62
1016.851	1539.44
1017.143	1545.09
1017.435	1508.25
1017.727	1527.69
1018.018	1498.53
1018.31	1488.14
1018.602	1497.4
1018.893	1499.66
1019.185	1457.41
1019.476	1463.05
1019.767	1457.86
1020.058	1475.71
1020.35	1423.28
1020.641	1430.51
1020.932	1413.34
1021.223	1406.56
1021.514	1415.15
1021.804	1372.44
1022.095	1378.31
1022.386	1336.5
1022.677	1358.2
1022.967	1364.53
1023.258	1346.45
1023.548	1353.23
1023.839	1312.32
1024.129	1326.11
1024.419	1302.61
1024.709	1328.14
1025	1290.86
1025.29	1277.97
1025.58	1271.87
1025.87	1279.56
1026.16	1248.15
1026.449	1222.38
1026.739	1209.95
1027.029	1244.98
1027.319	1220.8
1027.608	1237.52
1027.898	1217.64
1028.187	1207.92
1028.477	1194.81
1028.766	1189.62
1029.055	1196.17
1029.344	1182.61
1029.634	1170.18
1029.923	1154.81
1030.212	1167.7
1030.501	1151.65
1030.79	1148.49
1031.078	1116.85
1031.367	1109.62
1031.656	1117.53
1031.945	1106.23
1032.233	1079.79
1032.522	1093.35
1032.81	1092.67
1033.099	1086.57
1033.387	1096.06
1033.675	1033.91
1033.963	1050.41
1034.251	1061.03
1034.54	1057.42
1034.828	1046.57
1035.116	1030.52
1035.403	1012.45
1035.691	1028.72
1035.979	1029.62
1036.267	1003.18
1036.554	1010.64
1036.842	1003.41
1037.129	1000.24
1037.417	974.71
1037.704	955.5
1037.992	974.25
1038.279	966.12
1038.566	955.5
1038.853	955.5
1039.14	955.5
