Data from hue_22_FLMS001491_00071.txt Node
Date: Tue Feb 07 17:10:37 GMT 2017
User: dcchb
Spectrometer: FLMS00149
Trigger mode: 0
Integration Time (sec): 2.000000E-2
Scans to average: 10
Electric dark correction enabled: true
Nonlinearity correction enabled: false
Boxcar width: 0
XAxis mode: Wavelengths
Number of Pixels in Spectrum: 2048
>>>>>Begin Spectral Data<<<<<
341.393	-19.25
341.776	-19.25
342.16	-19.25
342.543	-49.53
342.927	-62.19
343.31	-66.26
343.693	-75.07
344.077	-82.53
344.46	-61.51
344.843	-45.46
345.226	-55.63
345.61	-32.58
345.993	-28.29
346.376	16.23
346.759	2.9
347.142	12.61
347.525	48.54
347.908	79.28
348.291	87.19
348.674	79.05
349.057	121.54
349.44	117.92
349.823	164.47
350.206	163.57
350.588	202.89
350.971	209.9
351.354	239.5
351.737	242.66
352.119	246.73
352.502	258.71
352.884	243.12
353.267	273.4
353.65	311.36
354.032	285.37
354.414	305.71
354.797	307.07
355.179	300.97
355.562	328.99
355.944	342.1
356.326	340.97
356.709	339.16
357.091	348.88
357.473	357.91
357.855	339.61
358.238	339.61
358.62	334.19
359.002	320.18
359.384	336.67
359.766	340.97
360.148	328.76
360.53	334.41
360.912	339.84
361.294	328.31
361.676	336.9
362.057	330.34
362.439	343.9
362.821	352.94
363.203	327.63
363.584	321.76
363.966	308.65
364.348	315.88
364.729	323.56
365.111	307.75
365.493	323.79
365.874	320.4
366.256	324.24
366.637	326.28
367.019	329.44
367.4	328.76
367.781	342.55
368.163	315.66
368.544	323.79
368.925	311.14
369.306	321.31
369.688	307.07
370.069	302.77
370.45	329.21
370.831	316.79
371.212	329.89
371.593	308.42
371.974	303
372.355	306.16
372.736	310.23
373.117	304.81
373.498	323.79
373.879	324.92
374.26	313.4
374.641	294.64
375.021	311.36
375.402	318.37
375.783	312.94
376.163	296.67
376.544	314.53
376.925	312.94
377.305	330.34
377.686	324.47
378.066	321.53
378.447	310.01
378.827	325.37
379.208	314.07
379.588	336.45
379.968	323.34
380.349	319.05
380.729	321.31
381.109	340.51
381.489	331.02
381.87	330.12
382.25	338.48
382.63	349.1
383.01	324.47
383.39	348.65
383.77	342.77
384.15	350.23
384.53	348.88
384.91	348.42
385.29	360.85
385.67	337.58
386.049	342.32
386.429	366.28
386.809	330.12
387.189	341.42
387.568	366.05
387.948	380.51
388.328	359.27
388.707	331.47
389.087	349.78
389.466	378.03
389.846	353.39
390.225	361.53
390.605	328.54
390.984	364.47
391.363	344.36
391.743	358.82
392.122	362.66
392.501	355.43
392.881	356.56
393.26	392.26
393.639	358.37
394.018	353.62
394.397	372.38
394.776	367.63
395.155	386.84
395.534	386.16
395.913	383.22
396.292	371.47
396.671	371.02
397.05	365.6
397.429	380.29
397.808	386.39
398.186	402.66
398.565	396.11
398.944	374.19
399.323	389.1
399.701	371.7
400.08	389.33
400.458	381.64
400.837	397.24
401.215	403.79
401.594	404.01
401.972	405.37
402.351	400.85
402.729	380.29
403.107	393.62
403.486	390.46
403.864	393.62
404.242	394.98
404.62	411.47
404.999	414.86
405.377	382.55
405.755	413.05
406.133	421.42
406.511	415.09
406.889	407.4
407.267	410.57
407.645	402.43
408.023	454.86
408.401	437.46
408.779	422.55
409.156	423.45
409.534	434.97
409.912	438.36
410.29	446.27
410.667	435.2
411.045	426.16
411.422	434.07
411.8	436.78
412.178	458.25
412.555	459.38
412.933	474.97
413.31	444.01
413.687	444.24
414.065	473.62
414.442	471.81
414.819	465.71
415.197	471.36
415.574	476.56
415.951	477.01
416.328	496.89
416.705	486.27
417.082	483.56
417.46	485.82
417.837	506.61
418.214	495.99
418.591	515.2
418.967	501.19
419.344	502.32
419.721	486.05
420.098	512.49
420.475	505.03
420.852	533.5
421.228	525.59
421.605	501.64
421.982	535.08
422.358	528.08
422.735	534.63
423.111	535.08
423.488	533.95
423.864	518.81
424.241	545.25
424.617	534.63
424.994	526.95
425.37	547.74
425.746	565.37
426.123	533.5
426.499	525.14
426.875	580.96
427.251	556.55
427.627	590.45
428.003	566.27
428.379	570.11
428.756	589.09
429.132	574.63
429.507	602.65
429.883	611.02
430.259	622.31
430.635	589.32
431.011	627.06
431.387	613.05
431.763	603.11
432.138	616.21
432.514	634.07
432.89	647.62
433.265	655.99
433.641	647.62
434.016	666.83
434.392	633.16
434.767	681.3
435.143	641.75
435.518	644.69
435.894	655.31
436.269	665.7
436.644	678.58
437.02	712.48
437.395	712.26
437.77	684.01
438.145	692.82
438.52	722.2
438.895	705.02
439.271	725.36
439.646	715.42
440.021	738.92
440.395	739.15
440.77	728.98
441.145	738.47
441.52	750.45
441.895	744.57
442.27	732.59
442.645	741.63
443.019	777.79
443.394	757.9
443.769	779.6
444.143	789.99
444.518	780.28
444.892	772.59
445.267	785.02
445.641	792.03
446.016	804.68
446.39	794.51
446.764	818.69
447.139	793.16
447.513	811.46
447.887	808.3
448.262	812.37
448.636	807.62
449.01	827.73
449.384	821.86
449.758	839.94
450.132	841.97
450.506	838.58
450.88	845.59
451.254	861.86
451.628	843.55
452.002	895.98
452.376	895.53
452.75	897.11
453.123	885.36
453.497	873.83
453.871	916.77
454.244	923.55
454.618	909.09
454.992	914.06
455.365	933.72
455.739	955.86
456.112	926.26
456.486	962.19
456.859	978.01
457.232	987.73
457.606	988.63
457.979	1003.77
458.352	997.45
458.725	1011.23
459.099	1016.88
459.472	1043.77
459.845	1057.78
460.218	1066.14
460.591	1073.38
460.964	1066.6
461.337	1074.73
461.71	1117.44
462.083	1095.07
462.456	1120.38
462.829	1112.92
463.201	1137.78
463.574	1152.02
463.947	1171
464.32	1187.05
464.692	1181.17
465.065	1203.32
465.438	1187.95
465.81	1206.71
466.183	1232.24
466.555	1258.23
466.928	1266.59
467.3	1261.62
467.672	1256.42
468.045	1329.41
468.417	1314.5
468.789	1347.72
469.161	1330.54
469.534	1393.14
469.906	1415.51
470.278	1430.2
470.65	1442.41
471.022	1458.68
471.394	1480.14
471.766	1503.42
472.138	1506.81
472.51	1532.35
472.882	1541.61
473.253	1540.26
473.625	1570.76
473.997	1616.64
474.369	1642.17
474.74	1670.87
475.112	1689.86
475.484	1721.27
475.855	1769.63
476.227	1773.24
476.598	1803.98
476.97	1826.58
477.341	1885.11
477.713	1896.63
478.084	1947.25
478.455	1973.69
478.827	2008.27
479.198	2045.1
479.569	2064.08
479.94	2117.19
480.311	2135.49
480.682	2168.04
481.053	2251.65
481.424	2293.46
481.795	2316.96
482.166	2339.11
482.537	2390.86
482.908	2394.47
483.279	2459.78
483.65	2486.9
484.021	2571.64
484.391	2580.23
484.762	2599.89
485.133	2664.52
485.503	2699.55
485.874	2733.22
486.244	2765.76
486.615	2880.11
486.985	2882.37
487.356	2941.35
487.726	2990.84
488.097	3024.74
488.467	3065.41
488.837	3142.7
489.207	3165.07
489.578	3233.32
489.948	3263.6
490.318	3302.02
490.688	3344.5
491.058	3371.17
491.428	3400.77
491.798	3458.85
492.168	3505.18
492.538	3590.82
492.908	3605.06
493.278	3664.04
493.648	3663.82
494.017	3746.53
494.387	3732.51
494.757	3778.84
495.126	3860.87
495.496	3871.04
495.866	3887.09
496.235	3908.33
496.605	3984.03
496.974	4017.25
497.344	3994.88
497.713	4097.03
498.082	4110.58
498.452	4161.88
498.821	4182.67
499.19	4145.16
499.559	4226.29
499.928	4229.22
500.298	4258.38
500.667	4300.86
501.036	4280.52
501.405	4387.19
501.774	4391.71
502.143	4417.69
502.512	4491.59
502.88	4421.54
503.249	4452.5
503.618	4514.19
503.987	4538.14
504.356	4574.98
504.724	4558.71
505.093	4705.6
505.462	4631.25
505.83	4649.1
506.199	4671.47
506.567	4748.31
506.936	4770.91
507.304	4813.39
507.672	4816.1
508.041	4819.49
508.409	4848.64
508.777	4922.09
509.145	4892.03
509.514	4889.55
509.882	4922.09
510.25	4939.04
510.618	4946.04
510.986	4997.57
511.354	5063.55
511.722	5091.12
512.09	5142.2
512.458	5127.28
512.826	5144.68
513.193	5164.57
513.561	5175.41
513.929	5206.37
514.297	5235.07
514.664	5242.53
515.032	5294.73
515.4	5351.91
515.767	5336.09
516.135	5385.58
516.502	5346.03
516.869	5449.31
517.237	5428.97
517.604	5394.17
517.972	5448.63
518.339	5506.48
518.706	5498.34
519.073	5514.16
519.44	5552.35
519.808	5628.51
520.175	5573.37
520.542	5633.93
520.909	5634.61
521.276	5666.25
521.643	5670.77
522.009	5724.55
522.376	5737.89
522.743	5779.24
523.11	5822.18
523.477	5880.48
523.843	5885.23
524.21	5947.6
524.577	5972.91
524.943	5984.43
525.31	5990.08
525.676	6085.67
526.043	6113.7
526.409	6148.5
526.776	6194.15
527.142	6150.98
527.508	6165.67
527.874	6226.91
528.241	6248.15
528.607	6260.13
528.973	6350.98
529.339	6345.1
529.705	6437.75
530.071	6441.6
530.437	6472.56
530.803	6515.27
531.169	6548.71
531.535	6557.07
531.901	6538.54
532.267	6610.86
532.632	6655.6
532.998	6714.81
533.364	6702.38
533.73	6733.79
534.095	6756.62
534.461	6797.52
534.826	6830.29
535.192	6847.24
535.557	6880.45
535.923	6869.38
536.288	6854.69
536.653	6926.56
537.019	6889.72
537.384	6991.41
537.749	7035.48
538.114	7051.98
538.479	7022.37
538.845	7060.11
539.21	7071.18
539.575	7136.72
539.94	7181.24
540.305	7182.59
540.67	7182.37
541.034	7224.4
541.399	7273.89
541.764	7315.25
542.129	7329.93
542.494	7320.9
542.858	7371.97
543.223	7375.58
543.587	7437.95
543.952	7499.42
544.316	7516.6
544.681	7496.94
545.045	7584.62
545.41	7587.1
545.774	7587.78
546.138	7613.09
546.503	7684.28
546.867	7674.33
547.231	7747.55
547.595	7760.43
547.959	7763.14
548.324	7733.54
548.688	7792.07
549.052	7819.41
549.416	7843.14
549.779	7867.55
550.143	7886.76
550.507	7999.52
550.871	8016.02
551.235	8051.95
551.599	8079.07
551.962	8122
552.326	8104.83
552.689	8104.15
553.053	8124.49
553.417	8184.83
553.78	8193.87
554.143	8146.41
554.507	8231.38
554.87	8271.38
555.234	8368.55
555.597	8345.5
555.96	8400.64
556.323	8294.2
556.686	8388.21
557.05	8451.26
557.413	8440.87
557.776	8470.92
558.139	8521.99
558.502	8548.21
558.865	8622.56
559.228	8549.79
559.59	8590.24
559.953	8671.37
560.316	8789.11
560.679	8741.87
561.041	8795.66
561.404	8856
561.767	8869.78
562.129	8891.02
562.492	8950
562.854	8919.05
563.217	8929.89
563.579	8929.89
563.941	8990.68
564.304	9058.25
564.666	9051.47
565.028	9088.76
565.39	9089.89
565.753	9169.21
566.115	9256.21
566.477	9210.56
566.839	9227.74
567.201	9259.38
567.563	9346.83
567.925	9314.29
568.287	9403.1
568.648	9420.27
569.01	9485.13
569.372	9508.18
569.734	9527.16
570.095	9597.67
570.457	9613.94
570.819	9648.74
571.18	9628.86
571.542	9749.76
571.903	9780.49
572.265	9861.62
572.626	9851.68
572.987	9899.58
573.349	9933.03
573.71	9962.63
574.071	10069.75
574.432	10073.14
574.794	10142.06
575.155	10193.36
575.516	10260.48
575.877	10344.54
576.238	10367.37
576.599	10420.93
576.96	10519.68
577.32	10621.15
577.681	10650.53
578.042	10815.72
578.403	10855.04
578.763	10904.76
579.124	11052.1
579.485	11148.59
579.845	11234.92
580.206	11281.24
580.566	11358.3
580.927	11457.74
581.287	11653.21
581.648	11759.2
582.008	11864.05
582.368	11989.02
582.728	12152.63
583.089	12306.07
583.449	12380.2
583.809	12593.3
584.169	12853.63
584.529	12923.69
584.889	13150.35
585.249	13201.42
585.609	13438.02
585.969	13724.12
586.329	13838.69
586.688	14031.23
587.048	14346.02
587.408	14393.7
587.768	14684.32
588.127	14864.88
588.487	15012.67
588.846	15389.61
589.206	15604.75
589.565	15789.6
589.925	16087.9
590.284	16402.92
590.643	16658.95
591.003	16882
591.362	17246.96
591.721	17402.66
592.08	17645.14
592.44	18137.33
592.799	18337.55
593.158	18668.39
593.517	18893.25
593.876	19218.89
594.235	19445.1
594.593	19817.74
594.952	20132.08
595.311	20406.43
595.67	20681.67
596.029	21190.59
596.387	21452.95
596.746	21806.84
597.104	21840.97
597.463	22236.89
597.822	22602.98
598.18	22936.98
598.538	23212
598.897	23633.01
599.255	23698.77
599.613	24364.97
599.972	24526.77
600.33	24911.17
600.688	25125.17
601.046	25475.22
601.404	25914.76
601.762	26102.55
602.12	26519.94
602.478	26848.07
602.836	27101.17
603.194	27260.48
603.552	27537.31
603.91	27882.39
604.268	28277.18
604.625	28519.43
604.983	28810.73
605.341	28933.89
605.698	29396.25
606.056	29664.49
606.413	29948.1
606.771	30319.84
607.128	30471.92
607.485	30651.13
607.843	30894.96
608.2	31373.14
608.557	31665.34
608.914	31742.85
609.272	32156.4
609.629	32484.53
609.986	32682.04
610.343	32705.31
610.7	33198.63
611.057	33311.62
611.414	33548.68
611.771	33838.16
612.127	34027.54
612.484	34282.22
612.841	34594.08
613.198	34616.22
613.554	34818.25
613.911	35282.87
614.267	35360.16
614.624	35336.43
614.98	35820.48
615.337	35987.71
615.693	36026.58
616.05	36236.07
616.406	36618.88
616.762	36553.8
617.118	36846.22
617.475	37006.44
617.831	37151.75
618.187	37450.72
618.543	37482.14
618.899	37817.49
619.255	37845.52
619.611	37993.76
619.967	38198.5
620.323	38471.49
620.678	38494.31
621.034	38416.57
621.39	38632.84
621.746	38718.71
622.101	39155.31
622.457	38976.11
622.812	39173.62
623.168	39478.24
623.523	39469.43
623.879	39590.33
624.234	39427.17
624.589	39762.98
624.945	39862.64
625.3	39902.64
625.655	39986.48
626.01	40093.37
626.365	40174.27
626.72	40127.04
627.075	40259.24
627.43	40268.05
627.785	40355.73
628.14	40374.72
628.495	40600.92
628.85	40644.31
629.205	40554.6
629.559	40791.65
629.914	40682.73
630.269	40634.37
630.623	40813.35
630.978	40775.38
631.332	41052.44
631.687	41064.41
632.041	41053.57
632.396	41102.15
632.75	40858.54
633.104	41030.52
633.459	40988.71
633.813	40957.52
634.167	41168.82
634.521	41083.85
634.875	41146.67
635.229	41086.33
635.583	41087.01
635.937	41104.41
636.291	41082.27
636.645	41089.05
636.999	40975.83
637.352	41235.71
637.706	40965.89
638.06	41161.36
638.413	41079.78
638.767	40966.79
639.121	41084.3
639.474	41014.47
639.828	40971.99
640.181	41228.03
640.534	41040.23
640.888	40955.04
641.241	40927.47
641.594	40967.24
641.947	41318.87
642.301	41074.58
642.654	40958.88
643.007	40989.16
643.36	41008.37
643.713	41043.4
644.066	41121.36
644.419	40985.09
644.771	40608.61
645.124	40352.79
645.477	40219.47
645.83	40159.81
646.182	40000.49
646.535	39914.16
646.888	40080.26
647.24	39729.99
647.593	40064.44
647.945	39683.66
648.298	39736.09
648.65	39584.91
649.002	39545.81
649.355	39790.1
649.707	39819.7
650.059	39928.85
650.411	40336.98
650.763	40417.88
651.115	40859
651.467	40640.47
651.819	40564.77
652.171	40571.55
652.523	40534.26
652.875	40573.81
653.227	40326.35
653.578	40709.62
653.93	40528.61
654.282	40463.07
654.633	40234.15
654.985	40362.74
655.337	40313.02
655.688	40495.62
656.039	40647.48
656.391	40389.63
656.742	40353.47
657.094	40424.66
657.445	40549.4
657.796	40581.49
658.147	40386.47
658.498	40256.07
658.849	40315.51
659.2	40412
659.551	40371.1
659.902	40489.51
660.253	40403.19
660.604	40319.58
660.955	40196.87
661.306	40376.52
661.656	40122.97
662.007	40360.93
662.358	40377.43
662.708	40308.28
663.059	40297.88
663.409	40196.41
663.76	40333.59
664.11	40393.02
664.461	40365
664.811	40265.34
665.161	40279.12
665.511	40068.51
665.862	40077.1
666.212	40301.95
666.562	40174.72
666.912	40179.69
667.262	40258.33
667.612	40214.27
667.962	40234.83
668.312	40101.28
668.662	40322.51
669.011	40198.9
669.361	40039.36
669.711	40232.8
670.06	40138.34
670.41	39920.04
670.76	39969.53
671.109	40078.45
671.459	39957.55
671.808	39977.21
672.157	40110.77
672.507	39871.68
672.856	39802.98
673.205	40004.1
673.554	40096.98
673.904	39913.03
674.253	40191.67
674.602	39898.34
674.951	39487.28
675.3	39094.07
675.649	39854.5
675.998	39808.18
676.346	39746.26
676.695	39847.95
677.044	39489.77
677.393	39800.04
677.741	39730.21
678.09	39715.75
678.438	39571.35
678.787	39632.36
679.135	39658.8
679.484	39445.93
679.832	39606.15
680.181	39361.86
680.529	39352.6
680.877	39257.91
681.225	39282.99
681.573	39499.48
681.922	39238.47
682.27	39099.95
682.618	39235.31
682.966	39118.93
683.314	39091.13
683.661	39110.57
684.009	38746.74
684.357	38832.83
684.705	38812.04
685.053	38730.92
685.4	38823.8
685.748	38505.39
686.095	38622.9
686.443	38505.61
686.79	38357.14
687.138	38427.42
687.485	38526.18
687.832	38324.15
688.18	38501.54
688.527	38184.72
688.874	38146.3
689.221	37943.59
689.568	37889.81
689.915	37722.58
690.262	37876.02
690.609	37658.63
690.956	37521.68
691.303	37494.34
691.65	37314.23
691.997	37360.78
692.344	37270.84
692.69	37045.09
693.037	37202.82
693.383	36908.37
693.73	37044.63
694.077	36832.21
694.423	36848.03
694.769	36828.82
695.116	36644.87
695.462	36666.34
695.808	36413.24
696.155	36554.48
696.501	36195.16
696.847	36200.59
697.193	36132.34
697.539	36285.56
697.885	35966.02
698.231	35782.97
698.577	35815.97
698.923	35708.4
699.269	35601.96
699.614	35411.68
699.96	35373.04
700.306	35331.46
700.651	35131.24
700.997	35136.43
701.342	35037
701.688	35015.31
702.033	34905.71
702.379	34848.76
702.724	34736.22
703.069	34835.43
703.415	34473.18
703.76	34566.96
704.105	34536.9
704.45	34437.92
704.795	34151.6
705.14	34148.44
705.485	34206.74
705.83	33992.51
706.175	33974.88
706.52	33931.49
706.865	33747.32
707.209	33624.84
707.554	33591.62
707.899	33677.26
708.243	33541.67
708.588	33439.08
708.932	33086.09
709.277	33061.69
709.621	33275.01
709.966	32956.38
710.31	33034.57
710.654	32768.81
710.998	32829.6
711.342	32999.32
711.687	32705.99
712.031	32617.63
712.375	32593.68
712.719	32619.21
713.063	32585.32
713.407	32604.52
713.75	32375.83
714.094	32371.76
714.438	32285.21
714.782	32253.12
715.125	32144.42
715.469	32219.45
715.812	32074.37
716.156	31886.12
716.499	31845.67
716.843	31917.08
717.186	31693.36
717.53	31823.08
717.873	31809.52
718.216	31732.68
718.559	31532.24
718.902	31398.23
719.246	31476.42
719.589	31370.21
719.932	31391.22
720.275	31230.1
720.617	31203.66
720.96	31150.1
721.303	31300.38
721.646	31211.34
721.989	30882.31
722.331	31068.07
722.674	30905.59
723.016	31012.48
723.359	30902.2
723.701	31009.76
724.044	30712.14
724.386	30591.47
724.729	30674.86
725.071	30599.61
725.413	30614.07
725.755	30574.29
726.097	30306.51
726.439	30180.18
726.782	30298.14
727.124	30410.91
727.465	30255.43
727.807	30090.69
728.149	30077.36
728.491	30213.85
728.833	30147.87
729.175	30068.09
729.516	30004.14
729.858	29981.32
730.199	29927.31
730.541	29866.97
730.882	29786.52
731.224	29924.59
731.565	29723.02
731.906	29769.12
732.248	29776.12
732.589	29591.27
732.93	29521.22
733.271	29524.61
733.612	29517.37
733.953	29444.38
734.294	29433.99
734.635	29318.28
734.976	29316.7
735.317	29177.72
735.658	29194.9
735.999	29214.78
736.339	29187.44
736.68	29240.32
737.021	29271.73
737.361	28905.41
737.702	29153.54
738.042	28923.49
738.383	28821.12
738.723	28958.97
739.063	28856.6
739.404	28894.57
739.744	28878.75
740.084	28796.94
740.424	28794.68
740.764	28692.54
741.104	28791.07
741.444	28600.56
741.784	28560.11
742.124	28641.92
742.464	28564.18
742.804	28436.5
743.143	28341.59
743.483	28417.29
743.823	28184.98
744.162	28150.18
744.502	28300.91
744.841	28196.5
745.181	28356.95
745.52	28144.3
745.86	28109.5
746.199	28215.71
746.538	28114.25
746.877	28138.88
747.216	28146.56
747.556	28023.85
747.895	27942.95
748.234	27862.5
748.573	27799.68
748.911	27978.43
749.25	27857.08
749.589	27622.51
749.928	27702.28
750.267	27710.42
750.605	27634.94
750.944	27597.2
751.283	27475.85
751.621	27500.25
751.96	27477.65
752.298	27496.18
752.636	27426.13
752.975	27258.9
753.313	27109.75
753.651	27267.94
753.989	27203.31
754.327	27125.35
754.666	27001.51
755.004	27043.54
755.342	27100.26
755.679	27062.3
756.017	26917.44
756.355	26904.11
756.693	26764.23
757.031	26762.87
757.368	26645.36
757.706	26627.51
758.044	26487.4
758.381	26517.68
758.719	26494.4
759.056	26363.33
759.394	26430
759.731	26169.89
760.068	26187.07
760.405	26055.09
760.743	25959.73
761.08	26004.92
761.417	25922.21
761.754	25980.74
762.091	25742.11
762.428	25706.85
762.765	25519.29
763.102	25730.35
763.438	25469.8
763.775	25392.06
764.112	25398.16
764.449	25526.74
764.785	25326.75
765.122	25162.69
765.458	25063.25
765.795	24944.84
766.131	24981.45
766.467	24848.57
766.804	24805.41
767.14	24796.37
767.476	24691.96
767.812	24474.34
768.148	24645.86
768.485	24415.81
768.821	24266.21
769.157	24240.22
769.492	24089.72
769.828	24118.19
770.164	23954.81
770.5	23907.8
770.836	23789.16
771.171	23759.33
771.507	23650.18
771.842	23525.89
772.178	23541.94
772.513	23463.97
772.849	23355.28
773.184	23278.22
773.519	23242.96
773.855	23172.91
774.19	23000.03
774.525	22907.38
774.86	22954.83
775.195	22960.26
775.53	22698.34
775.865	22738.57
776.2	22537.22
776.535	22429.2
776.87	22496.54
777.205	22313.95
777.539	22127.74
777.874	22243.44
778.209	22084.57
778.543	22024.69
778.878	21843.68
779.212	21852.04
779.547	21826.95
779.881	21840.51
780.215	21679.39
780.55	21642.78
780.884	21540.41
781.218	21386.51
781.552	21482.78
781.886	21335.44
782.22	21230.59
782.554	21146.29
782.888	20983.36
783.222	20843.7
783.556	20888.67
783.889	20796.7
784.223	20564.39
784.557	20616.59
784.89	20557.38
785.224	20485.52
785.557	20399.42
785.891	20265.41
786.224	20299.99
786.558	20239.43
786.891	20096.6
787.224	20091.86
787.557	20001.01
787.891	19934.35
788.224	19934.12
788.557	19813.45
788.89	19808.93
789.223	19843.05
789.556	19613.68
789.888	19534.81
790.221	19507.47
790.554	19262.95
790.887	19322.16
791.219	19202.84
791.552	19177.08
791.884	19064.09
792.217	19004.66
792.549	18992.9
792.882	18881.72
793.214	18834.49
793.546	18835.62
793.879	18710.2
794.211	18582.07
794.543	18634.5
794.875	18556.31
795.207	18626.13
795.539	18531.22
795.871	18423.65
796.203	18307.27
796.535	18245.35
796.867	18151.57
797.198	18216.88
797.53	18186.15
797.862	17921.97
798.193	18040.61
798.525	17882.2
798.856	17942.76
799.188	17672.49
799.519	17717.01
799.85	17536.22
800.182	17631.58
800.513	17640.17
800.844	17475.43
801.175	17551.13
801.506	17543
801.837	17443.34
802.168	17220.3
802.499	17188.21
802.83	17184.59
803.161	17083.8
803.491	17185.04
803.822	17138.04
804.153	16975.1
804.483	16832.28
804.814	16790.7
805.145	16829.57
805.475	16804.26
805.805	16757.03
806.136	16727.43
806.466	16700.99
806.796	16661.67
807.126	16473.2
807.457	16442.01
807.787	16429.58
808.117	16296.93
808.447	16315.69
808.777	16382.13
809.107	16349.58
809.436	16239.3
809.766	16139.42
810.096	16106.2
810.426	16144.39
810.755	16058.97
811.085	16077.5
811.414	16009.48
811.744	15889.26
812.073	15874.34
812.403	15888.13
812.732	15726.78
813.061	15684.07
813.39	15675.25
813.719	15635.7
814.049	15720.9
814.378	15641.58
814.707	15621.02
815.036	15520.91
815.365	15458.76
815.693	15413.34
816.022	15458.76
816.351	15289.05
816.68	15231.87
817.008	15219.22
817.337	15132.67
817.665	15158.2
817.994	15206.56
818.322	15143.06
818.651	15073.01
818.979	14942.39
819.307	15016.96
819.636	14917.08
819.964	14931.54
820.292	15023.07
820.62	15008.15
820.948	14866.46
821.276	14916.18
821.604	14858.78
821.932	14897.19
822.259	14822.62
822.587	14875.05
822.915	14793.69
823.243	14906.68
823.57	14767.48
823.898	14801.83
824.225	14780.36
824.553	14778.1
824.88	14821.94
825.207	14826.46
825.535	14776.74
825.862	14850.19
826.189	14761.6
826.516	14765.45
826.843	14779.46
827.17	14776.29
827.497	14793.24
827.824	14861.94
828.151	14810.64
828.478	14738.55
828.805	14728.61
829.131	14716.18
829.458	14738.78
829.785	14564.77
830.111	14720.7
830.438	14781.72
830.764	14739.68
831.09	14804.77
831.417	14667.59
831.743	14684.77
832.069	14638.67
832.395	14651.1
832.722	14667.37
833.048	14641.38
833.374	14698.33
833.7	14547.15
834.026	14504.44
834.351	14590.31
834.677	14582.63
835.003	14616.97
835.329	14556.19
835.654	14528.62
835.98	14435.51
836.306	14452.23
836.631	14508.95
836.956	14453.36
837.282	14468.5
837.607	14464.89
837.932	14341.95
838.258	14366.36
838.583	14357.09
838.908	14363.42
839.233	14312.8
839.558	14334.5
839.883	14216.08
840.208	14098.8
840.533	14113.94
840.858	14170.66
841.182	14171.11
841.507	14082.98
841.832	13967.05
842.156	14060.83
842.481	14020.83
842.805	13949.87
843.13	13934.51
843.454	13898.58
843.778	13898.35
844.103	13771.8
844.427	13758.47
844.751	13778.58
845.075	13794.85
845.399	13802.76
845.723	13675.08
846.047	13633.95
846.371	13490.22
846.695	13523.9
847.019	13473.73
847.343	13412.49
847.666	13297.91
847.99	13240.74
848.313	13320.51
848.637	13178.37
848.96	13189.67
849.284	13144.7
849.607	12960.52
849.931	12968.43
850.254	12885.49
850.577	12897.25
850.9	12807.53
851.223	12697.25
851.546	12680.08
851.869	12496.58
852.192	12682.79
852.515	12565.73
852.838	12426.07
853.161	12391.27
853.483	12336.81
853.806	12368.45
854.129	12301.56
854.451	12252.06
854.774	12231.73
855.096	12206.64
855.419	12126.19
855.741	12118.51
856.063	12071.73
856.385	12064.95
856.708	11965.97
857.03	11979.76
857.352	11921.9
857.674	11913.54
857.996	11870.61
858.318	11859.08
858.64	11758.29
858.961	11754
859.283	11763.49
859.605	11663.15
859.926	11696.6
860.248	11669.48
860.57	11642.59
860.891	11585.19
861.212	11495.25
861.534	11519.2
861.855	11439.66
862.176	11526.21
862.498	11447.79
862.819	11436.04
863.14	11472.65
863.461	11371.41
863.782	11271.07
864.103	11314.91
864.424	11350.17
864.745	11289.83
865.065	11372.77
865.386	11203.5
865.707	11231.3
866.027	11229.72
866.348	11158.53
866.668	11158.08
866.989	11169.61
867.309	11103.17
867.63	11122.83
867.95	11122.83
868.27	10965.55
868.59	11030.85
868.91	10988.37
869.23	10977.3
869.55	10941.82
869.87	11020.01
870.19	11004.41
870.51	10987.47
870.83	10970.29
871.15	10840.12
871.469	10817.98
871.789	10893.23
872.109	10874.93
872.428	10750.86
872.748	10812.33
873.067	10795.61
873.386	10796.06
873.706	10722.16
874.025	10675.61
874.344	10615.72
874.663	10756.96
874.982	10617.98
875.301	10664.54
875.62	10603.97
875.939	10568.72
876.258	10604.2
876.577	10570.3
876.896	10535.5
877.214	10470.87
877.533	10511.55
877.852	10487.14
878.17	10534.82
878.489	10455.95
878.807	10473.81
879.125	10469.06
879.444	10407.37
879.762	10391.32
880.08	10448.04
880.398	10389.51
880.716	10413.7
881.034	10345.9
881.352	10368.72
881.67	10254.38
881.988	10349.52
882.306	10296.41
882.624	10220.71
882.941	10199.69
883.259	10139.8
883.577	10073.82
883.894	10122.18
884.212	10124.66
884.529	10111.56
884.846	10115.17
885.164	10066.13
885.481	9999.02
885.798	10016.87
886.115	9961.73
886.432	10027.26
886.75	9882.64
887.067	9893.48
887.383	9851.45
887.7	9907.04
888.017	9782.53
888.334	9813.71
888.651	9811.68
888.967	9748.18
889.284	9708.4
889.6	9686.03
889.917	9646.26
890.233	9705.01
890.55	9609.42
890.866	9558.12
891.182	9648.52
891.498	9474.96
891.815	9484.45
892.131	9473.15
892.447	9430.44
892.763	9378.24
893.079	9407.85
893.395	9383.67
893.71	9361.29
894.026	9315.19
894.342	9228.42
894.657	9181.86
894.973	9201.52
895.289	9253.05
895.604	9226.16
895.92	9120.4
896.235	9088.76
896.55	9088.31
896.865	9057.8
897.181	9032.94
897.496	8997.24
897.811	8910.23
898.126	8967.63
898.441	8930.8
898.756	8864.58
899.071	8813.06
899.386	8835.43
899.7	8723.57
900.015	8688.54
900.33	8665.94
900.644	8687.64
900.959	8739.39
901.273	8661.88
901.588	8528.77
901.902	8589.56
902.216	8547.98
902.531	8491.26
902.845	8505.95
903.159	8387.08
903.473	8369.23
903.787	8386.18
904.101	8285.84
904.415	8399.28
904.729	8339.63
905.042	8241.55
905.356	8240.42
905.67	8208.78
905.984	8159.07
906.297	8169.01
906.611	8117.94
906.924	8149.35
907.237	8103.47
907.551	8062.57
907.864	8048.56
908.177	7983.7
908.491	7964.95
908.804	7943.7
909.117	7766.76
909.43	7820.99
909.743	7756.82
910.056	7741.45
910.368	7726.99
910.681	7718.4
910.994	7679.08
911.307	7657.61
911.619	7562.02
911.932	7575.13
912.244	7482.7
912.557	7559.08
912.869	7436.15
913.181	7416.03
913.494	7406.09
913.806	7396.37
914.118	7344.62
914.43	7301.91
914.742	7292.2
915.054	7253.33
915.366	7258.3
915.678	7212.65
915.99	7161.13
916.302	7133.33
916.613	7141.92
916.925	7043.16
917.236	7057.63
917.548	7027.8
917.859	7035.03
918.171	6990.96
918.482	6946.89
918.794	6929.72
919.105	6924.3
919.416	6797.07
919.727	6862.15
920.038	6835.94
920.349	6788.93
920.66	6750.74
920.971	6731.31
921.282	6748.71
921.593	6632.1
921.903	6642.27
922.214	6543.06
922.525	6538.32
922.835	6559.11
923.146	6483.85
923.456	6473.46
923.767	6513.01
924.077	6452.22
924.387	6429.17
924.697	6398.21
925.008	6433.69
925.318	6302.39
925.628	6267.59
925.938	6273.24
926.248	6265.56
926.558	6191.89
926.867	6242.05
927.177	6130.64
927.487	6101.49
927.796	6064.88
928.106	6088.16
928.416	6011.55
928.725	6028.05
929.034	6003.64
929.344	6004.77
929.653	6010.42
929.962	5872.57
930.271	5830.76
930.581	5807.94
930.89	5850.43
931.199	5813.82
931.508	5753.25
931.817	5785.79
932.125	5713.71
932.434	5745.57
932.743	5628.06
933.051	5652.69
933.36	5666.25
933.669	5632.13
933.977	5586.7
934.286	5557.55
934.594	5513.71
934.902	5482.07
935.21	5477.55
935.519	5498.12
935.827	5439.59
936.135	5480.27
936.443	5428.74
936.751	5369.99
937.059	5376.31
937.367	5397.56
937.674	5321.63
937.982	5335.86
938.29	5272.81
938.597	5275.07
938.905	5196.21
939.213	5174.28
939.52	5180.61
939.827	5219.03
940.135	5167.28
940.442	5107.39
940.749	5111.91
941.056	5098.13
941.363	5052.71
941.67	5041.63
941.977	5014.74
942.284	5005.93
942.591	4954.18
942.898	4929.32
943.205	4959.38
943.511	4908.53
943.818	4917.12
944.125	4837.57
944.431	4848.42
944.738	4869.43
945.044	4801.87
945.35	4764.35
945.657	4768.42
945.963	4727.29
946.269	4708.76
946.575	4684.13
946.881	4688.65
947.187	4655.43
947.493	4614.3
947.799	4595.77
948.105	4637.35
948.41	4572.94
948.716	4579.27
949.022	4547.18
949.327	4503.34
949.633	4466.05
949.938	4533.85
950.244	4437.58
950.549	4412.27
950.854	4413.4
951.16	4420.86
951.465	4413.85
951.77	4353.97
952.075	4345.38
952.38	4326.62
952.685	4311.93
952.99	4292.95
953.294	4276.91
953.599	4237.13
953.904	4222.9
954.209	4208.66
954.513	4222.22
954.818	4174.09
955.122	4179.73
955.426	4138.61
955.731	4145.84
956.035	4116.69
956.339	4119.62
956.643	4074.88
956.948	4037.82
957.252	4019.51
957.556	4048.66
957.86	4032.17
958.163	4004.37
958.467	3969.12
958.771	4009.12
959.075	3948.1
959.378	3970.25
959.682	3941.77
959.985	3869.46
960.289	3849.8
960.592	3845.51
960.896	3854.09
961.199	3805.28
961.502	3790.37
961.805	3809.8
962.108	3789.01
962.411	3747.2
962.714	3691.61
963.017	3742.46
963.32	3742.46
963.623	3717.83
963.926	3698.84
964.228	3654.32
964.531	3630.6
964.833	3597.6
965.136	3602.8
965.438	3549.92
965.741	3608.9
966.043	3576.36
966.345	3552.63
966.648	3529.13
966.95	3499.98
967.252	3528.68
967.554	3497.94
967.856	3425.86
968.158	3434.67
968.46	3454.1
968.761	3463.14
969.063	3415.01
969.365	3420.88
969.666	3367.78
969.968	3356.71
970.269	3337.95
970.571	3313.32
970.872	3333.88
971.174	3327.55
971.475	3309.48
971.776	3294.11
972.077	3286.65
972.378	3265.63
972.679	3235.58
972.98	3274.22
973.281	3217.05
973.582	3186.99
973.883	3190.16
974.183	3136.82
974.484	3128.24
974.785	3127.33
975.085	3094.79
975.386	3133.89
975.686	3103.6
975.986	3083.27
976.287	3075.81
976.587	3048.24
976.887	3062.02
977.187	3046.66
977.487	3027.22
977.787	2994.91
978.087	2989.26
978.387	2964.17
978.687	2951.29
978.987	2927.11
979.286	2939.99
979.586	2900.22
979.885	2902.93
980.185	2908.81
980.484	2909.49
980.784	2893.89
981.083	2888.7
981.382	2871.07
981.682	2838.08
981.981	2784.52
982.28	2808.47
982.579	2767.79
982.878	2756.95
983.177	2787.68
983.475	2758.08
983.774	2755.59
984.073	2700.45
984.372	2715.82
984.67	2712.43
984.969	2696.84
985.267	2697.74
985.566	2660.23
985.864	2661.13
986.162	2631.53
986.461	2611.87
986.759	2614.8
987.057	2599.66
987.355	2580.91
987.653	2571.19
987.951	2580
988.249	2559.89
988.547	2568.93
988.844	2545.43
989.142	2510.63
989.44	2527.12
989.737	2499.1
990.035	2500.23
990.332	2480.12
990.63	2459.78
990.927	2465.43
991.224	2444.64
991.521	2459.33
991.819	2406
992.116	2398.54
992.413	2392.89
992.71	2363.29
993.006	2371.19
993.303	2390.86
993.6	2367.35
993.897	2353.79
994.193	2344.3
994.49	2326.22
994.787	2309.5
995.083	2296.62
995.379	2293.68
995.676	2269.95
995.972	2287.81
996.268	2243.06
996.565	2251.88
996.861	2263.17
997.157	2191.31
997.453	2237.41
997.749	2186.11
998.044	2193.57
998.34	2191.99
998.636	2159.22
998.932	2138.43
999.227	2168.04
999.523	2134.14
999.818	2128.26
1000.114	2102.28
1000.409	2108.83
1000.704	2090.98
1001	2071.09
1001.295	2085.55
1001.59	2071.32
1001.885	2041.26
1002.18	2045.1
1002.475	2041.94
1002.77	2017.31
1003.065	2017.76
1003.359	2015.27
1003.654	1972.79
1003.949	1976.63
1004.243	1970.53
1004.538	1952.22
1004.832	1943.41
1005.127	1958.32
1005.421	1920.13
1005.715	1921.94
1006.009	1907.7
1006.304	1917.65
1006.598	1905.9
1006.892	1894.37
1007.186	1843.07
1007.48	1856.86
1007.773	1843.07
1008.067	1850.76
1008.361	1806.24
1008.655	1820.47
1008.948	1818.89
1009.242	1792.68
1009.535	1807.37
1009.829	1774.15
1010.122	1754.04
1010.415	1741.15
1010.708	1770.08
1011.001	1735.96
1011.295	1723.75
1011.588	1718.1
1011.881	1676.07
1012.173	1689.4
1012.466	1676.98
1012.759	1696.64
1013.052	1676.75
1013.344	1613.93
1013.637	1649.86
1013.93	1607.6
1014.222	1628.84
1014.514	1624.55
1014.807	1622.29
1015.099	1619.12
1015.391	1597.2
1015.683	1589.29
1015.976	1558.11
1016.268	1568.05
1016.56	1573.7
1016.851	1566.92
1017.143	1508.84
1017.435	1519.69
1017.727	1500.48
1018.018	1487.15
1018.31	1490.09
1018.602	1485.34
1018.893	1489.41
1019.185	1481.05
1019.476	1439.24
1019.767	1441.73
1020.058	1439.02
1020.35	1427.04
1020.641	1423.42
1020.932	1391.33
1021.223	1420.03
1021.514	1387.49
1021.804	1376.64
1022.095	1358.34
1022.386	1374.61
1022.677	1360.83
1022.967	1340.94
1023.258	1332.35
1023.548	1334.39
1023.839	1326.02
1024.129	1312.24
1024.419	1328.06
1024.709	1311.11
1025	1303.88
1025.29	1305.46
1025.58	1273.82
1025.87	1253.03
1026.16	1249.64
1026.449	1225.91
1026.739	1229.08
1027.029	1228.85
1027.319	1223.88
1027.608	1200.38
1027.898	1213.94
1028.187	1204.9
1028.477	1203.09
1028.766	1191.79
1029.055	1170.32
1029.344	1196.31
1029.634	1175.52
1029.923	1151.57
1030.212	1164.45
1030.501	1131.23
1030.79	1127.39
1031.078	1118.35
1031.367	1121.28
1031.656	1114.73
1031.945	1093.71
1032.233	1110.89
1032.522	1103.66
1032.81	1074.05
1033.099	1051
1033.387	1069.53
1033.675	1046.26
1033.963	1068.86
1034.251	1044.22
1034.54	1061.85
1034.828	1025.24
1035.116	1031.12
1035.403	1013.72
1035.691	1019.37
1035.979	1010.33
1036.267	995.64
1036.554	1033.15
1036.842	985.92
1037.129	997.9
1037.417	970.1
1037.704	969.2
1037.992	966.94
1038.279	963.1
1038.566	954.28
1038.853	954.28
1039.14	954.28
