Data from hue_30_FLMS001491_50.txt Node
Date: Mon Feb 06 15:05:23 GMT 2017
User: dcchb
Spectrometer: FLMS00149
Trigger mode: 0
Integration Time (sec): 2.000000E-2
Scans to average: 10
Electric dark correction enabled: true
Nonlinearity correction enabled: false
Boxcar width: 0
XAxis mode: Wavelengths
Number of Pixels in Spectrum: 2048
>>>>>Begin Spectral Data<<<<<
341.393	-22.43
341.776	-22.43
342.16	-22.43
342.543	-50.68
342.927	-79.83
343.31	-73.27
343.693	-58.81
344.077	-70.11
344.46	-66.04
344.843	-60.39
345.226	-33.73
345.61	-24.01
345.993	-34.18
346.376	18.93
346.759	14.86
347.142	12.82
347.525	52.6
347.908	62.09
348.291	83.78
348.674	70
349.057	105.48
349.44	103.9
349.823	134.18
350.206	164.46
350.588	202.2
350.971	209.43
351.354	196.55
351.737	232.48
352.119	245.81
352.502	256.43
352.884	274.74
353.267	288.52
353.65	287.17
354.032	311.35
354.414	305.47
354.797	306.6
355.179	336.21
355.562	328.97
355.944	315.19
356.326	318.35
356.709	333.49
357.091	331.91
357.473	315.87
357.855	330.1
358.238	348.41
358.62	347.28
359.002	327.84
359.384	343.21
359.766	343.89
360.148	349.76
360.53	346.38
360.912	306.15
361.294	328.75
361.676	351.8
362.057	336.66
362.439	356.09
362.821	325.58
363.203	341.63
363.584	343.89
363.966	306.38
364.348	309.09
364.729	336.88
365.111	305.92
365.493	321.74
365.874	338.24
366.256	295.3
366.637	307.96
367.019	321.07
367.4	303.66
367.781	307.51
368.163	333.27
368.544	324.68
368.925	316.77
369.306	310.22
369.688	312.93
370.069	325.36
370.45	311.12
370.831	299.82
371.212	300.05
371.593	301.4
371.974	326.26
372.355	310.67
372.736	315.42
373.117	312.48
373.498	306.83
373.879	328.97
374.26	327.17
374.641	322.87
375.021	341.86
375.402	319.48
375.783	301.63
376.163	323.55
376.544	341.63
376.925	319.71
377.305	314.29
377.686	297.79
378.066	326.26
378.447	330.78
378.827	313.16
379.208	329.43
379.588	330.78
379.968	331.91
380.349	333.72
380.729	320.61
381.109	335.75
381.489	321.52
381.87	338.24
382.25	328.07
382.63	340.5
383.01	351.8
383.39	342.76
383.77	333.04
384.15	345.7
384.53	370.78
384.91	358.35
385.29	334.85
385.67	346.83
386.049	357.9
386.429	341.86
386.809	351.35
387.189	347.5
387.568	327.17
387.948	338.92
388.328	346.83
388.707	356.32
389.087	352.25
389.466	346.38
389.846	366.04
390.225	375.07
390.605	366.49
390.984	350.67
391.363	346.15
391.743	370.33
392.122	366.71
392.501	359.48
392.881	356.54
393.26	377.33
393.639	385.02
394.018	365.58
394.397	375.07
394.776	355.87
395.155	375.98
395.534	373.72
395.913	386.15
396.292	387.5
396.671	373.94
397.05	398.8
397.429	378.01
397.808	399.03
398.186	391.57
398.565	373.04
398.944	381.18
399.323	392.25
399.701	380.95
400.08	405.58
400.458	392.48
400.837	411.46
401.215	371.23
401.594	360.39
401.972	399.71
402.351	404.45
402.729	404.45
403.107	413.72
403.486	404
403.864	388.63
404.242	404.45
404.62	392.93
404.999	412.81
405.377	391.35
405.755	390.89
406.133	398.8
406.511	410.33
406.889	428.86
407.267	408.29
407.645	416.43
408.023	411.91
408.401	424.79
408.779	420.05
409.156	433.6
409.534	420.72
409.912	422.53
410.29	454.62
410.667	437.22
411.045	437.67
411.422	430.21
411.8	447.39
412.178	454.62
412.555	440.38
412.933	450.33
413.31	454.85
413.687	478.57
414.065	458.46
414.442	458.24
414.819	460.5
415.197	486.26
415.574	481.74
415.951	500.95
416.328	485.58
416.705	478.35
417.082	482.19
417.46	488.07
417.837	492.13
418.214	507.27
418.591	485.58
418.967	474.28
419.344	487.39
419.721	508.4
420.098	493.72
420.475	484.22
420.852	511.34
421.228	486.94
421.605	505.01
421.982	528.52
422.358	531
422.735	530.78
423.111	510.66
423.488	535.3
423.864	502.08
424.241	540.27
424.617	536.65
424.994	544.34
425.37	533.94
425.746	552.92
426.123	578.23
426.499	535.75
426.875	542.08
427.251	550.66
427.627	549.53
428.003	561.96
428.379	598.8
428.756	573.04
429.132	583.21
429.507	566.26
429.883	595.63
430.259	587.05
430.635	590.44
431.011	594.73
431.387	588.63
431.763	625.69
432.138	613.49
432.514	617.55
432.89	629.53
433.265	623.88
433.641	627.27
434.016	634.96
434.392	639.02
434.767	653.49
435.143	663.43
435.518	658.46
435.894	664.56
436.269	637.21
436.644	653.71
437.02	662.52
437.395	688.74
437.77	675.63
438.145	685.12
438.52	693.94
438.895	709.3
439.271	704.11
439.646	723.77
440.021	720.83
440.395	719.7
440.77	718.12
441.145	720.15
441.52	727.61
441.895	733.26
442.27	755.18
442.645	742.3
443.019	750.66
443.394	754.73
443.769	750.21
444.143	729.19
444.518	752.01
444.892	735.07
445.267	763.54
445.641	773.26
446.016	790.21
446.39	775.52
446.764	768.96
447.139	760.83
447.513	753.37
447.887	768.28
448.262	803.76
448.636	812.8
449.01	803.31
449.384	815.06
449.758	808.28
450.132	828.62
450.506	820.94
450.88	815.06
451.254	817.32
451.628	817.55
452.002	849.86
452.376	857.1
452.75	828.85
453.123	873.37
453.497	859.58
453.871	883.08
454.244	899.81
454.618	879.69
454.992	895.97
455.365	888.06
455.739	915.63
456.112	916.3
456.486	930.09
456.859	930.31
457.232	947.94
457.606	958.11
457.979	959.47
458.352	987.04
458.725	987.49
459.099	1003.76
459.472	1034.04
459.845	1012.12
460.218	1011.44
460.591	1032.23
460.964	1032.23
461.337	1036.75
461.71	1074.49
462.083	1067.03
462.456	1068.16
462.829	1104.77
463.201	1113.36
463.574	1112.23
463.947	1109.29
464.32	1152.46
464.692	1147.03
465.065	1173.47
465.438	1199.46
465.81	1170.99
466.183	1194.71
466.555	1208.27
466.928	1254.15
467.3	1231.55
467.672	1250.08
468.045	1278.78
468.417	1297.54
468.789	1286.24
469.161	1315.84
469.534	1369.85
469.906	1389.06
470.278	1390.64
470.65	1404.43
471.022	1441.71
471.394	1425.22
471.766	1448.72
472.138	1482.39
472.51	1525.55
472.882	1558.32
473.253	1523.52
473.625	1575.95
473.997	1627.47
474.369	1594.48
474.74	1624.53
475.112	1687.58
475.484	1736.62
475.855	1748.82
476.227	1776.85
476.598	1793.79
476.97	1834.92
477.341	1870.63
477.713	1879.67
478.084	1906.56
478.455	1985.2
478.827	2010.06
479.198	2051.64
479.569	2098.65
479.94	2136.84
480.311	2144.97
480.682	2226.33
481.053	2301.58
481.424	2323.95
481.795	2321.46
482.166	2365.98
482.537	2406.21
482.908	2529.82
483.279	2544.51
483.65	2576.82
484.021	2645.3
484.391	2719.65
484.762	2723.26
485.133	2806.42
485.503	2840.77
485.874	2899.3
486.244	2946.08
486.615	3033.76
486.985	3038.28
487.356	3117.6
487.726	3142.01
488.097	3283.7
488.467	3278.28
488.837	3380.87
489.207	3410.25
489.578	3452.51
489.948	3519.17
490.318	3566.18
490.688	3603.92
491.058	3705.16
491.428	3739.96
491.798	3810.24
492.168	3896.56
492.538	3936.34
492.908	3958.26
493.278	4080.97
493.648	4053.62
494.017	4138.82
494.387	4189.21
494.757	4195.99
495.126	4285.25
495.496	4331.81
495.866	4327.74
496.235	4433.27
496.605	4483.22
496.974	4516.66
497.344	4583.78
497.713	4630.56
498.082	4661.97
498.452	4722.53
498.821	4757.33
499.19	4812.7
499.559	4847.95
499.928	4877.33
500.298	4903.09
500.667	4960.94
501.036	5016.53
501.405	5033.48
501.774	5082.07
502.143	5088.4
502.512	5164.33
502.88	5236.87
503.249	5259.92
503.618	5300.82
503.987	5250.65
504.356	5344.66
504.724	5423.53
505.093	5424.43
505.462	5398.22
505.83	5473.7
506.199	5475.73
506.567	5566.35
506.936	5621.26
507.304	5641.6
507.672	5674.6
508.041	5758.21
508.409	5717.76
508.777	5786.01
509.145	5823.97
509.514	5842.73
509.882	5903.52
510.25	5954.14
510.618	5962.5
510.986	5984.19
511.354	6034.36
511.722	6059.45
512.09	6089.5
512.458	6094.02
512.826	6196.62
513.193	6225.54
513.561	6188.93
513.929	6274.58
514.297	6300.57
514.664	6318.42
515.032	6353.45
515.4	6367.23
515.767	6372.43
516.135	6474.8
516.502	6385.09
516.869	6572.65
517.237	6491.75
517.604	6587.11
517.972	6588.7
518.339	6581.01
518.706	6595.02
519.073	6679.32
519.44	6621.46
519.808	6718.18
520.175	6788.01
520.542	6776.71
520.909	6829.82
521.276	6793.44
521.643	6879.76
522.009	6937.39
522.376	6981
522.743	6985.3
523.11	7056.26
523.477	7138.06
523.843	7136.71
524.21	7236.59
524.577	7184.61
524.943	7274.33
525.31	7269.13
525.676	7368.79
526.043	7346.42
526.409	7390.26
526.776	7506.41
527.142	7502.35
527.508	7486.07
527.874	7599.07
528.241	7614.88
528.607	7701.21
528.973	7658.5
529.339	7751.6
529.705	7818.95
530.071	7851.49
530.437	7864.14
530.803	7909.57
531.169	7995.21
531.535	7972.84
531.901	7983.46
532.267	8032.27
532.632	8057.13
532.998	8070.47
533.364	8174.19
533.73	8121.54
534.095	8221.87
534.461	8293.96
534.826	8293.28
535.192	8354.98
535.557	8349.55
535.923	8348.65
536.288	8439.04
536.653	8529.89
537.019	8408.54
537.384	8483.56
537.749	8531.02
538.114	8542.09
538.479	8580.06
538.845	8684.69
539.21	8658.25
539.575	8714.52
539.94	8728.08
540.305	8753.61
540.67	8802.2
541.034	8889.88
541.399	8843.1
541.764	8918.35
542.129	8956.54
542.494	8980.5
542.858	8999.93
543.223	9037.67
543.587	9110.21
543.952	9083.77
544.316	9157.67
544.681	9142.3
545.045	9232.92
545.41	9254.62
545.774	9261.39
546.138	9342.75
546.503	9309.3
546.867	9394.95
547.231	9394.95
547.595	9483.76
547.959	9528.73
548.324	9507.94
548.688	9578.9
549.052	9604.21
549.416	9621.39
549.779	9625
550.143	9675.4
550.507	9695.51
550.871	9826.8
551.235	9731.44
551.599	9844.66
551.962	9780.25
552.326	9913.13
552.689	10007.82
553.053	9943.64
553.417	9908.61
553.78	10030.19
554.143	9992
554.507	10020.02
554.87	10155.38
555.234	10217.3
555.597	10083.29
555.96	10144.76
556.323	10201.71
556.686	10243.52
557.05	10244.65
557.413	10365.32
557.776	10384.76
558.139	10359.22
558.502	10484.19
558.865	10449.16
559.228	10593.56
559.59	10521.7
559.953	10526.22
560.316	10702.49
560.679	10664.52
561.041	10702.71
561.404	10767.57
561.767	10791.75
562.129	10787.46
562.492	10933.22
562.854	10833.56
563.217	10882.6
563.579	10885.98
563.941	10958.98
564.304	11033.1
564.666	11107.67
565.028	11107
565.39	11145.41
565.753	11221.57
566.115	11176.82
566.477	11252.53
566.839	11252.75
567.201	11304.73
567.563	11385.86
567.925	11471.96
568.287	11516.93
568.648	11428.8
569.01	11571.39
569.372	11599.64
569.734	11548.34
570.095	11701.1
570.457	11726.87
570.819	11751.27
571.18	11802.35
571.542	11904.04
571.903	11894.09
572.265	11925.05
572.626	11989.91
572.987	12094.31
573.349	12112.85
573.71	12135.67
574.071	12304.93
574.432	12422.22
574.794	12491.82
575.155	12504.47
575.516	12491.37
575.877	12659.95
576.238	12685.94
576.599	12794.64
576.96	12900.4
577.32	12862.88
577.681	13092.71
578.042	13102.88
578.403	13110.79
578.763	13177.45
579.124	13426.48
579.485	13508.29
579.845	13581.51
580.206	13728.62
580.566	13849.07
580.927	13956.64
581.287	14115.5
581.648	14241.6
582.008	14413.12
582.368	14562.95
582.728	14691.99
583.089	14877.97
583.449	14934.24
583.809	15079.77
584.169	15314.12
584.529	15492.87
584.889	15801.56
585.249	15879.53
585.609	15977.6
585.969	16265.28
586.329	16318.84
586.688	16604.48
587.048	16870.91
587.408	16952.94
587.768	17203.56
588.127	17479.94
588.487	17678.57
588.846	17982.3
589.206	18040.15
589.565	18369.86
589.925	18745.21
590.284	18789.05
590.643	19140.46
591.003	19390.85
591.362	19622.25
591.721	19828.57
592.08	20000.32
592.44	20320.77
592.799	20617.71
593.158	20798.94
593.517	21007.07
593.876	21284.36
594.235	21522.09
594.593	21873.27
594.952	22035.52
595.311	22118.68
595.67	22565.45
596.029	22811.77
596.387	23109.62
596.746	23368.82
597.104	23406.11
597.463	23776.72
597.822	24063.04
598.18	24270.49
598.538	24395.23
598.897	24923.81
599.255	24754.77
599.613	25353.18
599.972	25568.76
600.33	25660.06
600.688	25861.41
601.046	26161.06
601.404	26482.19
601.762	26663.65
602.12	27059.12
602.478	27079.68
602.836	27396.29
603.194	27525.55
603.552	27853.45
603.91	27893.22
604.268	28187
604.625	28302.7
604.983	28714.67
605.341	28609.36
605.698	29000.31
606.056	29313.75
606.413	29327.76
606.771	29618.37
607.128	29896.78
607.485	30026.95
607.843	30076.89
608.2	30418.13
608.557	30593.72
608.914	30701.28
609.272	30875.06
609.629	31155.28
609.986	31322.06
610.343	31473.92
610.7	31793.91
611.057	31829.16
611.414	31815.6
611.771	32201.36
612.127	32212.2
612.484	32374.69
612.841	32684.51
613.198	32741.91
613.554	32793.88
613.911	32980.55
614.267	33282.46
614.624	33210.14
614.98	33443.13
615.337	33693.97
615.693	33764.25
616.05	33766.97
616.406	34167.63
616.762	34052.61
617.118	34231.81
617.475	34327.85
617.831	34462.99
618.187	34587.96
618.543	34679.26
618.899	35015.97
619.255	34974.84
619.611	35084.44
619.967	35227.72
620.323	35407.37
620.678	35372.12
621.034	35321.95
621.39	35429.29
621.746	35490.99
622.101	35910.86
622.457	35764.88
622.812	35816.63
623.168	36008.26
623.523	36088.94
623.879	36100.92
624.234	35980.01
624.589	36320.34
624.945	36368.48
625.3	36433.11
625.655	36384.98
626.01	36414.81
626.365	36590.85
626.72	36454.8
627.075	36580.68
627.43	36766.66
627.785	36546.1
628.14	36580.22
628.495	36774.8
628.85	36808.24
629.205	36662.26
629.559	36984.73
629.914	36795.81
630.269	36965.07
630.623	36809.15
630.978	36751.75
631.332	36956.26
631.687	36926.43
632.041	36971.85
632.396	37087.33
632.75	36987.9
633.104	36982.25
633.459	36863.61
633.813	36812.31
634.167	37064.73
634.521	37036.94
634.875	37074.22
635.229	36987.9
635.583	36899.31
635.937	36776.38
636.291	36921.91
636.645	36968.46
636.999	36820.44
637.352	36989.93
637.706	36791.52
638.06	36916.94
638.413	36789.26
638.767	36865.64
639.121	37013.43
639.474	36693.44
639.828	36848.69
640.181	36763.27
640.534	36744.74
640.888	36766.89
641.241	36682.37
641.594	36689.83
641.947	36828.58
642.301	36742.25
642.654	36879.65
643.007	36715.81
643.36	36765.76
643.713	36563.5
644.066	36804.4
644.419	36385.88
644.771	36307.01
645.124	35940.92
645.477	35971.2
645.83	35860.92
646.182	35622.06
646.535	35671.77
646.888	35586.58
647.24	35369.41
647.593	35621.38
647.945	35570.76
648.298	35469.97
648.65	35340.94
649.002	35279.47
649.355	35398.56
649.707	35427.49
650.059	35659.34
650.411	36030.18
650.763	36008.71
651.115	36331.19
651.467	36277.18
651.819	36256.17
652.171	36214.36
652.523	36170.52
652.875	36217.52
653.227	36027.7
653.578	36437.4
653.93	36157.86
654.282	36108.6
654.633	36089.84
654.985	35985.89
655.337	36041.71
655.688	36138.2
656.039	36081.03
656.391	35801.71
656.742	36062.95
657.094	35901.82
657.445	36000.13
657.796	36012.78
658.147	35910.64
658.498	35932.56
658.849	35940.47
659.2	35846.01
659.551	35866.35
659.902	35946.34
660.253	35931.65
660.604	35858.21
660.955	35780.25
661.306	35750.64
661.656	35789.74
662.007	35829.51
662.358	35886.46
662.708	35884.88
663.059	35799.68
663.409	35655.5
663.76	35849.17
664.11	35743.64
664.461	35869.51
664.811	35789.06
665.161	35804.65
665.511	35721.94
665.862	35714.94
666.212	35896.17
666.562	35762.62
666.912	35798.32
667.262	35688.72
667.612	35611.21
667.962	35774.14
668.312	35731.89
668.662	35882.62
669.011	35668.38
669.361	35649.85
669.711	35669.51
670.06	35744.77
670.41	35620.02
670.76	35500.48
671.109	35654.15
671.459	35646.46
671.808	35625.67
672.157	35724.88
672.507	35528.05
672.856	35495.96
673.205	35512.91
673.554	35592.23
673.904	35477.65
674.253	35641.04
674.602	35509.74
674.951	34916.09
675.3	34902.98
675.649	35470.88
675.998	35240.37
676.346	35439.24
676.695	35432.23
677.044	35182.97
677.393	35248.06
677.741	35436.3
678.09	35283.08
678.438	35154.27
678.787	35255.29
679.135	35310.88
679.484	34982.07
679.832	35128.29
680.181	34850.1
680.529	35000.61
680.877	34866.37
681.225	34910.21
681.573	35035.18
681.922	34853.04
682.27	34688.07
682.618	34773.04
682.966	34704.57
683.314	34620.95
683.661	34597.23
684.009	34578.24
684.357	34411.02
684.705	34366.95
685.053	34426.16
685.4	34261.19
685.748	34331.47
686.095	34303
686.443	34154.75
686.79	34018.71
687.138	34097.13
687.485	34120.63
687.832	33895.78
688.18	33996.34
688.527	33833.86
688.874	33803.35
689.221	33675.67
689.568	33694.2
689.915	33536.01
690.262	33497.37
690.609	33430.25
690.956	33314.1
691.303	33365.39
691.65	33198.39
691.997	33176.7
692.344	33050.15
692.69	33075.91
693.037	33056.02
693.383	32708.91
693.73	32855.35
694.077	32626.2
694.423	32656.71
694.769	32684.51
695.116	32411.07
695.462	32510.73
695.808	32275.71
696.155	32305.31
696.501	32159.32
696.847	32117.74
697.193	31942.15
697.539	32029.61
697.885	31836.62
698.231	31634.37
698.577	31755.04
698.923	31729.28
699.269	31582.84
699.614	31290.42
699.96	31383.3
700.306	31411.09
700.651	31272.34
700.997	31049.97
701.342	31071.22
701.688	31070.31
702.033	30855.4
702.379	30918.45
702.724	30813.6
703.069	30795.52
703.415	30511.46
703.76	30484.11
704.105	30577.9
704.45	30427.39
704.795	30229.43
705.14	30228.75
705.485	30125.25
705.83	30185.82
706.175	30057.68
706.52	29984.47
706.865	29863.57
707.209	29834.19
707.554	29780.63
707.899	29775.88
708.243	29699.05
708.588	29621.09
708.932	29432.84
709.277	29302.68
709.621	29405.05
709.966	29141.78
710.31	29315.33
710.654	29071.04
710.998	29087.77
711.342	29140.42
711.687	29008.67
712.031	28833.54
712.375	28765.51
712.719	28819.3
713.063	28761.9
713.407	28765.97
713.75	28618.63
714.094	28664.73
714.438	28485.97
714.782	28493.43
715.125	28323.27
715.469	28481
715.812	28314.23
716.156	28086.44
716.499	28200.33
716.843	28152.42
717.186	27984.74
717.53	28083.72
717.873	28121.69
718.216	28010.51
718.559	27981.81
718.902	27851.41
719.246	27740.68
719.589	27685.32
719.932	27704.75
720.275	27671.98
720.617	27546.11
720.96	27499.79
721.303	27571.2
721.646	27570.29
721.989	27321.94
722.331	27306.34
722.674	27361.71
723.016	27354.7
723.359	27297.08
723.701	27274.71
724.044	27224.99
724.386	27000.36
724.729	27183.86
725.071	27057.76
725.413	27001.27
725.755	26985
726.097	26888.5
726.439	26750.88
726.782	26723.76
727.124	26801.95
727.465	26704.1
727.807	26673.14
728.149	26551.56
728.491	26520.15
728.833	26638.34
729.175	26491.22
729.516	26455.07
729.858	26507.27
730.199	26427.95
730.541	26325.35
730.882	26406.71
731.224	26436.08
731.565	26205.81
731.906	26285.58
732.248	26303.43
732.589	26184.57
732.93	26106.38
733.271	26029.54
733.612	26088.52
733.953	26096.88
734.294	25936.89
734.635	25927.62
734.976	25914.97
735.317	25876.33
735.658	25850.11
735.999	25772.37
736.339	25728.98
736.68	25855.31
737.021	25712.71
737.361	25577.12
737.702	25711.81
738.042	25594.3
738.383	25550.68
738.723	25626.84
739.063	25507.75
739.404	25512.49
739.744	25376.68
740.084	25300.07
740.424	25393.85
740.764	25285.61
741.104	25373.51
741.444	25123.8
741.784	25131.49
742.124	25242.22
742.464	25150.69
742.804	25261.65
743.143	25096.91
743.483	25100.98
743.823	24963.81
744.162	24869.12
744.502	25004.48
744.841	24819.18
745.181	24962.23
745.52	24811.04
745.86	24752.96
746.199	24843.13
746.538	24774.66
746.877	24752.51
747.216	24746.64
747.556	24609.24
747.895	24734.43
748.234	24659.86
748.573	24496.7
748.911	24541.45
749.25	24571.05
749.589	24450.15
749.928	24420.77
750.267	24652.4
750.605	24380.55
750.944	24280.89
751.283	24260.1
751.621	24314.78
751.96	24140.1
752.298	24248.8
752.636	24239.76
752.975	24148.91
753.313	24008.58
753.651	24116.15
753.989	23895.13
754.327	23976.26
754.666	23830.5
755.004	23919.77
755.342	23842.48
755.679	23809.03
756.017	23706.89
756.355	23761.13
756.693	23581.47
757.031	23704.63
757.368	23524.3
757.706	23527.01
758.044	23383.28
758.381	23429.61
758.719	23291.99
759.056	23266.45
759.394	23339.67
759.731	23160.92
760.068	23137.41
760.405	23055.38
760.743	22910.3
761.08	23019.68
761.417	22816.29
761.754	22941.94
762.091	22840.92
762.428	22709.63
762.765	22510.99
763.102	22648.16
763.438	22500.59
763.775	22456.75
764.112	22425.34
764.449	22408.85
764.785	22297.21
765.122	22245.01
765.458	22152.58
765.795	22116.65
766.131	22031
766.467	21946.71
766.804	22000.27
767.14	21828.97
767.476	21755.98
767.812	21694.29
768.148	21657.91
768.485	21644.8
768.821	21559.6
769.157	21490.9
769.492	21343.34
769.828	21330.46
770.164	21200.06
770.5	21117.81
770.836	21036.9
771.171	20911.48
771.507	20939.96
771.842	20927.75
772.178	20885.72
772.513	20797.59
772.849	20727.53
773.184	20633.75
773.519	20626.97
773.855	20512.62
774.19	20353.98
774.525	20369.58
774.86	20295.91
775.195	20265.63
775.53	20190.83
775.865	19962.81
776.2	19889.14
776.535	19798.07
776.87	19823.15
777.205	19771.63
777.539	19700.44
777.874	19652.31
778.209	19534.57
778.543	19417.96
778.878	19422.03
779.212	19380
779.547	19250.51
779.881	19263.17
780.215	19080.12
780.55	19095.71
780.884	18978.65
781.218	18991.31
781.552	18959.9
781.886	18794.25
782.22	18772.11
782.554	18720.58
782.888	18539.8
783.222	18452.34
783.556	18398.56
783.889	18347.48
784.223	18182.97
784.557	18239.92
784.89	18190.65
785.224	18085.34
785.557	17969.41
785.891	17930.77
786.224	17929.19
786.558	17905.91
786.891	17752.47
787.224	17723.09
787.557	17681.06
787.891	17611.91
788.224	17618.24
788.557	17526.04
788.89	17452.37
789.223	17450.33
789.556	17331.92
789.888	17277
790.221	17230.22
790.554	17029.33
790.887	17066.39
791.219	16999.95
791.552	16974.41
791.884	16893.51
792.217	16843.34
792.549	16747.98
792.882	16665.04
793.214	16723.57
793.546	16612.61
793.879	16548.43
794.211	16451.71
794.543	16510.7
794.875	16423.24
795.207	16544.59
795.539	16362
795.871	16326.29
796.203	16122.46
796.535	16104.6
796.867	16120.88
797.198	16048.34
797.53	16011.27
797.862	15918.4
798.193	15870.26
798.525	15799.98
798.856	15833.88
799.188	15726.31
799.519	15542.81
799.85	15550.72
800.182	15599.31
800.513	15628.91
800.844	15429.82
801.175	15457.62
801.506	15402.25
801.837	15323.16
802.168	15278.64
802.499	15143.27
802.83	15105.08
803.161	15126.55
803.491	15115.93
803.822	15102.15
804.153	14990.51
804.483	14963.62
804.814	14863.96
805.145	14823.96
805.475	14820.8
805.805	14766.33
806.136	14814.92
806.466	14785.77
806.796	14780.12
807.126	14578.32
807.457	14538.77
807.787	14515.49
808.117	14468.49
808.447	14378.55
808.777	14465.33
809.107	14381.94
809.436	14347.59
809.766	14264.88
810.096	14279.57
810.426	14168.84
810.755	14253.81
811.085	14142.62
811.414	14048.39
811.744	14025.34
812.073	14070.99
812.403	13956.41
812.732	13949.86
813.061	13863.99
813.39	13757.32
813.719	13784.67
814.049	13889.97
814.378	13762.52
814.707	13697.89
815.036	13714.16
815.365	13651.11
815.693	13474.17
816.022	13532.24
816.351	13512.58
816.68	13470.1
817.008	13443.43
817.337	13353.04
817.665	13356.2
817.994	13356.65
818.322	13314.85
818.651	13225.58
818.979	13156.43
819.307	13299.71
819.636	13237.34
819.964	13208.64
820.292	13297.67
820.62	13165.02
820.948	13160.05
821.276	13205.25
821.604	13075.08
821.932	13165.7
822.259	13148.07
822.587	13076.89
822.915	13172.48
823.243	13122.54
823.57	13071.01
823.898	13084.35
824.225	13099.49
824.553	13058.13
824.88	13064.91
825.207	13040.05
825.535	13036.21
825.862	13032.37
826.189	12965.03
826.516	13017.23
826.843	13076.21
827.17	13085.48
827.497	13098.13
827.824	13036.44
828.151	13040.28
828.478	13022.2
828.805	13083.44
829.131	12943.11
829.458	13000.05
829.785	12904.46
830.111	12964.57
830.438	13057.45
830.764	12959.15
831.09	12993.95
831.417	12842.54
831.743	13067.85
832.069	12966.38
832.395	12910.11
832.722	13022.2
833.048	12975.87
833.374	12987.17
833.7	12842.09
834.026	12901.75
834.351	12918.25
834.677	12937.46
835.003	12923.45
835.329	12929.77
835.654	12786.05
835.98	12703.34
836.306	12798.7
836.631	12700.63
836.956	12756.22
837.282	12753.28
837.607	12650.01
837.932	12562.33
838.258	12676.67
838.583	12670.12
838.908	12597.35
839.233	12583.57
839.558	12581.53
839.883	12560.52
840.208	12500.41
840.533	12520.52
840.858	12469.45
841.182	12467.41
841.507	12440.97
841.832	12365.72
842.156	12425.38
842.481	12352.39
842.805	12331.37
843.13	12315.55
843.454	12230.58
843.778	12236.46
844.103	12189.91
844.427	12220.41
844.751	12212.5
845.075	12124.82
845.399	12113.75
845.723	12081.21
846.047	12045.95
846.371	11991.94
846.695	11928.22
847.019	11885.51
847.343	11792.63
847.666	11667.89
847.99	11636.93
848.313	11670.6
848.637	11596.02
848.96	11652.74
849.284	11607.77
849.607	11526.42
849.931	11462.24
850.254	11321.23
850.577	11252.3
850.9	11295.92
851.223	11191.06
851.546	11135.7
851.869	11040.56
852.192	11213.21
852.515	11105.19
852.838	11078.75
853.161	11030.84
853.483	10968.47
853.806	10964.85
854.129	10924.4
854.451	10838.08
854.774	10805.54
855.096	10685.31
855.419	10729.6
855.741	10697.52
856.063	10693.45
856.385	10671.3
856.708	10595.82
857.03	10499.78
857.352	10589.95
857.674	10464.53
857.996	10410.97
858.318	10420.91
858.64	10451.19
858.961	10285.32
859.283	10382.04
859.605	10302.72
859.926	10306.34
860.248	10272.44
860.57	10234.48
860.891	10249.17
861.212	10239
861.534	10147.25
861.855	10152.22
862.176	10124.42
862.498	10173.24
862.819	10214.82
863.14	10028.61
863.461	10027.25
863.782	10052.11
864.103	10028.83
864.424	9987.93
864.745	9989.51
865.065	9924.43
865.386	9864.54
865.707	9908.61
866.027	10002.39
866.348	9891.21
866.668	9882.85
866.989	9862.06
867.309	9792.91
867.63	9788.61
867.95	9754.49
868.27	9722.17
868.59	9763.75
868.91	9817.76
869.23	9778.44
869.55	9726.92
869.87	9746.35
870.19	9702.29
870.51	9649.41
870.83	9747.03
871.15	9567.83
871.469	9584.78
871.789	9680.37
872.109	9684.66
872.428	9571.22
872.748	9568.96
873.067	9555.62
873.386	9512.01
873.706	9515.63
874.025	9505.46
874.344	9448.96
874.663	9476.08
874.982	9480.37
875.301	9394.72
875.62	9385.46
875.939	9420.71
876.258	9433.14
876.577	9365.35
876.896	9323.09
877.214	9231.57
877.533	9310.66
877.852	9290.32
878.17	9334.16
878.489	9325.35
878.807	9262.3
879.125	9231.57
879.444	9337.1
879.762	9174.17
880.08	9181.85
880.398	9143.66
880.716	9104.34
881.034	9157.67
881.352	9103.66
881.67	9171
881.988	9162.41
882.306	9092.13
882.624	9042.64
882.941	9050.55
883.259	8982.31
883.577	9003.77
883.894	8987.73
884.212	8933.95
884.529	8919.48
884.846	8935.53
885.164	8907.28
885.481	8864.57
885.798	8891.01
886.115	8812.37
886.432	8768.07
886.75	8732.82
887.067	8772.59
887.383	8722.88
887.7	8696.89
888.017	8662.54
888.334	8694.63
888.651	8635.42
888.967	8604.69
889.284	8626.38
889.6	8540.74
889.917	8468.2
890.233	8498.7
890.55	8509.55
890.866	8518.14
891.182	8470.68
891.498	8463.68
891.815	8399.95
892.131	8420.51
892.447	8370.57
892.763	8386.84
893.079	8300.29
893.395	8285.15
893.71	8204.93
894.026	8275.43
894.342	8230.69
894.657	8116.11
894.973	8188.43
895.289	8160.41
895.604	8180.52
895.92	8054.87
896.235	8105.49
896.55	8004.48
896.865	8054.42
897.181	7997.7
897.496	8036.34
897.811	7991.37
898.126	7934.65
898.441	7880.64
898.756	7872.05
899.071	7825.73
899.386	7835.67
899.7	7785.5
900.015	7726.75
900.33	7674.77
900.644	7729.68
900.959	7683.81
901.273	7624.83
901.588	7628.9
901.902	7644.26
902.216	7556.13
902.531	7573.76
902.845	7462.57
903.159	7452.63
903.473	7455.79
903.787	7429.8
904.101	7360.88
904.415	7322.01
904.729	7331.95
905.042	7272.29
905.356	7315.68
905.67	7267.55
905.984	7272.97
906.297	7245.18
906.611	7163.82
906.924	7150.49
907.237	7108.91
907.551	7040.44
907.864	7010.83
908.177	7041.79
908.491	7051.96
908.804	7006.54
909.117	6935.35
909.43	6915.02
909.743	6857.62
910.056	6926.32
910.368	6803.38
910.681	6788.69
910.994	6807
911.307	6732.87
911.619	6701.46
911.932	6713.44
912.244	6654.68
912.557	6608.36
912.869	6567.68
913.181	6614.91
913.494	6587.57
913.806	6535.36
914.118	6492.65
914.43	6457.63
914.742	6481.13
915.054	6432.54
915.366	6452.88
915.678	6364.75
915.99	6341.7
916.302	6367.69
916.613	6283.39
916.925	6292.66
917.236	6202.72
917.548	6217.86
917.859	6223.96
918.171	6181.93
918.482	6148.93
918.794	6138.09
919.105	6155.71
919.416	6066.22
919.727	6065.55
920.038	6010.18
920.349	5945.1
920.66	5995.04
920.971	5924.53
921.282	5935.38
921.593	5941.93
921.903	5856.96
922.214	5873.46
922.525	5875.27
922.835	5834.82
923.146	5833.24
923.456	5800.47
923.767	5702.62
924.077	5721.37
924.387	5682.05
924.697	5668.95
925.008	5604.32
925.318	5671.88
925.628	5568.16
925.938	5597.08
926.248	5549.63
926.558	5494.71
926.867	5448.84
927.177	5504.43
927.487	5422.17
927.796	5416.52
928.106	5413.36
928.416	5379.01
928.725	5381.72
929.034	5310.99
929.344	5350.99
929.653	5278.9
929.962	5306.92
930.271	5253.36
930.581	5238.45
930.89	5177.43
931.199	5181.73
931.508	5170.2
931.817	5132.01
932.125	5135.85
932.434	5076.87
932.743	5076.87
933.051	5001.17
933.36	5073.93
933.669	4996.87
933.977	4915.52
934.286	4936.99
934.594	4974.5
934.902	4918.91
935.21	4905.8
935.519	4902.87
935.827	4888.63
936.135	4824.68
936.443	4819.03
936.751	4827.39
937.059	4724.34
937.367	4803.66
937.674	4767.95
937.982	4763.43
938.29	4722.53
938.597	4703.77
938.905	4634.17
939.213	4620.16
939.52	4626.26
939.827	4602.76
940.135	4587.62
940.442	4550.78
940.749	4546.49
941.056	4524.12
941.363	4511.69
941.67	4490.9
941.977	4449.09
942.284	4407.29
942.591	4492.93
942.898	4437.11
943.205	4419.49
943.511	4364.8
943.818	4380.39
944.125	4308.08
944.431	4330
944.738	4300.62
945.044	4327.29
945.35	4253.39
945.657	4238.93
945.963	4205.71
946.269	4219.27
946.575	4159.61
946.881	4181.53
947.187	4169.78
947.493	4175.88
947.799	4108.08
948.105	4100.4
948.41	4052.72
948.716	4044.58
949.022	4040.06
949.327	4025.37
949.633	4009.1
949.938	4023.79
950.244	3967.07
950.549	3942.21
950.854	3937.69
951.16	3923
951.465	3935.43
951.77	3858.15
952.075	3895.66
952.38	3832.84
952.685	3831.71
952.99	3826.06
953.294	3824.7
953.599	3776.34
953.904	3793.97
954.209	3735.89
954.513	3746.06
954.818	3756.91
955.122	3732.95
955.426	3735.66
955.731	3680.52
956.035	3701.32
956.339	3645.72
956.643	3645.5
956.948	3641.43
957.252	3599.85
957.556	3596.46
957.86	3531.83
958.163	3546.06
958.467	3560.98
958.771	3500.19
959.075	3538.38
959.378	3479.4
959.682	3527.53
959.985	3476.46
960.289	3460.42
960.592	3457.03
960.896	3431.49
961.199	3452.51
961.502	3385.17
961.805	3393.98
962.108	3382
962.411	3335.45
962.714	3316.47
963.017	3327.31
963.32	3354.66
963.623	3301.78
963.926	3302.23
964.228	3253.42
964.531	3249.35
964.833	3268.11
965.136	3225.4
965.438	3218.39
965.741	3173.65
966.043	3176.58
966.345	3174.32
966.648	3153.76
966.95	3100.43
967.252	3092.29
967.554	3111.95
967.856	3077.15
968.158	3098.17
968.46	3064.27
968.761	3083.25
969.063	3017.27
969.365	3041.45
969.666	3026.76
969.968	3025.63
970.269	2994.89
970.571	2963.26
970.872	2942.24
971.174	2944.5
971.475	2924.84
971.776	2911.51
972.077	2906.31
972.378	2900.66
972.679	2897.95
972.98	2886.87
973.281	2865.4
973.582	2854.33
973.883	2879.19
974.183	2866.99
974.484	2837.61
974.785	2812.52
975.085	2773.43
975.386	2782.92
975.686	2802.58
975.986	2771.17
976.287	2738.4
976.587	2699.76
976.887	2686.88
977.187	2733.2
977.487	2736.37
977.787	2706.99
978.087	2655.69
978.387	2667.44
978.687	2664.51
978.987	2642.36
979.286	2619.54
979.586	2589.25
979.885	2589.25
980.185	2579.08
980.484	2570.72
980.784	2576.37
981.083	2554.9
981.382	2583.15
981.682	2555.81
981.981	2500.67
982.28	2545.41
982.579	2527.79
982.878	2484.17
983.177	2506.77
983.475	2473.78
983.774	2502.25
984.073	2427.45
984.372	2426.77
984.67	2434
984.969	2440.33
985.267	2417.96
985.566	2438.07
985.864	2414.34
986.162	2396.04
986.461	2352.2
986.759	2354.91
987.057	2347.9
987.355	2335.02
987.653	2357.17
987.951	2324.63
988.249	2316.04
988.547	2278.75
988.844	2302.48
989.142	2282.82
989.44	2276.27
989.737	2273.1
990.035	2245.99
990.332	2221.35
990.63	2245.53
990.927	2231.75
991.224	2223.61
991.521	2201.69
991.819	2214.8
992.116	2165.76
992.413	2180
992.71	2150.62
993.006	2121.02
993.303	2136.16
993.6	2128.93
993.897	2134.58
994.193	2132.32
994.49	2115.82
994.787	2120.11
995.083	2049.83
995.379	2063.62
995.676	2055.26
995.972	2008.7
996.268	2031.98
996.565	2012.32
996.861	2020.91
997.157	2014.35
997.453	2019.1
997.749	1981.36
998.044	1992.66
998.34	1978.87
998.636	1955.15
998.932	1947.46
999.227	1939.33
999.523	1938.88
999.818	1922.15
1000.114	1911.31
1000.409	1876.96
1000.704	1869.95
1001	1910.4
1001.295	1871.98
1001.59	1882.61
1001.885	1857.75
1002.18	1838.77
1002.475	1863.4
1002.77	1843.96
1003.065	1794.7
1003.359	1821.82
1003.654	1791.99
1003.949	1779.33
1004.243	1799.9
1004.538	1748.15
1004.832	1781.14
1005.127	1745.89
1005.421	1775.26
1005.715	1710.41
1006.009	1728.26
1006.304	1710.18
1006.598	1715.6
1006.892	1673.12
1007.186	1655.27
1007.48	1680.35
1007.773	1685.32
1008.067	1642.39
1008.361	1642.61
1008.655	1651.65
1008.948	1643.52
1009.242	1618.21
1009.535	1619.56
1009.829	1610.3
1010.122	1588.15
1010.415	1602.61
1010.708	1586.12
1011.001	1578.66
1011.295	1584.53
1011.588	1552.67
1011.881	1523.07
1012.173	1525.55
1012.466	1525.33
1012.759	1526.68
1013.052	1525.1
1013.344	1502.73
1013.637	1508.38
1013.93	1496.85
1014.222	1467.48
1014.514	1466.35
1014.807	1481.71
1015.099	1445.56
1015.391	1429.74
1015.683	1434.93
1015.976	1444.43
1016.268	1455.05
1016.56	1400.81
1016.851	1408.49
1017.143	1403.52
1017.435	1402.39
1017.727	1356.74
1018.018	1363.07
1018.31	1349.51
1018.602	1362.39
1018.893	1338.89
1019.185	1318.78
1019.476	1336.41
1019.767	1326.46
1020.058	1300.02
1020.35	1319.91
1020.641	1253.7
1020.932	1282.62
1021.223	1265.22
1021.514	1271.55
1021.804	1270.87
1022.095	1280.14
1022.386	1246.69
1022.677	1236.52
1022.967	1224.54
1023.258	1206.01
1023.548	1215.28
1023.839	1221.38
1024.129	1225
1024.419	1183.42
1024.709	1184.55
1025	1163.08
1025.29	1183.42
1025.58	1149.29
1025.87	1154.49
1026.16	1145.9
1026.449	1137.31
1026.739	1121.04
1027.029	1141.61
1027.319	1128.28
1027.608	1106.36
1027.898	1103.42
1028.187	1126.69
1028.477	1121.72
1028.766	1097.32
1029.055	1086.92
1029.344	1060.25
1029.634	1045.79
1029.923	1076.07
1030.212	1035.85
1030.501	1059.8
1030.79	1050.54
1031.078	1013.93
1031.367	1027.71
1031.656	1040.82
1031.945	1022.29
1032.233	985.23
1032.522	1005.57
1032.81	992.69
1033.099	1015.51
1033.387	989.07
1033.675	963.99
1033.963	967.83
1034.251	970.54
1034.54	969.18
1034.828	957.66
1035.116	954.72
1035.403	935.06
1035.691	939.58
1035.979	930.54
1036.267	923.31
1036.554	927.38
1036.842	925.12
1037.129	910.88
1037.417	906.36
1037.704	889.41
1037.992	879.24
1038.279	878.79
1038.566	906.59
1038.853	906.59
1039.14	906.59
