Data from hue_30_FLMS001491_38.txt Node
Date: Mon Feb 06 15:05:12 GMT 2017
User: dcchb
Spectrometer: FLMS00149
Trigger mode: 0
Integration Time (sec): 2.000000E-2
Scans to average: 10
Electric dark correction enabled: true
Nonlinearity correction enabled: false
Boxcar width: 0
XAxis mode: Wavelengths
Number of Pixels in Spectrum: 2048
>>>>>Begin Spectral Data<<<<<
341.393	-3.46
341.776	-3.46
342.16	-3.46
342.543	-72.61
342.927	-75.1
343.31	-85.27
343.693	-54.08
344.077	-60.18
344.46	-49.79
344.843	-40.97
345.226	-30.58
345.61	-21.54
345.993	-28.77
346.376	3.32
346.759	-14.08
347.142	7.84
347.525	31.34
347.908	55.3
348.291	73.37
348.674	89.87
349.057	124.22
349.44	122.19
349.823	135.07
350.206	153.6
350.588	188.17
350.971	212.13
351.354	218.45
351.737	249.87
352.119	251.45
352.502	259.13
352.884	283.76
353.267	293.48
353.65	304.1
354.032	290.09
354.414	294.84
354.797	302.52
355.179	319.02
355.562	311.11
355.944	331.9
356.326	309.98
356.709	363.99
357.091	333.48
357.473	347.04
357.855	329.64
358.238	346.81
358.62	337.77
359.002	358.56
359.384	358.34
359.766	314.95
360.148	346.59
360.53	346.81
360.912	338.68
361.294	337.32
361.676	340.49
362.057	344.33
362.439	320.15
362.821	310.66
363.203	325.34
363.584	312.92
363.966	331.45
364.348	311.11
364.729	312.01
365.111	320.15
365.493	301.39
365.874	300.26
366.256	319.69
366.637	313.59
367.019	305.46
367.4	317.89
367.781	317.21
368.163	307.27
368.544	305.01
368.925	316.31
369.306	314.5
369.688	308.17
370.069	288.51
370.45	314.5
370.831	304.78
371.212	322.41
371.593	302.07
371.974	312.92
372.355	317.44
372.736	309.07
373.117	304.33
373.498	323.76
373.879	323.54
374.26	310.2
374.641	317.89
375.021	312.92
375.402	315.85
375.783	306.14
376.163	320.15
376.544	320.6
376.925	301.39
377.305	344.55
377.686	330.99
378.066	319.69
378.447	337.1
378.827	324.21
379.208	325.34
379.588	328.28
379.968	329.41
380.349	336.42
380.729	343.2
381.109	323.54
381.489	329.64
381.87	340.49
382.25	340.03
382.63	345.01
383.01	340.03
383.39	344.33
383.77	329.86
384.15	342.29
384.53	340.49
384.91	356.98
385.29	365.12
385.67	335.51
386.049	330.54
386.429	349.75
386.809	349.75
387.189	352.24
387.568	346.59
387.948	347.04
388.328	349.3
388.707	357.89
389.087	343.65
389.466	358.11
389.846	345.01
390.225	370.32
390.605	356.08
390.984	356.3
391.363	375.74
391.743	371.9
392.122	368.28
392.501	373.93
392.881	366.93
393.26	366.7
393.639	375.51
394.018	356.76
394.397	372.35
394.776	366.7
395.155	375.06
395.534	370.32
395.913	380.71
396.292	374.38
396.671	369.19
397.05	366.7
397.429	353.82
397.808	375.51
398.186	388.17
398.565	387.49
398.944	384.1
399.323	382.52
399.701	400.14
400.08	372.57
400.458	396.76
400.837	399.69
401.215	390.65
401.594	394.5
401.972	391.78
402.351	385.91
402.729	387.72
403.107	376.42
403.486	389.98
403.864	399.01
404.242	394.72
404.62	407.15
404.999	419.35
405.377	407.83
405.755	396.76
406.133	417.32
406.511	413.93
406.889	419.81
407.267	434.49
407.645	412.12
408.023	411.44
408.401	413.48
408.779	406.7
409.156	434.95
409.534	439.47
409.912	435.85
410.29	431.56
410.667	446.92
411.045	434.49
411.422	448.96
411.8	446.25
412.178	445.79
412.555	425.23
412.933	443.08
413.31	455.28
413.687	467.49
414.065	473.36
414.442	464.1
414.819	472.23
415.197	453.02
415.574	457.54
415.951	461.61
416.328	482.18
416.705	469.07
417.082	472.01
417.46	476.08
417.837	483.98
418.214	469.52
418.591	484.44
418.967	481.72
419.344	503.19
419.721	502.97
420.098	516.53
420.475	490.09
420.852	505.23
421.228	494.15
421.605	519.92
421.982	509.75
422.358	524.44
422.735	535.96
423.111	506.13
423.488	526.7
423.864	509.75
424.241	529.18
424.617	530.08
424.994	521.05
425.37	521.72
425.746	523.76
426.123	535.73
426.499	545.9
426.875	547.71
427.251	557.43
427.627	565.79
428.003	563.3
428.379	552.01
428.756	558.78
429.132	550.65
429.507	564.43
429.883	571.89
430.259	589.52
430.635	570.99
431.011	576.64
431.387	594.04
431.763	585.9
432.138	603.53
432.514	592.68
432.89	607.82
433.265	636.07
433.641	639.91
434.016	617.54
434.392	629.97
434.767	627.71
435.143	633.81
435.518	639.69
435.894	611.66
436.269	671.1
436.644	665
437.02	656.64
437.395	639.23
437.77	665.22
438.145	688.05
438.52	668.16
438.895	698.67
439.271	681.49
439.646	694.37
440.021	700.7
440.395	711.78
440.77	690.31
441.145	723.53
441.52	727.37
441.895	726.69
442.27	724.43
442.645	723.53
443.019	731.89
443.394	742.28
443.769	731.21
444.143	726.24
444.518	721.72
444.892	736.86
445.267	738.89
445.641	739.34
446.016	768.27
446.39	784.09
446.764	772.56
447.139	744.54
447.513	778.21
447.887	787.03
448.262	785.45
448.636	792.9
449.01	797.42
449.384	787.71
449.758	808.5
450.132	822.51
450.506	802.39
450.88	801.26
451.254	802.62
451.628	829.74
452.002	806.91
452.376	839.68
452.75	860.47
453.123	847.82
453.497	839.46
453.871	869.74
454.244	862.73
454.618	876.06
454.992	870.87
455.365	864.99
455.739	906.35
456.112	901.83
456.486	912.45
456.859	908.38
457.232	900.47
457.606	927.59
457.979	899.79
458.352	984.76
458.725	965.33
459.099	949.73
459.472	972.79
459.845	1000.58
460.218	1002.84
460.591	1018.89
460.964	1005.33
461.337	1029.05
461.71	1034.93
462.083	1037.64
462.456	1046
462.829	1083.97
463.201	1081.48
463.574	1086.23
463.947	1102.05
464.32	1118.09
464.692	1142.72
465.065	1137.98
465.438	1141.82
465.81	1173.68
466.183	1157.19
466.555	1222.04
466.928	1214.81
467.3	1214.81
467.672	1216.17
468.045	1258.43
468.417	1260.01
468.789	1299.56
469.161	1297.07
469.534	1325.32
469.906	1329.61
470.278	1334.58
470.65	1359.89
471.022	1372.55
471.394	1376.39
471.766	1393.57
472.138	1444.19
472.51	1476.27
472.882	1472.21
473.253	1518.08
473.625	1508.59
473.997	1553.79
474.369	1555.14
474.74	1593.11
475.112	1645.76
475.484	1676.27
475.855	1645.31
476.227	1683.95
476.598	1744.74
476.97	1776.61
477.341	1818.19
477.713	1825.87
478.084	1877.85
478.455	1920.56
478.827	1923.95
479.198	2009.14
479.569	2007.11
479.94	2028.35
480.311	2087.11
480.682	2152.87
481.053	2196.26
481.424	2253.88
481.795	2306.31
482.166	2313.09
482.537	2358.96
482.908	2403.71
483.279	2443.25
483.65	2490.03
484.021	2557.6
484.391	2595.12
484.762	2642.12
485.133	2697.26
485.503	2695.68
485.874	2768.22
486.244	2779.74
486.615	2951.26
486.985	2973.64
487.356	3033.07
487.726	3099.51
488.097	3151.26
488.467	3142.9
488.837	3229.22
489.207	3260.86
489.578	3384.47
489.948	3372.5
490.318	3477.8
490.688	3477.8
491.058	3539.72
491.428	3604.58
491.798	3694.97
492.168	3809.55
492.538	3804.8
492.908	3847.51
493.278	3889.32
493.648	3920.73
494.017	3981.52
494.387	4026.49
494.757	4084.79
495.126	4119.6
495.496	4195.98
495.866	4234.17
496.235	4286.14
496.605	4348.06
496.974	4362.98
497.344	4450.89
497.713	4470.77
498.082	4496.31
498.452	4549.19
498.821	4604.1
499.19	4636.87
499.559	4711.22
499.928	4762.74
500.298	4755.74
500.667	4810.88
501.036	4789.41
501.405	4870.76
501.774	4830.99
502.143	4899.24
502.512	4938.56
502.88	5008.39
503.249	5019.91
503.618	5092
503.987	5153.24
504.356	5132.45
504.724	5188.04
505.093	5243.86
505.462	5210.19
505.83	5325.44
506.199	5328.83
506.567	5402.73
506.936	5376.74
507.304	5472.55
507.672	5492.21
508.041	5502.38
508.409	5525.43
508.777	5582.16
509.145	5609.95
509.514	5592.1
509.882	5714.13
510.25	5696.28
510.618	5733.79
510.986	5760.23
511.354	5841.81
511.722	5839.78
512.09	5904.41
512.458	5902.37
512.826	5908.47
513.193	5959.55
513.561	5994.12
513.929	6055.59
514.297	6108.47
514.664	6101.24
515.032	6116.38
515.4	6174.46
515.767	6183.5
516.135	6203.83
516.502	6208.35
516.869	6285.19
517.237	6308.24
517.604	6265.98
517.972	6342.59
518.339	6354.79
518.706	6399.76
519.073	6406.77
519.44	6445.64
519.808	6497.84
520.175	6507.1
520.542	6580.77
520.909	6615.57
521.276	6593.43
521.643	6615.57
522.009	6693.99
522.376	6760.88
522.743	6743.03
523.11	6791.16
523.477	6841.56
523.843	6865.51
524.21	6931.27
524.577	6948.22
524.943	7006.98
525.31	7032.74
525.676	7125.17
526.043	7040.42
526.409	7137.59
526.776	7239.74
527.142	7255.56
527.508	7236.12
527.874	7348.21
528.241	7382.11
528.607	7384.82
528.973	7500.3
529.339	7402.9
529.705	7470.24
530.071	7554.98
530.437	7637.69
530.803	7650.12
531.169	7620.75
531.535	7681.99
531.901	7716.56
532.267	7741.42
532.632	7816
532.998	7825.03
533.364	7855.54
533.73	7888.08
534.095	7954.75
534.461	7926.27
534.826	8058.93
535.192	8010.79
535.557	8102.09
535.923	8055.54
536.288	8130.11
536.653	8156.78
537.019	8200.39
537.384	8248.07
537.749	8278.36
538.114	8304.12
538.479	8275.87
538.845	8325.81
539.21	8331.01
539.575	8411.23
539.94	8441.52
540.305	8456.43
540.67	8447.62
541.034	8576.2
541.399	8558.8
541.764	8636.09
542.129	8625.92
542.494	8661.4
542.858	8682.41
543.223	8795.86
543.587	8768.29
543.952	8765.8
544.316	8860.49
544.681	8859.58
545.045	8902.75
545.41	8929.19
545.774	8968.96
546.138	8952.01
546.503	8956.98
546.867	8980.26
547.231	9130.08
547.595	9130.08
547.959	9110.42
548.324	9176.64
548.688	9229.52
549.052	9288.95
549.416	9334.37
549.779	9315.16
550.143	9308.39
550.507	9457.99
550.871	9387.25
551.235	9454.37
551.599	9541.83
551.962	9518.78
552.326	9500.02
552.689	9590.86
553.053	9558.32
553.417	9594.03
553.78	9660.01
554.143	9691.65
554.507	9719
554.87	9764.87
555.234	9812.78
555.597	9810.07
555.96	9781.59
556.323	9879.22
556.686	9901.36
557.05	9942.04
557.413	9969.61
557.776	9938.2
558.139	10054.13
558.502	10142.94
558.865	10091.42
559.228	10140
559.59	10211.64
559.953	10276.95
560.316	10289.6
560.679	10305.2
561.041	10364.85
561.404	10368.24
561.767	10425.19
562.129	10344.74
562.492	10551.52
562.854	10475.81
563.217	10546.32
563.579	10601.68
563.941	10591.06
564.304	10624.96
564.666	10650.72
565.028	10783.15
565.39	10780.44
565.753	10791.51
566.115	10879.42
566.477	10895.46
566.839	10955.35
567.201	10966.19
567.563	11007.32
567.925	11097.49
568.287	11046.19
568.648	11112.18
569.01	11093.42
569.372	11198.05
569.734	11102.91
570.095	11254.32
570.457	11326.19
570.819	11395.56
571.18	11351.72
571.542	11540.19
571.903	11541.09
572.265	11507.65
572.626	11630.81
572.987	11688.89
573.349	11734.08
573.71	11751.03
574.071	11818.15
574.432	11906.96
574.794	11919.62
575.155	12030.12
575.516	12086.39
575.877	12262.21
576.238	12277.8
576.599	12326.61
576.96	12337.91
577.32	12440.05
577.681	12608.86
578.042	12722.08
578.403	12738.13
578.763	12844.79
579.124	13018.34
579.485	13158.91
579.845	13207.94
580.206	13293.37
580.566	13425.57
580.927	13602.96
581.287	13653.13
581.648	13825.78
582.008	13901.26
582.368	14057.41
582.728	14140.35
583.089	14378.08
583.449	14492.43
583.809	14715.25
584.169	14920.89
584.529	15019.2
584.889	15295.35
585.249	15432.52
585.609	15511.39
585.969	15818.5
586.329	15891.49
586.688	16156.11
587.048	16371.02
587.408	16580.51
587.768	16694.18
588.127	17006.49
588.487	17048.29
588.846	17432.92
589.206	17549.07
589.565	17877.43
589.925	18275.38
590.284	18307.7
590.643	18470.18
591.003	18809.15
591.362	19049.82
591.721	19333.43
592.08	19551.28
592.44	19736.81
592.799	20078.05
593.158	20264.03
593.517	20541.08
593.876	20781.76
594.235	21085.48
594.593	21350.33
594.952	21619.7
595.311	21786.48
595.67	22059.46
596.029	22441.6
596.387	22660.35
596.746	22826.45
597.104	23000
597.463	23269.37
597.822	23549.82
598.18	23811.28
598.538	23996.59
598.897	24368.78
599.255	24352.06
599.613	24889.44
599.972	24987.97
600.33	25259.6
600.688	25363.78
601.046	25754.51
601.404	26100.49
601.762	26227.71
602.12	26556.07
602.478	26770.3
602.836	26986.11
603.194	27015.04
603.552	27369.83
603.91	27497.51
604.268	27869.03
604.625	27918.97
604.983	28255.01
605.341	28312.86
605.698	28645.05
606.056	28797.14
606.413	28941.32
606.771	29273.51
607.128	29373.62
607.485	29463.56
607.843	29653.61
608.2	30018.35
608.557	30207.95
608.914	30266.48
609.272	30566.36
609.629	30710.99
609.986	31022.39
610.343	30990.53
610.7	31499.89
611.057	31581.47
611.414	31601.36
611.771	31840.45
612.127	32007.22
612.484	32322.92
612.841	32312.98
613.198	32399.3
613.554	32488.57
613.911	32829.8
614.267	33043.58
614.624	32984.37
614.98	33198.6
615.337	33397.92
615.693	33431.14
616.05	33576.45
616.406	33733.96
616.762	33873.16
617.118	33994.52
617.475	33966.27
617.831	34190.67
618.187	34336.2
618.543	34493.94
618.899	34698.45
619.255	34660.26
619.611	34727.6
619.967	34872.46
620.323	35024.09
620.678	34934.15
621.034	35081.04
621.39	35089.63
621.746	35123.53
622.101	35626.56
622.457	35251.21
622.812	35359.23
623.168	35667.47
623.523	35703.4
623.879	35802.15
624.234	35733.68
624.589	36007.34
624.945	36002.37
625.3	36147.45
625.655	36053.22
626.01	36181.8
626.365	36422.47
626.72	36274.23
627.075	36242.37
627.43	36376.15
627.785	36302.48
628.14	36511.29
628.495	36590.38
628.85	36529.14
629.205	36449.37
629.559	36816.81
629.914	36606.65
630.269	36723.94
630.623	36547.22
630.978	36482.13
631.332	36709.47
631.687	36708.34
632.041	36583.83
632.396	36732.52
632.75	36614.79
633.104	36702.24
633.459	36589.7
633.813	36556.93
634.167	36669.7
634.521	36644.62
634.875	36700.66
635.229	36677.84
635.583	36606.42
635.937	36653.65
636.291	36627.44
636.645	36648.46
636.999	36524.39
637.352	36622.92
637.706	36529.14
638.06	36766.42
638.413	36577.05
638.767	36617.72
639.121	36575.92
639.474	36445.52
639.828	36471.96
640.181	36710.6
640.534	36569.59
640.888	36541.12
641.241	36239.2
641.594	36378.86
641.947	36479.65
642.301	36393.55
642.654	36451.63
643.007	36515.35
643.36	36547.22
643.713	36323.72
644.066	36531.4
644.419	36290.27
644.771	36104.97
645.124	35777.75
645.477	35707.24
645.83	35509.05
646.182	35393.35
646.535	35294.59
646.888	35382.05
647.24	35248.49
647.593	35364.42
647.945	35291.88
648.298	35150.64
648.65	35045.11
649.002	34951.55
649.355	35194.71
649.707	35206.01
650.059	35282.62
650.411	35683.74
650.763	35776.39
651.115	36106.32
651.467	36001.92
651.819	35912.66
652.171	36012.09
652.523	35894.8
652.875	35829.5
653.227	35733.91
653.578	35847.57
653.93	35793.79
654.282	35698.2
654.633	35622.27
654.985	35753.11
655.337	35690.74
655.688	35826.78
656.039	35779.33
656.391	35379.79
656.742	35621.82
657.094	35699.78
657.445	35645.32
657.796	35638.77
658.147	35559.45
658.498	35514.7
658.849	35642.83
659.2	35552.67
659.551	35431.77
659.902	35631.99
660.253	35721.7
660.604	35684.19
660.955	35409.62
661.306	35661.36
661.656	35476.74
662.007	35540.92
662.358	35433.57
662.708	35404.42
663.059	35589.95
663.409	35333.24
663.76	35644.87
664.11	35356.51
664.461	35613
664.811	35556.28
665.161	35526.23
665.511	35400.13
665.862	35518.09
666.212	35350.19
666.562	35629.05
666.912	35432.44
667.262	35466.12
667.612	35439.22
667.962	35517.87
668.312	35479.22
668.662	35616.39
669.011	35504.08
669.361	35339.79
669.711	35360.36
670.06	35287.36
670.41	35217.31
670.76	35218.89
671.109	35261.15
671.459	35333.92
671.808	35277.65
672.157	35361.03
672.507	35136.86
672.856	35162.39
673.205	35220.02
673.554	35270.87
673.904	35216.18
674.253	35235.61
674.602	35163.3
674.951	34705.91
675.3	34482.41
675.649	35018.9
675.998	35000.82
676.346	35025.68
676.695	35111.77
677.044	34866.36
677.393	34880.82
677.741	34879.92
678.09	34889.18
678.438	34842.63
678.787	34987.71
679.135	34918.56
679.484	34761.28
679.832	34744.1
680.181	34646.93
680.529	34720.15
680.877	34589.08
681.225	34629.08
681.573	34800.14
681.922	34541.85
682.27	34410.1
682.618	34427.72
682.966	34350.21
683.314	34374.62
683.661	34172.14
684.009	34128.07
684.357	34179.37
684.705	34109.32
685.053	34003.56
685.4	33986.15
685.748	33892.82
686.095	33882.88
686.443	33689.44
686.79	33659.38
687.138	33782.77
687.485	33851.02
687.832	33629.1
688.18	33635.43
688.527	33449.22
688.874	33398.37
689.221	33419.39
689.568	33241.99
689.915	33302.1
690.262	33121.54
690.609	32998.16
690.956	33078.83
691.303	32954.09
691.65	32841.1
691.997	32826.41
692.344	32638.85
692.69	32822.12
693.037	32646.3
693.383	32464.39
693.73	32580.99
694.077	32328.57
694.423	32378.29
694.769	32281.57
695.116	32092.19
695.462	32034.57
695.808	32009.71
696.155	32095.13
696.501	31845.42
696.847	31662.6
697.193	31564.75
697.539	31757.51
697.885	31320.91
698.231	31432.78
698.577	31336.73
698.923	31351.42
699.269	31153.01
699.614	31024.2
699.96	30969.51
700.306	30975.16
700.651	30870.53
700.997	30754.15
701.342	30621.5
701.688	30600.93
702.033	30575.85
702.379	30565.45
702.724	30427.83
703.069	30574.49
703.415	30104.9
703.76	30187.16
704.105	30071.91
704.45	30051.34
704.795	29942.19
705.14	29892.48
705.485	29882.76
705.83	29772.03
706.175	29740.39
706.52	29665.59
706.865	29560.06
707.209	29591.47
707.554	29456.56
707.899	29634.86
708.243	29358.48
708.588	29299.95
708.932	29134.98
709.277	29109.22
709.621	29098.83
709.966	28833.3
710.31	28947.19
710.654	28649.8
710.998	28719.85
711.342	28801.88
711.687	28702.23
712.031	28540.65
712.375	28564.38
712.719	28497.94
713.063	28447.77
713.407	28502.23
713.75	28298.85
714.094	28265.85
714.438	28173.43
714.782	28237.83
715.125	28004.62
715.469	28184.5
715.812	27918.29
716.156	27876.26
716.499	27845.3
716.843	27841.01
717.186	27725.53
717.53	27768.69
717.873	27740.67
718.216	27700.9
718.559	27487.79
718.902	27396.27
719.246	27476.04
719.589	27243.96
719.932	27298.19
720.275	27320.57
720.617	27255.71
720.96	27235.82
721.303	27221.36
721.646	27282.83
721.989	27046.45
722.331	27061.14
722.674	26960.35
723.016	27131.42
723.359	27015.94
723.701	26955.83
724.044	26888.26
724.386	26742.96
724.729	26773.01
725.071	26669.96
725.413	26587.48
725.755	26690.75
726.097	26476.97
726.439	26479.46
726.782	26360.82
727.124	26561.94
727.465	26361.95
727.807	26317.2
728.149	26371.44
728.491	26337.99
728.833	26402.85
729.175	26259.35
729.516	26148.17
729.858	26147.04
730.199	26179.58
730.541	26135.51
730.882	26128.73
731.224	26029.3
731.565	25861.62
731.906	25939.36
732.248	25906.59
732.589	25801.96
732.93	25771.68
733.271	25708.41
733.612	25835.41
733.953	25668.18
734.294	25531.24
734.635	25598.13
734.976	25608.07
735.317	25557.22
735.658	25475.42
735.999	25456.21
736.339	25409.88
736.68	25542.53
737.021	25436.77
737.361	25328.75
737.702	25413.95
738.042	25333.73
738.383	25363.33
738.723	25305.48
739.063	25078.82
739.404	25212.6
739.744	25198.36
740.084	24981.19
740.424	25015.09
740.764	24947.97
741.104	25016.45
741.444	24857.81
741.784	24864.59
742.124	24939.16
742.464	24862.78
742.804	24777.13
743.143	24754.08
743.483	24801.76
743.823	24580.75
744.162	24651.03
744.502	24774.19
744.841	24511.83
745.181	24759.05
745.52	24557.7
745.86	24565.16
746.199	24550.47
746.538	24493.07
746.877	24550.24
747.216	24438.83
747.556	24552.28
747.895	24463.24
748.234	24357.03
748.573	24325.84
748.911	24166.3
749.25	24162.01
749.589	23966.53
749.928	24142.35
750.267	24284.49
750.605	24142.57
750.944	24039.75
751.283	23960.43
751.621	24096.7
751.96	23848.12
752.298	23872.75
752.636	23803.37
752.975	23705.29
753.313	23633.88
753.651	23696.93
753.989	23615.81
754.327	23684.5
754.666	23559.31
755.004	23560.21
755.342	23590.72
755.679	23515.47
756.017	23375.36
756.355	23401.12
756.693	23272.54
757.031	23426.88
757.368	23179.21
757.706	23235.25
758.044	23154.57
758.381	23241.58
758.719	23066.67
759.056	23035.26
759.394	22974.01
759.731	22809.95
760.068	22787.35
760.405	22775.6
760.743	22717.98
761.08	22669.62
761.417	22607.47
761.754	22531.54
762.091	22472.56
762.428	22398.66
762.765	22314.82
763.102	22456.06
763.438	22272.11
763.775	22201.38
764.112	22033.7
764.449	22111.21
764.785	22045.23
765.122	21896.3
765.458	21837.55
765.795	21779.92
766.131	21733.82
766.467	21689.53
766.804	21646.59
767.14	21393.04
767.476	21512.13
767.812	21351.91
768.148	21401.85
768.485	21225.13
768.821	21143.1
769.157	21084.12
769.492	21050.45
769.828	20970.45
770.164	20838.25
770.5	20711.25
770.836	20767.52
771.171	20682.1
771.507	20630.8
771.842	20566.85
772.178	20474.87
772.513	20416.34
772.849	20363.69
773.184	20273.07
773.519	20243.01
773.855	20173.41
774.19	20049.8
774.525	20054.77
774.86	20056.8
775.195	19986.97
775.53	19922.12
775.865	19733.42
776.2	19652.52
776.535	19542.24
776.87	19532.52
777.205	19535.46
777.539	19377.27
777.874	19516.25
778.209	19254.79
778.543	19302.02
778.878	19052.31
779.212	19116.94
779.547	19011.41
779.881	19009.6
780.215	18842.82
780.55	18945.42
780.884	18742.94
781.218	18725.09
781.552	18631.53
781.886	18551.76
782.22	18417.3
782.554	18392.44
782.888	18356.51
783.222	18257.98
783.556	18147.47
783.889	18187.02
784.223	17903.19
784.557	17923.75
784.89	18024.99
785.224	17849.63
785.557	17764.66
785.891	17741.84
786.224	17678.56
786.558	17589.3
786.891	17495.29
787.224	17420.49
787.557	17382.98
787.891	17379.59
788.224	17323.09
788.557	17240.15
788.89	17212.13
789.223	17216.43
789.556	17074.51
789.888	17006.71
790.221	17016.66
790.554	16839.71
790.887	16911.35
791.219	16824.12
791.552	16692.15
791.884	16552.04
792.217	16640.85
792.549	16575.31
792.882	16423.68
793.214	16343
793.546	16313.62
793.879	16249.22
794.211	16187.98
794.543	16222.1
794.875	16152.73
795.207	16183.68
795.539	16083.57
795.871	16008.77
796.203	15925.84
796.535	15842.9
796.867	15842.68
797.198	15806.97
797.53	15778.27
797.862	15747.76
798.193	15733.08
798.525	15593.42
798.856	15563.81
799.188	15451.5
799.519	15394.33
799.85	15359.53
800.182	15257.16
800.513	15391.84
800.844	15216.93
801.175	15294.67
801.506	15138.29
801.837	15137.61
802.168	15094.67
802.499	14939.2
802.83	14942.36
803.161	14873.21
803.491	14861.91
803.822	14906.66
804.153	14829.37
804.483	14693.1
804.814	14637.51
805.145	14623.5
805.475	14634.12
805.805	14614.01
806.136	14558.87
806.466	14502.37
806.796	14466.89
807.126	14367.69
807.457	14306.22
807.787	14371.53
808.117	14280.23
808.447	14214.02
808.777	14172.89
809.107	14165.43
809.436	14146
809.766	14135.15
810.096	14085.66
810.426	13989.39
810.755	13998.43
811.085	14015.15
811.414	13917.53
811.744	13821.94
812.073	13893.8
812.403	13812
812.732	13688.16
813.061	13724.09
813.39	13639.57
813.719	13606.8
814.049	13728.38
814.378	13597.09
814.707	13586.24
815.036	13505.34
815.365	13436.86
815.693	13335.85
816.022	13395.28
816.351	13286.59
816.68	13199.58
817.008	13224.44
817.337	13200.03
817.665	13163.88
817.994	13115.06
818.322	13114.84
818.651	13137.89
818.979	13056.76
819.307	13048.17
819.636	13093.82
819.964	12969.76
820.292	13025.58
820.62	13009.3
820.948	12950.32
821.276	12958.68
821.604	12949.42
821.932	12990.77
822.259	12949.65
822.587	12858.8
822.915	12963.43
823.243	12938.8
823.57	12893.6
823.898	12963.2
824.225	12831.91
824.553	12843.89
824.88	12919.14
825.207	12910.1
825.535	12874.62
825.862	12912.13
826.189	12864.45
826.516	12852.02
826.843	12956.42
827.17	12906.71
827.497	12939.48
827.824	12876.2
828.151	12876.65
828.478	12757.33
828.805	12889.53
829.131	12883.21
829.458	12779.48
829.785	12703.78
830.111	12763.89
830.438	12871.68
830.764	12776.77
831.09	12866.48
831.417	12788.75
831.743	12842.76
832.069	12766.15
832.395	12735.64
832.722	12750.1
833.048	12712.82
833.374	12766.37
833.7	12675.53
834.026	12708.07
834.351	12744.91
834.677	12693.38
835.003	12687.05
835.329	12792.36
835.654	12696.77
835.98	12539.71
836.306	12638.69
836.631	12518.24
836.956	12591.01
837.282	12598.69
837.607	12444.57
837.932	12458.36
838.258	12478.47
838.583	12471.92
838.908	12330.68
839.233	12438.25
839.558	12373.84
839.883	12372.26
840.208	12300.4
840.533	12292.26
840.858	12277.35
841.182	12282.54
841.507	12247.29
841.832	12268.53
842.156	12193.96
842.481	12178.37
842.805	12128.42
843.13	12177.01
843.454	12070.35
843.778	11958.71
844.103	12066.5
844.427	11994.19
844.751	11977.24
845.075	11969.33
845.399	11913.06
845.723	11918.26
846.047	11869
846.371	11843.01
846.695	11776.57
847.019	11717.81
847.343	11668.55
847.666	11563.02
847.99	11571.83
848.313	11531.38
848.637	11445.96
848.96	11446.86
849.284	11411.83
849.607	11282.34
849.931	11294.77
850.254	11291.84
850.577	11142.46
850.9	11087.1
851.223	11198.28
851.546	11073.99
851.869	10955.35
852.192	11005.06
852.515	10907.21
852.838	10858.4
853.161	10860.43
853.483	10821.11
853.806	10712.42
854.129	10695.24
854.451	10678.29
854.774	10613.89
855.096	10607.33
855.419	10555.58
855.741	10571.63
856.063	10514.46
856.385	10442.14
856.708	10463.61
857.03	10358.08
857.352	10442.59
857.674	10363.95
857.996	10368.47
858.318	10267.46
858.64	10270.39
858.961	10247.8
859.283	10247.8
859.605	10135.93
859.926	10189.49
860.248	10193.79
860.57	10138.87
860.891	10102.04
861.212	10057.97
861.534	10003.96
861.855	10034.24
862.176	10055.71
862.498	10010.06
862.819	10017.75
863.14	9897.07
863.461	9850.74
863.782	9919.44
864.103	9848.48
864.424	9810.97
864.745	9947.24
865.065	9774.81
865.386	9797.19
865.707	9811.42
866.027	9802.84
866.348	9761.48
866.668	9752.89
866.989	9730.97
867.309	9654.82
867.63	9603.29
867.95	9668.83
868.27	9546.35
868.59	9622.28
868.91	9608.94
869.23	9609.85
869.55	9541.83
869.87	9604.2
870.19	9553.35
870.51	9480.81
870.83	9479.45
871.15	9549.06
871.469	9411.43
871.789	9466.8
872.109	9524.42
872.428	9472.22
872.748	9405.33
873.067	9458.44
873.386	9443.52
873.706	9424.31
874.025	9370.76
874.344	9365.78
874.663	9332.79
874.982	9387.71
875.301	9246.01
875.62	9241.95
875.939	9257.99
876.258	9221.38
876.577	9257.31
876.896	9231.78
877.214	9203.08
877.533	9190.42
877.852	9157.88
878.17	9201.95
878.489	9132.8
878.807	9181.83
879.125	9129.18
879.444	9081.27
879.762	9039.01
880.08	9073.36
880.398	9025.23
880.716	8986.59
881.034	9032.69
881.352	8997.88
881.67	8963.76
881.988	8971.44
882.306	8954.5
882.624	8897.1
882.941	8903.88
883.259	8863.43
883.577	8869.98
883.894	8827.04
884.212	8809.19
884.529	8812.58
884.846	8799.7
885.164	8782.98
885.481	8737.78
885.798	8762.41
886.115	8607.39
886.432	8732.13
886.75	8707.27
887.067	8672.7
887.383	8585.24
887.7	8611
888.017	8592.02
888.334	8506.82
888.651	8556.09
888.967	8476.99
889.284	8520.16
889.6	8415.08
889.917	8392.93
890.233	8444.91
890.55	8279.71
890.866	8388.64
891.182	8337.11
891.498	8332.14
891.815	8292.59
892.131	8265.7
892.447	8183.67
892.763	8298.47
893.079	8180.96
893.395	8181.41
893.71	8194.74
894.026	8099.15
894.342	8084.01
894.657	8041.98
894.973	8059.38
895.289	7997.91
895.604	8018.25
895.92	7998.36
896.235	7944.13
896.55	7959.72
896.865	7941.19
897.181	7851.93
897.496	7928.31
897.811	7793.17
898.126	7794.53
898.441	7771.25
898.756	7707.75
899.071	7656.9
899.386	7675.66
899.7	7620.29
900.015	7597.92
900.33	7523.12
900.644	7544.59
900.959	7652.38
901.273	7582.55
901.588	7531.71
901.902	7462.11
902.216	7455.1
902.531	7391.83
902.845	7355.44
903.159	7373.52
903.473	7329.45
903.787	7323.13
904.101	7217.59
904.415	7267.99
904.729	7255.33
905.042	7195.45
905.356	7232.73
905.67	7151.15
905.984	7087.2
906.297	7122
906.611	7043.81
906.924	7033.42
907.237	6997.26
907.551	6999.52
907.864	6917.26
908.177	6963.36
908.491	6874.78
908.804	6846.53
909.117	6829.35
909.43	6815.12
909.743	6735.8
910.056	6766.31
910.368	6729.92
910.681	6725.18
910.994	6695.12
911.307	6651.28
911.619	6619.64
911.932	6622.35
912.244	6578.06
912.557	6583.26
912.869	6505.52
913.181	6513.88
913.494	6468.46
913.806	6421.23
914.118	6413.55
914.43	6344.4
914.742	6382.81
915.054	6390.04
915.366	6313.66
915.678	6298.97
915.99	6240.22
916.302	6180.78
916.613	6210.16
916.925	6184.17
917.236	6230.73
917.548	6156.6
917.859	6096.49
918.171	6035.25
918.482	6076.15
918.794	6018.98
919.105	6024.86
919.416	5981.24
919.727	5915.25
920.038	5952.54
920.349	5944.41
920.66	5898.08
920.971	5833.22
921.282	5805.43
921.593	5823.73
921.903	5747.35
922.214	5758.2
922.525	5727.24
922.835	5744.86
923.146	5706.22
923.456	5685.2
923.767	5634.36
924.077	5602.49
924.387	5617.86
924.697	5570.63
925.008	5578.09
925.318	5525.43
925.628	5536.06
925.938	5503.29
926.248	5479.79
926.558	5425.78
926.867	5424.65
927.177	5372.9
927.487	5300.35
927.796	5294.48
928.106	5319.56
928.416	5275.72
928.725	5299.9
929.034	5226.46
929.344	5202.5
929.653	5249.96
929.962	5185.1
930.271	5152.56
930.581	5128.83
930.89	5113.92
931.199	5078.89
931.508	5086.12
931.817	5078.89
932.125	5022.62
932.434	5034.37
932.743	5013.58
933.051	4988.5
933.36	4942.85
933.669	4889.97
933.977	4888.84
934.286	4910.99
934.594	4879.58
934.902	4833.02
935.21	4793.93
935.519	4816.3
935.827	4829.86
936.135	4773.36
936.443	4776.75
936.751	4723.87
937.059	4710.77
937.367	4676.19
937.674	4666.47
937.982	4694.27
938.29	4659.69
938.597	4609.53
938.905	4579.7
939.213	4545.35
939.52	4514.61
939.827	4529.98
940.135	4509.19
940.442	4502.86
940.749	4465.35
941.056	4476.65
941.363	4402.3
941.67	4402.98
941.977	4419.47
942.284	4366.59
942.591	4401.85
942.898	4391.68
943.205	4355.52
943.511	4314.39
943.818	4314.84
944.125	4265.58
944.431	4243.66
944.738	4242.98
945.044	4243.89
945.35	4196.2
945.657	4183.32
945.963	4142.42
946.269	4145.13
946.575	4117.56
946.881	4118.47
947.187	4102.65
947.493	4035.76
947.799	4056.09
948.105	4011.58
948.41	3988.75
948.716	4027.85
949.022	3947.62
949.327	3966.38
949.633	3958.24
949.938	3925.25
950.244	3944.68
950.549	3898.36
950.854	3874.4
951.16	3870.56
951.465	3858.58
951.77	3836.44
952.075	3805.25
952.38	3829.66
952.685	3773.39
952.99	3735.2
953.294	3745.82
953.599	3747.4
953.904	3692.71
954.209	3679.15
954.513	3707.18
954.818	3657.69
955.122	3677.8
955.426	3657.69
955.731	3618.82
956.035	3595.32
956.339	3623.56
956.643	3551.02
956.948	3558.03
957.252	3597.57
957.556	3539.72
957.86	3528.2
958.163	3536.33
958.467	3458.14
958.771	3460.18
959.075	3471.25
959.378	3435.77
959.682	3431.48
959.985	3416.79
960.289	3412.27
960.592	3417.01
960.896	3391.48
961.199	3362.33
961.502	3370.24
961.805	3343.8
962.108	3322.33
962.411	3322.55
962.714	3253.63
963.017	3276.68
963.32	3277.36
963.623	3245.49
963.926	3249.56
964.228	3258.37
964.531	3221.31
964.833	3204.36
965.136	3150.13
965.438	3149.68
965.741	3131.37
966.043	3127.98
966.345	3113.52
966.648	3113.52
966.95	3092.5
967.252	3050.47
967.554	3091.15
967.856	3084.14
968.158	3040.75
968.46	3049.34
968.761	3040.3
969.063	3029.91
969.365	2967.99
969.666	2993.07
969.968	2954.2
970.269	2913.98
970.571	2956.01
970.872	2905.39
971.174	2916.01
971.475	2892.28
971.776	2898.84
972.077	2864.03
972.378	2840.98
972.679	2852.96
972.98	2868.33
973.281	2808.44
973.582	2830.59
973.883	2775.45
974.183	2802.57
974.484	2753.3
974.785	2746.52
975.085	2735.22
975.386	2736.81
975.686	2742.23
975.986	2722.8
976.287	2690.48
976.587	2677.83
976.887	2653.87
977.187	2649.58
977.487	2677.15
977.787	2666.07
978.087	2622.46
978.387	2634.44
978.687	2635.57
978.987	2625.4
979.286	2591.05
979.586	2586.53
979.885	2572.29
980.185	2539.07
980.484	2551.73
980.784	2557.38
981.083	2519.41
981.382	2510.82
981.682	2514.89
981.981	2484.38
982.28	2447.77
982.579	2450.94
982.878	2476.25
983.177	2471.73
983.475	2456.81
983.774	2411.62
984.073	2403.03
984.372	2396.02
984.67	2397.38
984.969	2394.44
985.267	2389.92
985.566	2341.56
985.864	2384.73
986.162	2331.17
986.461	2346.53
986.759	2324.16
987.057	2333.65
987.355	2314.67
987.653	2303.6
987.951	2300.43
988.249	2316.03
988.547	2247.1
988.844	2216.82
989.142	2218.18
989.44	2217.5
989.737	2223.83
990.035	2214.79
990.332	2210.72
990.63	2190.38
990.927	2200.1
991.224	2163.94
991.521	2150.61
991.819	2128.69
992.116	2113.32
992.413	2170.72
992.71	2156.48
993.006	2116.26
993.303	2121.68
993.6	2103.38
993.897	2101.12
994.193	2102.92
994.49	2020.67
994.787	2077.84
995.083	2051.63
995.379	2024.06
995.676	2037.39
995.972	2001.23
996.268	2048.69
996.565	2022.93
996.861	2003.72
997.157	1988.8
997.453	1985.41
997.749	1984.06
998.044	1970.73
998.34	1979.76
998.636	1925.98
998.932	1914.91
999.227	1919.43
999.523	1888.69
999.818	1879.2
1000.114	1883.27
1000.409	1918.97
1000.704	1850.28
1001	1874.91
1001.295	1877.39
1001.59	1820.45
1001.885	1845.3
1002.18	1817.73
1002.475	1818.19
1002.77	1814.12
1003.065	1817.96
1003.359	1791.52
1003.654	1765.31
1003.949	1772.31
1004.243	1781.58
1004.538	1718.53
1004.832	1743.16
1005.127	1739.54
1005.421	1733.67
1005.715	1725.08
1006.009	1692.09
1006.304	1691.86
1006.598	1690.51
1006.892	1658.87
1007.186	1667
1007.48	1646.89
1007.773	1627.68
1008.067	1643.5
1008.361	1608.02
1008.655	1621.36
1008.948	1641.69
1009.242	1610.51
1009.535	1600.34
1009.829	1600.57
1010.122	1588.36
1010.415	1565.76
1010.708	1559.89
1011.001	1533.45
1011.295	1523.51
1011.588	1530.96
1011.881	1509.04
1012.173	1530.51
1012.466	1519.66
1012.759	1529.83
1013.052	1487.35
1013.344	1496.84
1013.637	1468.14
1013.93	1464.3
1014.222	1478.08
1014.514	1460
1014.807	1450.96
1015.099	1417.07
1015.391	1441.02
1015.683	1401.93
1015.976	1408.71
1016.268	1385.88
1016.56	1395.37
1016.851	1373
1017.143	1383.62
1017.435	1366.22
1017.727	1347.69
1018.018	1347.92
1018.31	1352.44
1018.602	1336.39
1018.893	1319.44
1019.185	1311.76
1019.476	1316.96
1019.767	1303.85
1020.058	1291.19
1020.35	1305.43
1020.641	1270.4
1020.932	1269.73
1021.223	1241.48
1021.514	1259.33
1021.804	1260.24
1022.095	1231.99
1022.386	1221.59
1022.677	1215.94
1022.967	1204.42
1023.258	1225.43
1023.548	1197.86
1023.839	1186.79
1024.129	1187.47
1024.419	1176.62
1024.709	1181.82
1025	1173.01
1025.29	1153.57
1025.58	1153.12
1025.87	1113.8
1026.16	1141.59
1026.449	1119.9
1026.739	1122.61
1027.029	1121.93
1027.319	1130.3
1027.608	1105.89
1027.898	1098.21
1028.187	1062.27
1028.477	1064.53
1028.766	1051.2
1029.055	1098.43
1029.344	1068.6
1029.634	1061.14
1029.923	1055.95
1030.212	1054.59
1030.501	1062.27
1030.79	1028.38
1031.078	1014.82
1031.367	1020.24
1031.656	1016.63
1031.945	998.32
1032.233	1026.57
1032.522	960.36
1032.81	985.21
1033.099	967.59
1033.387	1002.39
1033.675	971.43
1033.963	987.7
1034.251	961.26
1034.54	961.71
1034.828	934.59
1035.116	928.49
1035.403	920.36
1035.691	914.93
1035.979	916.29
1036.267	914.03
1036.554	935.27
1036.842	911.54
1037.129	891.88
1037.417	886.01
1037.704	876.06
1037.992	883.75
1038.279	884.88
1038.566	864.31
1038.853	864.31
1039.14	864.31
