Data from hue_80_FLMS001491_38.txt Node
Date: Mon Feb 06 15:22:55 GMT 2017
User: dcchb
Spectrometer: FLMS00149
Trigger mode: 0
Integration Time (sec): 2.000000E-2
Scans to average: 10
Electric dark correction enabled: true
Nonlinearity correction enabled: false
Boxcar width: 0
XAxis mode: Wavelengths
Number of Pixels in Spectrum: 2048
>>>>>Begin Spectral Data<<<<<
341.393	-24.26
341.776	-24.26
342.16	-24.26
342.543	-36.69
342.927	-64.26
343.31	-59.52
343.693	-64.72
344.077	-68.33
344.46	-73.98
344.843	-35.56
345.226	-52.29
345.61	-37.6
345.993	-29.01
346.376	-24.49
346.759	20.48
347.142	29.07
347.525	46.47
347.908	62.29
348.291	79.46
348.674	100.7
349.057	107.03
349.44	141.38
349.823	155.39
350.206	157.43
350.588	200.81
350.971	204.2
351.354	230.19
351.737	213.24
352.119	259.12
352.502	263.19
352.884	279.46
353.267	292.79
353.65	285.56
354.032	283.75
354.414	315.84
354.797	304.09
355.179	319.91
355.562	310.42
355.944	309.74
356.326	337.53
356.709	323.97
357.091	317.42
357.473	329.17
357.855	335.95
358.238	324.65
358.62	342.96
359.002	344.76
359.384	330.53
359.766	338.21
360.148	343.86
360.53	341.6
360.912	340.02
361.294	304.54
361.676	335.27
362.057	343.86
362.439	348.38
362.821	330.53
363.203	324.65
363.584	316.97
363.966	312
364.348	298.21
364.729	326.91
365.111	323.75
365.493	331.43
365.874	314.03
366.256	311.77
366.637	316.97
367.019	316.29
367.4	304.54
367.781	307.03
368.163	312.22
368.544	309.29
368.925	323.97
369.306	302.51
369.688	319.68
370.069	317.42
370.45	318.55
370.831	324.2
371.212	315.39
371.593	299.12
371.974	324.88
372.355	323.3
372.736	347.93
373.117	306.12
373.498	321.04
373.879	321.26
374.26	289.63
374.641	314.48
375.021	315.16
375.402	321.94
375.783	322.84
376.163	308.83
376.544	310.64
376.925	337.08
377.305	312.68
377.686	333.47
378.066	322.39
378.447	331.21
378.827	350.19
379.208	338.21
379.588	317.2
379.968	310.64
380.349	338.89
380.729	319.45
381.109	352.67
381.489	335.27
381.87	325.56
382.25	331.43
382.63	345.67
383.01	325.78
383.39	335.73
383.77	341.15
384.15	347.02
384.53	343.64
384.91	353.13
385.29	340.7
385.67	346.12
386.049	351.54
386.429	351.54
386.809	326.01
387.189	330.53
387.568	355.84
387.948	347.25
388.328	344.31
388.707	347.02
389.087	344.99
389.466	364.88
389.846	353.13
390.225	348.83
390.605	341.38
390.984	363.97
391.363	360.58
391.743	365.56
392.122	356.29
392.501	377.08
392.881	375.5
393.26	383.18
393.639	378.44
394.018	362.84
394.397	359.23
394.776	392
395.155	380.92
395.534	384.99
395.913	397.64
396.292	393.8
396.671	381.83
397.05	368.72
397.429	400.13
397.808	387.25
398.186	401.26
398.565	373.24
398.944	375.72
399.323	384.76
399.701	403.29
400.08	382.28
400.458	414.14
400.837	390.41
401.215	412.79
401.594	388.61
401.972	408.72
402.351	413.69
402.729	405.1
403.107	385.22
403.486	396.97
403.864	390.19
404.242	409.4
404.62	397.64
404.999	420.47
405.377	412.79
405.755	423.18
406.133	397.42
406.511	433.12
406.889	422.5
407.267	424.76
407.645	434.71
408.023	403.52
408.401	415.72
408.779	420.47
409.156	419.79
409.534	421.6
409.912	433.35
410.29	447.36
410.667	420.47
411.045	456.85
411.422	443.97
411.8	452.11
412.178	427.25
412.555	444.65
412.933	457.76
413.31	438.1
413.687	464.54
414.065	452.33
414.442	457.08
414.819	494.14
415.197	480.35
415.574	468.6
415.951	474.48
416.328	490.98
416.705	462.05
417.082	474.93
417.46	485.55
417.837	510.86
418.214	497.08
418.591	491.43
418.967	492.11
419.344	494.59
419.721	524.2
420.098	502.27
420.475	532.33
420.852	507.02
421.228	527.36
421.605	511.77
421.982	521.71
422.358	528.04
422.735	517.64
423.111	524.65
423.488	545.21
423.864	528.71
424.241	531.43
424.617	540.01
424.994	576.62
425.37	544.31
425.746	555.15
426.123	543.86
426.499	543.86
426.875	541.14
427.251	570.3
427.627	573.01
428.003	583.85
428.379	587.47
428.756	580.69
429.132	584.98
429.507	595.61
429.883	588.37
430.259	607.36
430.635	622.72
431.011	609.84
431.387	626.34
431.763	614.81
432.138	647.13
432.514	636.06
432.89	624.98
433.265	620.24
433.641	629.96
434.016	642.16
434.392	648.49
434.767	682.16
435.143	669.95
435.518	661.59
435.894	674.7
436.269	676.06
436.644	697.98
437.02	681.71
437.395	686.9
437.77	698.43
438.145	692.1
438.52	709.05
438.895	709.73
439.271	710.86
439.646	707.92
440.021	742.95
440.395	753.79
440.77	721.7
441.145	745.21
441.52	765.09
441.895	737.52
442.27	743.62
442.645	766.45
443.019	771.42
443.394	752.44
443.769	771.65
444.143	770.52
444.518	773.23
444.892	756.96
445.267	762.38
445.641	769.39
446.016	777.52
446.39	806
446.764	815.49
447.139	813.23
447.513	818.42
447.887	832.44
448.262	825.2
448.636	799.22
449.01	831.08
449.384	825.88
449.758	845.32
450.132	871.98
450.506	859.55
450.88	856.16
451.254	822.27
451.628	852.77
452.002	888.03
452.376	894.58
452.75	882.83
453.123	908.37
453.497	914.47
453.871	911.98
454.244	932.32
454.618	933.68
454.992	925.31
455.365	934.35
455.739	952.21
456.112	991.53
456.486	972.09
456.859	986.1
457.232	997.18
457.606	979.32
457.979	1029.72
458.352	997.4
458.725	1041.24
459.099	1015.71
459.472	1054.58
459.845	1053.22
460.218	1086.44
460.591	1116.04
460.964	1078.76
461.337	1133.22
461.71	1135.48
462.083	1133.9
462.456	1165.76
462.829	1140.68
463.201	1170.51
463.574	1194.46
463.947	1182.03
464.32	1228.81
464.692	1226.55
465.065	1239.88
465.438	1267.23
465.81	1289.15
466.183	1338.64
466.555	1311.07
466.928	1314.91
467.3	1365.53
467.672	1365.3
468.045	1415.02
468.417	1400.56
468.789	1455.47
469.161	1434.45
469.534	1461.12
469.906	1521.01
470.278	1520.55
470.65	1527.33
471.022	1589.48
471.394	1645.3
471.766	1625.18
472.138	1641
472.51	1720.77
472.882	1732.53
473.253	1776.37
473.625	1783.6
473.997	1815.01
474.369	1887.32
474.74	1903.37
475.112	1978.39
475.484	1996.7
475.855	2057.04
476.227	2061.78
476.598	2115.11
476.97	2184.26
477.341	2239.63
477.713	2273.98
478.084	2286.18
478.455	2417.48
478.827	2462.68
479.198	2535.89
479.569	2590.81
479.94	2658.38
480.311	2713.29
480.682	2786.06
481.053	2871.25
481.424	2940.85
481.795	3042.32
482.166	3123
482.537	3187.18
482.908	3300.39
483.279	3345.82
483.65	3485.25
484.021	3615.87
484.391	3632.36
484.762	3747.39
485.133	3835.75
485.503	3926.14
485.874	4053.14
486.244	4131.78
486.615	4276.41
486.985	4382.17
487.356	4539
487.726	4592.34
488.097	4742.62
488.467	4775.83
488.837	4964.08
489.207	5081.59
489.578	5215.15
489.948	5352.32
490.318	5474.35
490.688	5548.92
491.058	5688.13
491.428	5835.92
491.798	5933.32
492.168	6118.85
492.538	6216.93
492.908	6357.94
493.278	6494.66
493.648	6583.02
494.017	6722.45
494.387	6940.98
494.757	7023.23
495.126	7142.55
495.496	7288.54
495.866	7331.47
496.235	7476.78
496.605	7638.81
496.974	7763.33
497.344	7892.36
497.713	7960.61
498.082	8090.78
498.452	8308.17
498.821	8347.72
499.19	8421.61
499.559	8573.48
499.928	8708.84
500.298	8825.67
500.667	8965.78
501.036	8952.45
501.405	9096.17
501.774	9224.31
502.143	9362.83
502.512	9442.38
502.88	9569.61
503.249	9554.47
503.618	9755.82
503.987	9878.75
504.356	9909.71
504.724	10014.79
505.093	10067.9
505.462	10128.01
505.83	10292.3
506.199	10446.19
506.567	10572.07
506.936	10579.98
507.304	10768.22
507.672	10799.41
508.041	10883.47
508.409	11093.18
508.777	11100.87
509.145	11211.6
509.514	11216.8
509.882	11338.6
510.25	11316.45
510.618	11424.93
510.986	11569.55
511.354	11689.33
511.722	11703.56
512.09	11942.43
512.458	11901.75
512.826	12073.5
513.193	12022.65
513.561	12120.5
513.929	12183.32
514.297	12302.64
514.664	12321.4
515.032	12482.3
515.4	12520.26
515.767	12606.36
516.135	12649.98
516.502	12631.67
516.869	12812.46
517.237	12882.51
517.604	12803.65
517.972	13031.21
518.339	13037.54
518.706	13057.2
519.073	13108.95
519.44	13250.87
519.808	13302.16
520.175	13229.17
520.542	13461.03
520.909	13484.76
521.276	13461.71
521.643	13575.83
522.009	13638.2
522.376	13742.38
522.743	13763.17
523.11	13855.82
523.477	14000.9
523.843	13913.67
524.21	14162.03
524.577	14271.18
524.943	14301.69
525.31	14342.14
525.676	14431.17
526.043	14408.35
526.409	14455.35
526.776	14608.12
527.142	14615.35
527.508	14666.87
527.874	14694.9
528.241	14676.37
528.607	14794.33
528.973	14819.19
529.339	14853.76
529.705	14938.96
530.071	15033.19
530.437	14914.55
530.803	15073.42
531.169	15245.62
531.535	15043.36
531.901	15146.86
532.267	15178.73
532.632	15204.71
532.998	15212.62
533.364	15274.54
533.73	15360.64
534.095	15284.26
534.461	15340.98
534.826	15381.66
535.192	15410.36
535.557	15497.59
535.923	15368.78
536.288	15423.01
536.653	15479.51
537.019	15409
537.384	15402
537.749	15502.56
538.114	15467.53
538.479	15435.89
538.845	15524.03
539.21	15448.32
539.575	15495.78
539.94	15442.22
540.305	15533.29
540.67	15487.64
541.034	15491.49
541.399	15507.08
541.764	15523.8
542.129	15534.87
542.494	15461.88
542.858	15565.61
543.223	15443.8
543.587	15505.04
543.952	15433.63
544.316	15455.55
544.681	15340.75
545.045	15480.86
545.41	15455.33
545.774	15386.4
546.138	15496.46
546.503	15418.94
546.867	15426.4
547.231	15539.39
547.595	15491.94
547.959	15494.88
548.324	15442
548.688	15377.82
549.052	15446.51
549.416	15545.5
549.779	15376.91
550.143	15458.27
550.507	15507.08
550.871	15518.6
551.235	15376.23
551.599	15586.85
551.962	15481.32
552.326	15470.47
552.689	15556.12
553.053	15497.81
553.417	15438.15
553.78	15564.03
554.143	15449.45
554.507	15484.25
554.87	15488.77
555.234	15563.57
555.597	15490.58
555.96	15475.67
556.323	15515.89
556.686	15450.81
557.05	15577.13
557.413	15637.24
557.776	15510.24
558.139	15571.71
558.502	15615.1
558.865	15592.73
559.228	15656.45
559.59	15688.54
559.953	15626.62
560.316	15864.81
560.679	15774.64
561.041	15863.45
561.404	15869.78
561.767	15914.53
562.129	15872.72
562.492	15965.82
562.854	15951.13
563.217	15957.01
563.579	15900.29
563.941	16067.52
564.304	16097.57
564.666	16149.77
565.028	16159.94
565.39	16105.25
565.753	16248.53
566.115	16246.49
566.477	16251.01
566.839	16323.55
567.201	16350.22
567.563	16308.19
567.925	16452.59
568.287	16359.94
568.648	16367.85
569.01	16414.62
569.372	16573.72
569.734	16511.12
570.095	16472.7
570.457	16591.57
570.819	16608.52
571.18	16651.23
571.542	16722.41
571.903	16745.24
572.265	16702.53
572.626	16766.71
572.987	16678.35
573.349	16812.81
573.71	16852.35
574.071	16839.25
574.432	16911.56
574.794	17084.44
575.155	16858.23
575.516	16837.44
575.877	16955.4
576.238	17017.77
576.599	16998.56
576.96	17055.06
577.32	16928.51
577.681	17022.52
578.042	17013.25
578.403	17015.51
578.763	17121.72
579.124	17038.34
579.485	17148.84
579.845	17129.41
580.206	17134.83
580.566	17100.26
580.927	17151.33
581.287	17190.65
581.648	17147.49
582.008	17199.24
582.368	17007.83
582.728	17122.63
583.089	17196.53
583.449	17085.79
583.809	17142.06
584.169	17065
584.529	17078.34
584.889	17167.83
585.249	16985.23
585.609	17121.5
585.969	17261.38
586.329	17064.78
586.688	17037.21
587.048	17077.43
587.408	17114.72
587.768	17139.58
588.127	17061.61
588.487	17156.53
588.846	17194.04
589.206	17003.31
589.565	17035.85
589.925	17126.47
590.284	17040.82
590.643	17079.47
591.003	17188.84
591.362	17245.56
591.721	17130.54
592.08	17160.82
592.44	17034.95
592.799	17082.18
593.158	17045.79
593.517	17037.21
593.876	17076.3
594.235	17008.06
594.593	16994.27
594.952	17112.46
595.311	17017.77
595.67	17040.82
596.029	17119.24
596.387	17083.76
596.746	17100.48
597.104	16944.78
597.463	16953.37
597.822	17036.76
598.18	16965.57
598.538	16926.02
598.897	17058.22
599.255	16878.34
599.613	17070.88
599.972	17020.71
600.33	17035.17
600.688	16905.91
601.046	17066.59
601.404	17116.53
601.762	17075.4
602.12	17123.98
602.478	17083.53
602.836	17115.62
603.194	17068.39
603.552	17055.06
603.91	16984.55
604.268	17150.42
604.625	17036.53
604.983	17152.23
605.341	17091.44
605.698	17102.97
606.056	17156.3
606.413	17114.04
606.771	17227.48
607.128	17225.45
607.485	17250.54
607.843	17179.8
608.2	17222.74
608.557	17302.29
608.914	17257.31
609.272	17210.99
609.629	17247.15
609.986	17346.13
610.343	17218.22
610.7	17391.32
611.057	17304.54
611.414	17396.29
611.771	17362.85
612.127	17463.41
612.484	17431.55
612.841	17540.92
613.198	17394.71
613.554	17391.77
613.911	17487.14
614.267	17524.65
614.624	17408.27
614.98	17564.88
615.337	17602.84
615.693	17596.29
616.05	17551.32
616.406	17683.52
616.762	17601.26
617.118	17568.49
617.475	17530.98
617.831	17652.33
618.187	17678.32
618.543	17680.13
618.899	17801.71
619.255	17759.67
619.611	17710.86
619.967	17791.54
620.323	17790.41
620.678	17706.79
621.034	17686.46
621.39	17764.19
621.746	17771.88
622.101	17948.37
622.457	17785.21
622.812	17865.43
623.168	17840.12
623.523	17862.27
623.879	17923.29
624.234	17924.87
624.589	17885.77
624.945	17882.61
625.3	17865.66
625.655	17869.05
626.01	17858.65
626.365	17913.79
626.72	17838.99
627.075	17897.98
627.43	17894.36
627.785	17833.57
628.14	17778.2
628.495	17849.16
628.85	17825.44
629.205	17847.36
629.559	17809.84
629.914	17737.3
630.269	17786.11
630.623	17802.16
630.978	17694.82
631.332	17852.55
631.687	17802.16
632.041	17712.44
632.396	17775.49
632.75	17714.93
633.104	17720.81
633.459	17676.51
633.813	17547.7
634.167	17618.44
634.521	17717.87
634.875	17695.5
635.229	17678.32
635.583	17511.55
635.937	17520.13
636.291	17532.79
636.645	17496.63
636.999	17444.2
637.352	17571.66
637.706	17462.73
638.06	17529.4
638.413	17506.57
638.767	17345.67
639.121	17366.46
639.474	17327.6
639.828	17341.61
640.181	17288.5
640.534	17351.1
640.888	17368.95
641.241	17203.3
641.594	17300.03
641.947	17383.86
642.301	17327.37
642.654	17266.58
643.007	17410.98
643.36	17253.25
643.713	17285.56
644.066	17265.22
644.419	17159.92
644.771	17081.27
645.124	16989.98
645.477	16935.74
645.83	16824.78
646.182	16709.31
646.535	16620.72
646.888	16794.05
647.24	16599.93
647.593	16768.51
647.945	16612.81
648.298	16563.77
648.65	16535.98
649.002	16512.02
649.355	16559.25
649.707	16536.66
650.059	16596.09
650.411	16794.73
650.763	16892.8
651.115	17078.56
651.467	16974.16
651.819	16955.85
652.171	17000.6
652.523	16942.07
652.875	16921.28
653.227	16809.64
653.578	17014.16
653.93	16981.39
654.282	16901.39
654.633	16810.09
654.985	16921.73
655.337	16909.08
655.688	16963.76
656.039	16990.88
656.391	16891.22
656.742	16829.98
657.094	16916.31
657.445	16953.59
657.796	16856.65
658.147	16940.26
658.498	16824.11
658.849	16996.53
659.2	16863.43
659.551	16912.01
659.902	16995.17
660.253	17026.13
660.604	16944.55
660.955	16968.96
661.306	16944.55
661.656	16947.49
662.007	17021.16
662.358	16942.75
662.708	16924.89
663.059	16897.78
663.409	16834.5
663.76	16961.05
664.11	16956.76
664.461	16990.43
664.811	16954.27
665.161	16956.08
665.511	16961.05
665.862	16943.42
666.212	17021.84
666.562	16992.01
666.912	16942.52
667.262	16878.12
667.612	16942.52
667.962	17081.73
668.312	16891.9
668.662	16982.75
669.011	17020.03
669.361	16892.58
669.711	16930.54
670.06	16834.5
670.41	16878.34
670.76	16880.15
671.109	16917.89
671.459	16908.62
671.808	16769.19
672.157	16906.82
672.507	16753.6
672.856	16721.28
673.205	16734.62
673.554	16839.02
673.904	16739.36
674.253	17003.31
674.602	16853.03
674.951	16537.56
675.3	16452.82
675.649	16735.07
675.998	16784.56
676.346	16678.57
676.695	16760.15
677.044	16674.28
677.393	16639.48
677.741	16711.34
678.09	16650.78
678.438	16631.34
678.787	16551.34
679.135	16542.98
679.484	16523.32
679.832	16529.65
680.181	16403.33
680.529	16458.92
680.877	16391.57
681.225	16445.81
681.573	16467.5
681.922	16361.07
682.27	16339.15
682.618	16361.97
682.966	16283.1
683.314	16343.67
683.661	16253.05
684.009	16164.46
684.357	16154.52
684.705	16139.38
685.053	16206.49
685.4	16026.84
685.748	16018.7
686.095	16044.92
686.443	15999.72
686.79	15867.52
687.138	15988.87
687.485	15917.46
687.832	15912.94
688.18	15881.53
688.527	15806.51
688.874	15773.29
689.221	15814.87
689.568	15720.18
689.915	15675.21
690.262	15686.73
690.609	15667.75
690.956	15544.14
691.303	15450.58
691.65	15373.07
691.997	15367.65
692.344	15339.17
692.69	15333.07
693.037	15287.65
693.383	15118.84
693.73	15295.78
694.077	15075.45
694.423	15079.74
694.769	15044.72
695.116	14868
695.462	14950.48
695.808	14854.21
696.155	14816.25
696.501	14796.59
696.847	14748.45
697.193	14608.12
697.539	14641.11
697.885	14510.72
698.231	14471.17
698.577	14544.84
698.923	14439.31
699.269	14334.68
699.614	14364.28
699.96	14311.86
700.306	14288.81
700.651	14278.64
700.997	14103.95
701.342	14147.34
701.688	14075.48
702.033	14039.32
702.379	13985.99
702.724	14030.51
703.069	13899.44
703.415	13828.7
703.76	13768.14
704.105	13826.9
704.45	13762.94
704.795	13682.27
705.14	13657.64
705.485	13590.29
705.83	13551.42
706.175	13569.5
706.52	13454.7
706.865	13480.92
707.209	13425.55
707.554	13295.16
707.899	13438.21
708.243	13263.3
708.588	13320.02
708.932	13205.22
709.277	13171.55
709.621	13153.24
709.966	13097.2
710.31	13174.71
710.654	13054.94
710.998	13031.21
711.342	13077.99
711.687	12954.6
712.031	12935.17
712.375	12837.32
712.719	12820.82
713.063	12886.13
713.407	12805.91
713.75	12801.61
714.094	12795.74
714.438	12761.39
714.782	12739.47
715.125	12667.38
715.469	12640.49
715.812	12674.61
716.156	12592.8
716.499	12560.04
716.843	12621.28
717.186	12461.28
717.53	12545.8
717.873	12596.42
718.216	12530.21
718.559	12487.5
718.902	12343.32
719.246	12472.58
719.589	12284.34
719.932	12347.61
720.275	12351.45
720.617	12332.7
720.96	12381.51
721.303	12311.91
721.646	12267.84
721.989	12290.67
722.331	12193.94
722.674	12290.89
723.016	12299.7
723.359	12202.08
723.701	12179.26
724.044	12060.39
724.386	12036.43
724.729	12114.62
725.071	12045.25
725.413	12155.3
725.755	12091.35
726.097	12071.69
726.439	12035.08
726.782	12047.06
727.124	12062.87
727.465	12075.98
727.807	12059.94
728.149	12014.29
728.491	12014.74
728.833	11978.81
729.175	11915.53
729.516	11904.91
729.858	11961.86
730.199	12010.67
730.541	11936.55
730.882	11959.15
731.224	11962.76
731.565	11936.78
731.906	11911.47
732.248	11940.62
732.589	11859.49
732.93	11776.1
733.271	11883.9
733.612	11898.36
733.953	11908.98
734.294	11784.24
734.635	11838.25
734.976	11867.63
735.317	11839.15
735.658	11801.19
735.999	11883.44
736.339	11811.58
736.68	11877.12
737.021	11804.58
737.361	11815.65
737.702	11876.67
738.042	11850.23
738.383	11857
738.723	11898.59
739.063	11861.3
739.404	11881.64
739.744	11859.72
740.084	11851.13
740.424	11894.74
740.764	11791.24
741.104	11918.02
741.444	11852.03
741.784	11840.51
742.124	11918.02
742.464	11904.24
742.804	11917.34
743.143	11946.04
743.483	11905.36
743.823	11852.48
744.162	11980.84
744.502	12013.61
744.841	11949.21
745.181	12032.82
745.52	12059.49
745.86	12115.75
746.199	12148.3
746.538	12129.77
746.877	12208.86
747.216	12263.32
747.556	12319.14
747.895	12336.54
748.234	12336.77
748.573	12457.67
748.911	12452.92
749.25	12560.26
749.589	12407.5
749.928	12569.08
750.267	12691.78
750.605	12663.31
750.944	12673.48
751.283	12888.16
751.621	12888.84
751.96	12887.71
752.298	12968.84
752.636	13070.98
752.975	13149.85
753.313	13178.33
753.651	13301.26
753.989	13401.6
754.327	13486.79
754.666	13489.28
755.004	13639.1
755.342	13730.18
755.679	13810.63
756.017	13821.47
756.355	13970.17
756.693	14079.55
757.031	14166.1
757.368	14289.93
757.706	14468.46
758.044	14523.6
758.381	14616.71
758.719	14770.15
759.056	14872.07
759.394	14888.34
759.731	15013.76
760.068	15089.46
760.405	15169.91
760.743	15227.09
761.08	15487.87
761.417	15368.32
761.754	15578.71
762.091	15646.74
762.428	15728.32
762.765	15756.34
763.102	16002.88
763.438	16014.41
763.775	16025.48
764.112	16099.6
764.449	16378.24
764.785	16374.17
765.122	16372.82
765.458	16410.56
765.795	16516.77
766.131	16704.11
766.467	16628.4
766.804	16775.29
767.14	16816.42
767.476	16971.9
767.812	16989.07
768.148	17064.1
768.485	17035.85
768.821	16951.56
769.157	17099.8
769.492	17200.37
769.828	17270.87
770.164	17192.91
770.5	17200.14
770.836	17299.12
771.171	17289.86
771.507	17408.95
771.842	17416.63
772.178	17443.52
772.513	17428.61
772.849	17478.78
773.184	17397.42
773.519	17533.69
773.855	17507.03
774.19	17416.63
774.525	17483.3
774.86	17538.21
775.195	17533.69
775.53	17495.27
775.865	17527.14
776.2	17464.09
776.535	17360.59
776.87	17458.21
777.205	17460.7
777.539	17430.64
777.874	17450.76
778.209	17351.78
778.543	17367.14
778.878	17333.02
779.212	17423.41
779.547	17215.96
779.881	17401.04
780.215	17205.34
780.55	17275.62
780.884	17143.87
781.218	17219.35
781.552	17250.54
781.886	17185.9
782.22	17047.83
782.554	17098.9
782.888	16967.6
783.222	16846.48
783.556	16817.33
783.889	16914.05
784.223	16825.24
784.557	16690.1
784.89	16773.94
785.224	16647.16
785.557	16683.09
785.891	16608.74
786.224	16657.1
786.558	16676.54
786.891	16639.48
787.224	16471.35
787.557	16385.02
787.891	16399.26
788.224	16415.98
788.557	16425.02
788.89	16257.11
789.223	16276.32
789.556	16185.25
789.888	16277.91
790.221	16243.33
790.554	16051.02
790.887	16063.45
791.219	15966.95
791.552	15940.51
791.884	15871.14
792.217	15873.17
792.549	15886.73
792.882	15738.26
793.214	15687.64
793.546	15816.67
793.879	15580.97
794.211	15594.76
794.543	15636.79
794.875	15525.61
795.207	15580.07
795.539	15505.04
795.871	15437.25
796.203	15346.4
796.535	15289.23
796.867	15256.92
797.198	15245.84
797.53	15199.74
797.862	15208.33
798.193	15129.91
798.525	15151.16
798.856	15087.88
799.188	14960.43
799.519	14914.33
799.85	14874.33
800.182	14940.31
800.513	14889.47
800.844	14756.36
801.175	14847.21
801.506	14802.24
801.837	14758.17
802.168	14677.5
802.499	14652.19
802.83	14574.45
803.161	14493.55
803.491	14501
803.822	14512.98
804.153	14370.84
804.483	14272.99
804.814	14283.16
805.145	14294.68
805.475	14293.78
805.805	14152.76
806.136	14167.23
806.466	14162.48
806.796	14143.5
807.126	14020.79
807.457	13985.54
807.787	13962.26
808.117	13969.04
808.447	13878.65
808.777	13850.62
809.107	13942.37
809.436	13934.46
809.766	13790.97
810.096	13740.12
810.426	13692.89
810.755	13740.57
811.085	13696.96
811.414	13668.71
811.744	13586.9
812.073	13571.08
812.403	13510.07
812.732	13446.12
813.061	13477.08
813.39	13430.75
813.719	13391.65
814.049	13434.14
814.378	13362.95
814.707	13252.45
815.036	13310.98
815.365	13215.39
815.693	13111.89
816.022	13218.78
816.351	13028.05
816.68	13011.55
817.008	13074.15
817.337	12957.31
817.665	12886.81
817.994	13005.67
818.322	12957.31
818.651	12860.14
818.979	12875.28
819.307	12890.88
819.636	12855.85
819.964	12780.6
820.292	12910.54
820.62	12827.15
820.948	12793.25
821.276	12793.03
821.604	12754.61
821.932	12801.61
822.259	12795.06
822.587	12714.61
822.915	12737.43
823.243	12791.67
823.57	12739.47
823.898	12736.98
824.225	12658.34
824.553	12676.64
824.88	12740.6
825.207	12727.72
825.535	12733.82
825.862	12684.1
826.189	12684.78
826.516	12721.16
826.843	12801.84
827.17	12719.58
827.497	12775.17
827.824	12726.36
828.151	12805.68
828.478	12753.25
828.805	12837.54
829.131	12650.43
829.458	12676.64
829.785	12645.01
830.111	12699.47
830.438	12737.21
830.764	12757.77
831.09	12751.44
831.417	12640.71
831.743	12694.5
832.069	12682.75
832.395	12557.78
832.722	12698.34
833.048	12619.02
833.374	12673.25
833.7	12601.39
834.026	12625.12
834.351	12675.97
834.677	12633.71
835.003	12681.39
835.329	12640.49
835.654	12574.5
835.98	12503.77
836.306	12520.72
836.631	12479.14
836.956	12451.79
837.282	12440.27
837.607	12500.15
837.932	12477.33
838.258	12433.26
838.583	12412.24
838.908	12320.27
839.233	12375.86
839.558	12272.59
839.883	12235.98
840.208	12282.76
840.533	12185.81
840.858	12290.67
841.182	12268.97
841.507	12252.93
841.832	12139.26
842.156	12139.26
842.481	12155.98
842.805	12101.97
843.13	12132.25
843.454	12046.38
843.778	11998.92
844.103	11951.92
844.427	11955.08
844.751	11935.87
845.075	11905.14
845.399	11877.12
845.723	11851.36
846.047	11797.12
846.371	11733.62
846.695	11764.8
847.019	11653.39
847.343	11617.01
847.666	11546.96
847.99	11478.26
848.313	11412.5
848.637	11410.69
848.96	11321.43
849.284	11428.09
849.607	11262.44
849.931	11313.52
850.254	11219.06
850.577	11173.86
850.9	11092.28
851.223	11087.76
851.546	10964.37
851.869	10938.84
852.192	11021.55
852.515	10817.71
852.838	10784.49
853.161	10878.5
853.483	10758.05
853.806	10693.42
854.129	10653.42
854.451	10682.8
854.774	10568
855.096	10533.88
855.419	10573.2
855.741	10529.81
856.063	10451.39
856.385	10492.75
856.708	10426.08
857.03	10335.46
857.352	10391.51
857.674	10339.76
857.996	10294.79
858.318	10276.26
858.64	10173.66
858.961	10191.74
859.283	10203.49
859.605	10122.59
859.926	10151.51
860.248	10122.13
860.57	10136.37
860.891	10068.8
861.212	9983.16
861.534	9946.77
861.855	10046.66
862.176	9967.56
862.498	9922.37
862.819	9972.53
863.14	9884.85
863.461	9868.36
863.782	9845.98
864.103	9842.82
864.424	9820.9
864.745	9895.02
865.065	9760.34
865.386	9705.2
865.707	9784.52
866.027	9716.95
866.348	9673.11
866.668	9711.98
866.989	9663.16
867.309	9561.47
867.63	9661.58
867.95	9652.32
868.27	9661.13
868.59	9580.23
868.91	9625.2
869.23	9564.41
869.55	9542.94
869.87	9530.29
870.19	9546.1
870.51	9518.31
870.83	9617.52
871.15	9470.17
871.469	9491.87
871.789	9497.07
872.109	9444.64
872.428	9344.08
872.748	9460.46
873.067	9415.49
873.386	9426.79
873.706	9403.06
874.025	9413.23
874.344	9290.29
874.663	9285.09
874.982	9319.22
875.301	9312.66
875.62	9234.7
875.939	9321.93
876.258	9243.74
876.577	9210.07
876.896	9137.98
877.214	9175.72
877.533	9154.93
877.852	9180.92
878.17	9151.99
878.489	9079.45
878.807	9121.94
879.125	9133.69
879.444	9096.85
879.762	9069.28
880.08	9040.58
880.398	9082.39
880.716	9050.75
881.034	8997.87
881.352	8988.83
881.67	8963.97
881.988	9034.93
882.306	8982.28
882.624	8924.43
882.941	8867.25
883.259	8884.65
883.577	8842.62
883.894	8797.65
884.212	8775.73
884.529	8770.08
884.846	8832.45
885.164	8781.15
885.481	8705.45
885.798	8753.58
886.115	8659.57
886.432	8686.24
886.75	8641.95
887.067	8608.28
887.383	8553.14
887.7	8563.98
888.017	8540.71
888.334	8533.7
888.651	8558.11
888.967	8438.79
889.284	8505.45
889.6	8428.62
889.917	8393.14
890.233	8346.59
890.55	8359.24
890.866	8352.01
891.182	8311.79
891.498	8300.26
891.815	8243.99
892.131	8188.85
892.447	8206.03
892.763	8159.25
893.079	8156.31
893.395	8196.76
893.71	8217.78
894.026	8137.1
894.342	8069.31
894.657	8033.15
894.973	8065.24
895.289	8055.97
895.604	8018.01
895.92	7924.23
896.235	7874.51
896.55	7956.77
896.865	7842.65
897.181	7873.61
897.496	7881.74
897.811	7766.26
898.126	7754.06
898.441	7725.81
898.756	7738.24
899.071	7674.06
899.386	7642.2
899.7	7639.04
900.015	7586.83
900.33	7489.89
900.644	7505.25
900.959	7564.91
901.273	7454.86
901.588	7470.91
901.902	7446.27
902.216	7421.19
902.531	7359.27
902.845	7400.62
903.159	7320.85
903.473	7310.01
903.787	7239.95
904.101	7261.87
904.415	7177.81
904.729	7213.06
905.042	7149.56
905.356	7133.06
905.67	7124.02
905.984	7072.05
906.297	7053.97
906.611	7041.09
906.924	7005.15
907.237	6996.57
907.551	6962.67
907.864	6978.71
908.177	6880.64
908.491	6866.4
908.804	6849.45
909.117	6811.04
909.43	6793.18
909.743	6813.97
910.056	6745.27
910.368	6721.32
910.681	6586.41
910.994	6667.76
911.307	6660.53
911.619	6583.7
911.932	6528.11
912.244	6521.55
912.557	6476.81
912.869	6482.91
913.181	6448.79
913.494	6468.9
913.806	6411.27
914.118	6368.34
914.43	6332.86
914.742	6361.78
915.054	6277.72
915.366	6263.48
915.678	6283.82
915.99	6295.12
916.302	6166.76
916.613	6156.59
916.925	6133.54
917.236	6165.85
917.548	6145.29
917.859	6108.68
918.171	6063.94
918.482	6013.09
918.794	6031.17
919.105	6011.06
919.416	5934.67
919.727	5974.22
920.038	5906.88
920.349	5856.48
920.66	5886.77
920.971	5853.55
921.282	5861.23
921.593	5809.93
921.903	5785.98
922.214	5743.49
922.525	5717.73
922.835	5662.14
923.146	5654.23
923.456	5660.33
923.767	5672.99
924.077	5575.14
924.387	5570.16
924.697	5567
925.008	5542.37
925.318	5518.41
925.628	5514.35
925.938	5444.97
926.248	5459.21
926.558	5396.61
926.867	5419.89
927.177	5399.32
927.487	5384.63
927.796	5289.95
928.106	5358.87
928.416	5270.51
928.725	5303.73
929.034	5260.34
929.344	5284.97
929.653	5218.99
929.962	5183.51
930.271	5181.47
930.581	5125.88
930.89	5124.53
931.199	5113.91
931.508	5118.42
931.817	5117.52
932.125	5060.57
932.434	5028.48
932.743	4943.97
933.051	4966.79
933.36	4940.35
933.669	4909.62
933.977	4919.11
934.286	4851.77
934.594	4923.63
934.902	4793.01
935.21	4826.91
935.519	4811.09
935.827	4842.95
936.135	4756.17
936.443	4761.82
936.751	4761.15
937.059	4746.23
937.367	4725.44
937.674	4672.33
937.982	4703.97
938.29	4635.73
938.597	4636.18
938.905	4558.21
939.213	4597.53
939.52	4544.65
939.827	4581.04
940.135	4550.98
940.442	4481.83
940.749	4525.45
941.056	4483.19
941.363	4386.47
941.67	4447.48
941.977	4380.59
942.284	4406.35
942.591	4383.53
942.898	4336.98
943.205	4386.47
943.511	4312.34
943.818	4262.18
944.125	4257.43
944.431	4276.41
944.738	4244.32
945.044	4227.6
945.35	4165.91
945.657	4186.92
945.963	4184.66
946.269	4150.77
946.575	4169.75
946.881	4075.51
947.187	4103.99
947.493	4107.6
947.799	4053.82
948.105	4038.91
948.41	4049.98
948.716	3999.13
949.022	3913.71
949.327	3975.86
949.633	3982.18
949.938	3916.87
950.244	3945.12
950.549	3901.73
950.854	3894.5
951.16	3899.47
951.465	3817.22
951.77	3884.33
952.075	3795.97
952.38	3803.88
952.685	3823.77
952.99	3791.91
953.294	3743.77
953.599	3765.24
953.904	3706.03
954.209	3698.35
954.513	3691.8
954.818	3721.17
955.122	3690.67
955.426	3617.67
955.731	3643.44
956.035	3591.46
956.339	3615.64
956.643	3553.49
956.948	3521.86
957.252	3570.22
957.556	3584
957.86	3597.33
958.163	3520.05
958.467	3494.96
958.771	3534.51
959.075	3506.72
959.378	3471.24
959.682	3464
959.985	3475.3
960.289	3436.66
960.592	3385.36
960.896	3371.13
961.199	3348.98
961.502	3346.27
961.805	3316.66
962.108	3364.12
962.411	3318.02
962.714	3297
963.017	3315.99
963.32	3305.37
963.623	3224.01
963.926	3226.5
964.228	3212.49
964.531	3207.74
964.833	3218.14
965.136	3187.85
965.438	3169.78
965.741	3162.77
966.043	3144.69
966.345	3154.86
966.648	3136.56
966.95	3103.56
967.252	3070.34
967.554	3068.76
967.856	3038.25
968.158	3066.05
968.46	3057.01
968.761	3054.75
969.063	3055.2
969.365	2980.18
969.666	2996.45
969.968	2956
970.269	2968.42
970.571	2919.84
970.872	2932.72
971.174	2960.06
971.475	2918.26
971.776	2887.97
972.077	2871.03
972.378	2876.22
972.679	2846.85
972.98	2830.8
973.281	2849.78
973.582	2836.68
973.883	2863.34
974.183	2803.68
974.484	2801.2
974.785	2804.36
975.085	2786.51
975.386	2783.57
975.686	2761.65
975.986	2709.67
976.287	2729.56
976.587	2708.54
976.887	2719.17
977.187	2696.79
977.487	2684.14
977.787	2641.65
978.087	2630.81
978.387	2655.44
978.687	2624.7
978.987	2658.6
979.286	2598.94
979.586	2579.51
979.885	2606.4
980.185	2554.88
980.484	2502.67
980.784	2560.07
981.083	2557.59
981.382	2517.36
981.682	2489.12
981.981	2490.02
982.28	2452.28
982.579	2478.72
982.878	2491.6
983.177	2437.37
983.475	2438.5
983.774	2425.16
984.073	2429.46
984.372	2416.57
984.67	2400.08
984.969	2389.46
985.267	2418.83
985.566	2380.87
985.864	2364.82
986.162	2353.98
986.461	2340.19
986.759	2345.16
987.057	2330.02
987.355	2305.84
987.653	2324.6
987.951	2313.98
988.249	2264.04
988.547	2250.7
988.844	2276.24
989.142	2237.82
989.44	2234.43
989.737	2250.48
990.035	2226.52
990.332	2205.28
990.63	2215
990.927	2192.4
991.224	2163.47
991.521	2201.44
991.819	2168.67
992.116	2151.27
992.413	2122.35
992.71	2142.23
993.006	2127.09
993.303	2073.08
993.6	2111.72
993.897	2127.09
994.193	2091.61
994.49	2059.52
994.787	2036.02
995.083	2003.03
995.379	2059.97
995.676	2024.95
995.972	2056.13
996.268	2008.22
996.565	1997.38
996.861	2014.33
997.157	1967.77
997.453	1960.99
997.749	1969.58
998.044	1944.04
998.34	1938.85
998.636	1935.01
998.932	1914.67
999.227	1895.01
999.523	1915.8
999.818	1910.15
1000.114	1881.45
1000.409	1897.49
1000.704	1855.91
1001	1843.48
1001.295	1844.39
1001.59	1863.14
1001.885	1845.97
1002.18	1851.17
1002.475	1815.91
1002.77	1819.08
1003.065	1800.32
1003.359	1768.46
1003.654	1784.28
1003.949	1778.85
1004.243	1748.34
1004.538	1746.76
1004.832	1742.47
1005.127	1744.95
1005.421	1717.16
1005.715	1735.24
1006.009	1699.76
1006.304	1694.56
1006.598	1683.26
1006.892	1701.57
1007.186	1636.71
1007.48	1669.25
1007.773	1650.04
1008.067	1654.34
1008.361	1654.11
1008.655	1640.78
1008.948	1611.62
1009.242	1613.43
1009.535	1576.82
1009.829	1574.34
1010.122	1558.07
1010.415	1583.6
1010.708	1543.83
1011.001	1543.15
1011.295	1534.79
1011.588	1553.77
1011.881	1540.21
1012.173	1494.34
1012.466	1477.16
1012.759	1526.43
1013.052	1518.29
1013.344	1485.3
1013.637	1484.4
1013.93	1472.19
1014.222	1462.25
1014.514	1474
1014.807	1433.55
1015.099	1420.44
1015.391	1399.65
1015.683	1435.13
1015.976	1400.1
1016.268	1377.51
1016.56	1372.08
1016.851	1383.16
1017.143	1358.07
1017.435	1361.01
1017.727	1364.17
1018.018	1364.63
1018.31	1366.66
1018.602	1322.37
1018.893	1335.93
1019.185	1305.19
1019.476	1314.91
1019.767	1297.73
1020.058	1299.99
1020.35	1310.39
1020.641	1257.51
1020.932	1278.75
1021.223	1279.43
1021.514	1252.76
1021.804	1225.19
1022.095	1235.59
1022.386	1206.89
1022.677	1245.76
1022.967	1204.86
1023.258	1204.4
1023.548	1200.11
1023.839	1200.79
1024.129	1185.65
1024.419	1197.62
1024.709	1180
1025	1174.12
1025.29	1169.15
1025.58	1127.8
1025.87	1138.87
1026.16	1153.78
1026.449	1117.17
1026.739	1111.52
1027.029	1117.4
1027.319	1099.32
1027.608	1114.46
1027.898	1101.36
1028.187	1096.38
1028.477	1070.85
1028.766	1068.36
1029.055	1062.49
1029.344	1051.86
1029.634	1066.55
1029.923	1065.88
1030.212	1041.47
1030.501	1043.05
1030.79	1032.66
1031.078	1003.5
1031.367	1022.26
1031.656	1009.83
1031.945	1015.03
1032.233	988.14
1032.522	984.97
1032.81	1002.83
1033.099	976.16
1033.387	984.3
1033.675	993.34
1033.963	964.41
1034.251	961.7
1034.54	959.44
1034.828	929.16
1035.116	960.57
1035.403	948.36
1035.691	924.86
1035.979	918.08
1036.267	943.17
1036.554	908.59
1036.842	919.89
1037.129	885.32
1037.417	916.73
1037.704	884.19
1037.992	845.54
1038.279	864.98
1038.566	874.92
1038.853	874.92
1039.14	874.92
