Data from hue_350_FLMS001491_86.txt Node
Date: Mon Feb 06 15:38:39 GMT 2017
User: dcchb
Spectrometer: FLMS00149
Trigger mode: 0
Integration Time (sec): 2.000000E-2
Scans to average: 10
Electric dark correction enabled: true
Nonlinearity correction enabled: false
Boxcar width: 0
XAxis mode: Wavelengths
Number of Pixels in Spectrum: 2048
>>>>>Begin Spectral Data<<<<<
341.393	-10.16
341.776	-10.16
342.16	-10.16
342.543	-66.65
342.927	-69.14
343.31	-65.97
343.693	-41.34
344.077	-61.68
344.46	-64.16
344.843	-70.94
345.226	-49.25
345.61	-41.79
345.993	-15.58
346.376	-16.26
346.759	10.64
347.142	42.72
347.525	50.63
347.908	49.96
348.291	76.85
348.674	82.5
349.057	113.68
349.44	135.83
349.823	153.23
350.206	172.89
350.588	189.16
350.971	190.74
351.354	220.35
351.737	237.97
352.119	243.62
352.502	252.44
352.884	261.25
353.267	269.61
353.65	298.09
354.032	306.22
354.414	310.74
354.797	322.72
355.179	302.83
355.562	319.1
355.944	310.06
356.326	340.8
356.709	338.76
357.091	310.74
357.473	344.41
357.855	334.24
358.238	355.03
358.62	326.33
359.002	331.76
359.384	322.72
359.766	340.34
360.148	341.25
360.53	357.97
360.912	319.1
361.294	305.77
361.676	314.81
362.057	310.06
362.439	334.69
362.821	311.42
363.203	322.94
363.584	314.36
363.966	315.26
364.348	303.73
364.729	337.18
365.111	322.04
365.493	295.37
365.874	310.06
366.256	305.99
366.637	322.27
367.019	300.57
367.4	294.47
367.781	318.88
368.163	318.65
368.544	287.92
368.925	306.9
369.306	320.46
369.688	310.74
370.069	321.14
370.45	314.58
370.831	309.61
371.212	317.07
371.593	319.78
371.974	314.13
372.355	316.16
372.736	316.62
373.117	272.32
373.498	322.27
373.879	322.04
374.26	299.22
374.641	299.89
375.021	299.44
375.402	303.28
375.783	323.85
376.163	326.56
376.544	335.82
376.925	326.11
377.305	322.94
377.686	304.19
378.066	316.62
378.447	338.31
378.827	329.5
379.208	340.57
379.588	320.91
379.968	327.92
380.349	317.75
380.729	333.56
381.109	320.46
381.489	332.43
381.87	336.05
382.25	339.89
382.63	335.6
383.01	343.73
383.39	322.72
383.77	315.94
384.15	319.55
384.53	353.45
384.91	332.66
385.29	341.25
385.67	340.8
386.049	361.59
386.429	347.12
386.809	331.76
387.189	358.87
387.568	334.92
387.948	339.67
388.328	353.68
388.707	346.45
389.087	345.32
389.466	374.92
389.846	339.21
390.225	358.2
390.605	365.65
390.984	345.32
391.363	362.04
391.743	356.16
392.122	355.03
392.501	360.46
392.881	366.56
393.26	374.69
393.639	369.27
394.018	353.45
394.397	367.01
394.776	339.44
395.155	369.72
395.534	360.23
395.913	378.31
396.292	373.56
396.671	376.73
397.05	382.6
397.429	372.66
397.808	367.46
398.186	362.49
398.565	372.66
398.944	374.47
399.323	374.02
399.701	386.67
400.08	394.58
400.458	394.35
400.837	365.88
401.215	381.02
401.594	389.83
401.972	388.93
402.351	390.06
402.729	401.81
403.107	399.55
403.486	396.84
403.864	395.94
404.242	407.24
404.62	402.94
404.999	417.86
405.377	407.01
405.755	409.04
406.133	393.9
406.511	393.45
406.889	401.36
407.267	402.04
407.645	424.64
408.023	414.92
408.401	420.57
408.779	449.27
409.156	430.74
409.534	444.75
409.912	435.71
410.29	440.23
410.667	418.53
411.045	449.04
411.422	435.03
411.8	445.2
412.178	450.17
412.555	437.52
412.933	476.16
413.31	449.49
413.687	476.16
414.065	470.74
414.442	455.14
414.819	486.33
415.197	484.52
415.574	468.7
415.951	472.77
416.328	477.29
416.705	478.65
417.082	489.27
417.46	494.01
417.837	515.48
418.214	502.15
418.591	508.93
418.967	508.02
419.344	530.4
419.721	506.44
420.098	523.39
420.475	505.09
420.852	511.87
421.228	515.03
421.605	529.49
421.982	506.89
422.358	531.07
422.735	552.09
423.111	543.95
423.488	535.82
423.864	556.38
424.241	548.7
424.617	562.71
424.994	546.44
425.37	547.57
425.746	572.2
426.123	558.42
426.499	576.5
426.875	566.33
427.251	578.76
427.627	567
428.003	601.35
428.379	581.24
428.756	591.64
429.132	598.87
429.507	590.96
429.883	626.89
430.259	624.18
430.635	629.38
431.011	619.66
431.387	616.5
431.763	624.86
432.138	648.81
432.514	651.07
432.89	672.31
433.265	628.7
433.641	642.94
434.016	656.72
434.392	675.48
434.767	692.43
435.143	683.39
435.518	671.18
435.894	707.79
436.269	721.58
436.644	700.79
437.02	704.85
437.395	711.18
437.77	707.57
438.145	726.77
438.52	719.09
438.895	730.39
439.271	754.34
439.646	747.11
440.021	749.82
440.395	746.89
440.77	749.6
441.145	758.41
441.52	761.35
441.895	762.03
442.27	760.9
442.645	788.47
443.019	802.03
443.394	798.19
443.769	783.5
444.143	794.57
444.518	792.08
444.892	814.23
445.267	822.82
445.641	828.92
446.016	794.57
446.39	795.7
446.764	816.04
447.139	830.95
447.513	825.76
447.887	823.95
448.262	804.96
448.636	817.85
449.01	846.32
449.384	865.53
449.758	850.61
450.132	860.33
450.506	861.23
450.88	852.42
451.254	853.1
451.628	881.57
452.002	897.62
452.376	869.82
452.75	903.27
453.123	901.69
453.497	918.18
453.871	905.53
454.244	910.5
454.618	893.55
454.992	929.03
455.365	924.96
455.739	969.71
456.112	969.71
456.486	959.31
456.859	984.17
457.232	993.21
457.606	1003.38
457.979	1002.7
458.352	1017.84
458.725	1014.9
459.099	997.05
459.472	1039.53
459.845	1064.39
460.218	1041.34
460.591	1046.77
460.964	1045.41
461.337	1085.64
461.71	1098.74
462.083	1100.55
462.456	1078.18
462.829	1104.84
463.201	1130.83
463.574	1137.16
463.947	1126.99
464.32	1174.22
464.692	1153.88
465.065	1179.64
465.438	1198.17
465.81	1203.37
466.183	1226.2
466.555	1254.44
466.928	1256.7
467.3	1237.27
467.672	1263.71
468.045	1298.74
468.417	1304.39
468.789	1297.16
469.161	1362.24
469.534	1345.52
469.906	1344.61
470.278	1370.83
470.65	1387.32
471.022	1403.14
471.394	1416.02
471.766	1434.33
472.138	1458.96
472.51	1510.48
472.882	1511.84
473.253	1529.24
473.625	1547.54
473.997	1587.99
474.369	1583.7
474.74	1601.55
475.112	1609.46
475.484	1629.12
475.855	1658.5
476.227	1681.78
476.598	1728.1
476.97	1760.87
477.341	1810.36
477.713	1813.3
478.084	1788.44
478.455	1866.18
478.827	1886.74
479.198	1936.91
479.569	1954.31
479.94	2002.22
480.311	1978.04
480.682	2077.25
481.053	2087.87
481.424	2096
481.795	2125.61
482.166	2187.75
482.537	2211.71
482.908	2245.6
483.279	2284.47
483.65	2308.43
484.021	2358.82
484.391	2363.79
484.762	2388.2
485.133	2387.97
485.503	2473.4
485.874	2523.11
486.244	2542.32
486.615	2586.39
486.985	2585.03
487.356	2681.75
487.726	2686.05
488.097	2739.15
488.467	2760.17
488.837	2760.62
489.207	2828.64
489.578	2881.75
489.948	2887.62
490.318	2938.69
490.688	2964.46
491.058	2983.66
491.428	3050.33
491.798	3071.57
492.168	3093.49
492.538	3181.63
492.908	3199.7
493.278	3262.53
493.648	3230.44
494.017	3284.22
494.387	3309.08
494.757	3332.81
495.126	3367.61
495.496	3395.86
495.866	3408.51
496.235	3451.67
496.605	3489.87
496.974	3479.7
497.344	3552.01
497.713	3587.72
498.082	3580.94
498.452	3615.51
498.821	3640.6
499.19	3654.38
499.559	3695.74
499.928	3716.98
500.298	3731.44
500.667	3759.69
501.036	3745.68
501.405	3823.64
501.774	3781.61
502.143	3821.38
502.512	3825.45
502.88	3861.83
503.249	3858.22
503.618	3910.87
503.987	3882.62
504.356	3910.42
504.724	3927.14
505.093	4004.65
505.462	3967.82
505.83	3992.9
506.199	4000.36
506.567	4089.17
506.936	4077.2
507.304	4117.65
507.672	4113.58
508.041	4140.47
508.409	4145.67
508.777	4198.1
509.145	4237.42
509.514	4207.81
509.882	4237.87
510.25	4211.65
510.618	4214.14
510.986	4281.71
511.354	4289.84
511.722	4378.66
512.09	4388.15
512.458	4392.89
512.826	4397.19
513.193	4397.19
513.561	4414.81
513.929	4472.44
514.297	4439.9
514.664	4460.24
515.032	4458.88
515.4	4519.9
515.767	4514.7
516.135	4526
516.502	4559.44
516.869	4587.01
517.237	4614.81
517.604	4552.44
517.972	4592.44
518.339	4659.33
518.706	4626.33
519.073	4614.13
519.44	4695.94
519.808	4748.82
520.175	4721.47
520.542	4706.33
520.909	4730.29
521.276	4743.39
521.643	4840.79
522.009	4765.31
522.376	4845.76
522.743	4820.9
523.11	4929.15
523.477	4882.15
523.843	4977.74
524.21	4990.39
524.577	4980
524.943	5020
525.31	5029.71
525.676	5072.2
526.043	5080.56
526.409	5106.55
526.776	5186.54
527.142	5184.96
527.508	5244.17
527.874	5226.54
528.241	5271.97
528.607	5266.77
528.973	5343.15
529.339	5254.79
529.705	5352.42
530.071	5368.69
530.437	5408.91
530.803	5396.48
531.169	5467.67
531.535	5445.07
531.901	5461.57
532.267	5503.37
532.632	5506.99
532.998	5559.87
533.364	5578.17
533.73	5575.91
534.095	5602.58
534.461	5666.76
534.826	5728.23
535.192	5705.63
535.557	5721.22
535.923	5740.65
536.288	5754.21
536.653	5825.85
537.019	5772.97
537.384	5822.69
537.749	5841.89
538.114	5897.49
538.479	5872.85
538.845	5945.85
539.21	5934.77
539.575	5998.5
539.94	6022.91
540.305	6029.23
540.67	6003.92
541.034	6095
541.399	6078.27
541.764	6113.98
542.129	6102.68
542.494	6160.3
542.858	6149.91
543.223	6167.99
543.587	6260.41
543.952	6228.78
544.316	6256.8
544.681	6251.38
545.045	6293.41
545.41	6320.98
545.774	6357.59
546.138	6429.45
546.503	6434.2
546.867	6431.03
547.231	6522.55
547.595	6512.84
547.959	6495.44
548.324	6566.62
548.688	6544.02
549.052	6517.13
549.416	6624.7
549.779	6604.36
550.143	6612.27
550.507	6668.54
550.871	6665.38
551.235	6682.55
551.599	6759.84
551.962	6728.65
552.326	6798.25
552.689	6788.08
553.053	6734.75
553.417	6770.91
553.78	6877.57
554.143	6817.46
554.507	6892.26
554.87	6924.35
555.234	6918.25
555.597	6960.74
555.96	6971.81
556.323	6973.62
556.686	6988.76
557.05	7040.28
557.413	7006.16
557.776	7096.1
558.139	7118.25
558.502	7182.65
558.865	7158.24
559.228	7264.23
559.59	7263.1
559.953	7212.48
560.316	7309.2
560.679	7307.62
561.041	7301.74
561.404	7359.59
561.767	7472.36
562.129	7331.8
562.492	7450.89
562.854	7465.81
563.217	7432.14
563.579	7449.54
563.941	7579.93
564.304	7517.33
564.666	7569.98
565.028	7584.22
565.39	7546.48
565.753	7683.65
566.115	7739.7
566.477	7641.17
566.839	7789.41
567.201	7766.14
567.563	7758.45
567.925	7838
568.287	7854.04
568.648	7827.38
569.01	7930.88
569.372	7969.75
569.734	7915.06
570.095	8009.97
570.457	8005.68
570.819	8065.56
571.18	8100.14
571.542	8173.81
571.903	8210.19
572.265	8277.08
572.626	8238.67
572.987	8323.64
573.349	8324.09
573.71	8382.39
574.071	8371.77
574.432	8432.11
574.794	8554.82
575.155	8561.37
575.516	8607.47
575.877	8654.02
576.238	8742.61
576.599	8764.3
576.96	8858.31
577.32	8867.13
577.681	8981.02
578.042	9047.91
578.403	9156.16
578.763	9196.61
579.124	9284.06
579.485	9430.27
579.845	9498.52
580.206	9600.89
580.566	9696.26
580.927	9748.01
581.287	9932.41
581.648	9994.78
582.008	10211.5
582.368	10269.12
582.728	10348.89
583.089	10523.35
583.449	10680.41
583.809	10867.3
584.169	11025.26
584.529	11112.49
584.889	11352.94
585.249	11462.54
585.609	11621.63
585.969	11899.14
586.329	11959.7
586.688	12142.52
587.048	12343.42
587.408	12593.36
587.768	12806.01
588.127	13030.63
588.487	13192.21
588.846	13465.42
589.206	13612.09
589.565	13885.98
589.925	14133.65
590.284	14367.09
590.643	14572.96
591.003	14946.97
591.362	15221.31
591.721	15427.41
592.08	15689.77
592.44	15945.36
592.799	16261.96
593.158	16490.2
593.517	16744.21
593.876	17030.75
594.235	17336.96
594.593	17552.32
594.952	18041.57
595.311	18147.79
595.67	18488.57
596.029	18943.92
596.387	19136.23
596.746	19368.54
597.104	19539.61
597.463	19898.7
597.822	20341.4
598.18	20520.83
598.538	20776.42
598.897	21175.28
599.255	21236.07
599.613	21883.96
599.972	21974.35
600.33	22408.46
600.688	22577.73
601.046	22804.39
601.404	23256.58
601.762	23400.53
602.12	23779.05
602.478	23999.84
602.836	24273.05
603.194	24551.68
603.552	24720.95
603.91	24932.92
604.268	25391.44
604.625	25595.73
604.983	25922.04
605.341	26043.62
605.698	26395.03
606.056	26716.6
606.413	26821.46
606.771	27130.6
607.128	27427.32
607.485	27552.06
607.843	27742.56
608.2	28055.32
608.557	28411.47
608.914	28398.59
609.272	28862.76
609.629	29106.37
609.986	29314.72
610.343	29413.25
610.7	29688.05
611.057	29988.15
611.414	30201.48
611.771	30289.84
612.127	30677.63
612.484	30747.45
612.841	31088.24
613.198	31156.26
613.554	31339.98
613.911	31592.86
614.267	31789.01
614.624	31860.19
614.98	32150.81
615.337	32325.72
615.693	32499.5
616.05	32632.6
616.406	33025.36
616.762	32958.92
617.118	33028.52
617.475	33293.38
617.831	33416.99
618.187	33501.05
618.543	33659.69
618.899	34030.76
619.255	34077.76
619.611	34135.84
619.967	34402.5
620.323	34516.62
620.678	34599.56
621.034	34597.97
621.39	34744.41
621.746	34676.84
622.101	35281.35
622.457	35064.85
622.812	35263.95
623.168	35337.16
623.523	35543.71
623.879	35650.15
624.234	35442.25
624.589	35648.57
624.945	35783.03
625.3	35851.73
625.655	35924.27
626.01	35913.87
626.365	36197.71
626.72	36162.68
627.075	36187.99
627.43	36216.24
627.785	36269.12
628.14	36406.74
628.495	36456.46
628.85	36487.42
629.205	36582.56
629.559	36733.06
629.914	36742.55
630.269	36841.98
630.623	36804.02
630.978	36687.19
631.332	36806.5
631.687	37002.66
632.041	36902.32
632.396	37036.78
632.75	36893.51
633.104	37083.33
633.459	36804.92
633.813	36890.57
634.167	37122.88
634.521	37098.47
634.875	37195.19
635.229	37030.9
635.583	36836.79
635.937	36870.91
636.291	36957.91
636.645	37015.99
636.999	36816.22
637.352	37022.32
637.706	36973.73
638.06	37048.08
638.413	36974.41
638.767	36907.74
639.121	36927.18
639.474	36723.34
639.828	36974.86
640.181	37055.54
640.534	36975.99
640.888	36797.46
641.241	36863.68
641.594	36947.97
641.947	37046.05
642.301	36811.93
642.654	36838.82
643.007	36875.65
643.36	36874.98
643.713	36933.96
644.066	36946.16
644.419	36703
644.771	36583.46
645.124	36261.43
645.477	36155.67
645.83	35953.87
646.182	35882.01
646.535	35881.56
646.888	35824.38
647.24	35669.81
647.593	35917.94
647.945	35779.41
648.298	35664.16
648.65	35666.65
649.002	35563.6
649.355	35732.41
649.707	35767.66
650.059	35818.51
650.411	36186.86
650.763	36313.64
651.115	36601.76
651.467	36584.59
651.819	36466.85
652.171	36482.44
652.523	36501.43
652.875	36441.99
653.227	36313.64
653.578	36578.94
653.93	36485.61
654.282	36334.65
654.633	36378.94
654.985	36319.29
655.337	36353.63
655.688	36356.8
656.039	36429.11
656.391	36251.26
656.742	36259.63
657.094	36186.63
657.445	36457.59
657.796	36255.78
658.147	36258.72
658.498	36225.95
658.849	36298.27
659.2	36225.5
659.551	36220.53
659.902	36342.56
660.253	36248.1
660.604	36411.26
660.955	36043.59
661.306	36207.2
661.656	36142.57
662.007	36138.05
662.358	36088.78
662.708	36161.78
663.059	36091.72
663.409	35918.17
663.76	36201.1
664.11	36124.04
664.461	36190.25
664.811	36097.37
665.161	36033.64
665.511	36082.46
665.862	36157.93
666.212	36241.55
666.562	36318.16
666.912	36246.97
667.262	36183.92
667.612	36301.43
667.962	36077.71
668.312	35914.55
668.662	36326.97
669.011	36092.4
669.361	36075.68
669.711	36033.87
670.06	35876.58
670.41	35870.48
670.76	35969.46
671.109	35870.48
671.459	35992.29
671.808	35874.55
672.157	36087.2
672.507	35818.51
672.856	35757.27
673.205	35832.97
673.554	35895.57
673.904	35848.11
674.253	36033.19
674.602	35779.41
674.951	35355.24
675.3	35192.31
675.649	35760.2
675.998	35805.17
676.346	35771.05
676.695	35749.36
677.044	35523.37
677.393	35619.64
677.741	35780.99
678.09	35633.88
678.438	35498.97
678.787	35728.57
679.135	35599.3
679.484	35326.54
679.832	35408.12
680.181	35308.69
680.529	35392.76
680.877	35348.46
681.225	35247.22
681.573	35617.61
681.922	35176.94
682.27	35039.54
682.618	35197.96
682.966	35020.79
683.314	35214.68
683.661	35009.04
684.009	34886.55
684.357	34803.17
684.705	34740.57
685.053	34743.51
685.4	34697.86
685.748	34602.27
686.095	34508.49
686.443	34436.62
686.79	34404.31
687.138	34442.72
687.485	34475.94
687.832	34343.97
688.18	34439.56
688.527	34006.35
688.874	34223.75
689.221	34059.91
689.568	33996.18
689.915	34029.63
690.262	33978.1
690.609	33802.74
690.956	33766.13
691.303	33769.07
691.65	33621.73
691.997	33523.88
692.344	33473.48
692.69	33458.34
693.037	33327.05
693.383	33179.25
693.73	33291.79
694.077	33100.61
694.423	33108.75
694.769	33026.72
695.116	32869.21
695.462	32746.5
695.808	32772.94
696.155	32747.18
696.501	32580.85
696.847	32640.06
697.193	32367.3
697.539	32474.87
697.885	32147.42
698.231	32237.36
698.577	32120.3
698.923	32080.75
699.269	31789.69
699.614	31684.6
699.96	31813.87
700.306	31537.49
700.651	31497.72
700.997	31497.49
701.342	31475.12
701.688	31407.55
702.033	31243.49
702.379	31302.02
702.724	31197.39
703.069	31140.21
703.415	30899.77
703.76	30915.81
704.105	30921.91
704.45	30847.56
704.795	30634.01
705.14	30547.23
705.485	30543.84
705.83	30406.67
706.175	30509.27
706.52	30470.4
706.865	30328.48
707.209	30167.81
707.554	30119.22
707.899	30180.46
708.243	29982.28
708.588	30147.92
708.932	29709.97
709.277	29691.21
709.621	29818.44
709.966	29630.42
710.31	29651.66
710.654	29359.92
710.998	29578.9
711.342	29573.93
711.687	29387.72
712.031	29214.84
712.375	29110.44
712.719	29141.85
713.063	29114.28
713.407	29190.66
713.75	29048.74
714.094	29012.36
714.438	28876.09
714.782	28966.71
715.125	28667.73
715.469	28760.16
715.812	28727.62
716.156	28601.52
716.499	28530.34
716.843	28611.69
717.186	28405.14
717.53	28522.65
717.873	28619.15
718.216	28384.13
718.559	28251.93
718.902	28079.73
719.246	28019.39
719.589	27979.17
719.932	27943.01
720.275	27941.43
720.617	27880.19
720.96	27855.33
721.303	27938.71
721.646	27860.75
721.989	27708.21
722.331	27787.53
722.674	27600.42
723.016	27772.62
723.359	27625.5
723.701	27673.18
724.044	27475.68
724.386	27288.56
724.729	27505.05
725.071	27370.59
725.413	27391.61
725.755	27314.78
726.097	27321.33
726.439	27103.71
726.782	27155.01
727.124	27228
727.465	27091.51
727.807	27053.09
728.149	26964.73
728.491	26883.38
728.833	27021.22
729.175	26764.51
729.516	26797.28
729.858	26818.07
730.199	26852.64
730.541	26699.65
730.882	26689.71
731.224	26705.3
731.565	26571.07
731.906	26510.73
732.248	26536.27
732.589	26455.59
732.93	26370.85
733.271	26369.94
733.612	26381.69
733.953	26446.78
734.294	26263.96
734.635	26200.68
734.976	26350.51
735.317	26073.23
735.658	26035.26
735.999	25964.3
736.339	26059.67
736.68	26175.15
737.021	25985.55
737.361	25930.41
737.702	25977.18
738.042	26059.89
738.383	25879.11
738.723	25913.46
739.063	25783.07
739.404	25823.52
739.744	25733.57
740.084	25672.33
740.424	25700.81
740.764	25627.81
741.104	25750.07
741.444	25487.25
741.784	25398.44
742.124	25509.17
742.464	25348.5
742.804	25466.92
743.143	25301.95
743.483	25522.73
743.823	25191.67
744.162	25272.34
744.502	25276.64
744.841	25145.57
745.181	25134.72
745.52	25137.66
745.86	25183.31
746.199	25071.9
746.538	25056.76
746.877	25131.1
747.216	25076.42
747.556	24988.28
747.895	24877.78
748.234	24896.99
748.573	24804.33
748.911	24711.91
749.25	24765.24
749.589	24673.26
749.928	24714.84
750.267	24736.31
750.605	24745.35
750.944	24632.81
751.283	24495.19
751.621	24546.49
751.96	24394.63
752.298	24294.52
752.636	24361.18
752.975	24319.15
753.313	24193.05
753.651	24255.2
753.989	24083.45
754.327	24152.37
754.666	24004.81
755.004	24055.65
755.342	24009.1
755.679	23900.4
756.017	23888.65
756.355	23894.98
756.693	23707.64
757.031	23795.55
757.368	23658.83
757.706	23733.63
758.044	23485.27
758.381	23523.69
758.719	23481.66
759.056	23355.78
759.394	23422.22
759.731	23241.89
760.068	23280.31
760.405	23078.28
760.743	23116.47
761.08	23127.32
761.417	22911.28
761.754	22917.38
762.091	22847.77
762.428	22815.46
762.765	22682.36
763.102	22709.93
763.438	22704.73
763.775	22516.71
764.112	22594
764.449	22634
764.785	22430.38
765.122	22232.42
765.458	22069.26
765.795	22116.95
766.131	22174.12
766.467	22117.62
766.804	21983.84
767.14	21779.1
767.476	21925.31
767.812	21726.45
768.148	21822.04
768.485	21666.11
768.821	21523.74
769.157	21445.55
769.492	21359.23
769.828	21400.13
770.164	21162.85
770.5	21202.62
770.836	21233.81
771.171	21058.22
771.507	21030.65
771.842	20862.06
772.178	20872.69
772.513	20718.57
772.849	20703.88
773.184	20641.05
773.519	20647.61
773.855	20470.89
774.19	20413.26
774.525	20385.01
774.86	20401.06
775.195	20298.92
775.53	20090.33
775.865	20134.85
776.2	19976.21
776.535	19816.89
776.87	19825.93
777.205	19745.71
777.539	19675.65
777.874	19691.47
778.209	19521.31
778.543	19541.42
778.878	19352.5
779.212	19387.3
779.547	19221.88
779.881	19219.62
780.215	19176.46
780.55	19191.6
780.884	19072.96
781.218	18983.7
781.552	18913.87
781.886	18830.71
782.22	18746.41
782.554	18666.64
782.888	18580.32
783.222	18450.6
783.556	18447.89
783.889	18345.75
784.223	18269.59
784.557	18164.96
784.89	18269.59
785.224	18135.36
785.557	17977.62
785.891	17943.5
786.224	17919.09
786.558	17934.68
786.891	17775.82
787.224	17747.8
787.557	17643.17
787.891	17618.99
788.224	17607.46
788.557	17629.61
788.89	17465.54
789.223	17390.29
789.556	17384.42
789.888	17314.36
790.221	17206.79
790.554	17058.32
790.887	17038.66
791.219	17073.92
791.552	16956.63
791.884	16932
792.217	16887.93
792.549	16817.2
792.882	16781.72
793.214	16554.38
793.546	16648.84
793.879	16528.85
794.211	16427.15
794.543	16480.03
794.875	16423.09
795.207	16435.74
795.539	16386.25
795.871	16352.13
796.203	16137.22
796.535	16051.34
796.867	15998.01
797.198	15999.82
797.53	16003.21
797.862	15886.38
798.193	15996.88
798.525	15885.7
798.856	15827.85
799.188	15746.94
799.519	15648.19
799.85	15555.54
800.182	15558.7
800.513	15614.52
800.844	15480.96
801.175	15541.07
801.506	15411.36
801.837	15334.07
802.168	15305.83
802.499	15285.49
802.83	15193.06
803.161	15216.79
803.491	15080.07
803.822	15123.23
804.153	14972.5
804.483	14927.53
804.814	14877.59
805.145	14883.24
805.475	14813.86
805.805	14759.85
806.136	14820.19
806.466	14799.62
806.796	14738.84
807.126	14682.34
807.457	14584.26
807.787	14637.14
808.117	14536.13
808.447	14469.24
808.777	14562.12
809.107	14435.79
809.436	14408
809.766	14386.3
810.096	14308.34
810.426	14292.07
810.755	14277.83
811.085	14153.54
811.414	14270.15
811.744	14073.09
812.073	13970.95
812.403	13937.95
812.732	13916.71
813.061	13970.04
813.39	13821.35
813.719	13816.83
814.049	13850.72
814.378	13783.15
814.707	13766.21
815.036	13748.81
815.365	13643.72
815.693	13579.09
816.022	13595.59
816.351	13484.41
816.68	13489.6
817.008	13521.47
817.337	13400.79
817.665	13275.82
817.994	13371.87
818.322	13370.28
818.651	13281.25
818.979	13262.49
819.307	13250.29
819.636	13257.07
819.964	13095.26
820.292	13205.99
820.62	13207.8
820.948	13170.74
821.276	13137.3
821.604	13077.41
821.932	13132.32
822.259	13095.04
822.587	13159.22
822.915	13088.48
823.243	13072.21
823.57	13076.96
823.898	13151.76
824.225	13070.86
824.553	13041.93
824.88	13083.51
825.207	13060.46
825.535	13020.91
825.862	13070.86
826.189	13137.75
826.516	13101.36
826.843	13128.93
827.17	13097.07
827.497	13094.36
827.824	13070.86
828.151	13144.98
828.478	13108.82
828.805	13138.88
829.131	13022.95
829.458	13088.26
829.785	12965.55
830.111	13058.65
830.438	13104.08
830.764	12983.18
831.09	13041.93
831.417	13011.2
831.743	13072.89
832.069	13086.22
832.395	12996.28
832.722	13095.04
833.048	12989.05
833.374	13015.72
833.7	12896.4
834.026	12955.38
834.351	12947.92
834.677	12878.55
835.003	12908.38
835.329	12936.62
835.654	12895.95
835.98	12787.25
836.306	12804.65
836.631	12789.06
836.956	12800.36
837.282	12831.32
837.607	12739.57
837.932	12735.05
838.258	12667.7
838.583	12640.36
838.908	12655.73
839.233	12649.63
839.558	12643.75
839.883	12655.95
840.208	12476.52
840.533	12546.58
840.858	12516.52
841.182	12511.55
841.507	12413.7
841.832	12469.97
842.156	12379.8
842.481	12412.8
842.805	12348.39
843.13	12351.78
843.454	12308.39
843.778	12260.71
844.103	12186.36
844.427	12142.52
844.751	12145.01
845.075	12155.85
845.399	12177.77
845.723	12086.25
846.047	12022.07
846.371	11888.52
846.695	11985.46
847.019	11994.95
847.343	11822.53
847.666	11789.99
847.99	11773.49
848.313	11738.69
848.637	11597.9
848.96	11623.66
849.284	11580.95
849.607	11528.3
849.931	11480.84
850.254	11502.99
850.577	11440.62
850.9	11301.86
851.223	11314.07
851.546	11234.52
851.869	11109.33
852.192	11192.26
852.515	11081.76
852.838	11112.49
853.161	11037.46
853.483	11014.87
853.806	10984.58
854.129	10914.53
854.451	10897.35
854.774	10825.27
855.096	10833.18
855.419	10763.8
855.741	10794.31
856.063	10681.54
856.385	10666.85
856.708	10607.19
857.03	10603.58
857.352	10607.42
857.674	10533.97
857.996	10513.18
858.318	10491.49
858.64	10453.98
858.961	10461.66
859.283	10389.12
859.605	10338.73
859.926	10346.41
860.248	10262.57
860.57	10285.39
860.891	10300.76
861.212	10191.84
861.534	10199.07
861.855	10150.03
862.176	10144.38
862.498	10227.32
862.819	10104.38
863.14	10070.03
863.461	10092.63
863.782	9978.51
864.103	9974.22
864.424	10039.3
864.745	10020.99
865.065	9949.13
865.386	9961.11
865.707	9978.96
866.027	9983.48
866.348	9874.78
866.668	9931.5
866.989	9831.62
867.309	9743.94
867.63	9801.34
867.95	9816.25
868.27	9776.25
868.59	9772.86
868.91	9747.78
869.23	9727.22
869.55	9731.51
869.87	9758.85
870.19	9746.88
870.51	9776.03
870.83	9694.45
871.15	9609.7
871.469	9683.83
871.789	9651.74
872.109	9618.97
872.428	9590.72
872.748	9658.97
873.067	9625.07
873.386	9594.34
873.706	9571.74
874.025	9526.09
874.344	9449.94
874.663	9506.2
874.982	9434.34
875.301	9425.08
875.62	9422.59
875.939	9484.74
876.258	9423.72
876.577	9388.92
876.896	9356.38
877.214	9341.01
877.533	9332.42
877.852	9299.43
878.17	9347.34
878.489	9322.71
878.807	9338.3
879.125	9312.99
879.444	9264.86
879.762	9253.1
880.08	9238.87
880.398	9232.31
880.716	9180.34
881.034	9216.04
881.352	9178.76
881.67	9183.05
881.988	9135.59
882.306	9136.5
882.624	9117.51
882.941	9073
883.259	8983.28
883.577	9010.17
883.894	9005.43
884.212	9016.27
884.529	8920.46
884.846	8976.05
885.164	8925.88
885.481	8916.62
885.798	8885.66
886.115	8839.56
886.432	8794.81
886.75	8745.77
887.067	8836.84
887.383	8752.78
887.7	8743.29
888.017	8735.83
888.334	8736.28
888.651	8698.99
888.967	8636.17
889.284	8578.09
889.6	8561.14
889.917	8525.21
890.233	8527.7
890.55	8461.49
890.866	8499
891.182	8531.77
891.498	8546.46
891.815	8397.53
892.131	8384.43
892.447	8423.97
892.763	8383.52
893.079	8343.75
893.395	8265.79
893.71	8300.13
894.026	8286.8
894.342	8235.73
894.657	8161.38
894.973	8197.09
895.289	8192.12
895.604	8090.65
895.92	8030.31
896.235	8065.79
896.55	8079.35
896.865	7998.67
897.181	8010.42
897.496	8014.94
897.811	7971.33
898.126	7853.82
898.441	7904.44
898.756	7853.14
899.071	7857.89
899.386	7817.21
899.7	7753.93
900.015	7686.59
900.33	7638.68
900.644	7699.02
900.959	7692.47
901.273	7580.15
901.588	7612.47
901.902	7567.05
902.216	7521.85
902.531	7554.84
902.845	7488.18
903.159	7486.14
903.473	7390.55
903.787	7440.27
904.101	7393.49
904.415	7423.77
904.729	7312.14
905.042	7301.74
905.356	7298.58
905.67	7224.46
905.984	7221.07
906.297	7235.98
906.611	7130.45
906.924	7067.4
907.237	7155.53
907.551	7090.22
907.864	7096.32
908.177	7079.38
908.491	7041.41
908.804	6998.02
909.117	6977.01
909.43	6886.84
909.743	6872.38
910.056	6879.38
910.368	6787.41
910.681	6806.61
910.994	6763.23
911.307	6690.69
911.619	6705.6
911.932	6761.42
912.244	6686.84
912.557	6652.49
912.869	6610.24
913.181	6610.24
913.494	6571.59
913.806	6550.35
914.118	6582.89
914.43	6497.02
914.742	6474.87
915.054	6474.19
915.366	6423.8
915.678	6407.3
915.99	6383.8
916.302	6330.7
916.613	6301.77
916.925	6322.11
917.236	6296.8
917.548	6198.04
917.859	6184.71
918.171	6196.46
918.482	6177.7
918.794	6157.59
919.105	6131.15
919.416	6062.45
919.727	6081.89
920.038	6049.8
920.349	6035.11
920.66	5961.67
920.971	5952.17
921.282	5956.47
921.593	5920.31
921.903	5905.62
922.214	5838.96
922.525	5889.35
922.835	5822.69
923.146	5749.02
923.456	5770.48
923.767	5731.16
924.077	5729.58
924.387	5685.97
924.697	5634.67
925.008	5628.79
925.318	5596.25
925.628	5652.75
925.938	5623.6
926.248	5574.56
926.558	5530.94
926.867	5515.35
927.177	5512.86
927.487	5477.38
927.796	5417.72
928.106	5393.32
928.416	5417.5
928.725	5405.07
929.034	5346.31
929.344	5375.92
929.653	5280.1
929.962	5259.54
930.271	5209.37
930.581	5197.39
930.89	5162.36
931.199	5174.12
931.508	5174.79
931.817	5163.72
932.125	5114.23
932.434	5151.97
932.743	5036.94
933.051	5060.22
933.36	5001.69
933.669	5035.59
933.977	5007.11
934.286	4956.04
934.594	4926.89
934.902	4916.27
935.21	4890.96
935.519	4854.58
935.827	4845.99
936.135	4802.6
936.443	4784.75
936.751	4848.7
937.059	4787.91
937.367	4792.2
937.674	4773.22
937.982	4752.88
938.29	4733.9
938.597	4737.97
938.905	4644.19
939.213	4602.15
939.52	4650.51
939.827	4608.93
940.135	4551.53
940.442	4549.05
940.749	4543.85
941.056	4542.72
941.363	4526.67
941.67	4534.13
941.977	4506.11
942.284	4463.17
942.591	4404.19
942.898	4446.68
943.205	4417.3
943.511	4385.89
943.818	4392.44
944.125	4328.71
944.431	4323.06
944.738	4297.53
945.044	4259.79
945.35	4261.15
945.657	4281.71
945.963	4223.41
946.269	4227.02
946.575	4201.03
946.881	4139.11
947.187	4177.31
947.493	4146.8
947.799	4141.15
948.105	4076.52
948.41	4067.93
948.716	4064.54
949.022	4074.71
949.327	4046.69
949.633	3994.71
949.938	3981.6
950.244	3984.77
950.549	3975.05
950.854	3904.54
951.16	3923.07
951.465	3902.28
951.77	3894.83
952.075	3880.59
952.38	3879.69
952.685	3845.56
952.99	3859.57
953.294	3840.59
953.599	3821.16
953.904	3772.12
954.209	3765.34
954.513	3773.7
954.818	3735.96
955.122	3739.35
955.426	3688.28
955.731	3703.87
956.035	3673.59
956.339	3637.21
956.643	3645.57
956.948	3634.72
957.252	3615.96
957.556	3591.11
957.86	3598.79
958.163	3570.09
958.467	3569.86
958.771	3551.56
959.075	3506.81
959.378	3492.8
959.682	3504.33
959.985	3457.32
960.289	3473.37
960.592	3443.31
960.896	3454.61
961.199	3419.59
961.502	3415.07
961.805	3419.36
962.108	3357.21
962.411	3354.05
962.714	3337.1
963.017	3300.27
963.32	3316.09
963.623	3294.84
963.926	3298.46
964.228	3274.73
964.531	3267.5
964.833	3282.87
965.136	3241.51
965.438	3216.88
965.741	3241.51
966.043	3221.85
966.345	3170.78
966.648	3145.02
966.95	3191.34
967.252	3166.48
967.554	3123.55
967.856	3108.18
968.158	3098.01
968.46	3064.79
968.761	3039.48
969.063	3087.39
969.365	3029.54
969.666	3050.78
969.968	3030.89
970.269	3009.88
970.571	2968.52
970.872	2978.24
971.174	2940.28
971.475	2946.15
971.776	2922.65
972.077	2921.52
972.378	2923.1
972.679	2901.86
972.98	2870.9
973.281	2911.8
973.582	2835.87
973.883	2812.37
974.183	2864.8
974.484	2809.43
974.785	2815.99
975.085	2804.46
975.386	2777.79
975.686	2736.44
975.986	2761.98
976.287	2737.12
976.587	2696.44
976.887	2708.87
977.187	2745.25
977.487	2700.28
977.787	2662.54
978.087	2658.7
978.387	2661.19
978.687	2640.62
978.987	2615.99
979.286	2602.43
979.586	2619.15
979.885	2619.61
980.185	2588.42
980.484	2566.05
980.784	2597.01
981.083	2573.28
981.382	2526.5
981.682	2554.3
981.981	2531.47
982.28	2519.27
982.579	2494.86
982.878	2532.83
983.177	2475.2
983.475	2457.58
983.774	2489.89
984.073	2479.72
984.372	2426.39
984.67	2444.47
984.969	2402.44
985.267	2416.45
985.566	2378.48
985.864	2402.21
986.162	2387.52
986.461	2385.04
986.759	2373.29
987.057	2345.94
987.355	2354.75
987.653	2370.8
987.951	2317.47
988.249	2341.42
988.547	2320.63
988.844	2303.68
989.142	2295.77
989.44	2267.07
989.737	2250.58
990.035	2253.29
990.332	2256.68
990.63	2227.3
990.927	2213.74
991.224	2201.76
991.521	2200.63
991.819	2240.86
992.116	2183.46
992.413	2190.47
992.71	2149.56
993.006	2136.68
993.303	2107.08
993.6	2143.69
993.897	2129.68
994.193	2096.91
994.49	2104.37
994.787	2122.67
995.083	2076.8
995.379	2086.96
995.676	2057.81
995.972	2066.17
996.268	2020.07
996.565	2020.3
996.861	2053.29
997.157	2021.88
997.453	2000.64
997.749	1992.5
998.044	2014.88
998.34	1982.79
998.636	1970.36
998.932	1968.55
999.227	1926.29
999.523	1945.05
999.818	1916.57
1000.114	1904.6
1000.409	1893.98
1000.704	1913.41
1001	1903.24
1001.295	1917.93
1001.59	1871.83
1001.885	1884.94
1002.18	1804.49
1002.475	1846.97
1002.77	1851.26
1003.065	1802.9
1003.359	1802.68
1003.654	1817.82
1003.949	1766.97
1004.243	1764.26
1004.538	1761.1
1004.832	1776.92
1005.127	1752.28
1005.421	1725.84
1005.715	1719.29
1006.009	1680.42
1006.304	1728.78
1006.598	1685.39
1006.892	1683.13
1007.186	1672.29
1007.48	1692.62
1007.773	1663.7
1008.067	1653.3
1008.361	1656.24
1008.655	1622.57
1008.948	1646.52
1009.242	1641.78
1009.535	1625.96
1009.829	1629.35
1010.122	1582.8
1010.415	1550.93
1010.708	1567.43
1011.001	1587.54
1011.295	1568.79
1011.588	1555.45
1011.881	1537.6
1012.173	1540.09
1012.466	1545.28
1012.759	1522.46
1013.052	1494.66
1013.344	1467.55
1013.637	1506.87
1013.93	1476.59
1014.222	1481.56
1014.514	1486.08
1014.807	1450.15
1015.099	1453.99
1015.391	1436.81
1015.683	1437.26
1015.976	1432.52
1016.268	1399.75
1016.56	1426.19
1016.851	1419.19
1017.143	1377.15
1017.435	1414.44
1017.727	1407.66
1018.018	1380.99
1018.31	1346.19
1018.602	1367.44
1018.893	1345.74
1019.185	1349.81
1019.476	1331.28
1019.767	1305.29
1020.058	1325.4
1020.35	1305.74
1020.641	1273.65
1020.932	1305.74
1021.223	1271.62
1021.514	1285.4
1021.804	1254.67
1022.095	1248.12
1022.386	1244.5
1022.677	1253.31
1022.967	1236.37
1023.258	1228.68
1023.548	1199.08
1023.839	1221.22
1024.129	1193.43
1024.419	1190.27
1024.709	1186.42
1025	1194.56
1025.29	1170.15
1025.58	1157.5
1025.87	1173.32
1026.16	1139.65
1026.449	1145.29
1026.739	1101.68
1027.029	1129.93
1027.319	1133.77
1027.608	1097.61
1027.898	1106.43
1028.187	1105.52
1028.477	1082.02
1028.766	1095.8
1029.055	1077.95
1029.344	1087.44
1029.634	1068.91
1029.923	1068.46
1030.212	1048.35
1030.501	1061.68
1030.79	1042.47
1031.078	1038.63
1031.367	1030.27
1031.656	1037.95
1031.945	1023.26
1032.233	1011.06
1032.522	1003.15
1032.81	997.95
1033.099	994.56
1033.387	999.08
1033.675	975.13
1033.963	974
1034.251	956.83
1034.54	941.23
1034.828	966.09
1035.116	946.2
1035.403	945.53
1035.691	936.49
1035.979	940.78
1036.267	910.72
1036.554	906.88
1036.842	904.4
1037.129	903.27
1037.417	882.02
1037.704	893.78
1037.992	909.82
1038.279	870.05
1038.566	890.16
1038.853	890.16
1039.14	890.16
