Data from hue_110_FLMS001491_00066.txt Node
Date: Tue Feb 07 17:01:40 GMT 2017
User: dcchb
Spectrometer: FLMS00149
Trigger mode: 0
Integration Time (sec): 2.000000E-2
Scans to average: 10
Electric dark correction enabled: true
Nonlinearity correction enabled: false
Boxcar width: 0
XAxis mode: Wavelengths
Number of Pixels in Spectrum: 2048
>>>>>Begin Spectral Data<<<<<
341.393	0.42
341.776	0.42
342.16	0.42
342.543	-56.75
342.927	-68.73
343.31	-70.08
343.693	-97.65
344.077	-71.44
344.46	-49.52
344.843	-51.33
345.226	-34.83
345.61	-27.82
345.993	-22.4
346.376	-17.65
346.759	10.82
347.142	35.68
347.525	39.52
347.908	85.17
348.291	72.06
348.674	92.4
349.057	107.09
349.44	136.47
349.823	128.56
350.206	156.8
350.588	208.1
350.971	199.74
351.354	237.25
351.737	246.97
352.119	253.52
352.502	264.15
352.884	280.19
353.267	283.81
353.65	306.18
354.032	310.7
354.414	303.01
354.797	322
355.179	324.93
355.562	330.81
355.944	333.52
356.326	324.48
356.709	357.02
357.091	355.89
357.473	338.04
357.855	353.41
358.238	343.69
358.62	352.28
359.002	359.74
359.384	337.59
359.766	340.98
360.148	340.98
360.53	358.15
360.912	324.93
361.294	352.05
361.676	337.82
362.057	337.82
362.439	329
362.821	345.73
363.203	322
363.584	323.13
363.966	323.13
364.348	324.03
364.729	332.84
365.111	320.64
365.493	307.76
365.874	316.12
366.256	311.6
366.637	313.86
367.019	317.25
367.4	337.36
367.781	300.53
368.163	310.25
368.544	333.07
368.925	318.16
369.306	329.45
369.688	304.14
370.069	327.42
370.45	300.08
370.831	307.53
371.212	312.73
371.593	324.26
371.974	309.79
372.355	329.68
372.736	312.28
373.117	330.36
373.498	302.79
373.879	322.9
374.26	342.34
374.641	313.86
375.021	315.44
375.402	338.49
375.783	309.34
376.163	338.49
376.544	361.54
376.925	329
377.305	321.09
377.686	335.78
378.066	326.97
378.447	305.5
378.827	328.32
379.208	333.52
379.588	312.28
379.968	348.89
380.349	336.91
380.729	330.81
381.109	350.25
381.489	352.5
381.87	345.27
382.25	329.45
382.63	338.49
383.01	339.4
383.39	344.82
383.77	364.71
384.15	336.91
384.53	364.48
384.91	350.47
385.29	370.58
385.67	323.58
386.049	355.89
386.429	362.9
386.809	346.18
387.189	344.82
387.568	335.33
387.948	340.53
388.328	381.43
388.707	346.63
389.087	361.32
389.466	375.33
389.846	351.15
390.225	383.92
390.605	364.93
390.984	383.92
391.363	384.37
391.743	380.75
392.122	377.59
392.501	381.43
392.881	370.13
393.26	366.97
393.639	382.33
394.018	356.57
394.397	394.31
394.776	402.45
395.155	401.09
395.534	388.21
395.913	386.63
396.292	391.83
396.671	397.02
397.05	407.42
397.429	381.2
397.808	415.33
398.186	411.03
398.565	389.79
398.944	397.48
399.323	413.52
399.701	411.49
400.08	400.19
400.458	411.03
400.837	393.63
401.215	408.55
401.594	380.98
401.972	391.15
402.351	412.84
402.729	420.3
403.107	427.08
403.486	424.82
403.864	428.44
404.242	415.1
404.62	428.89
404.999	456.91
405.377	437.25
405.755	459.62
406.133	455.55
406.511	446.74
406.889	466.17
407.267	435.21
407.645	441.09
408.023	450.81
408.401	440.41
408.779	460.07
409.156	459.62
409.534	472.73
409.912	461.88
410.29	476.8
410.667	487.64
411.045	469.34
411.422	483.12
411.8	459.62
412.178	478.38
412.555	481.77
412.933	486.96
413.31	525.83
413.687	517.25
414.065	498.26
414.442	515.89
414.819	504.59
415.197	514.76
415.574	513.18
415.951	517.02
416.328	541.65
416.705	516.57
417.082	509.56
417.46	521.54
417.837	535.1
418.214	533.07
418.591	555.21
418.967	540.75
419.344	554.99
419.721	533.07
420.098	529
420.475	544.36
420.852	566.96
421.228	550.47
421.605	560.63
421.982	568.54
422.358	596.79
422.735	584.59
423.111	567.87
423.488	558.15
423.864	587.75
424.241	594.76
424.617	592.5
424.994	576.68
425.37	605.15
425.746	607.87
426.123	595.44
426.499	630.24
426.875	614.19
427.251	603.35
427.627	634.08
428.003	618.03
428.379	643.8
428.756	630.92
429.132	633.4
429.507	667.07
429.883	663.68
430.259	667.52
430.635	677.02
431.011	693.96
431.387	663.01
431.763	706.39
432.138	689.9
432.514	700.07
432.89	713.4
433.265	720.4
433.641	718.82
434.016	731.03
434.392	742.55
434.767	755.21
435.143	730.12
435.518	760.63
435.894	740.29
436.269	772.38
436.644	771.93
437.02	775.32
437.395	747.3
437.77	794.53
438.145	792.72
438.52	808.54
438.895	806.5
439.271	802.44
439.646	832.27
440.021	826.39
440.395	819.16
440.77	825.03
441.145	832.04
441.52	874.07
441.895	870.01
442.27	874.3
442.645	875.2
443.019	879.04
443.394	878.82
443.769	886.95
444.143	903.68
444.518	876.33
444.892	889.21
445.267	908.42
445.641	891.7
446.016	944.81
446.39	935.54
446.764	926.95
447.139	938.25
447.513	952.26
447.887	952.26
448.262	939.38
448.636	962.43
449.01	982.77
449.384	945.03
449.758	955.43
450.132	978.48
450.506	983
450.88	1008.31
451.254	1012.15
451.628	1028.87
452.002	1017.57
452.376	1016.89
452.75	1049.44
453.123	1051.47
453.497	1073.84
453.871	1049.21
454.244	1065.03
454.618	1100.28
454.992	1116.1
455.365	1116.33
455.739	1143.67
456.112	1164.46
456.486	1180.05
456.859	1153.39
457.232	1182.77
457.606	1201.3
457.979	1222.54
458.352	1237.91
458.725	1234.97
459.099	1219.15
459.472	1259.6
459.845	1305.25
460.218	1314.29
460.591	1315.64
460.964	1340.05
461.337	1374.62
461.71	1389.54
462.083	1391.12
462.456	1377.79
462.829	1368.52
463.201	1404.45
463.574	1423.66
463.947	1466.37
464.32	1504.34
464.692	1503.44
465.065	1549.31
465.438	1543.89
465.81	1573.04
466.183	1568.97
466.555	1611
466.928	1613.04
467.3	1642.87
467.672	1681.06
468.045	1714.28
468.417	1704.79
468.789	1759.7
469.161	1793.6
469.534	1811.9
469.906	1868.85
470.278	1890.32
470.65	1903.42
471.022	1963.76
471.394	1983.65
471.766	2036.98
472.138	2057.77
472.51	2116.3
472.882	2120.14
473.253	2203.76
473.625	2229.07
473.997	2271.32
474.369	2341.61
474.74	2388.61
475.112	2414.82
475.484	2486.23
475.855	2567.36
476.227	2565.55
476.598	2677.64
476.97	2702.95
477.341	2808.94
477.713	2843.96
478.084	2912.89
478.455	3015.26
478.827	3068.37
479.198	3187.91
479.569	3216.16
479.94	3344.52
480.311	3426.55
480.682	3458.41
481.053	3578.86
481.424	3717.61
481.795	3778.86
482.166	3858.4
482.537	3972.97
482.908	4129.81
483.279	4195.12
483.65	4332.74
484.021	4445.5
484.391	4562.11
484.762	4643.47
485.133	4736.8
485.503	4823.8
485.874	5027.41
486.244	5115.77
486.615	5265.82
486.985	5371.13
487.356	5503.56
487.726	5640.05
488.097	5798.01
488.467	5948.97
488.837	6063.77
489.207	6208.62
489.578	6353.03
489.948	6478.67
490.318	6681.83
490.688	6704.2
491.058	6938.09
491.428	7073.91
491.798	7168.82
492.168	7480.9
492.538	7472.54
492.908	7688.36
493.278	7865.98
493.648	7968.35
494.017	8092.87
494.387	8232.98
494.757	8384.61
495.126	8482.46
495.496	8646.3
495.866	8704.6
496.235	8879.74
496.605	9033.86
496.974	9124.25
497.344	9274.76
497.713	9382.1
498.082	9541.64
498.452	9666.38
498.821	9765.36
499.19	9886.27
499.559	9987.51
499.928	10053.27
500.298	10235.41
500.667	10401.73
501.036	10447.15
501.405	10507.94
501.774	10572.58
502.143	10786.35
502.512	10832.91
502.88	10968.95
503.249	10997.87
503.618	11210.98
503.987	11179.11
504.356	11355.38
504.724	11467.24
505.093	11503.85
505.462	11525.77
505.83	11702.71
506.199	11804.41
506.567	11940.45
506.936	11922.6
507.304	12175.92
507.672	12107.22
508.041	12215.47
508.409	12288.46
508.777	12391.51
509.145	12461.56
509.514	12530.49
509.882	12581.11
510.25	12710.6
510.618	12728.45
510.986	12795.34
511.354	12867.66
511.722	13015.67
512.09	13067.88
512.458	13137.03
512.826	13225.61
513.193	13276.91
513.561	13383.35
513.929	13398.26
514.297	13480.52
514.664	13618.6
515.032	13562.1
515.4	13617.01
515.767	13644.58
516.135	13823.11
516.502	13597.13
516.869	13884.13
517.237	13962.99
517.604	13937.23
517.972	13981.53
518.339	14021.98
518.706	14068.53
519.073	14076.66
519.44	14139.71
519.808	14294.74
520.175	14153.05
520.542	14354.17
520.909	14440.27
521.276	14423.55
521.643	14382.19
522.009	14513.26
522.376	14546.48
522.743	14565.01
523.11	14667.16
523.477	14806.59
523.843	14849.3
524.21	15003.87
524.577	14985.11
524.943	14973.36
525.31	14990.76
525.676	15040.03
526.043	15151.66
526.409	15195.05
526.776	15218.55
527.142	15187.82
527.508	15225.79
527.874	15371.32
528.241	15364.31
528.607	15333.81
528.973	15469.62
529.339	15357.31
529.705	15468.72
530.071	15509.62
530.437	15540.58
530.803	15498.77
531.169	15552.11
531.535	15542.61
531.901	15548.26
532.267	15568.15
532.632	15560.92
532.998	15612.22
533.364	15695.6
533.73	15702.16
534.095	15582.84
534.461	15589.84
534.826	15656.74
535.192	15635.04
535.557	15651.76
535.923	15647.24
536.288	15622.61
536.653	15671.65
537.019	15485.67
537.384	15577.42
537.749	15589.17
538.114	15501.49
538.479	15530.86
538.845	15537.64
539.21	15395.95
539.575	15461.26
539.94	15342.39
540.305	15428.72
540.67	15349.17
541.034	15474.37
541.399	15432.11
541.764	15315.73
542.129	15308.27
542.494	15315.5
542.858	15247.48
543.223	15278.21
543.587	15244.54
543.952	15232.34
544.316	15242.96
544.681	15202.96
545.045	15163.87
545.41	15192.57
545.774	15150.31
546.138	15111.66
546.503	15052.91
546.867	15026.24
547.231	15009.29
547.595	15047.03
547.959	15027.15
548.324	15011.1
548.688	14954.83
549.052	14974.27
549.416	14885.46
549.779	14892.01
550.143	14781.05
550.507	14801.62
550.871	14820.15
551.235	14811.79
551.599	14799.36
551.962	14781.96
552.326	14689.08
552.689	14734.27
553.053	14624.22
553.417	14631.9
553.78	14737.21
554.143	14610.66
554.507	14716.19
554.87	14584.45
555.234	14680.26
555.597	14646.14
555.96	14609.08
556.323	14631.23
556.686	14563.43
557.05	14684.56
557.413	14594.16
557.776	14589.64
558.139	14631
558.502	14626.93
558.865	14542.19
559.228	14635.29
559.59	14567.5
559.953	14605.24
560.316	14707.83
560.679	14643.43
561.041	14622.19
561.404	14731.34
561.767	14723.65
562.129	14642.98
562.492	14767.04
562.854	14762.75
563.217	14696.76
563.579	14723.43
563.941	14714.61
564.304	14729.98
564.666	14787.15
565.028	14755.06
565.39	14802.07
565.753	14757.32
566.115	14798.23
566.477	14846.14
566.839	14933.14
567.201	14988.05
567.563	14939.69
567.925	15034.15
568.287	14962.74
568.648	14997.32
569.01	15018.33
569.372	15034.83
569.734	14984.44
570.095	15051.55
570.457	14999.58
570.819	15039.12
571.18	15034.83
571.542	15135.39
571.903	15144.43
572.265	15142.17
572.626	15203.87
572.987	15153.02
573.349	15210.87
573.71	15292.45
574.071	15178.78
574.432	15152.12
574.794	15246.8
575.155	15247.71
575.516	15193.02
575.877	15271.89
576.238	15255.39
576.599	15340.13
576.96	15363.41
577.32	15331.09
577.681	15395.73
578.042	15417.42
578.403	15284.32
578.763	15226.46
579.124	15310.08
579.485	15350.98
579.845	15416.74
580.206	15317.08
580.566	15335.61
580.927	15325.44
581.287	15375.16
581.648	15198.44
582.008	15379.23
582.368	15294.26
582.728	15280.7
583.089	15334.26
583.449	15265.56
583.809	15306.24
584.169	15290.64
584.529	15278.21
584.889	15371.77
585.249	15302.62
585.609	15160.93
585.969	15312.56
586.329	15248.38
586.688	15342.39
587.048	15268.72
587.408	15112.34
587.768	15210.19
588.127	15157.09
588.487	15057.88
588.846	15188.95
589.206	15180.59
589.565	15197.76
589.925	15185.34
590.284	15133.36
590.643	15128.39
591.003	15143.08
591.362	15216.75
591.721	15210.42
592.08	15092
592.44	15115.28
592.799	15089.07
593.158	15109.63
593.517	15111.89
593.876	15091.33
594.235	15064.66
594.593	15056.3
594.952	15119.35
595.311	15066.47
595.67	15094.26
596.029	15115.73
596.387	15087.94
596.746	15110.76
597.104	15062.85
597.463	15043.19
597.822	15065.56
598.18	15045.9
598.538	15006.13
598.897	14937.43
599.255	14976.3
599.613	15011.1
599.972	15034.38
600.33	15028.28
600.688	15000.71
601.046	14970.2
601.404	15165.67
601.762	15186.24
602.12	15067.15
602.478	15068.28
602.836	15032.12
603.194	14913.7
603.552	15043.87
603.91	14963.42
604.268	15092.91
604.625	14949.64
604.983	15136.07
605.341	15043.87
605.698	15057.88
606.056	15093.81
606.413	15037.54
606.771	15074.38
607.128	15072.8
607.485	14971.56
607.843	15016.53
608.2	15131.1
608.557	15128.84
608.914	15113.47
609.272	15042.97
609.629	15182.4
609.986	15045
610.343	15087.48
610.7	15152.34
611.057	15158.44
611.414	15210.65
611.771	15186.69
612.127	15228.5
612.484	15227.14
612.841	15289.74
613.198	15194.15
613.554	15211.78
613.911	15277.76
614.267	15289.29
614.624	15257.42
614.98	15252.45
615.337	15372.45
615.693	15372.45
616.05	15341.72
616.406	15448.83
616.762	15396.63
617.118	15302.85
617.475	15387.59
617.831	15491.99
618.187	15397.53
618.543	15436.4
618.899	15491.32
619.255	15452.22
619.611	15424.88
619.967	15509.85
620.323	15490.19
620.678	15466.46
621.034	15432.11
621.39	15386.01
621.746	15455.38
622.101	15593.69
622.457	15503.52
622.812	15468.72
623.168	15531.99
623.523	15510.07
623.879	15440.92
624.234	15470.53
624.589	15372.67
624.945	15476.85
625.3	15501.49
625.655	15442.5
626.01	15466.68
626.365	15509.85
626.72	15471.2
627.075	15493.12
627.43	15503.29
627.785	15343.52
628.14	15480.02
628.495	15419.91
628.85	15447.02
629.205	15411.54
629.559	15496.06
629.914	15388.95
630.269	15416.74
630.623	15398.89
630.978	15358.66
631.332	15412.45
631.687	15424.2
632.041	15341.26
632.396	15375.61
632.75	15323.41
633.104	15300.36
633.459	15272.79
633.813	15230.76
634.167	15238.44
634.521	15265.11
634.875	15215.39
635.229	15174.26
635.583	15115.51
635.937	15094.04
636.291	15137.65
636.645	15132
636.999	14965.91
637.352	15094.72
637.706	15049.07
638.06	15156.64
638.413	14988.73
638.767	15000.93
639.121	15026.47
639.474	14887.04
639.828	14977.21
640.181	14907.15
640.534	14966.13
640.888	14957.77
641.241	14828.06
641.594	14910.54
641.947	14872.12
642.301	14847.72
642.654	14873.93
643.007	14921.84
643.36	14857.21
643.713	14816.31
644.066	14907.38
644.419	14696.53
644.771	14673.48
645.124	14581.96
645.477	14603.43
645.83	14563.43
646.182	14485.47
646.535	14391.01
646.888	14301.29
647.24	14291.35
647.593	14379.25
647.945	14323.89
648.298	14311.23
648.65	14266.04
649.002	14251.12
649.355	14375.41
649.707	14392.36
650.059	14444.79
650.411	14497.9
650.763	14558.01
651.115	14729.75
651.467	14658.12
651.819	14683.2
652.171	14613.37
652.523	14593.71
652.875	14607.27
653.227	14567.95
653.578	14704.22
653.93	14669.42
654.282	14657.44
654.633	14455.41
654.985	14516.65
655.337	14586.48
655.688	14649.76
656.039	14714.84
656.391	14611.56
656.742	14587.38
657.094	14630.32
657.445	14688.4
657.796	14617.44
658.147	14639.81
658.498	14658.57
658.849	14640.04
659.2	14608.85
659.551	14627.61
659.902	14726.36
660.253	14601.17
660.604	14620.83
660.955	14620.15
661.306	14669.87
661.656	14651.34
662.007	14690.43
662.358	14649.53
662.708	14669.19
663.059	14647.5
663.409	14595.07
663.76	14730.43
664.11	14729.53
664.461	14667.83
664.811	14646.59
665.161	14750.09
665.511	14633.26
665.862	14666.48
666.212	14716.19
666.562	14769.53
666.912	14724.56
667.262	14621.06
667.612	14632.13
667.962	14617.67
668.312	14651.56
668.662	14810.2
669.011	14694.5
669.361	14725.91
669.711	14584.45
670.06	14661.06
670.41	14555.97
670.76	14606.37
671.109	14551
671.459	14705.12
671.808	14758.45
672.157	14642.07
672.507	14521.17
672.856	14556.88
673.205	14601.17
673.554	14625.35
673.904	14597.33
674.253	14577.67
674.602	14534.28
674.951	14313.72
675.3	14242.54
675.649	14430.78
675.998	14447.5
676.346	14447.73
676.695	14536.76
677.044	14378.35
677.393	14376.09
677.741	14473.04
678.09	14263.78
678.438	14292.03
678.787	14379.25
679.135	14296.77
679.484	14183.55
679.832	14272.59
680.181	14155.76
680.529	14338.35
680.877	14226.04
681.225	14174.51
681.573	14328.18
681.922	14154.4
682.27	14082.31
682.618	14110.79
682.966	14074.63
683.314	14106.49
683.661	14127.28
684.009	14002.09
684.357	13998.7
684.705	13941.53
685.053	13959.38
685.4	13867.86
685.748	13895.2
686.095	13855.65
686.443	13680.97
686.79	13769.33
687.138	13796.9
687.485	13764.36
687.832	13676.67
688.18	13772.72
688.527	13551.93
688.874	13599.61
689.221	13541.76
689.568	13515.55
689.915	13443.91
690.262	13467.41
690.609	13313.52
690.956	13375.44
691.303	13339.28
691.65	13356
691.997	13287.31
692.344	13181.32
692.69	13118.27
693.037	13127.76
693.383	13070.36
693.73	13061.78
694.077	12915.34
694.423	12983.13
694.769	12942.68
695.116	12898.62
695.462	12919.18
695.808	12724.61
696.155	12782.23
696.501	12719.64
696.847	12704.95
697.193	12568.23
697.539	12617.04
697.885	12542.47
698.231	12467.67
698.577	12427.67
698.923	12386.99
699.269	12353.77
699.614	12299.99
699.96	12246.88
700.306	12269.71
700.651	12235.81
700.997	12127.56
701.342	12077.62
701.688	12152.65
702.033	12022.03
702.379	12007.34
702.724	11887.79
703.069	11981.13
703.415	11869.49
703.76	11853.22
704.105	11847.8
704.45	11669.27
704.795	11695.48
705.14	11630.17
705.485	11660.23
705.83	11577.52
706.175	11635.15
706.52	11589.05
706.865	11524.87
707.209	11468.14
707.554	11417.75
707.899	11360.8
708.243	11391.99
708.588	11264.99
708.932	11237.42
709.277	11218.43
709.621	11354.25
709.966	11177.53
710.31	11191.77
710.654	11025.22
710.998	11097.31
711.342	11023.41
711.687	11026.8
712.031	11006.46
712.375	10987.48
712.719	10983.64
713.063	11009.63
713.407	10984.77
713.75	10883.08
714.094	10820.48
714.438	10907.71
714.782	10898.67
715.125	10756.53
715.469	10830.65
715.812	10768.05
716.156	10713.14
716.499	10734.38
716.843	10793.59
717.186	10650.54
717.53	10728.28
717.873	10724.89
718.216	10723.08
718.559	10604.89
718.902	10542.07
719.246	10621.61
719.589	10604.66
719.932	10539.81
720.275	10454.39
720.617	10517.44
720.96	10505.68
721.303	10518.11
721.646	10477.44
721.989	10357.21
722.331	10496.87
722.674	10429.98
723.016	10403.31
723.359	10439.7
723.701	10411.68
724.044	10380.49
724.386	10346.37
724.729	10348.17
725.071	10413.71
725.413	10374.16
725.755	10370.77
726.097	10274.73
726.439	10244.67
726.782	10235.18
727.124	10351.34
727.465	10328.06
727.807	10301.4
728.149	10226.37
728.491	10250.1
728.833	10263.43
729.175	10265.01
729.516	10146.6
729.858	10184.79
730.199	10263.43
730.541	10256.2
730.882	10222.08
731.224	10217.56
731.565	10165.13
731.906	10207.16
732.248	10199.03
732.589	10193.6
732.93	10108.18
733.271	10182.53
733.612	10197.67
733.953	10152.02
734.294	10191.12
734.635	10134.39
734.976	10189.99
735.317	10166.94
735.658	10139.82
735.999	10151.12
736.339	10165.81
736.68	10264.56
737.021	10201.96
737.361	10179.82
737.702	10224.79
738.042	10170.1
738.383	10148.41
738.723	10192.25
739.063	10165.58
739.404	10304.56
739.744	10284.67
740.084	10223.66
740.424	10268.85
740.764	10254.62
741.104	10290.1
741.444	10275.18
741.784	10281.06
742.124	10343.88
742.464	10294.62
742.804	10344.11
743.143	10320.83
743.483	10405.35
743.823	10397.89
744.162	10433.37
744.502	10375.74
744.841	10426.59
745.181	10531.45
745.52	10523.99
745.86	10588.62
746.199	10536.87
746.538	10607.38
746.877	10661.84
747.216	10770.31
747.556	10799.24
747.895	10884.43
748.234	10897.31
748.573	10963.53
748.911	10989.29
749.25	11079
749.589	11090.98
749.928	11101.83
750.267	11267.92
750.605	11296.17
750.944	11425.43
751.283	11493.68
751.621	11577.75
751.96	11579.78
752.298	11679.21
752.636	11802.37
752.975	11914.46
753.313	12006.44
753.651	12165.3
753.989	12159.65
754.327	12312.19
754.666	12415.92
755.004	12597.15
755.342	12603.48
755.679	12739.75
756.017	12933.42
756.355	13128.44
756.693	13132.96
757.031	13330.92
757.368	13423.12
757.706	13557.81
758.044	13703.34
758.381	13880.06
758.719	13969.77
759.056	14255.64
759.394	14335.87
759.731	14358.01
760.068	14595.07
760.405	14715.97
760.743	14845.46
761.08	15087.26
761.417	15150.76
761.754	15317.99
762.091	15483.86
762.428	15668.49
762.765	15735.6
763.102	15937.18
763.438	16016.5
763.775	16182.15
764.112	16444.96
764.449	16487.67
764.785	16629.82
765.122	16754.11
765.458	16844.05
765.795	16961.11
766.131	17128.11
766.467	17180.76
766.804	17408.33
767.14	17478.16
767.476	17608.32
767.812	17742.56
768.148	17833.63
768.485	17876.34
768.821	17937.35
769.157	18096.67
769.492	18174.41
769.828	18344.35
770.164	18306.16
770.5	18436.78
770.836	18596.77
771.171	18575.98
771.507	18715.41
771.842	18689.65
772.178	18717.22
772.513	18870.21
772.849	18926.48
773.184	18964.22
773.519	19072.92
773.855	19091.67
774.19	19109.53
774.525	19168.73
774.86	19166.25
775.195	19307.94
775.53	19291.22
775.865	19322.18
776.2	19278.33
776.535	19200.6
776.87	19348.62
777.205	19244.21
777.539	19379.35
777.874	19524.88
778.209	19397.43
778.543	19406.69
778.878	19278.11
779.212	19388.39
779.547	19422.29
779.881	19450.31
780.215	19389.97
780.55	19375.73
780.884	19327.83
781.218	19417.77
781.552	19482.85
781.886	19390.87
782.22	19315.85
782.554	19317.66
782.888	19278.33
783.222	19281.95
783.556	19205.34
783.889	19155.17
784.223	19110.43
784.557	19143.88
784.89	19191.78
785.224	19000.38
785.557	19098.9
785.891	18945.91
786.224	19057.32
786.558	19034.73
786.891	19055.29
787.224	18862.07
787.557	18813.94
787.891	18907.27
788.224	18879.25
788.557	18978
788.89	18863.43
789.223	18855.52
789.556	18742.53
789.888	18699.59
790.221	18659.59
790.554	18567.39
790.887	18586.6
791.219	18642.65
791.552	18540.05
791.884	18411.92
792.217	18387.51
792.549	18423.44
792.882	18311.35
793.214	18203.56
793.546	18190.91
793.879	18192.26
794.211	18094.64
794.543	18271.36
794.875	18102.09
795.207	18121.98
795.539	18073.85
795.871	18055.32
796.203	17912.5
796.535	17913.17
796.867	17778.26
797.198	17743.69
797.53	17800.18
797.862	17606.29
798.193	17751.14
798.525	17582.79
798.856	17584.59
799.188	17497.36
799.519	17336.47
799.85	17380.53
800.182	17328.33
800.513	17263.47
800.844	17208.11
801.175	17359.97
801.506	17306.86
801.837	17184.38
802.168	17109.13
802.499	17085.17
802.83	16971.05
803.161	17081.1
803.491	16932.86
803.822	16987.1
804.153	16905.06
804.483	16752.53
804.814	16687.22
805.145	16803.6
805.475	16673.43
805.805	16535.81
806.136	16648.8
806.466	16686.09
806.796	16567.45
807.126	16448.35
807.457	16461.23
807.787	16492.65
808.117	16374.23
808.447	16292.65
808.777	16294.91
809.107	16221.47
809.436	16220.79
809.766	16254.91
810.096	16168.36
810.426	16067.57
810.755	16078.42
811.085	16078.19
811.414	16081.81
811.744	15933.79
812.073	16016.27
812.403	15880.68
812.732	15789.16
813.061	15889.95
813.39	15698.54
813.719	15703.29
814.049	15808.14
814.378	15755.94
814.707	15672.33
815.036	15651.09
815.365	15592.1
815.693	15487.7
816.022	15449.51
816.351	15450.19
816.68	15296.52
817.008	15446.35
817.337	15280.02
817.665	15288.38
817.994	15318.44
818.322	15311.21
818.651	15304.43
818.979	15192.11
819.307	15265.33
819.636	15102.17
819.964	15086.35
820.292	15176.07
820.62	15148.73
820.948	15088.16
821.276	15109.86
821.604	15092.68
821.932	15061.27
822.259	15091.1
822.587	15098.78
822.915	15009.75
823.243	15119.35
823.57	15017.66
823.898	15020.37
824.225	14934.04
824.553	15069.41
824.88	15066.47
825.207	15076.86
825.535	15026.24
825.862	15096.07
826.189	14954.15
826.516	15110.99
826.843	15046.36
827.17	15081.84
827.497	15142.17
827.824	15034.83
828.151	15147.37
828.478	15119.57
828.805	15151.44
829.131	15054.04
829.458	14980.37
829.785	15051.33
830.111	15110.31
830.438	15067.6
830.764	15107.37
831.09	15108.73
831.417	14986.47
831.743	15008.39
832.069	15083.19
832.395	14993.25
832.722	15042.74
833.048	15040.48
833.374	14975.85
833.7	14894.5
834.026	14875.29
834.351	14897.66
834.677	14820.6
835.003	14922.52
835.329	14879.35
835.654	14874.83
835.98	14802.97
836.306	14834.38
836.631	14792.13
836.956	14861.05
837.282	14790.54
837.607	14691.34
837.932	14767.72
838.258	14753.03
838.583	14705.12
838.908	14677.78
839.233	14678.91
839.558	14583.77
839.883	14596.88
840.208	14555.97
840.533	14471.46
840.858	14591
841.182	14508.06
841.507	14620.38
841.832	14404.56
842.156	14393.72
842.481	14436.2
842.805	14395.75
843.13	14379.25
843.454	14261.74
843.778	14209.54
844.103	14213.38
844.427	14130.9
844.751	14112.37
845.075	14134.74
845.399	14065.82
845.723	13977.01
846.047	14027.4
846.371	13920.28
846.695	13917.8
847.019	13761.19
847.343	13713.28
847.666	13679.61
847.99	13599.39
848.313	13608.43
848.637	13492.5
848.96	13556.23
849.284	13363.01
849.607	13329.34
849.931	13318.49
850.254	13192.62
850.577	13142.45
850.9	13105.84
851.223	12974.77
851.546	12973.19
851.869	12907.43
852.192	12968.9
852.515	12896.58
852.838	12869.69
853.161	12800.99
853.483	12794.89
853.806	12742.91
854.129	12707.66
854.451	12671.95
854.774	12591.51
855.096	12576.14
855.419	12467.21
855.741	12462.24
856.063	12434.9
856.385	12344.28
856.708	12336.14
857.03	12294.11
857.352	12314.9
857.674	12215.7
857.996	12216.15
858.318	12089.37
858.64	12165.08
858.961	12163.04
859.283	12113.33
859.605	11987.91
859.926	12059.77
860.248	11999.66
860.57	11988.58
860.891	12034.46
861.212	11873.56
861.534	11824.52
861.855	11834.46
862.176	11831.3
862.498	11827.68
862.819	11770.28
863.14	11789.49
863.461	11737.29
863.782	11697.52
864.103	11713.56
864.424	11629.27
864.745	11635.82
865.065	11544.07
865.386	11551.53
865.707	11578.65
866.027	11527.35
866.348	11432.67
866.668	11487.81
866.989	11464.08
867.309	11425.21
867.63	11501.59
867.95	11455.72
868.27	11397.86
868.59	11413.68
868.91	11363.74
869.23	11400.8
869.55	11255.04
869.87	11361.25
870.19	11279.68
870.51	11315.61
870.83	11354.93
871.15	11179.11
871.469	11244.65
871.789	11250.3
872.109	11199
872.428	11190.41
872.748	11182.05
873.067	11155.61
873.386	11147.93
873.706	11145.67
874.025	11070.64
874.344	11074.03
874.663	11043.75
874.982	10990.42
875.301	10982.28
875.62	10955.16
875.939	10989.97
876.258	11013.92
876.577	10914.71
876.896	10853.02
877.214	10882.17
877.533	10816.18
877.852	10842.4
878.17	10791.55
878.489	10854.15
878.807	10822.74
879.125	10806.24
879.444	10819.35
879.762	10792.23
880.08	10730.76
880.398	10708.62
880.716	10665
881.034	10670.2
881.352	10716.07
881.67	10607.15
881.988	10588.62
882.306	10608.28
882.624	10543.65
882.941	10404.9
883.259	10427.95
883.577	10426.82
883.894	10400.38
884.212	10417.78
884.529	10456.87
884.846	10405.12
885.164	10440.38
885.481	10331.23
885.798	10204
886.115	10292.58
886.432	10248.06
886.75	10219.82
887.067	10197.9
887.383	10207.39
887.7	10205.35
888.017	10175.3
888.334	10151.12
888.651	10144.56
888.967	10106.37
889.284	10105.92
889.6	9979.37
889.917	9944.57
890.233	9917.68
890.55	9903.44
890.866	9894.63
891.182	9950.9
891.498	9867.28
891.815	9843.33
892.131	9778.92
892.447	9716.55
892.763	9735.99
893.079	9674.07
893.395	9627.97
893.71	9594.07
894.026	9597.91
894.342	9477.46
894.657	9463
894.973	9495.54
895.289	9460.06
895.604	9449.21
895.92	9335.77
896.235	9383.91
896.55	9355.21
896.865	9349.1
897.181	9291.03
897.496	9263.68
897.811	9292.83
898.126	9257.13
898.441	9152.05
898.756	9047.87
899.071	9018.94
899.386	9106.62
899.7	8948.44
900.015	9006.06
900.33	8905.73
900.644	8876.8
900.959	8926.74
901.273	8895.78
901.588	8846.97
901.902	8759.97
902.216	8839.06
902.531	8739.18
902.845	8687.2
903.159	8677.71
903.473	8705.05
903.787	8584.6
904.101	8506.87
904.415	8542.57
904.729	8510.03
905.042	8444.27
905.356	8445.17
905.67	8398.17
905.984	8342.13
906.297	8315.23
906.611	8302.35
906.924	8343.71
907.237	8277.72
907.551	8270.49
907.864	8243.37
908.177	8219.19
908.491	8156.37
908.804	8077.27
909.117	8057.16
909.43	7933.77
909.743	8023.04
910.056	7983.72
910.368	7929.25
910.681	7849.48
910.994	7914.11
911.307	7830.73
911.619	7704.4
911.932	7720.9
912.244	7661.69
912.557	7629.6
912.869	7616.27
913.181	7560.9
913.494	7588.25
913.806	7572.65
914.118	7517.74
914.43	7447.01
914.742	7483.39
915.054	7423.05
915.366	7384.18
915.678	7365.2
915.99	7369.27
916.302	7258.99
916.613	7226.22
916.925	7325.88
917.236	7278.2
917.548	7205.88
917.859	7206.79
918.171	7140.8
918.482	7113.23
918.794	7095.38
919.105	7100.12
919.416	6979.68
919.727	6945.78
920.038	6926.12
920.349	6947.59
920.66	6900.58
920.971	6880.69
921.282	6840.92
921.593	6808.83
921.903	6784.88
922.214	6759.79
922.525	6722.51
922.835	6742.62
923.146	6679.8
923.456	6646.58
923.767	6605.22
924.077	6636.63
924.387	6606.58
924.697	6515.96
925.008	6501.27
925.318	6531.1
925.628	6479.8
925.938	6473.25
926.248	6382.18
926.558	6401.39
926.867	6343.53
927.177	6391.44
927.487	6366.13
927.796	6300.37
928.106	6258.56
928.416	6206.14
928.725	6240.49
929.034	6216.31
929.344	6174.05
929.653	6174.72
929.962	6050.21
930.271	6074.16
930.581	6118.91
930.89	6045.46
931.199	5970.89
931.508	6018.8
931.817	5960.94
932.125	5968.85
932.434	5886.6
932.743	5894.73
933.051	5828.07
933.36	5861.06
933.669	5766.83
933.977	5813.15
934.286	5750.1
934.594	5738.13
934.902	5722.08
935.21	5685.02
935.519	5687.05
935.827	5687.96
936.135	5603.21
936.443	5620.61
936.751	5536.55
937.059	5543.55
937.367	5519.37
937.674	5497.68
937.982	5517.57
938.29	5482.77
938.597	5487.06
938.905	5389.21
939.213	5413.16
939.52	5342.2
939.827	5339.04
940.135	5320.51
940.442	5239.38
940.749	5284.13
941.056	5257.23
941.363	5185.82
941.67	5165.94
941.977	5137.24
942.284	5101.98
942.591	5137.46
942.898	5113.28
943.205	5107.41
943.511	5064.92
943.818	5109.22
944.125	5035.55
944.431	5010.69
944.738	4976.11
945.044	4991.7
945.35	4919.16
945.657	4870.13
945.963	4898.15
946.269	4832.84
946.575	4879.62
946.881	4839.39
947.187	4838.71
947.493	4790.81
947.799	4762.56
948.105	4783.57
948.41	4721.66
948.716	4709
949.022	4717.59
949.327	4727.76
949.633	4630.13
949.938	4614.31
950.244	4659.74
950.549	4624.26
950.854	4579.96
951.16	4560.53
951.465	4560.3
951.77	4524.82
952.075	4495.22
952.38	4480.31
952.685	4447.99
952.99	4418.61
953.294	4441.66
953.599	4367.09
953.904	4374.32
954.209	4342
954.513	4365.28
954.818	4303.81
955.122	4294.32
955.426	4309.91
955.731	4228.79
956.035	4224.95
956.339	4244.83
956.643	4232.18
956.948	4166.19
957.252	4184.49
957.556	4155.12
957.86	4111.5
958.163	4136.36
958.467	4114.44
958.771	4129.58
959.075	4127.09
959.378	4056.59
959.682	4055.91
959.985	4028.34
960.289	4013.2
960.592	4011.39
960.896	3978.17
961.199	3942.24
961.502	3953.09
961.805	3919.87
962.108	3871.06
962.411	3918.74
962.714	3871.51
963.017	3871.28
963.32	3880.1
963.623	3771.85
963.926	3795.58
964.228	3741.79
964.531	3777.27
964.833	3782.92
965.136	3727.11
965.438	3694.11
965.741	3682.13
966.043	3685.98
966.345	3718.52
966.648	3662.7
966.95	3633.55
967.252	3615.7
967.554	3575.24
967.856	3615.47
968.158	3556.71
968.46	3572.53
968.761	3564.17
969.063	3497.51
969.365	3510.61
969.666	3512.2
969.968	3427.23
970.269	3484.63
970.571	3475.13
970.872	3449.15
971.174	3418.86
971.475	3413.44
971.776	3396.49
972.077	3341.58
972.378	3391.3
972.679	3368.7
972.98	3370.96
973.281	3291.41
973.582	3323.05
973.883	3326.89
974.183	3280.79
974.484	3272.88
974.785	3238.3
975.085	3209.6
975.386	3266.78
975.686	3177.52
975.986	3183.84
976.287	3152.21
976.587	3126.22
976.887	3165.09
977.187	3157.63
977.487	3148.82
977.787	3070.17
978.087	3116.27
978.387	3082.38
978.687	3110.62
978.987	3060
979.286	3054.81
979.586	3014.81
979.885	3000.8
980.185	2957.86
980.484	3015.94
980.784	2967.13
981.083	2968.26
981.382	2937.52
981.682	2951.76
981.981	2900.23
982.28	2911.08
982.579	2914.47
982.878	2867.69
983.177	2863.17
983.475	2847.35
983.774	2851.65
984.073	2811.42
984.372	2816.85
984.67	2808.94
984.969	2813.68
985.267	2783.63
985.566	2773.23
985.864	2754.93
986.162	2753.12
986.461	2722.39
986.759	2729.39
987.057	2696.4
987.355	2696.4
987.653	2656.85
987.951	2690.52
988.249	2650.52
988.547	2625.89
988.844	2640.35
989.142	2591.99
989.44	2617.08
989.737	2596.74
990.035	2571.2
990.332	2551.32
990.63	2584.76
990.927	2536.4
991.224	2522.39
991.521	2525.78
991.819	2498.44
992.116	2515.84
992.413	2450.3
992.71	2462.28
993.006	2473.58
993.303	2461.38
993.6	2430.19
993.897	2436.97
994.193	2414.82
994.49	2425.44
994.787	2384.99
995.083	2388.61
995.379	2359.01
995.676	2335.73
995.972	2337.54
996.268	2338.89
996.565	2328.72
996.861	2329.4
997.157	2299.57
997.453	2266.8
997.749	2314.26
998.044	2241.27
998.34	2257.31
998.636	2223.64
998.932	2254.6
999.227	2208.95
999.523	2221.38
999.818	2231.33
1000.114	2201.27
1000.409	2169.18
1000.704	2161.04
1001	2162.63
1001.295	2156.98
1001.59	2117.66
1001.885	2133.02
1002.18	2123.98
1002.475	2111.33
1002.77	2119.24
1003.065	2061.84
1003.359	2044.44
1003.654	2109.07
1003.949	2053.03
1004.243	2026.13
1004.538	2018.22
1004.832	1984.78
1005.127	2026.13
1005.421	1966.93
1005.715	1974.38
1006.009	1995.17
1006.304	1951.11
1006.598	1956.3
1006.892	1929.86
1007.186	1906.36
1007.48	1916.76
1007.773	1887.61
1008.067	1902.07
1008.361	1872.01
1008.655	1849.19
1008.948	1881.73
1009.242	1858.91
1009.535	1883.76
1009.829	1840.15
1010.122	1821.84
1010.415	1799.25
1010.708	1818.23
1011.001	1772.35
1011.295	1797.21
1011.588	1758.34
1011.881	1760.83
1012.173	1737.1
1012.466	1745.91
1012.759	1741.62
1013.052	1698.23
1013.344	1727.38
1013.637	1720.38
1013.93	1690.32
1014.222	1679.48
1014.514	1667.27
1014.807	1647.61
1015.099	1653.04
1015.391	1641.74
1015.683	1631.34
1015.976	1611.23
1016.268	1635.86
1016.56	1577.11
1016.851	1586.6
1017.143	1579.59
1017.435	1535.3
1017.727	1554.73
1018.018	1575.07
1018.31	1518.12
1018.602	1531.46
1018.893	1552.47
1019.185	1500.95
1019.476	1485.36
1019.767	1515.19
1020.058	1454.17
1020.35	1456.66
1020.641	1448.75
1020.932	1468.41
1021.223	1434.06
1021.514	1411.01
1021.804	1411.01
1022.095	1432.02
1022.386	1435.41
1022.677	1377.34
1022.967	1406.26
1023.258	1393.83
1023.548	1350.44
1023.839	1378.92
1024.129	1362.65
1024.419	1372.82
1024.709	1324
1025	1289.43
1025.29	1301.86
1025.58	1307.28
1025.87	1275.64
1026.16	1278.13
1026.449	1272.71
1026.739	1253.72
1027.029	1254.85
1027.319	1240.17
1027.608	1233.16
1027.898	1237.91
1028.187	1212.82
1028.477	1206.27
1028.766	1202.88
1029.055	1236.1
1029.344	1227.28
1029.634	1212.82
1029.923	1183.22
1030.212	1191.8
1030.501	1201.52
1030.79	1167.85
1031.078	1150.68
1031.367	1165.36
1031.656	1140.96
1031.945	1150.45
1032.233	1128.08
1032.522	1139.83
1032.81	1124.01
1033.099	1095.08
1033.387	1102.32
1033.675	1079.04
1033.963	1090.56
1034.251	1061.19
1034.54	1066.16
1034.828	1044.46
1035.116	1067.97
1035.403	1051.7
1035.691	1044.46
1035.979	1017.57
1036.267	1054.63
1036.554	1030.45
1036.842	1027.52
1037.129	1038.36
1037.417	1004.47
1037.704	1019.83
1037.992	1002.88
1038.279	993.84
1038.566	977.57
1038.853	977.57
1039.14	977.57
