Data from hue_330_FLMS001491_71.txt Node
Date: Mon Feb 06 15:45:51 GMT 2017
User: dcchb
Spectrometer: FLMS00149
Trigger mode: 0
Integration Time (sec): 2.000000E-2
Scans to average: 10
Electric dark correction enabled: true
Nonlinearity correction enabled: false
Boxcar width: 0
XAxis mode: Wavelengths
Number of Pixels in Spectrum: 2048
>>>>>Begin Spectral Data<<<<<
341.393	-1.99
341.776	-1.99
342.16	-1.99
342.543	-68.66
342.927	-70.24
343.31	-53.06
343.693	-57.81
344.077	-86.28
344.46	-76.11
344.843	-70.92
345.226	-42.89
345.61	-29.56
345.993	-37.92
346.376	0.27
346.759	28.52
347.142	31.23
347.525	52.47
347.908	57.89
348.291	63.77
348.674	110.1
349.057	110.32
349.44	132.02
349.823	144.22
350.206	165.69
350.588	191.68
350.971	190.77
351.354	209.75
351.737	240.26
352.119	255.63
352.502	265.8
352.884	280.04
353.267	280.49
353.65	275.97
354.032	309.41
354.414	315.74
354.797	286.59
355.179	322.75
355.562	330.66
355.944	334.5
356.326	308.96
356.709	332.91
357.091	326.36
357.473	338.79
357.855	328.85
358.238	333.59
358.62	324.1
359.002	335.17
359.384	343.76
359.766	321.39
360.148	330.43
360.53	356.19
360.912	323.42
361.294	313.93
361.676	327.04
362.057	341.28
362.439	325.23
362.821	333.82
363.203	334.95
363.584	325.46
363.966	321.62
364.348	318.45
364.729	342.18
365.111	322.52
365.493	327.49
365.874	308.06
366.256	300.83
366.637	314.84
367.019	307.83
367.4	294.95
367.781	309.64
368.163	318.45
368.544	315.51
368.925	313.25
369.306	317.77
369.688	287.94
370.069	295.63
370.45	310.54
370.831	333.82
371.212	315.29
371.593	318.9
371.974	320.03
372.355	327.04
372.736	302.41
373.117	301.73
373.498	322.07
373.879	324.78
374.26	323.65
374.641	315.29
375.021	309.41
375.402	310.09
375.783	322.07
376.163	330.88
376.544	315.97
376.925	328.62
377.305	318.9
377.686	319.13
378.066	329.3
378.447	310.32
378.827	303.09
379.208	322.29
379.588	334.04
379.968	320.94
380.349	337.66
380.729	319.36
381.109	330.88
381.489	315.06
381.87	329.75
382.25	327.27
382.63	326.36
383.01	348.73
383.39	329.75
383.77	347.38
384.15	332.91
384.53	371.11
384.91	328.4
385.29	360.71
385.67	338.56
386.049	338.34
386.429	358
386.809	363.2
387.189	342.63
387.568	369.75
387.948	361.61
388.328	339.92
388.707	361.39
389.087	347.15
389.466	348.28
389.846	346.93
390.225	353.25
390.605	361.84
390.984	377.21
391.363	366.36
391.743	362.52
392.122	369.75
392.501	356.87
392.881	359.35
393.26	360.48
393.639	356.19
394.018	371.78
394.397	380.37
394.776	369.07
395.155	373.82
395.534	366.59
395.913	393.48
396.292	372.01
396.671	367.72
397.05	373.37
397.429	388.96
397.808	393.25
398.186	399.81
398.565	377.89
398.944	366.36
399.323	385.79
399.701	370.43
400.08	385.12
400.458	379.24
400.837	420.14
401.215	407.04
401.594	394.16
401.972	385.57
402.351	396.87
402.729	409.75
403.107	412.69
403.486	418.11
403.864	397.32
404.242	410.65
404.62	422.4
404.999	421.73
405.377	428.51
405.755	435.29
406.133	423.53
406.511	413.59
406.889	444.78
407.267	446.13
407.645	431.44
408.023	466.02
408.401	436.64
408.779	474.61
409.156	445.91
409.534	470.54
409.912	472.12
410.29	462.86
410.667	485.91
411.045	495.85
411.422	497.88
411.8	491.1
412.178	466.02
412.555	533.36
412.933	513.93
413.31	524.1
413.687	524.32
414.065	526.58
414.442	518.22
414.819	563.87
415.197	529.07
415.574	547.15
415.951	551.44
416.328	570.65
416.705	559.35
417.082	554.15
417.46	558.22
417.837	604.55
418.214	605.22
418.591	600.7
418.967	578.78
419.344	613.81
419.721	638.22
420.098	606.58
420.475	596.41
420.852	623.3
421.228	636.41
421.605	634.6
421.982	631.66
422.358	635.28
422.735	673.25
423.111	662.62
423.488	666.24
423.864	672.79
424.241	706.92
424.617	695.84
424.994	699.91
425.37	684.54
425.746	689.74
426.123	717.09
426.499	728.38
426.875	712.11
427.251	750.08
427.627	758.21
428.003	752.34
428.379	767.03
428.756	753.02
429.132	779
429.507	797.08
429.883	795.05
430.259	795.5
430.635	796.86
431.011	800.02
431.387	822.62
431.763	821.72
432.138	846.35
432.514	858.55
432.89	883.63
433.265	856.29
433.641	872.34
434.016	880.02
434.392	892.9
434.767	913.69
435.143	917.53
435.518	920.02
435.894	938.1
436.269	932.67
436.644	953.69
437.02	964.08
437.395	963.41
437.77	955.05
438.145	996.85
438.52	990.75
438.895	957.31
439.271	999.56
439.646	982.39
440.021	1023.52
440.395	1040.02
440.77	1016.51
441.145	1008.15
441.52	1039.34
441.895	1025.1
442.27	1043.4
442.645	1052.44
443.019	1076.17
443.394	1071.88
443.769	1094.48
444.143	1082.27
444.518	1073.91
444.892	1086.12
445.267	1110.97
445.641	1104.87
446.016	1085.89
446.39	1112.78
446.764	1094.25
447.139	1095.38
447.513	1127.92
447.887	1123.18
448.262	1130.86
448.636	1106
449.01	1155.27
449.384	1147.36
449.758	1125.89
450.132	1172.67
450.506	1195.27
450.88	1163.18
451.254	1158.66
451.628	1168.15
452.002	1204.76
452.376	1192.78
452.75	1216.73
453.123	1233
453.497	1214.93
453.871	1224.42
454.244	1252.89
454.618	1271.2
454.992	1267.35
455.365	1273.91
455.739	1283.62
456.112	1314.13
456.486	1311.19
456.859	1294.02
457.232	1336.28
457.606	1343.74
457.979	1319.56
458.352	1331.08
458.725	1376.96
459.099	1363.17
459.472	1366.56
459.845	1401.36
460.218	1399.1
460.591	1420.12
460.964	1432.32
461.337	1451.76
461.71	1440.68
462.083	1487.23
462.456	1465.09
462.829	1486.1
463.201	1470.51
463.574	1509.61
463.947	1513.22
464.32	1548.48
464.692	1518.65
465.065	1536.95
465.438	1559.1
465.81	1595.71
466.183	1623.05
466.555	1617.17
466.928	1637.97
467.3	1667.8
467.672	1672.31
468.045	1672.99
468.417	1686.33
468.789	1703.5
469.161	1730.62
469.534	1746.89
469.906	1780.79
470.278	1795.7
470.65	1779.88
471.022	1828.24
471.394	1855.59
471.766	1887.9
472.138	1888.13
472.51	1907.79
472.882	1913.44
473.253	1949.37
473.625	1957.05
473.997	2016.71
474.369	2013.55
474.74	2049.25
475.112	2036.15
475.484	2081.57
475.855	2102.81
476.227	2095.81
476.598	2171.51
476.97	2181.45
477.341	2250.38
477.713	2273.2
478.084	2283.6
478.455	2316.14
478.827	2317.95
479.198	2387.55
479.569	2380.54
479.94	2424.61
480.311	2491.73
480.682	2515.68
481.053	2542.8
481.424	2603.82
481.795	2585.51
482.166	2641.33
482.537	2679.07
482.908	2692.17
483.279	2731.04
483.65	2773.75
484.021	2802.23
484.391	2857.14
484.762	2899.18
485.133	2878.38
485.503	2916.35
485.874	3004.94
486.244	2976.01
486.615	3068.89
486.985	3073.18
487.356	3109.79
487.726	3136.23
488.097	3204.7
488.467	3210.35
488.837	3267.53
489.207	3264.59
489.578	3365.15
489.948	3359.05
490.318	3403.12
490.688	3377.58
491.058	3435.21
491.428	3481.08
491.798	3491.93
492.168	3537.12
492.538	3566.73
492.908	3639.27
493.278	3672.71
493.648	3643.56
494.017	3686.5
494.387	3731.24
494.757	3746.38
495.126	3808.98
495.496	3797.68
495.866	3821.18
496.235	3889.88
496.605	3891.01
496.974	3900.05
497.344	3920.39
497.713	3959.71
498.082	3970.11
498.452	3990.9
498.821	4060.5
499.19	4058.69
499.559	4034.29
499.928	4056.21
500.298	4121.06
500.667	4128.75
501.036	4142.98
501.405	4154.74
501.774	4147.05
502.143	4217.78
502.512	4219.59
502.88	4216.43
503.249	4255.52
503.618	4279.48
503.987	4295.97
504.356	4306.14
504.724	4304.56
505.093	4340.72
505.462	4350.66
505.83	4406.48
506.199	4416.42
506.567	4389.76
506.936	4415.52
507.304	4472.92
507.672	4521.28
508.041	4533.71
508.409	4460.72
508.777	4540.26
509.145	4503.2
509.514	4558.11
509.882	4586.59
510.25	4567.61
510.618	4614.61
510.986	4607.83
511.354	4669.75
511.722	4696.87
512.09	4740.93
512.458	4709.3
512.826	4711.33
513.193	4736.42
513.561	4728.05
513.929	4769.18
514.297	4836.98
514.664	4786.81
515.032	4822.29
515.4	4843.08
515.767	4803.76
516.135	4903.87
516.502	4855.73
516.869	4910.87
517.237	4911.1
517.604	4872.23
517.972	4926.47
518.339	4977.09
518.706	4947.93
519.073	4978.22
519.44	4972.79
519.808	4999.01
520.175	5028.16
520.542	5057.99
520.909	5009.4
521.276	5048.72
521.643	5099.12
522.009	5121.04
522.376	5191.32
522.743	5147.7
523.11	5180.02
523.477	5238.32
523.843	5221.6
524.21	5259.57
524.577	5297.76
524.943	5317.19
525.31	5304.99
525.676	5334.14
526.043	5417.3
526.409	5426.57
526.776	5494.59
527.142	5456.62
527.508	5449.84
527.874	5499.33
528.241	5554.7
528.607	5534.36
528.973	5590.18
529.339	5601.25
529.705	5643.96
530.071	5699.55
530.437	5695.26
530.803	5753.56
531.169	5781.59
531.535	5738.42
531.901	5794.69
532.267	5860
532.632	5844.86
532.998	5861.58
533.364	5849.38
533.73	5948.36
534.095	5947.91
534.461	5988.36
534.826	6005.08
535.192	6017.29
535.557	6050.5
535.923	6036.49
536.288	6136.15
536.653	6151.07
537.019	6133.89
537.384	6138.86
537.749	6173.89
538.114	6217.51
538.479	6232.87
538.845	6275.13
539.21	6245.75
539.575	6312.19
539.94	6289.37
540.305	6350.16
540.67	6336.6
541.034	6391.96
541.399	6426.54
541.764	6461.12
542.129	6504.5
542.494	6482.58
542.858	6570.72
543.223	6511.96
543.587	6572.52
543.952	6598.29
544.316	6629.25
544.681	6639.87
545.045	6715.35
545.41	6726.42
545.774	6755.12
546.138	6758.06
546.503	6769.81
546.867	6785.17
547.231	6818.85
547.595	6873.99
547.959	6922.8
548.324	6890.93
548.688	6967.32
549.052	6984.04
549.416	6998.05
549.779	6919.18
550.143	6994.89
550.507	7050.03
550.871	7021.78
551.235	7078.27
551.599	7173.41
551.962	7139.52
552.326	7107.65
552.689	7262.45
553.053	7154.43
553.417	7236.69
553.78	7299.96
554.143	7237.37
554.507	7238.04
554.87	7291.15
555.234	7382.45
555.597	7316.91
555.96	7432.62
556.323	7414.99
556.686	7438.94
557.05	7473.74
557.413	7420.19
557.776	7504.48
558.139	7525.49
558.502	7541.31
558.865	7592.39
559.228	7589
559.59	7623.12
559.953	7612.95
560.316	7663.8
560.679	7694.98
561.041	7783.11
561.404	7783.34
561.767	7744.25
562.129	7753.96
562.492	7867.18
562.854	7820.4
563.217	7878.48
563.579	7875.99
563.941	7899.27
564.304	7970.68
564.666	7961.64
565.028	8014.97
565.39	8054.52
565.753	8034.41
566.115	8052.71
566.477	8128.42
566.839	8175.19
567.201	8189.66
567.563	8225.14
567.925	8240.28
568.287	8230.33
568.648	8330.9
569.01	8318.47
569.372	8406.6
569.734	8361.18
570.095	8414.74
570.457	8451.35
570.819	8502.87
571.18	8501.06
571.542	8615.86
571.903	8548.07
572.265	8625.58
572.626	8671.45
572.987	8732.24
573.349	8737.89
573.71	8864.67
574.071	8882.52
574.432	8959.35
574.794	9033.03
575.155	9028.28
575.516	9036.87
575.877	9204.09
576.238	9228.05
576.599	9295.39
576.96	9356.86
577.32	9376.29
577.681	9486.57
578.042	9645.21
578.403	9728.83
578.763	9748.03
579.124	9916.84
579.485	9955.71
579.845	10142.37
580.206	10261.92
580.566	10382.37
580.927	10488.35
581.287	10536.71
581.648	10641.12
582.008	10954.33
582.368	11011.5
582.728	11160.88
583.089	11289.69
583.449	11481.77
583.809	11678.83
584.169	11801.54
584.529	11943.01
584.889	12288.31
585.249	12430.68
585.609	12630.44
585.969	12877.67
586.329	13016.88
586.688	13295.96
587.048	13448.5
587.408	13748.16
587.768	13904.31
588.127	14128.03
588.487	14386.33
588.846	14645.08
589.206	14816.15
589.565	15118.74
589.925	15431.28
590.284	15627.2
590.643	15907.65
591.003	16187.41
591.362	16549.21
591.721	16727.51
592.08	17008.86
592.44	17298.12
592.799	17606.81
593.158	17809.97
593.517	18092.45
593.876	18463.96
594.235	18642.04
594.593	19031.41
594.952	19282.02
595.311	19561.79
595.67	19825.74
596.029	20160.87
596.387	20529.9
596.746	20802.43
597.104	21066.16
597.463	21374.85
597.822	21659.59
598.18	21815.97
598.538	22177.99
598.897	22565.1
599.255	22699.33
599.613	23274.23
599.972	23371.63
600.33	23544.06
600.688	23890.04
601.046	24193.76
601.404	24572.5
601.762	24876.68
602.12	25047.29
602.478	25323.22
602.836	25558.01
603.194	25661.97
603.552	26006.14
603.91	26096.08
604.268	26549.17
604.625	26677.08
604.983	27064.42
605.341	27027.13
605.698	27448.81
606.056	27811.06
606.413	28027.55
606.771	28269.58
607.128	28459.86
607.485	28633.41
607.843	28942.56
608.2	29210.35
608.557	29512.49
608.914	29543.45
609.272	29928.29
609.629	30015.3
609.986	30473.37
610.343	30431.56
610.7	30873.35
611.057	31033.58
611.414	31181.82
611.771	31332.1
612.127	31520.8
612.484	31751.98
612.841	32005.98
613.198	32087.79
613.554	32282.13
613.911	32569.36
614.267	32699.3
614.624	32762.34
614.98	32951.04
615.337	33299.05
615.693	33338.6
616.05	33361.43
616.406	33774.3
616.762	33735.2
617.118	33860.39
617.475	33979.71
617.831	34280.27
618.187	34320.04
618.543	34602.52
618.899	34800.03
619.255	34876.19
619.611	34956.64
619.967	34995.96
620.323	35196.86
620.678	35276.63
621.034	35318.44
621.39	35345.33
621.746	35379.45
622.101	35946.44
622.457	35604.53
622.812	35851.3
623.168	36078.42
623.523	36070.28
623.879	36308.01
624.234	36091.75
624.589	36526.99
624.945	36499.65
625.3	36575.35
625.655	36690.83
626.01	36814.22
626.365	36880.2
626.72	36856.7
627.075	36975.79
627.43	36840.66
627.785	36955.45
628.14	36985.28
628.495	37185.73
628.85	37245.62
629.205	37188.67
629.559	37347.76
629.914	37304.82
630.269	37402.9
630.623	37310.02
630.978	37222.79
631.332	37479.28
631.687	37576.91
632.041	37410.13
632.396	37376.69
632.75	37427.08
633.104	37491.71
633.459	37468.44
633.813	37404.93
634.167	37465.72
634.521	37560.86
634.875	37594.08
635.229	37567.87
635.583	37359.96
635.937	37561.31
636.291	37533.97
636.645	37520.19
636.999	37511.15
637.352	37782.1
637.706	37406.74
638.06	37576.68
638.413	37483.8
638.767	37451.26
639.121	37644.93
639.474	37348.66
639.828	37440.87
640.181	37488.55
640.534	37531.26
640.888	37485.61
641.241	37260.76
641.594	37434.31
641.947	37468.89
642.301	37400.19
642.654	37356.35
643.007	37380.53
643.36	37363.13
643.713	37444.48
644.066	37552.28
644.419	37329.23
644.771	37140.08
645.124	36799.75
645.477	36682.24
645.83	36608.12
646.182	36354.57
646.535	36332.65
646.888	36355.92
647.24	36288.13
647.593	36394.79
647.945	36270.95
648.298	36210.84
648.65	36279.99
649.002	36180.56
649.355	36285.64
649.707	36192.76
650.059	36433.89
650.411	36851.95
650.763	36812.63
651.115	37226.86
651.467	37137.82
651.819	37054.21
652.171	37041.55
652.523	36814.44
652.875	37056.47
653.227	36864.61
653.578	37079.97
653.93	37048.79
654.282	36872.75
654.633	36827.77
654.985	36847.21
655.337	36893.54
655.688	36845.85
656.039	36975.12
656.391	36638.85
656.742	36670.04
657.094	36881.33
657.445	36735.12
657.796	36916.13
658.147	36717.04
658.498	36709.13
658.849	36805.4
659.2	36827.1
659.551	36718.17
659.902	36722.92
660.253	36769.7
660.604	36759.53
660.955	36625.97
661.306	36706.87
661.656	36573.32
662.007	36630.27
662.358	36694.9
662.708	36715.69
663.059	36671.85
663.409	36509.14
663.76	36752.3
664.11	36595.24
664.461	36679.53
664.811	36715.91
665.161	36811.5
665.511	36611.96
665.862	36649.47
666.212	36892.63
666.562	36586.43
666.912	36678.4
667.262	36543.04
667.612	36625.97
667.962	36566.09
668.312	36568.12
668.662	36662.58
669.011	36533.09
669.361	36605.41
669.711	36549.59
670.06	36560.89
670.41	36402.93
670.76	36418.29
671.109	36590.94
671.459	36505.52
671.808	36430.27
672.157	36498.74
672.507	36253.55
672.856	36440.67
673.205	36279.77
673.554	36437.73
673.904	36405.86
674.253	36543.71
674.602	36286.32
674.951	35978.76
675.3	35714.81
675.649	36264.85
675.998	36146.44
676.346	36249.26
676.695	36355.92
677.044	36032.09
677.393	36346.43
677.741	36330.39
678.09	36178.3
678.438	36079.55
678.787	36140.56
679.135	36132.65
679.484	35939.89
679.832	35904.86
680.181	35818.76
680.529	35994.35
680.877	35855.37
681.225	35925.43
681.573	36207.68
681.922	35682.95
682.27	35742.15
682.618	35719.1
682.966	35534.25
683.314	35640.24
683.661	35629.16
684.009	35438.66
684.357	35335.16
684.705	35300.13
685.053	35348.49
685.4	35331.54
685.748	35072.11
686.095	35223.97
686.443	35117.09
686.79	34948.05
687.138	35133.81
687.485	34903.53
687.832	34895.85
688.18	34946.47
688.527	34775.63
688.874	34774.5
689.221	34648.85
689.568	34480.94
689.915	34471.45
690.262	34471.68
690.609	34426.93
690.956	34213.38
691.303	34266.03
691.65	34036.66
691.997	34026.04
692.344	33917.12
692.69	33835.54
693.037	33924.35
693.383	33720.74
693.73	33847.29
694.077	33532.27
694.423	33614.07
694.769	33501.53
695.116	33485.72
695.462	33403.01
695.808	33276.46
696.155	33284.36
696.501	32957.82
696.847	33092.96
697.193	32859.97
697.539	32998.95
697.885	32553.99
698.231	32610.26
698.577	32647.55
698.923	32490.71
699.269	32315.58
699.614	32322.36
699.96	32331.62
700.306	32326.2
700.651	32144.96
700.997	32132.08
701.342	32062.25
701.688	31944.51
702.033	32019.77
702.379	31944.29
702.724	31883.27
703.069	31881.01
703.415	31421.36
703.76	31504.3
704.105	31517.18
704.45	31331.42
704.795	31235.15
705.14	31129.39
705.485	31214.14
705.83	30992.67
706.175	30937.53
706.52	30876.74
706.865	30791.78
707.209	30763.08
707.554	30741.15
707.899	30724.66
708.243	30554.27
708.588	30552.01
708.932	30426.14
709.277	30286.7
709.621	30311.56
709.966	30221.39
710.31	30258.23
710.654	30020.27
710.998	29959.25
711.342	29994.73
711.687	29898.69
712.031	29848.52
712.375	29800.84
712.719	29821.41
713.063	29594.29
713.407	29818.92
713.75	29681.97
714.094	29551.36
714.438	29377.35
714.782	29399.27
715.125	29399.72
715.469	29481.75
715.812	29196.79
716.156	29101.2
716.499	29153.63
716.843	29238.82
717.186	28934.2
717.53	29096.9
717.873	29099.62
718.216	28961.99
718.559	28851.49
718.902	28667.09
719.246	28776.46
719.589	28727.65
719.932	28566.3
720.275	28635
720.617	28468.45
720.96	28539.63
721.303	28428.67
721.646	28446.53
721.989	28165.4
722.331	28419.63
722.674	28258.28
723.016	28165.4
723.359	28143.71
723.701	28131.73
724.044	27944.84
724.386	27827.33
724.729	28064.39
725.071	27903.04
725.413	27859.42
725.755	27876.37
726.097	27823.72
726.439	27648.81
726.782	27701.91
727.124	27684.51
727.465	27581.46
727.807	27473.44
728.149	27452.43
728.491	27448.59
728.833	27446.55
729.175	27396.38
729.516	27339.66
729.858	27446.33
730.199	27242.26
730.541	27126.79
730.882	27287.46
731.224	27272.32
731.565	27036.39
731.906	27057.64
732.248	27074.36
732.589	26884.76
732.93	26843.4
733.271	26894.93
733.612	26969.73
733.953	26912.56
734.294	26753.92
734.635	26756.18
734.976	26810.86
735.317	26580.59
735.658	26640.7
735.999	26555.95
736.339	26576.97
736.68	26641.38
737.021	26461.04
737.361	26356.86
737.702	26552.79
738.042	26537.42
738.383	26350.08
738.723	26377.65
739.063	26301.95
739.404	26361.38
739.744	26362.51
740.084	26151.22
740.424	26219.24
740.764	26139.24
741.104	26178.56
741.444	25968.85
741.784	25899.7
742.124	26137.66
742.464	25878.01
742.804	25917.55
743.143	25786.93
743.483	25837.78
743.823	25683.66
744.162	25750.33
744.502	25740.61
744.841	25586.49
745.181	25723.43
745.52	25561.63
745.86	25653.83
746.199	25549.65
746.538	25402.99
746.877	25473.95
747.216	25549.2
747.556	25406.83
747.895	25406.38
748.234	25304.91
748.573	25358.92
748.911	25277.34
749.25	25082.55
749.589	25203.45
749.928	25024.24
750.267	25207.06
750.605	24958.71
750.944	25021.98
751.283	24963.91
751.621	24873.74
751.96	24766.17
752.298	24786.51
752.636	24776.79
752.975	24640.98
753.313	24656.34
753.651	24649.79
753.989	24409.12
754.327	24538.38
754.666	24469.23
755.004	24431.94
755.342	24398.95
755.679	24413.41
756.017	24255
756.355	24186.53
756.693	24101.78
757.031	24182.68
757.368	23990.6
757.706	23950.6
758.044	23786.99
758.381	23897.04
758.719	23812.07
759.056	23850.49
759.394	23697.27
759.731	23675.35
760.068	23528.01
760.405	23464.51
760.743	23505.19
761.08	23494.34
761.417	23285.08
761.754	23213.22
762.091	23195.36
762.428	23012.32
762.765	22925.54
763.102	23040.79
763.438	22847.35
763.775	22792.89
764.112	22793.57
764.449	22929.38
764.785	22676.96
765.122	22609.62
765.458	22413.46
765.795	22350.42
766.131	22307.25
766.467	22298.21
766.804	22194.04
767.14	22029.75
767.476	22110.2
767.812	21968.5
768.148	21953.36
768.485	21835.85
768.821	21848.73
769.157	21598.8
769.492	21618.46
769.828	21599.93
770.164	21448.07
770.5	21427.95
770.836	21338.01
771.171	21259.6
771.507	21220.05
771.842	21077.45
772.178	21112.26
772.513	21009.43
772.849	20897.12
773.184	20851.47
773.519	20855.77
773.855	20760.4
774.19	20720.18
774.525	20522.67
774.86	20608.54
775.195	20510.46
775.53	20390.69
775.865	20341.88
776.2	20202.68
776.535	20132.39
776.87	20095.56
777.205	20041.1
777.539	19840.88
777.874	19895.11
778.209	19819.63
778.543	19604.27
778.878	19592.07
779.212	19612.18
779.547	19369.25
779.881	19506.2
780.215	19372.41
780.55	19360.66
780.884	19162.25
781.218	19155.7
781.552	19110.95
781.886	19042.93
782.22	18919.09
782.554	18962.48
782.888	18750.06
783.222	18725.65
783.556	18705.31
783.889	18534.7
784.223	18510.06
784.557	18495.83
784.89	18486.56
785.224	18233.69
785.557	18160.69
785.891	18190.75
786.224	18145.1
786.558	18111.88
786.891	17939.68
787.224	17896.29
787.557	17858.56
787.891	17796.86
788.224	17827.14
788.557	17760.93
788.89	17619.01
789.223	17652.69
789.556	17568.39
789.888	17425.12
790.221	17407.72
790.554	17239.14
790.887	17313.26
791.219	17274.62
791.552	17177.67
791.884	17054.51
792.217	17021.97
792.549	16978.58
792.882	16853.38
793.214	16862.88
793.546	16861.75
793.879	16732.94
794.211	16632.37
794.543	16703.33
794.875	16561.87
795.207	16505.6
795.539	16459.04
795.871	16420.18
796.203	16371.59
796.535	16262.44
796.867	16218.6
797.198	16184.25
797.53	16212.72
797.862	16055.67
798.193	16085.04
798.525	16036.23
798.856	16038.72
799.188	15799.4
799.519	15801.43
799.85	15695.45
800.182	15802.34
800.513	15633.3
800.844	15548.56
801.175	15582.46
801.506	15521.22
801.837	15494.32
802.168	15426.08
802.499	15462.69
802.83	15261.11
803.161	15363.25
803.491	15325.29
803.822	15248.23
804.153	15180.89
804.483	15028.8
804.814	15057.95
805.145	15055.47
805.475	14960.1
805.805	14853.44
806.136	14860.67
806.466	14907.9
806.796	14852.99
807.126	14692.09
807.457	14735.02
807.787	14665.65
808.117	14638.98
808.447	14601.69
808.777	14587.91
809.107	14533.67
809.436	14458.65
809.766	14471.07
810.096	14419.32
810.426	14367.35
810.755	14385.88
811.085	14320.57
811.414	14338.65
811.744	14167.13
812.073	14163.51
812.403	14091.88
812.732	14073.12
813.061	14106.34
813.39	13960.13
813.719	13946.34
814.049	14027.02
814.378	13961.94
814.707	13896.17
815.036	13879.45
815.365	13827.93
815.693	13665.9
816.022	13651.43
816.351	13672.23
816.68	13587.48
817.008	13698.67
817.337	13528.5
817.665	13544.32
817.994	13551.32
818.322	13582.96
818.651	13373.7
818.979	13425.45
819.307	13481.72
819.636	13329.18
819.964	13276.3
820.292	13263.42
820.62	13398.11
820.948	13350.2
821.276	13362.4
821.604	13191.33
821.932	13309.75
822.259	13293.25
822.587	13240.82
822.915	13193.37
823.243	13241.28
823.57	13173.03
823.898	13245.8
824.225	13173.03
824.553	13168.74
824.88	13190.2
825.207	13182.75
825.535	13271.11
825.862	13278.34
826.189	13172.58
826.516	13237.89
826.843	13269.75
827.17	13208.51
827.497	13264.1
827.824	13253.03
828.151	13242.18
828.478	13160.6
828.805	13290.99
829.131	13133.26
829.458	13086.03
829.785	13127.38
830.111	13049.19
830.438	13241.05
830.764	13176.87
831.09	13148.4
831.417	13041.28
831.743	13169.87
832.069	13154.27
832.395	13050.55
832.722	13102.52
833.048	13085.12
833.374	13143.2
833.7	13112.47
834.026	13112.24
834.351	13112.47
834.677	12988.85
835.003	13007.84
835.329	13065.01
835.654	12997.89
835.98	12989.76
836.306	12933.71
836.631	12905.24
836.956	12912.47
837.282	12989.31
837.607	12884.45
837.932	12832.25
838.258	12833.6
838.583	12818.01
838.908	12743.66
839.233	12754.28
839.558	12730.1
839.883	12621.86
840.208	12643.55
840.533	12686.49
840.858	12680.16
841.182	12630.9
841.507	12617.79
841.832	12563.33
842.156	12502.09
842.481	12488.98
842.805	12422.09
843.13	12436.1
843.454	12443.56
843.778	12362.43
844.103	12324.92
844.427	12300.06
844.751	12284.24
845.075	12233.84
845.399	12268.65
845.723	12213.28
846.047	12151.81
846.371	12099.61
846.695	12124.47
847.019	11937.81
847.343	11888.32
847.666	11910.24
847.99	11779.39
848.313	11844.48
848.637	11762.22
848.96	11741.2
849.284	11713.86
849.607	11576.91
849.931	11501.21
850.254	11487.42
850.577	11481.77
850.9	11399.74
851.223	11407.43
851.546	11330.82
851.869	11271.38
852.192	11343.02
852.515	11203.36
852.838	11135.79
853.161	11177.6
853.483	11084.27
853.806	11029.81
854.129	10987.32
854.451	10973.77
854.774	10968.12
855.096	10872.07
855.419	10850.15
855.741	10788.46
856.063	10787.56
856.385	10771.51
856.708	10743.49
857.03	10683.38
857.352	10674.79
857.674	10676.82
857.996	10656.03
858.318	10552.76
858.64	10559.99
858.961	10539.65
859.283	10493.33
859.605	10425.3
859.926	10422.59
860.248	10447
860.57	10310.73
860.891	10353.22
861.212	10331.3
861.534	10305.31
861.855	10250.17
862.176	10321.8
862.498	10321.58
862.819	10266.89
863.14	10183.96
863.461	10155.48
863.782	10108.25
864.103	10105.54
864.424	10109.83
864.745	10166.55
865.065	10120
865.386	10051.53
865.707	10070.29
866.027	10051.3
866.348	9961.81
866.668	10037.97
866.989	9981.47
867.309	9875.49
867.63	9919.78
867.95	9971.31
868.27	9895.6
868.59	9885.66
868.91	9794.81
869.23	9873.91
869.55	9835.94
869.87	9870.74
870.19	9799.33
870.51	9799.56
870.83	9733.8
871.15	9713.69
871.469	9665.55
871.789	9758.2
872.109	9714.82
872.428	9642.05
872.748	9705.78
873.067	9637.53
873.386	9673.46
873.706	9623.29
874.025	9609.28
874.344	9556.63
874.663	9539.23
874.982	9588.94
875.301	9506.69
875.62	9497.65
875.939	9476.4
876.258	9463.07
876.577	9444.09
876.896	9515.95
877.214	9426.01
877.533	9511.66
877.852	9449.96
878.17	9460.58
878.489	9404.99
878.807	9381.26
879.125	9386.91
879.444	9307.59
879.762	9320.7
880.08	9344.66
880.398	9296.97
880.716	9282.06
881.034	9218.33
881.352	9267.6
881.67	9287.71
881.988	9219.46
882.306	9150.99
882.624	9125.45
882.941	9143.98
883.259	9160.48
883.577	9095.4
883.894	9098.56
884.212	8981.28
884.529	9036.64
884.846	8993.03
885.164	8993.7
885.481	8972.69
885.798	8930.66
886.115	8898.57
886.432	8898.34
886.75	8914.84
887.067	8892.01
887.383	8826.02
887.7	8849.98
888.017	8792.13
888.334	8747.61
888.651	8795.74
888.967	8694.95
889.284	8661.28
889.6	8694.73
889.917	8628.74
890.233	8631.45
890.55	8570.21
890.866	8673.71
891.182	8584.22
891.498	8551.91
891.815	8474.85
892.131	8576.99
892.447	8432.36
892.763	8374.74
893.079	8438.24
893.395	8398.47
893.71	8364.34
894.026	8326.6
894.342	8354.85
894.657	8299.94
894.973	8251.35
895.289	8290.45
895.604	8244.12
895.92	8155.99
896.235	8122.09
896.55	8116.44
896.865	8078.47
897.181	8094.07
897.496	8102.88
897.811	7994.86
898.126	8021.53
898.441	7922.55
898.756	7908.31
899.071	7839.16
899.386	7931.59
899.7	7858.37
900.015	7747.86
900.33	7725.26
900.644	7748.31
900.959	7776.79
901.273	7800.97
901.588	7716
901.902	7655.89
902.216	7629.22
902.531	7621.54
902.845	7616.34
903.159	7550.58
903.473	7458.83
903.787	7481.88
904.101	7431.94
904.415	7462.22
904.729	7373.63
905.042	7422.22
905.356	7306.74
905.67	7342.22
905.984	7285.73
906.297	7273.3
906.611	7165.5
906.924	7240.3
907.237	7143.36
907.551	7188.1
907.864	7111.49
908.177	7139.74
908.491	7091.83
908.804	7026.3
909.117	7039.18
909.43	6932.97
909.743	6938.17
910.056	6937.49
910.368	6949.69
910.681	6888.45
910.994	6845.06
911.307	6839.64
911.619	6746.98
911.932	6769.13
912.244	6735.46
912.557	6725.74
912.869	6688.91
913.181	6614.78
913.494	6665.4
913.806	6650.26
914.118	6609.59
914.43	6568.23
914.742	6506.76
915.054	6516.26
915.366	6466.99
915.678	6433.32
915.99	6412.08
916.302	6383.6
916.613	6376.6
916.925	6330.5
917.236	6363.49
917.548	6254.12
917.859	6257.5
918.171	6224.06
918.482	6222.03
918.794	6192.65
919.105	6220.9
919.416	6128.92
919.727	6098.87
920.038	6132.54
920.349	6027.91
920.66	6027.91
920.971	6057.28
921.282	6004.18
921.593	5912.66
921.903	5972.31
922.214	5958.98
922.525	5917.63
922.835	5909.94
923.146	5837.18
923.456	5825.88
923.767	5766.22
924.077	5731.42
924.387	5775.48
924.697	5683.06
925.008	5655.03
925.318	5627.24
925.628	5686.22
925.938	5613.23
926.248	5584.75
926.558	5576.84
926.867	5570.97
927.177	5518.09
927.487	5491.2
927.796	5489.62
928.106	5432.22
928.416	5469.96
928.725	5435.61
929.034	5411.65
929.344	5441.03
929.653	5328.49
929.962	5272.67
930.271	5303.63
930.581	5285.55
930.89	5213.24
931.199	5248.72
931.508	5220.92
931.817	5158.55
932.125	5179.34
932.434	5206.46
932.743	5128.95
933.051	5069.51
933.36	5069.06
933.669	5033.58
933.977	5032.68
934.286	5021.83
934.594	5026.58
934.902	4983.64
935.21	4921.72
935.519	4953.13
935.827	4918.33
936.135	4882.4
936.443	4825
936.751	4815.73
937.059	4810.09
937.367	4767.15
937.674	4832.01
937.982	4792.23
938.29	4796.98
938.597	4706.13
938.905	4696.42
939.213	4663.2
939.52	4643.99
939.827	4638.79
940.135	4592.69
940.442	4632.91
940.749	4604.67
941.056	4599.7
941.363	4534.61
941.67	4558.57
941.977	4507.49
942.284	4483.54
942.591	4477.21
942.898	4474.28
943.205	4431.56
943.511	4406.48
943.818	4389.76
944.125	4373.49
944.431	4376.2
944.738	4339.82
945.044	4292.58
945.35	4313.6
945.657	4326.48
945.963	4269.99
946.269	4220.5
946.575	4245.81
946.881	4178.69
947.187	4204.23
947.493	4194.73
947.799	4162.64
948.105	4152.7
948.41	4114.51
948.716	4111.35
949.022	4073.83
949.327	4124.91
949.633	4042.87
949.938	4026.83
950.244	4026.15
950.549	3987.51
950.854	4003.55
951.16	3994.74
951.465	3945.7
951.77	3946.38
952.075	3908.19
952.38	3909.54
952.685	3886.27
952.99	3847.4
953.294	3882.43
953.599	3799.49
953.904	3790
954.209	3769.21
954.513	3788.42
954.818	3754.29
955.122	3781.64
955.426	3714.29
955.731	3664.58
956.035	3681.98
956.339	3627.97
956.643	3695.09
956.948	3632.49
957.252	3655.09
957.556	3687.18
957.86	3597.24
958.163	3622.55
958.467	3548.42
958.771	3565.15
959.075	3540.97
959.378	3572.15
959.682	3540.74
959.985	3492.15
960.289	3507.97
960.592	3456.45
960.896	3453.51
961.199	3430.01
961.502	3404.02
961.805	3417.81
962.108	3423
962.411	3368.09
962.714	3371.25
963.017	3343.01
963.32	3373.51
963.623	3351.82
963.926	3335.77
964.228	3305.27
964.531	3289.67
964.833	3316.79
965.136	3253.52
965.438	3214.2
965.741	3223.01
966.043	3207.64
966.345	3180.75
966.648	3175.78
966.95	3175.33
967.252	3162.45
967.554	3116.34
967.856	3096.91
968.158	3098.04
968.46	3086.74
968.761	3086.06
969.063	3087.42
969.365	3059.62
969.666	3037.02
969.968	3043.8
970.269	3023.01
970.571	3044.26
970.872	2982.34
971.174	2966.74
971.475	2996.35
971.776	2952.73
972.077	2919.97
972.378	2919.74
972.679	2888.1
972.98	2887.42
973.281	2907.99
973.582	2878.61
973.883	2877.71
974.183	2847.43
974.484	2830.25
974.785	2813.98
975.085	2813.53
975.386	2815.56
975.686	2745.73
975.986	2775.34
976.287	2771.95
976.587	2774.66
976.887	2735.11
977.187	2715.68
977.487	2739.63
977.787	2669.8
978.087	2670.93
978.387	2653.08
978.687	2673.87
978.987	2649.92
979.286	2632.97
979.586	2628
979.885	2607.21
980.185	2624.38
980.484	2616.47
980.784	2618.5
981.083	2581.44
981.382	2593.19
981.682	2602.23
981.981	2576.25
982.28	2548.45
982.579	2538.73
982.878	2548.22
983.177	2532.63
983.475	2492.41
983.774	2492.63
984.073	2476.36
984.372	2479.53
984.67	2447.66
984.969	2458.73
985.267	2444.95
985.566	2418.51
985.864	2413.99
986.162	2426.65
986.461	2409.47
986.759	2410.6
987.057	2388.68
987.355	2317.5
987.653	2354.56
987.951	2319.08
988.249	2359.08
988.547	2338.51
988.844	2306.65
989.142	2310.94
989.44	2264.16
989.737	2262.81
990.035	2239.08
990.332	2273.2
990.63	2260.77
990.927	2232.3
991.224	2235.92
991.521	2210.38
991.819	2202.02
992.116	2177.61
992.413	2181.45
992.71	2163.15
993.006	2194.56
993.303	2152.75
993.6	2129.48
993.897	2125.18
994.193	2130.38
994.49	2090.16
994.787	2074.79
995.083	2106.2
995.379	2094.9
995.676	2066.88
995.972	2056.03
996.268	2039.99
996.565	2043.15
996.861	2051.29
997.157	2039.31
997.453	1996.6
997.749	2012.19
998.044	1987.33
998.34	1960.89
998.636	1975.81
998.932	1983.04
999.227	1921.12
999.523	1957.51
999.818	1952.08
1000.114	1935.81
1000.409	1924.06
1000.704	1887.45
1001	1899.43
1001.295	1896.04
1001.59	1873.89
1001.885	1876.15
1002.18	1861.69
1002.475	1837.96
1002.77	1828.69
1003.065	1840.9
1003.359	1828.69
1003.654	1841.35
1003.949	1793.67
1004.243	1811.07
1004.538	1777.4
1004.832	1803.16
1005.127	1787.57
1005.421	1728.81
1005.715	1750.28
1006.009	1721.13
1006.304	1743.73
1006.598	1694.01
1006.892	1726.32
1007.186	1686.1
1007.48	1695.82
1007.773	1675.7
1008.067	1659.43
1008.361	1642.94
1008.655	1670.28
1008.948	1635.71
1009.242	1623.73
1009.535	1647.68
1009.829	1607.23
1010.122	1594.8
1010.415	1585.99
1010.708	1589.83
1011.001	1595.48
1011.295	1595.71
1011.588	1597.97
1011.881	1560.23
1012.173	1556.39
1012.466	1527.46
1012.759	1518.87
1013.052	1524.97
1013.344	1529.04
1013.637	1511.87
1013.93	1498.53
1014.222	1498.08
1014.514	1489.04
1014.807	1465.09
1015.099	1462.83
1015.391	1471.64
1015.683	1420.57
1015.976	1423.06
1016.268	1446.11
1016.56	1417.18
1016.851	1412.43
1017.143	1397.97
1017.435	1413.34
1017.727	1395.26
1018.018	1397.75
1018.31	1405.88
1018.602	1359.33
1018.893	1377.86
1019.185	1335.6
1019.476	1318.43
1019.767	1357.29
1020.058	1305.77
1020.35	1314.36
1020.641	1299.44
1020.932	1301.7
1021.223	1271.65
1021.514	1279.78
1021.804	1318.43
1022.095	1261.48
1022.386	1241.37
1022.677	1253.79
1022.967	1256.05
1023.258	1210.86
1023.548	1256.96
1023.839	1242.5
1024.129	1202.5
1024.419	1211.31
1024.709	1212.21
1025	1176.06
1025.29	1175.38
1025.58	1167.47
1025.87	1131.31
1026.16	1169.28
1026.449	1162.72
1026.739	1145.55
1027.029	1155.04
1027.319	1148.26
1027.608	1117.3
1027.898	1098.77
1028.187	1100.8
1028.477	1100.58
1028.766	1114.36
1029.055	1116.17
1029.344	1087.25
1029.634	1101.03
1029.923	1084.53
1030.212	1033.01
1030.501	1050.41
1030.79	1043.86
1031.078	1037.08
1031.367	1052.67
1031.656	1046.79
1031.945	1011.32
1032.233	1017.64
1032.522	1003.86
1032.81	999.34
1033.099	998.89
1033.387	985.33
1033.675	978.77
1033.963	990.75
1034.251	977.64
1034.54	977.87
1034.828	939
1035.116	970.41
1035.403	942.62
1035.691	930.19
1035.979	918.44
1036.267	940.81
1036.554	922.28
1036.842	914.14
1037.129	936.29
1037.417	904.2
1037.704	925.89
1037.992	905.33
1038.279	888.38
1038.566	858.32
1038.853	858.32
1039.14	858.32
