Data from hue_26_FLMS001491_00038.txt Node
Date: Tue Feb 07 17:13:55 GMT 2017
User: dcchb
Spectrometer: FLMS00149
Trigger mode: 0
Integration Time (sec): 2.000000E-2
Scans to average: 10
Electric dark correction enabled: true
Nonlinearity correction enabled: false
Boxcar width: 0
XAxis mode: Wavelengths
Number of Pixels in Spectrum: 2048
>>>>>Begin Spectral Data<<<<<
341.393	-25.58
341.776	-25.58
342.16	-25.58
342.543	-54.96
342.927	-76.42
343.31	-69.65
343.693	-72.81
344.077	-73.49
344.46	-59.25
344.843	-64.22
345.226	-49.98
345.61	-18.57
345.993	-21.06
346.376	0.64
346.759	27.75
347.142	27.75
347.525	33.18
347.908	71.37
348.291	70.92
348.674	104.59
349.057	92.84
349.44	137.81
349.823	136.45
350.206	194.3
350.588	199.95
350.971	197.47
351.354	238.6
351.737	230.01
352.119	238.37
352.502	279.95
352.884	293.74
353.267	271.14
353.65	294.64
354.032	305.03
354.414	298.03
354.797	314.98
355.179	312.94
355.562	317.24
355.944	329.44
356.326	326.95
356.709	333.73
357.091	324.92
357.473	337.35
357.855	342.55
358.238	343.23
358.62	332.83
359.002	352.72
359.384	326.28
359.766	331.7
360.148	340.06
360.53	340.97
360.912	336.9
361.294	328.99
361.676	322.89
362.057	340.06
362.439	338.93
362.821	332.38
363.203	324.02
363.584	336.9
363.966	329.67
364.348	310.46
364.729	314.07
365.111	315.2
365.493	314.53
365.874	326.28
366.256	304.36
366.637	319.27
367.019	312.72
367.4	326.05
367.781	290.8
368.163	335.09
368.544	304.58
368.925	321.53
369.306	307.97
369.688	309.78
370.069	312.72
370.45	311.81
370.831	313.17
371.212	323.11
371.593	335.99
371.974	333.28
372.355	325.37
372.736	318.59
373.117	311.14
373.498	316.33
373.879	310.46
374.26	324.02
374.641	319.95
375.021	317.01
375.402	305.49
375.783	337.12
376.163	317.24
376.544	330.12
376.925	335.99
377.305	311.81
377.686	335.77
378.066	318.37
378.447	345.03
378.827	348.2
379.208	331.47
379.588	306.39
379.968	338.25
380.349	312.94
380.729	347.07
381.109	348.65
381.489	349.33
381.87	339.38
382.25	335.32
382.63	361.3
383.01	358.37
383.39	340.51
383.77	354.75
384.15	356.11
384.53	331.02
384.91	335.99
385.29	350.91
385.67	359.27
386.049	346.84
386.429	334.86
386.809	356.33
387.189	350
387.568	363.34
387.948	366.28
388.328	371.47
388.707	371.93
389.087	351.59
389.466	369.67
389.846	356.78
390.225	382.77
390.605	361.76
390.984	352.72
391.363	366.95
391.743	371.25
392.122	374.41
392.501	376.9
392.881	381.42
393.26	388.87
393.639	372.15
394.018	378.93
394.397	393.62
394.776	378.03
395.155	399.72
395.534	371.02
395.913	386.39
396.292	383.68
396.671	377.57
397.05	400.85
397.429	365.82
397.808	383.68
398.186	361.3
398.565	384.13
398.944	401.08
399.323	375.54
399.701	411.25
400.08	380.06
400.458	404.47
400.837	405.82
401.215	401.53
401.594	392.72
401.972	393.39
402.351	410.12
402.729	401.98
403.107	432.94
403.486	444.24
403.864	413.51
404.242	434.07
404.62	412.38
404.999	430.91
405.377	409.44
405.755	407.4
406.133	427.74
406.511	425.48
406.889	439.04
407.267	442.21
407.645	435.88
408.023	425.71
408.401	439.95
408.779	432.04
409.156	442.43
409.534	460.74
409.912	457.8
410.29	486.95
410.667	458.7
411.045	448.08
411.422	474.3
411.8	456.22
412.178	473.39
412.555	469.78
412.933	463
413.31	492.37
413.687	475.65
414.065	488.53
414.442	483.11
414.819	481.07
415.197	476.33
415.574	492.15
415.951	488.98
416.328	484.69
416.705	518.36
417.082	487.85
417.46	499.83
417.837	509.32
418.214	517.91
418.591	506.84
418.967	523.56
419.344	536.67
419.721	530.57
420.098	503.67
420.475	524.24
420.852	536.44
421.228	504.8
421.605	521.53
421.982	534.63
422.358	544.35
422.735	558.36
423.111	544.12
423.488	540.51
423.864	529.66
424.241	562.88
424.617	561.07
424.994	550.9
425.37	579.15
425.746	576.44
426.123	559.04
426.499	578.7
426.875	580.96
427.251	588.64
427.627	588.64
428.003	592.26
428.379	586.16
428.756	582.32
429.132	622.31
429.507	636.55
429.883	617.34
430.259	619.15
430.635	621.18
431.011	635.2
431.387	629.55
431.763	641.07
432.138	671.35
432.514	653.73
432.89	651.01
433.265	650.79
433.641	679.26
434.016	690.56
434.392	672.03
434.767	686.95
435.143	695.53
435.518	709.32
435.894	700.96
436.269	701.86
436.644	717
437.02	728.98
437.395	713.39
437.77	732.82
438.145	716.1
438.52	730.79
438.895	753.84
439.271	744.12
439.646	744.8
440.021	747.96
440.395	747.96
440.77	775.76
441.145	784.12
441.52	791.12
441.895	790.67
442.27	784.8
442.645	791.35
443.019	789.09
443.394	798.13
443.769	822.76
444.143	790.9
444.518	809.43
444.892	817.56
445.267	818.47
445.641	825.02
446.016	809.43
446.39	819.6
446.764	844.46
447.139	851.23
447.513	825.25
447.887	852.82
448.262	846.49
448.636	842.2
449.01	877.45
449.384	851.46
449.758	886.49
450.132	884.91
450.506	863.44
450.88	890.56
451.254	886.04
451.628	901.4
452.002	904.57
452.376	904.79
452.75	917
453.123	914.51
453.497	912.48
453.871	921.29
454.244	957.22
454.618	968.75
454.992	951.35
455.365	976.43
455.739	984.56
456.112	1008.52
456.486	995.41
456.859	995.41
457.232	1018.91
457.606	1054.39
457.979	1046.71
458.352	1046.48
458.725	1069.08
459.099	1069.31
459.472	1088.97
459.845	1104.11
460.218	1103.66
460.591	1115.63
460.964	1101.62
461.337	1133.04
461.71	1159.25
462.083	1161.28
462.456	1181.62
462.829	1178.46
463.201	1194.28
463.574	1209.19
463.947	1227.5
464.32	1227.72
464.692	1250.55
465.065	1222.52
465.438	1284.44
465.81	1307.27
466.183	1316.76
466.555	1330.54
466.928	1320.83
467.3	1325.12
467.672	1368.51
468.045	1386.36
468.417	1377.1
468.789	1414.61
469.161	1407.6
469.534	1465.23
469.906	1493.03
470.278	1461.61
470.65	1489.41
471.022	1535.51
471.394	1543.87
471.766	1570.54
472.138	1579.35
472.51	1591.33
472.882	1631.33
473.253	1662.74
473.625	1670.2
473.997	1698.22
474.369	1727.14
474.74	1731.89
475.112	1779.8
475.484	1843.3
475.855	1841.72
476.227	1857.54
476.598	1931.66
476.97	1958.78
477.341	1959.23
477.713	2027.02
478.084	2037.19
478.455	2102.28
478.827	2132.56
479.198	2185.21
479.569	2184.31
479.94	2271.31
480.311	2285.1
480.682	2319.44
481.053	2397.41
481.424	2440.35
481.795	2468.37
482.166	2506.11
482.537	2535.26
482.908	2602.6
483.279	2650.96
483.65	2676.95
484.021	2749.26
484.391	2789.04
484.762	2862.93
485.133	2847.79
485.503	2931.41
485.874	3002.82
486.244	3074.45
486.615	3085.75
486.985	3130.5
487.356	3215.01
487.726	3235.35
488.097	3364.39
488.467	3341.34
488.837	3428.12
489.207	3431.28
489.578	3526.42
489.948	3578.85
490.318	3673.31
490.688	3654.1
491.058	3708.33
491.428	3769.12
491.798	3847.31
492.168	3872.17
492.538	3951.72
492.908	3996.91
493.278	4026.07
493.648	4078.49
494.017	4141.54
494.387	4121.66
494.757	4211.6
495.126	4294.31
495.496	4286.4
495.866	4359.62
496.235	4367.53
496.605	4405.94
496.974	4458.37
497.344	4472.61
497.713	4524.36
498.082	4542.44
498.452	4637.35
498.821	4650.91
499.19	4711.02
499.559	4736.56
499.928	4744.47
500.298	4768.42
500.667	4852.71
501.036	4836.44
501.405	4920.28
501.774	4882.32
502.143	4945.36
502.512	5054.97
502.88	5022.88
503.249	5030.79
503.618	5102.87
503.987	5093.38
504.356	5156.43
504.724	5213.15
505.093	5216.77
505.462	5176.54
505.83	5238.69
506.199	5253.15
506.567	5346.48
506.936	5385.13
507.304	5396.43
507.672	5416.54
508.041	5497.67
508.409	5493.6
508.777	5519.81
509.145	5562.52
509.514	5564.11
509.882	5553.94
510.25	5597.55
510.618	5647.27
510.986	5680.71
511.354	5735.4
511.722	5788.73
512.09	5814.04
512.458	5783.76
512.826	5807.26
513.193	5886.36
513.561	5863.98
513.929	5889.75
514.297	5963.87
514.664	5974.49
515.032	6012.45
515.4	6068.95
515.767	6114.6
516.135	6075.73
516.502	6051.32
516.869	6200.7
517.237	6113.92
517.604	6157.99
517.972	6197.53
518.339	6222.84
518.706	6260.13
519.073	6256.29
519.44	6289.06
519.808	6348.27
520.175	6343.75
520.542	6356.4
520.909	6429.62
521.276	6461.26
521.643	6489.96
522.009	6524.31
522.376	6569.05
522.743	6602.95
523.11	6635.49
523.477	6702.83
523.843	6715.71
524.21	6768.59
524.577	6848.59
524.943	6876.39
525.31	6897.63
525.676	6905.09
526.043	6966.1
526.409	6975.14
526.776	7029.38
527.142	7064.63
527.508	7100.11
527.874	7206.55
528.241	7136.72
528.607	7153.67
528.973	7265.3
529.339	7307.34
529.705	7332.42
530.071	7320.67
530.437	7372.65
530.803	7421.23
531.169	7495.35
531.535	7508.91
531.901	7516.82
532.267	7563.37
532.632	7656.48
532.998	7606.31
533.364	7709.81
533.73	7689.25
534.095	7787.55
534.461	7765.86
534.826	7822.58
535.192	7845.63
535.557	7912.29
535.923	7845.63
536.288	7897.83
536.653	7990.93
537.019	7961.78
537.384	7971.05
537.749	7970.6
538.114	8063.25
538.479	8101.21
538.845	8138.27
539.21	8115.68
539.575	8198.84
539.94	8232.74
540.305	8291.04
540.67	8242.68
541.034	8316.58
541.399	8355.9
541.764	8395.9
542.129	8356.35
542.494	8404.26
542.858	8505.95
543.223	8481.77
543.587	8529.9
543.952	8578.72
544.316	8663.01
544.681	8562.44
545.045	8671.37
545.41	8700.75
545.774	8750.46
546.138	8724.02
546.503	8768.54
546.867	8791.59
547.231	8830.91
547.595	8858.03
547.959	8950.23
548.324	8889.67
548.688	8929.44
549.052	9063.9
549.416	9043.56
549.779	9001.3
550.143	9037.46
550.507	9096.67
550.871	9124.92
551.235	9133.95
551.599	9286.95
551.962	9188.42
552.326	9257.12
552.689	9350.22
553.053	9267.96
553.417	9354.06
553.78	9468.18
554.143	9388.86
554.507	9381.41
554.87	9470.44
555.234	9586.82
555.597	9498.46
555.96	9449.65
556.323	9502.53
556.686	9578.01
557.05	9698.46
557.413	9685.35
557.776	9737.1
558.139	9805.58
558.502	9729.19
558.865	9861.62
559.228	9844.9
559.59	9874.95
559.953	9865.23
560.316	10074.95
560.679	10014.16
561.041	10049.41
561.404	10106.58
561.767	10141.16
562.129	10112.01
562.492	10249.86
562.854	10195.4
563.217	10264.55
563.579	10246.47
563.941	10328.73
564.304	10378.22
564.666	10419.12
565.028	10433.36
565.39	10519.23
565.753	10523.97
566.115	10545.67
566.477	10590.87
566.839	10633.58
567.201	10653.69
567.563	10642.62
567.925	10726.46
568.287	10725.1
568.648	10763.52
569.01	10796.28
569.372	10905.43
569.734	10904.98
570.095	10918.31
570.457	10976.39
570.819	11072.66
571.18	11135.71
571.542	11196.27
571.903	11215.03
572.265	11198.53
572.626	11292.32
572.987	11344.97
573.349	11430.62
573.71	11518.75
574.071	11573.21
574.432	11598.52
574.794	11697.5
575.155	11688.24
575.516	11652.31
575.877	11843.49
576.238	11867.22
576.599	11986.31
576.96	11991.28
577.32	12154.67
577.681	12288.9
578.042	12313.76
578.403	12384.26
578.763	12516.69
579.124	12644.6
579.485	12680.98
579.845	12814.08
580.206	12893.63
580.566	13037.13
580.927	13214.75
581.287	13367.52
581.648	13369.55
582.008	13599.6
582.368	13621.97
582.728	13874.17
583.089	13881.4
583.449	14095.86
583.809	14301.5
584.169	14534.72
584.529	14629.18
584.889	14953.69
585.249	15134.02
585.609	15170.86
585.969	15437.07
586.329	15716.61
586.688	15921.8
587.048	16100.33
587.408	16255.58
587.768	16565.85
588.127	16741.21
588.487	16973.52
588.846	17321.31
589.206	17442.44
589.565	17819.38
589.925	18092.36
590.284	18347.05
590.643	18542.52
591.003	18878.78
591.362	19168.95
591.721	19332.1
592.08	19732.55
592.44	20023.39
592.799	20306.32
593.158	20576.14
593.517	20789.24
593.876	21198.27
594.235	21387.42
594.593	21609.56
594.952	22041.64
595.311	22238.69
595.67	22520.04
596.029	23058.33
596.387	23290.87
596.746	23705.32
597.104	23862.16
597.463	24036.61
597.822	24470.27
598.18	24667.56
598.538	25009.47
598.897	25395.9
599.255	25493.3
599.613	26138.93
599.972	26205.82
600.33	26651.23
600.688	26831.12
601.046	27207.15
601.404	27500.93
601.762	27758.55
602.12	28203.06
602.478	28419.1
602.836	28741.35
603.194	28820.22
603.552	28970.72
603.91	29282.58
604.268	29775.45
604.625	29771.15
604.983	30177.47
605.341	30362.55
605.698	30740.17
606.056	31088.86
606.413	31271.68
606.771	31578.79
607.128	31876.63
607.485	31915.5
607.843	32149.17
608.2	32586.22
608.557	32856.27
608.914	32863.05
609.272	33256.94
609.629	33584.61
609.986	33955.9
610.343	33847.88
610.7	34346.4
611.057	34412.39
611.414	34523.12
611.771	34950.23
612.127	35120.62
612.484	35215.75
612.841	35505.01
613.198	35631.56
613.554	35825.46
613.911	36184.99
614.267	36338.66
614.624	36372.11
614.98	36492.11
615.337	36952.43
615.693	36968.93
616.05	37118.98
616.406	37507.45
616.762	37397.62
617.118	37630.15
617.475	37692.3
617.831	37968.22
618.187	38063.36
618.543	38105.4
618.899	38671.48
619.255	38560.3
619.611	38627.64
619.967	38893.85
620.323	39045.48
620.678	39077.12
621.034	38995.77
621.39	39280.73
621.746	39335.65
622.101	39682.3
622.457	39504.23
622.812	39751.45
623.168	39919.81
623.523	39956.2
623.879	40243.42
624.234	40080.71
624.589	40217.43
624.945	40336.98
625.3	40518.21
625.655	40621.49
626.01	40582.17
626.365	40654.71
626.72	40702.16
627.075	40797.75
627.43	40828.49
627.785	40737.42
628.14	41020.12
628.495	41020.57
628.85	41168.37
629.205	40918.43
629.559	41225.99
629.914	41094.47
630.269	41222.15
630.623	41291.08
630.978	41140.34
631.332	41432.09
631.687	41403.39
632.041	41474.12
632.396	41460.56
632.75	41438.87
633.104	41405.87
633.459	41303.28
633.813	41437.74
634.167	41380.56
634.521	41448.13
634.875	41687.9
635.229	41502.37
635.583	41422.15
635.937	41323.16
636.291	41383.28
636.645	41421.47
636.999	41404.07
637.352	41570.16
637.706	41301.7
638.06	41579.88
638.413	41422.15
638.767	41454.01
639.121	41540.79
639.474	41319.32
639.828	41373.11
640.181	41450.62
640.534	41503.73
640.888	41330.4
641.241	41301.02
641.594	41299.89
641.947	41495.36
642.301	41330.62
642.654	41281.81
643.007	41377.63
643.36	41280
643.713	41288.36
644.066	41401.13
644.419	41248.82
644.771	40875.27
645.124	40634.14
645.477	40477.54
645.83	40204.55
646.182	40240.93
646.535	40107.83
646.888	40278.45
647.24	40011.33
647.593	40089.3
647.945	40157.32
648.298	39978.57
648.65	40030.32
649.002	39892.24
649.355	40101.5
649.707	39950.09
650.059	40158.22
650.411	40698.55
650.763	40746.68
651.115	41154.13
651.467	40937.41
651.819	40953.46
652.171	40885.21
652.523	40887.92
652.875	40769.06
653.227	40607.03
653.578	41064.64
653.93	40938.99
654.282	40596.4
654.633	40529.74
654.985	40579.23
655.337	40669.62
655.688	40695.84
656.039	40801.82
656.391	40539.23
656.742	40650.87
657.094	40735.61
657.445	40754.37
657.796	40673.92
658.147	40644.31
658.498	40573.13
658.849	40673.46
659.2	40557.76
659.551	40503.07
659.902	40543.98
660.253	40439.8
660.604	40651.54
660.955	40520.25
661.306	40537.2
661.656	40454.49
662.007	40575.39
662.358	40468.27
662.708	40468.95
663.059	40572
663.409	40319.12
663.76	40619.68
664.11	40635.5
664.461	40517.54
664.811	40414.49
665.161	40486.58
665.511	40525.45
665.862	40472.57
666.212	40513.69
666.562	40410.65
666.912	40412.68
667.262	40210.88
667.612	40431.21
667.962	40437.31
668.312	40460.14
668.662	40470.53
669.011	40400.48
669.361	40314.83
669.711	40357.31
670.06	40381.04
670.41	40301.72
670.76	40200.71
671.109	40367.26
671.459	40339.01
671.808	40136.08
672.157	40324.32
672.507	40015.18
672.856	40140.15
673.205	40202.52
673.554	40223.76
673.904	40109.64
674.253	40346.92
674.602	40135.17
674.951	39666.71
675.3	39401.63
675.649	40247.71
675.998	40107.15
676.346	40110.09
676.695	40150.09
677.044	39906.48
677.393	39996.87
677.741	40074.38
678.09	40009.75
678.438	39805.69
678.787	39866.71
679.135	39764.56
679.484	39559.14
679.832	39845.69
680.181	39487.51
680.529	39650.89
680.877	39527.28
681.225	39513.72
681.573	39723.88
681.922	39501.52
682.27	39259.04
682.618	39304.23
682.966	39230.34
683.314	39364.35
683.661	39286.38
684.009	39071.25
684.357	39031.25
684.705	39017.69
685.053	39092.94
685.4	39025.6
685.748	38818.6
686.095	38825.15
686.443	38702.44
686.79	38698.83
687.138	38740.86
687.485	38692.05
687.832	38581.99
688.18	38608.66
688.527	38332.28
688.874	38264.26
689.221	38397.37
689.568	38196.92
689.915	38086.41
690.262	38076.92
690.609	37915.34
690.956	37911.28
691.303	37896.59
691.65	37683.94
691.997	37626.99
692.344	37434.23
692.69	37499.54
693.037	37432.42
693.383	37135.48
693.73	37344.74
694.077	36944.52
694.423	37012.77
694.769	36994.92
695.116	36823.4
695.462	36879.67
695.808	36696.17
696.155	36718.99
696.501	36503.4
696.847	36559.67
697.193	36314.71
697.539	36387.02
697.885	36187.93
698.231	35942.52
698.577	36188.61
698.923	35991.33
699.269	35866.13
699.614	35671.79
699.96	35557.89
700.306	35557.89
700.651	35436.09
700.997	35285.36
701.342	35270.67
701.688	35288.3
702.033	35198.35
702.379	35124.01
702.724	35108.19
703.069	35011.69
703.415	34697.35
703.76	34818.93
704.105	34988.64
704.45	34615.54
704.795	34544.36
705.14	34359.05
705.485	34227.98
705.83	34338.26
706.175	34343.46
706.52	34166.29
706.865	34030.7
707.209	34052.17
707.554	33867.99
707.899	33854.89
708.243	33630.03
708.588	33755.91
708.932	33582.13
709.277	33538.96
709.621	33571.73
709.966	33239.08
710.31	33385.97
710.654	33054
710.998	33245.64
711.342	33153.89
711.687	33091.97
712.031	32803.16
712.375	32793.45
712.719	32946.89
713.063	32735.14
713.407	32873.67
713.75	32685.88
714.094	32680
714.438	32540.8
714.782	32468.93
715.125	32242.27
715.469	32451.99
715.812	32289.73
716.156	32119.34
716.499	32227.58
716.843	32167.93
717.186	31982.62
717.53	32170.86
717.873	31966.35
718.216	31974.94
718.559	31896.29
718.902	31579.92
719.246	31735.17
719.589	31579.24
719.932	31478.23
720.275	31513.71
720.617	31488.17
720.96	31515.29
721.303	31453.82
721.646	31434.61
721.989	31177.67
722.331	31372.69
722.674	31226.93
723.016	31210.21
723.359	31059.71
723.701	31146.71
724.044	30894.74
724.386	30755.99
724.729	31048.86
725.071	30875.3
725.413	30790.11
725.755	30852.93
726.097	30719.83
726.439	30575.88
726.782	30566.16
727.124	30704.01
727.465	30598.48
727.807	30551.47
728.149	30444.13
728.491	30296.11
728.833	30337.92
729.175	30110.13
729.516	30232.38
729.858	30102.44
730.199	30183.8
730.541	30043.91
730.882	30122.78
731.224	30068.09
731.565	29967.53
731.906	29922.79
732.248	29973.18
732.589	29894.31
732.93	29703.81
733.271	29854.77
733.612	29752.4
733.953	29839.63
734.294	29689.8
734.635	29612.74
734.976	29749.23
735.317	29496.36
735.658	29406.19
735.999	29480.31
736.339	29323.25
736.68	29442.35
737.021	29289.13
737.361	29342.46
737.702	29379.52
738.042	29229.92
738.383	29203.71
738.723	29339.3
739.063	29143.6
739.404	29161.45
739.744	29088.46
740.084	28846.66
740.424	28974.34
740.764	28835.36
741.104	28932.98
741.444	28841.46
741.784	28744.96
742.124	28840.78
742.464	28674.46
742.804	28778.86
743.143	28566.44
743.483	28646.44
743.823	28435.37
744.162	28508.59
744.502	28421.81
744.841	28252.55
745.181	28444.86
745.52	28381.13
745.86	28366.67
746.199	28420.45
746.538	28232.44
746.877	28417.52
747.216	28344.52
747.556	28296.61
747.895	28250.06
748.234	28136.62
748.573	28088.26
748.911	27950.41
749.25	27998.77
749.589	27853.69
749.928	27940.24
750.267	27938.21
750.605	27817.53
750.944	27846.91
751.283	27667.03
751.621	27733.92
751.96	27481.72
752.298	27486.01
752.636	27596.07
752.975	27496.18
753.313	27366.7
753.651	27494.38
753.989	27281.05
754.327	27197.66
754.666	27135.97
755.004	27248.96
755.342	27124.44
755.679	27043.77
756.017	27058.68
756.355	27098.45
756.693	26914.05
757.031	26971.45
757.368	26732.14
757.706	26809.2
758.044	26721.06
758.381	26804.45
758.719	26522.65
759.056	26636.09
759.394	26506.38
759.731	26277.01
760.068	26336.44
760.405	26287.63
760.743	26079.72
761.08	26105.03
761.417	25970.8
761.754	26018.71
762.091	25973.06
762.428	25828.43
762.765	25644.03
763.102	25799.51
763.438	25558.61
763.775	25480.19
764.112	25455.56
764.449	25427.99
764.785	25421.44
765.122	25281.55
765.458	25203.36
765.795	25052.86
766.131	25074.55
766.467	24958.4
766.804	24897.61
767.14	24813.54
767.476	24736.93
767.812	24566.54
768.148	24669.82
768.485	24534.45
768.821	24373.1
769.157	24374.01
769.492	24247
769.828	24185.99
770.164	24173.79
770.5	23987.12
770.836	24095.6
771.171	23893.34
771.507	23920.23
771.842	23712.33
772.178	23638.21
772.513	23550.07
772.849	23519.34
773.184	23326.12
773.519	23320.47
773.855	23245
774.19	23158.44
774.525	23166.13
774.86	23131.55
775.195	23053.59
775.53	22902.86
775.865	22795.74
776.2	22680.04
776.535	22545.58
776.87	22376.77
777.205	22425.58
777.539	22286.83
777.874	22331.57
778.209	22213.61
778.543	22119.38
778.878	22098.81
779.212	21967.74
779.547	21843.23
779.881	21887.29
780.215	21713.74
780.55	21704.92
780.884	21526.17
781.218	21526.62
781.552	21492.27
781.886	21410.24
782.22	21264.48
782.554	21162.79
782.888	21012.51
783.222	20911.5
783.556	20963.7
783.889	20801.9
784.223	20707.66
784.557	20640.32
784.89	20701.11
785.224	20622.24
785.557	20498.85
785.891	20434.9
786.224	20333.89
786.558	20407.1
786.891	20202.36
787.224	20047.79
787.557	19934.8
787.891	20090.28
788.224	19944.74
788.557	19895.48
788.89	19915.14
789.223	19780.91
789.556	19650.97
789.888	19675.82
790.221	19528.94
790.554	19404.65
790.887	19367.81
791.219	19398.32
791.552	19284.87
791.884	19157.19
792.217	19212.11
792.549	19040.81
792.882	18987.93
793.214	18841.95
793.546	18859.57
793.879	18794.04
794.211	18696.64
794.543	18728.5
794.875	18599.24
795.207	18747.49
795.539	18457.78
795.871	18583.88
796.203	18380.72
796.535	18330.55
796.867	18261.62
797.198	18172.81
797.53	18309.31
797.862	18139.14
798.193	18114.51
798.525	17927.62
798.856	17961.07
799.188	17767.17
799.519	17838.58
799.85	17762.2
800.182	17719.94
800.513	17735.08
800.844	17497.8
801.175	17590
801.506	17547.74
801.837	17505.49
802.168	17348.2
802.499	17341.65
802.83	17223.01
803.161	17253.74
803.491	17146.85
803.822	17153.18
804.153	17110.47
804.483	16882.68
804.814	16887.65
805.145	16939.63
805.475	16830.25
805.805	16805.17
806.136	16773.75
806.466	16732.4
806.796	16739.4
807.126	16642.23
807.457	16574.21
807.787	16549.58
808.117	16455.57
808.447	16469.36
808.777	16417.38
809.107	16382.35
809.436	16349.36
809.766	16317.72
810.096	16226.88
810.426	16179.87
810.755	16258.06
811.085	16105.97
811.414	16044.73
811.744	15941.91
812.073	15871.86
812.403	15873.89
812.732	15815.59
813.061	15875.02
813.39	15711.18
813.719	15705.53
814.049	15773.78
814.378	15566.1
814.707	15610.85
815.036	15621.24
815.365	15540.34
815.693	15331.08
816.022	15406.78
816.351	15292.66
816.68	15224.64
817.008	15386.45
817.337	15207.24
817.665	15126.79
817.994	15176.96
818.322	15136.06
818.651	15024.65
818.979	15009.51
819.307	15092.44
819.636	15001.6
819.964	14972.45
820.292	15034.59
820.62	14908.04
820.948	14983.74
821.276	14977.64
821.604	14919.79
821.932	14899.68
822.259	14888.38
822.587	14908.49
822.915	14894.93
823.243	14893.35
823.57	14849.74
823.898	14792.11
824.225	14815.84
824.553	14842.96
824.88	14866.23
825.207	14956.17
825.535	14871.21
825.862	14813.58
826.189	14835.5
826.516	14798.89
826.843	14858.32
827.17	14883.18
827.497	14868.72
827.824	14901.71
828.151	14880.47
828.478	14780.59
828.805	14895.84
829.131	14822.17
829.458	14680.48
829.785	14765.67
830.111	14813.81
830.438	14806.8
830.764	14790.53
831.09	14812
831.417	14740.59
831.743	14814.48
832.069	14824.88
832.395	14658.33
832.722	14742.39
833.048	14629.4
833.374	14658.1
833.7	14610.65
834.026	14575.85
834.351	14626.69
834.677	14609.07
835.003	14651.32
835.329	14555.51
835.654	14498.11
835.98	14509.86
836.306	14571.78
836.631	14518.22
836.956	14586.24
837.282	14585.56
837.607	14533.13
837.932	14462.4
838.258	14416.75
838.583	14451.78
838.908	14311.45
839.233	14363.65
839.558	14222.86
839.883	14150.32
840.208	14219.02
840.533	14233.93
840.858	14179.25
841.182	14198.23
841.507	14190.54
841.832	14119.59
842.156	14052.02
842.481	13985.8
842.805	14093.37
843.13	13955.75
843.454	13955.75
843.778	13897.67
844.103	13864.9
844.427	13843.44
844.751	13887.05
845.075	13738.35
845.399	13796.88
845.723	13682.31
846.047	13704.91
846.371	13593.05
846.695	13626.04
847.019	13490.45
847.343	13443.67
847.666	13397.8
847.99	13265.6
848.313	13198.25
848.637	13163
848.96	13146.73
849.284	13091.82
849.607	13081.65
849.931	13112.38
850.254	12916.23
850.577	12882.56
850.9	12740.87
851.223	12830.35
851.546	12704.48
851.869	12614.54
852.192	12724.14
852.515	12571.38
852.838	12450.7
853.161	12495.45
853.483	12383.81
853.806	12385.39
854.129	12443.7
854.451	12306.75
854.774	12339.07
855.096	12238.96
855.419	12184.5
855.741	12220.43
856.063	12070.15
856.385	12114.22
856.708	12059.75
857.03	12013.65
857.352	12022.01
857.674	11897.72
857.996	11883.04
858.318	11873.09
858.64	11783.6
858.961	11844.39
859.283	11785.41
859.605	11759.87
859.926	11785.64
860.248	11720.33
860.57	11567.56
860.891	11591.29
861.212	11550.16
861.534	11579.09
861.855	11561.91
862.176	11554.91
862.498	11551.52
862.819	11600.33
863.14	11427.68
863.461	11524.4
863.782	11371.64
864.103	11409.38
864.424	11359.21
864.745	11381.58
865.065	11302.26
865.386	11228.81
865.707	11258.19
866.027	11158.76
866.348	11216.39
866.668	11257.74
866.989	11193.79
867.309	11121.93
867.63	11083.28
867.95	11154.92
868.27	11053.45
868.59	11108.59
868.91	11057.75
869.23	11022.72
869.55	10999.89
869.87	11084.86
870.19	10977.07
870.51	11002.61
870.83	11048.25
871.15	10914.25
871.469	10936.85
871.789	10921.25
872.109	10948.82
872.428	10818.43
872.748	10878.77
873.067	10840.58
873.386	10807.13
873.706	10843.97
874.025	10774.59
874.344	10737.75
874.663	10683.52
874.982	10712.44
875.301	10674.71
875.62	10771.2
875.939	10674.03
876.258	10660.47
876.577	10579.34
876.896	10642.84
877.214	10578.21
877.533	10617.08
877.852	10582.73
878.17	10563.3
878.489	10591.54
878.807	10549.28
879.125	10503.41
879.444	10500.92
879.762	10485.11
880.08	10432
880.398	10379.8
880.716	10418.21
881.034	10363.98
881.352	10387.71
881.67	10287.14
881.988	10322.17
882.306	10286.92
882.624	10284.43
882.941	10288.95
883.259	10282.4
883.577	10232.68
883.894	10160.14
884.212	10207.6
884.529	10174.83
884.846	10073.82
885.164	10134.83
885.481	10055.06
885.798	10098.22
886.115	10054.61
886.432	9994.5
886.75	9910.66
887.067	9952.24
887.383	9909.75
887.7	9937.32
888.017	9840.83
888.334	9906.36
888.651	9942.75
888.967	9826.37
889.284	9772.81
889.6	9812.13
889.917	9743.2
890.233	9714.05
890.55	9653.72
890.866	9709.98
891.182	9656.88
891.498	9571.23
891.815	9593.38
892.131	9567.16
892.447	9530.1
892.763	9433.83
893.079	9518.13
893.395	9405.36
893.71	9379.15
894.026	9381.18
894.342	9385.7
894.657	9258.02
894.973	9303.89
895.289	9305.7
895.604	9257.12
895.92	9144.12
896.235	9141.64
896.55	9095.76
896.865	9052.37
897.181	9096.67
897.496	9080.62
897.811	9032.26
898.126	9018.25
898.441	8972.6
898.756	8935.77
899.071	8855.54
899.386	8877.01
899.7	8774.42
900.015	8775.09
900.33	8767.64
900.644	8720.63
900.959	8658.71
901.273	8657.58
901.588	8649.22
901.902	8557.92
902.216	8552.5
902.531	8516.34
902.845	8498.94
903.159	8421.43
903.473	8468.44
903.787	8427.31
904.101	8410.36
904.415	8364.71
904.729	8313.19
905.042	8267.54
905.356	8254.66
905.67	8229.12
905.984	8228.44
906.297	8210.59
906.611	8114.09
906.924	8128.56
907.237	8133.08
907.551	8084.26
907.864	8027.09
908.177	8005.85
908.491	8050.37
908.804	7978.5
909.117	7856.7
909.43	7856.93
909.743	7829.58
910.056	7850.15
910.368	7729.02
910.681	7743.71
910.994	7748.23
911.307	7645.18
911.619	7618.06
911.932	7670.26
912.244	7641.56
912.557	7649.47
912.869	7539.42
913.181	7524.96
913.494	7483.38
913.806	7408.58
914.118	7395.7
914.43	7314.57
914.742	7337.39
915.054	7319.31
915.366	7273.44
915.678	7226.21
915.99	7237.73
916.302	7170.39
916.613	7185.53
916.925	7125.87
917.236	7101.69
917.548	7046.1
917.859	7005.65
918.171	6952.77
918.482	7000
918.794	6974.46
919.105	6879.32
919.416	6893.56
919.727	6861.92
920.038	6836.84
920.349	6759.33
920.66	6800.46
920.971	6741.02
921.282	6706.45
921.593	6666.22
921.903	6630.29
922.214	6628.03
922.525	6551.2
922.835	6592.55
923.146	6531.31
923.456	6539.45
923.767	6473.69
924.077	6500.13
924.387	6409.05
924.697	6369.06
925.008	6386.91
925.318	6315.72
925.628	6349.62
925.938	6272.11
926.248	6262.62
926.558	6200.47
926.867	6233.47
927.177	6167.48
927.487	6115.05
927.796	6080.7
928.106	6093.36
928.416	6082.06
928.725	6090.64
929.034	6047.48
929.344	6070.53
929.653	5983.76
929.962	5979.01
930.271	5933.36
930.581	5869.63
930.89	5857.88
931.199	5835.96
931.508	5797.55
931.817	5803.42
932.125	5791.22
932.434	5756.19
932.743	5700.6
933.051	5702.63
933.36	5626.93
933.669	5682.29
933.977	5589.64
934.286	5604.33
934.594	5622.86
934.902	5572.24
935.21	5534.28
935.519	5562.75
935.827	5470.77
936.135	5481.17
936.443	5400.27
936.751	5384.9
937.059	5411.11
937.367	5348.29
937.674	5359.82
937.982	5293.15
938.29	5293.15
938.597	5320.27
938.905	5233.72
939.213	5232.14
939.52	5220.39
939.827	5190.33
940.135	5195.3
940.442	5170.22
940.749	5122.08
941.056	5143.33
941.363	5066.72
941.67	5063.55
941.977	4994.63
942.284	5054.29
942.591	5002.99
942.898	4942.43
943.205	4954.63
943.511	4972.93
943.818	4913.73
944.125	4889.32
944.431	4880.96
944.738	4860.85
945.044	4821.07
945.35	4822.66
945.657	4748.99
945.963	4760.06
946.269	4715.31
946.575	4756.44
946.881	4745.82
947.187	4668.31
947.493	4668.31
947.799	4642.1
948.105	4644.36
948.41	4631.02
948.716	4591.02
949.022	4551.48
949.327	4572.49
949.633	4514.42
949.938	4516.22
950.244	4533.85
950.549	4458.37
950.854	4500.4
951.16	4411.82
951.465	4400.29
951.77	4407.53
952.075	4363.23
952.38	4372.5
952.685	4351.48
952.99	4306.06
953.294	4283.46
953.599	4267.64
953.904	4239.85
954.209	4221.77
954.513	4226.06
954.818	4250.69
955.122	4215.67
955.426	4201.88
955.731	4185.38
956.035	4161.88
956.339	4103.58
956.643	4152.62
956.948	4097.25
957.252	4049.12
957.556	4045.05
957.86	4040.08
958.163	4014.99
958.467	4018.61
958.771	3984.71
959.075	4006.41
959.378	3917.14
959.682	3926.41
959.985	3898.16
960.289	3901.55
960.592	3892.96
960.896	3857.71
961.199	3807.77
961.502	3804.15
961.805	3806.19
962.108	3772.74
962.411	3769.12
962.714	3732.74
963.017	3742.01
963.32	3758.28
963.623	3720.09
963.926	3730.26
964.228	3684.83
964.531	3653.42
964.833	3658.39
965.136	3602.8
965.438	3627.66
965.741	3576.81
966.043	3529.13
966.345	3566.42
966.648	3537.27
966.95	3549.02
967.252	3543.82
967.554	3480.77
967.856	3508.79
968.158	3414.78
968.46	3467.89
968.761	3453.2
969.063	3436.48
969.365	3389.02
969.666	3430.83
969.968	3340.43
970.269	3306.54
970.571	3351.73
970.872	3339.76
971.174	3305.86
971.475	3310.61
971.776	3297.27
972.077	3281.23
972.378	3252.98
972.679	3276.26
972.98	3217.73
973.281	3256.6
973.582	3171.4
973.883	3195.81
974.183	3148.8
974.484	3170.04
974.785	3150.38
975.085	3139.08
975.386	3142.47
975.686	3135.24
975.986	3081.23
976.287	3095.24
976.587	3044.62
976.887	3073.1
977.187	3052.98
977.487	3019.77
977.787	3005.75
978.087	3028.58
978.387	2953.55
978.687	2998.97
978.987	2960.11
979.286	2944.74
979.586	2951.97
979.885	2918.3
980.185	2897.51
980.484	2893.67
980.784	2874.68
981.083	2877.62
981.382	2800.56
981.682	2846.66
981.981	2860.9
982.28	2817.28
982.579	2784.07
982.878	2762.6
983.177	2769.38
983.475	2776.83
983.774	2751.75
984.073	2756.5
984.372	2727.57
984.67	2735.7
984.969	2735.48
985.267	2737.96
985.566	2673.56
985.864	2677.63
986.162	2624.52
986.461	2663.62
986.759	2637.4
987.057	2622.71
987.355	2638.31
987.653	2616.39
987.951	2591.98
988.249	2589.27
988.547	2566.67
988.844	2560.34
989.142	2526.67
989.44	2504.98
989.737	2518.31
990.035	2480.8
990.332	2478.99
990.63	2502.72
990.927	2470.4
991.224	2446.67
991.521	2438.99
991.819	2452.32
992.116	2433.57
992.413	2419.33
992.71	2409.39
993.006	2392.66
993.303	2412.1
993.6	2399.44
993.897	2395.83
994.193	2344.98
994.49	2324.42
994.787	2351.76
995.083	2332.55
995.379	2324.42
995.676	2289.39
995.972	2289.39
996.268	2263.85
996.565	2227.47
996.861	2253.68
997.157	2249.16
997.453	2264.76
997.749	2208.49
998.044	2204.19
998.34	2183.86
998.636	2197.41
998.932	2174.59
999.227	2159
999.523	2167.36
999.818	2107.02
1000.114	2093.91
1000.409	2118.77
1000.704	2100.92
1001	2088.04
1001.295	2091.43
1001.59	2096.85
1001.885	2100.24
1002.18	2021.6
1002.475	2053.01
1002.77	2022.5
1003.065	2040.13
1003.359	2001.71
1003.654	1982.96
1003.949	1987.48
1004.243	1994.48
1004.538	1944.99
1004.832	1950.19
1005.127	1959
1005.421	1965.78
1005.715	1937.53
1006.009	1935.5
1006.304	1896.18
1006.598	1905.44
1006.892	1913.35
1007.186	1856.86
1007.48	1870.19
1007.773	1850.98
1008.067	1840.81
1008.361	1854.82
1008.655	1850.98
1008.948	1828.61
1009.242	1782.96
1009.535	1765.33
1009.829	1790.87
1010.122	1776.41
1010.415	1751.1
1010.708	1736.41
1011.001	1707.94
1011.295	1731.66
1011.588	1722.17
1011.881	1699.35
1012.173	1708.84
1012.466	1699.8
1012.759	1716.97
1013.052	1679.01
1013.344	1666.35
1013.637	1677.2
1013.93	1649.63
1014.222	1639.69
1014.514	1641.72
1014.807	1625.23
1015.099	1640.14
1015.391	1574.15
1015.683	1595.4
1015.976	1549.07
1016.268	1550.88
1016.56	1559.92
1016.851	1552.69
1017.143	1537.32
1017.435	1561.72
1017.727	1501.84
1018.018	1501.16
1018.31	1480.14
1018.602	1484.89
1018.893	1471.33
1019.185	1496.87
1019.476	1443.54
1019.767	1469.75
1020.058	1440.82
1020.35	1434.95
1020.641	1439.47
1020.932	1419.81
1021.223	1417.77
1021.514	1423.65
1021.804	1376.42
1022.095	1396.08
1022.386	1352.46
1022.677	1383.65
1022.967	1324.44
1023.258	1336.87
1023.548	1330.54
1023.839	1352.24
1024.129	1343.43
1024.419	1284.44
1024.709	1311.34
1025	1325.35
1025.29	1293.03
1025.58	1287.16
1025.87	1245.8
1026.16	1277.44
1026.449	1282.18
1026.739	1254.61
1027.029	1234.73
1027.319	1229.98
1027.608	1207.16
1027.898	1194.5
1028.187	1182.75
1028.477	1216.65
1028.766	1204.67
1029.055	1186.82
1029.344	1189.3
1029.634	1186.14
1029.923	1176.65
1030.212	1132.81
1030.501	1140.94
1030.79	1132.13
1031.078	1134.62
1031.367	1122.19
1031.656	1114.5
1031.945	1128.29
1032.233	1109.08
1032.522	1102.53
1032.81	1080.16
1033.099	1096.2
1033.387	1069.99
1033.675	1069.53
1033.963	1076.54
1034.251	1051.23
1034.54	1050.55
1034.828	1037.67
1035.116	1030.21
1035.403	1033.6
1035.691	1024.79
1035.979	1004.68
1036.267	1013.04
1036.554	1024.56
1036.842	991.57
1037.129	1011.68
1037.417	981.17
1037.704	970.55
1037.992	950.89
1038.279	970.78
1038.566	916.54
1038.853	916.54
1039.14	916.54
