Data from hue_220_FLMS001491_00035.txt Node
Date: Tue Feb 07 16:39:22 GMT 2017
User: dcchb
Spectrometer: FLMS00149
Trigger mode: 0
Integration Time (sec): 2.000000E-2
Scans to average: 10
Electric dark correction enabled: true
Nonlinearity correction enabled: false
Boxcar width: 0
XAxis mode: Wavelengths
Number of Pixels in Spectrum: 2048
>>>>>Begin Spectral Data<<<<<
341.393	-4.17
341.776	-4.17
342.16	-4.17
342.543	-61.34
342.927	-63.37
343.31	-65.18
343.693	-57.5
344.077	-66.09
344.46	-72.87
344.843	-59.76
345.226	-38.06
345.61	-13.88
345.993	-29.93
346.376	1.26
346.759	5.32
347.142	35.15
347.525	55.04
347.908	39
348.291	72.67
348.674	93.68
349.057	101.14
349.44	131.88
349.823	140.46
350.206	151.31
350.588	180.69
350.971	208.03
351.354	199.9
351.737	211.2
352.119	248.26
352.502	253.45
352.884	247.13
353.267	278.76
353.65	292.32
354.032	270.85
354.414	283.74
354.797	303.62
355.179	302.04
355.562	329.84
355.944	339.33
356.326	314.24
356.709	327.12
357.091	319.67
357.473	328.71
357.855	323.96
358.238	329.16
358.62	331.19
359.002	340.68
359.384	337.75
359.766	319.67
360.148	322.38
360.53	324.41
360.912	324.19
361.294	321.02
361.676	318.31
362.057	311.76
362.439	337.75
362.821	331.64
363.203	327.12
363.584	316.28
363.966	310.4
364.348	294.58
364.729	308.59
365.111	318.08
365.493	321.93
365.874	311.31
366.256	309.5
366.637	295.03
367.019	313.79
367.4	324.86
367.781	304.98
368.163	315.6
368.544	300.23
368.925	295.71
369.306	336.62
369.688	284.64
370.069	325.09
370.45	311.08
370.831	311.31
371.212	319.67
371.593	290.97
371.974	284.87
372.355	300.46
372.736	318.54
373.117	298.2
373.498	307.69
373.879	302.04
374.26	308.59
374.641	330.74
375.021	299.33
375.402	302.04
375.783	311.31
376.163	309.05
376.544	312.21
376.925	312.89
377.305	317.86
377.686	338.2
378.066	338.2
378.447	318.99
378.827	309.27
379.208	318.99
379.588	321.7
379.968	312.44
380.349	313.79
380.729	324.64
381.109	315.37
381.489	324.64
381.87	330.74
382.25	328.25
382.63	332.55
383.01	318.08
383.39	333.9
383.77	325.09
384.15	361.02
384.53	340.01
384.91	324.64
385.29	344.52
385.67	354.02
386.049	344.07
386.429	331.64
386.809	346.78
387.189	335.26
387.568	345.88
387.948	331.19
388.328	326.22
388.707	341.36
389.087	342.27
389.466	324.64
389.846	347.46
390.225	349.04
390.605	351.76
390.984	344.07
391.363	334.36
391.743	360.8
392.122	353.11
392.501	357.41
392.881	360.34
393.26	341.14
393.639	367.12
394.018	373.22
394.397	363.28
394.776	377.97
395.155	358.31
395.534	340.46
395.913	363.51
396.292	375.71
396.671	389.04
397.05	396.27
397.429	380.23
397.808	377.97
398.186	370.29
398.565	360.12
398.944	380.46
399.323	386.11
399.701	396.95
400.08	372.77
400.458	396.27
400.837	394.47
401.215	408.48
401.594	395.14
401.972	403.73
402.351	390.63
402.729	419.33
403.107	425.2
403.486	415.26
403.864	421.36
404.242	417.52
404.62	418.2
404.999	429.95
405.377	420.46
405.755	440.57
406.133	423.17
406.511	448.02
406.889	439.89
407.267	444.86
407.645	446.9
408.023	458.87
408.401	465.88
408.779	454.35
409.156	476.05
409.534	470.85
409.912	497.74
410.29	488.25
410.667	486.44
411.045	511.3
411.422	497.74
411.8	516.72
412.178	514.46
412.555	528.7
412.933	523.96
413.31	569.83
413.687	545.65
414.065	561.02
414.442	567.12
414.819	584.74
415.197	589.49
415.574	596.04
415.951	594.01
416.328	599.21
416.705	613.9
417.082	599.43
417.46	612.31
417.837	649.83
418.214	646.66
418.591	652.09
418.967	662.26
419.344	646.66
419.721	660.22
420.098	663.39
420.475	690.96
420.852	708.81
421.228	693.67
421.605	720.11
421.982	753.55
422.358	753.78
422.735	761.01
423.111	747.23
423.488	774.57
423.864	789.48
424.241	801.46
424.617	830.39
424.994	851.63
425.37	835.13
425.746	843.27
426.123	895.02
426.499	878.3
426.875	893.89
427.251	891.86
427.627	930.5
428.003	921.91
428.379	944.28
428.756	972.53
429.132	946.54
429.507	971.63
429.883	965.07
430.259	1024.05
430.635	990.61
431.011	1018.86
431.387	1010.5
431.763	1018.18
432.138	1046.2
432.514	1064.73
432.89	1059.08
433.265	1103.83
433.641	1127.78
434.016	1136.37
434.392	1151.51
434.767	1185.63
435.143	1217.04
435.518	1192.64
435.894	1243.94
436.269	1250.49
436.644	1303.82
437.02	1311.51
437.395	1317.15
437.77	1327.1
438.145	1379.98
438.52	1354.22
438.895	1399.19
439.271	1406.87
439.646	1412.29
440.021	1451.16
440.395	1501.1
440.77	1463.82
441.145	1486.19
441.52	1523.25
441.895	1491.16
442.27	1541.56
442.645	1582.46
443.019	1571.84
443.394	1603.25
443.769	1606.19
444.143	1615.68
444.518	1652.74
444.892	1632.4
445.267	1644.38
445.641	1651.61
446.016	1681.89
446.39	1693.19
446.764	1710.59
447.139	1703.13
447.513	1747.43
447.887	1708.1
448.262	1744.94
448.636	1767.76
449.01	1804.15
449.384	1820.19
449.758	1796.01
450.132	1850.93
450.506	1850.93
450.88	1848.89
451.254	1845.5
451.628	1866.74
452.002	1873.98
452.376	1935.22
452.75	1906.07
453.123	1957.36
453.497	1985.61
453.871	1998.72
454.244	2061.99
454.618	2050.47
454.992	2058.38
455.365	2048.21
455.739	2108.77
456.112	2129.79
456.486	2128.88
456.859	2167.08
457.232	2193.06
457.606	2199.84
457.979	2202.1
458.352	2253.18
458.725	2297.69
459.099	2303.57
459.472	2312.61
459.845	2351.03
460.218	2382.89
460.591	2391.48
460.964	2403.91
461.337	2450.68
461.71	2511.7
462.083	2531.81
462.456	2484.13
462.829	2545.14
463.201	2545.82
463.574	2561.42
463.947	2622.66
464.32	2628.53
464.692	2683.9
465.065	2722.54
465.438	2730.68
465.81	2761.41
466.183	2785.14
466.555	2838.7
466.928	2852.48
467.3	2863.33
467.672	2880.5
468.045	2921.86
468.417	2964.12
468.789	2991.23
469.161	3038.01
469.534	3052.93
469.906	3102.64
470.278	3151.46
470.65	3154.62
471.022	3196.65
471.394	3256.31
471.766	3276.2
472.138	3346.03
472.51	3424.9
472.882	3453.82
473.253	3444.78
473.625	3484.56
473.997	3609.07
474.369	3596.42
474.74	3599.81
475.112	3685.45
475.484	3725.9
475.855	3794.83
476.227	3792.12
476.598	3902.62
476.97	3928.39
477.341	3988.95
477.713	4078.66
478.084	4046.12
478.455	4119.57
478.827	4197.76
479.198	4274.14
479.569	4305.78
479.94	4383.97
480.311	4377.87
480.682	4475.26
481.053	4589.16
481.424	4667.12
481.795	4651.53
482.166	4741.7
482.537	4809.94
482.908	4840.9
483.279	4920
483.65	5000.22
484.021	5072.08
484.391	5134.68
484.762	5149.6
485.133	5223.94
485.503	5249.25
485.874	5296.26
486.244	5362.25
486.615	5437.05
486.985	5451.74
487.356	5585.07
487.726	5633.65
488.097	5713.2
488.467	5747.77
488.837	5828.9
489.207	5854.21
489.578	5931.04
489.948	5950.48
490.318	6069.12
490.688	6063.47
491.058	6142.11
491.428	6248.55
491.798	6285.39
492.168	6361.54
492.538	6392.05
492.908	6507.53
493.278	6523.12
493.648	6522.89
494.017	6576.68
494.387	6632.95
494.757	6642.66
495.126	6727.41
495.496	6692.15
495.866	6760.85
496.235	6862.32
496.605	6829.1
496.974	6955.65
497.344	6949.77
497.713	6962.66
498.082	6982.77
498.452	7051.69
498.821	7090.34
499.19	7080.39
499.559	7103.44
499.928	7173.05
500.298	7176.44
500.667	7212.59
501.036	7223.44
501.405	7266.38
501.774	7301.63
502.143	7313.61
502.512	7428.41
502.88	7315.87
503.249	7394.28
503.618	7390.89
503.987	7465.24
504.356	7458.46
504.724	7470.44
505.093	7476.31
505.462	7499.59
505.83	7574.17
506.199	7634.5
506.567	7613.03
506.936	7653.26
507.304	7644.45
507.672	7692.58
508.041	7670.21
508.409	7740.49
508.777	7729.19
509.145	7794.72
509.514	7799.47
509.882	7804.44
510.25	7813.71
510.618	7793.82
510.986	7874.27
511.354	7926.7
511.722	7861.84
512.09	7910.43
512.458	7942.29
512.826	7982.97
513.193	7951.1
513.561	7939.58
513.929	8032.46
514.297	8033.59
514.664	8021.84
515.032	8000.14
515.4	8108.61
515.767	8117.65
516.135	8094.38
516.502	8050.54
516.869	8134.83
517.237	8113.36
517.604	8087.6
517.972	8173.02
518.339	8080.14
518.706	8107.48
519.073	8148.16
519.44	8123.08
519.808	8200.14
520.175	8160.59
520.542	8281.04
520.909	8199.46
521.276	8158.78
521.643	8282.62
522.009	8234.49
522.376	8290.53
522.743	8288.95
523.11	8272.45
523.477	8311.1
523.843	8346.35
524.21	8319.46
524.577	8362.85
524.943	8365.78
525.31	8340.47
525.676	8370.75
526.043	8401.26
526.409	8327.59
526.776	8418.66
527.142	8414.6
527.508	8384.31
527.874	8425.44
528.241	8425.22
528.607	8376.86
528.973	8411.21
529.339	8415.95
529.705	8457.76
530.071	8469.51
530.437	8500.69
530.803	8423.18
531.169	8462.05
531.535	8406.23
531.901	8371.21
532.267	8347.25
532.632	8434.26
532.998	8353.13
533.364	8415.27
533.73	8376.86
534.095	8423.86
534.461	8394.93
534.826	8425.44
535.192	8389.06
535.557	8364.65
535.923	8279.46
536.288	8359.23
536.653	8359.68
537.019	8258.44
537.384	8260.7
537.749	8262.28
538.114	8211.21
538.479	8260.7
538.845	8266.12
539.21	8205.56
539.575	8185.9
539.94	8145.22
540.305	8155.62
540.67	8151.55
541.034	8125.79
541.399	8065.45
541.764	8061.61
542.129	8056.41
542.494	8072.91
542.858	8073.14
543.223	8048.5
543.587	7993.82
543.952	7968.51
544.316	8002.4
544.681	7908.85
545.045	7928.05
545.41	7962.63
545.774	7937.09
546.138	7887.38
546.503	7881.73
546.867	7845.34
547.231	7792.01
547.595	7819.58
547.959	7782.97
548.324	7727.38
548.688	7726.25
549.052	7781.39
549.416	7730.55
549.779	7679.25
550.143	7694.84
550.507	7610.32
550.871	7663.65
551.235	7607.61
551.599	7687.38
551.962	7624.33
552.326	7612.81
552.689	7546.82
553.053	7472.47
553.417	7487.61
553.78	7547.05
554.143	7441.51
554.507	7499.82
554.87	7488.07
555.234	7500.27
555.597	7420.05
555.96	7463.66
556.323	7430.67
556.686	7383.89
557.05	7463.43
557.413	7392.25
557.776	7402.64
558.139	7399.25
558.502	7357.9
558.865	7328.3
559.228	7384.11
559.59	7352.25
559.953	7405.36
560.316	7378.92
560.679	7368.75
561.041	7443.32
561.404	7373.27
561.767	7400.61
562.129	7358.58
562.492	7471.8
562.854	7394.73
563.217	7420.72
563.579	7386.6
563.941	7459.59
564.304	7446.03
564.666	7423.89
565.028	7463.43
565.39	7395.41
565.753	7459.82
566.115	7412.14
566.477	7444.23
566.839	7449.87
567.201	7439.48
567.563	7439.93
567.925	7522.19
568.287	7437.22
568.648	7451.68
569.01	7530.55
569.372	7550.21
569.734	7491
570.095	7591.34
570.457	7545.01
570.819	7564.9
571.18	7632.92
571.542	7595.41
571.903	7586.82
572.265	7536.88
572.626	7603.99
572.987	7636.99
573.349	7646.25
573.71	7659.13
574.071	7660.49
574.432	7676.54
574.794	7696.42
575.155	7616.2
575.516	7662.75
575.877	7700.94
576.238	7720.83
576.599	7769.19
576.96	7771.22
577.32	7817.1
577.681	7845.12
578.042	7875.17
578.403	7849.41
578.763	7904.1
579.124	7840.6
579.485	7907.26
579.845	7897.77
580.206	7855.29
580.566	7887.6
580.927	7930.99
581.287	7948.17
581.648	7945.91
582.008	7927.83
582.368	7933.25
582.728	8022.06
583.089	8012.8
583.449	8012.57
583.809	8055.28
584.169	8113.81
584.529	8063.19
584.889	8104.32
585.249	8039.46
585.609	8109.52
585.969	8114.94
586.329	8148.61
586.688	8113.36
587.048	8107.03
587.408	8092.8
587.768	8142.51
588.127	8172.57
588.487	8154.49
588.846	8233.13
589.206	8149.52
589.565	8212.57
589.925	8330.98
590.284	8227.48
590.643	8259.34
591.003	8302.51
591.362	8313.58
591.721	8235.39
592.08	8333.92
592.44	8232.9
592.799	8343.41
593.158	8328.95
593.517	8391.77
593.876	8360.59
594.235	8346.12
594.593	8385.44
594.952	8359.23
595.311	8359.68
595.67	8474.93
596.029	8519
596.387	8471.32
596.746	8490.3
597.104	8401.49
597.463	8451.43
597.822	8490.75
598.18	8524.2
598.538	8472.22
598.897	8534.37
599.255	8442.39
599.613	8537.98
599.972	8535.5
600.33	8562.16
600.688	8531.65
601.046	8597.19
601.404	8568.94
601.762	8503.18
602.12	8584.53
602.478	8580.01
602.836	8639.22
603.194	8591.31
603.552	8554.25
603.91	8572.11
604.268	8550.18
604.625	8586.34
604.983	8626.57
605.341	8505.89
605.698	8638.32
606.056	8593.35
606.413	8651.43
606.771	8653.46
607.128	8723.29
607.485	8576.62
607.843	8635.83
608.2	8687.13
608.557	8653.23
608.914	8705.43
609.272	8672.67
609.629	8678.54
609.986	8708.37
610.343	8690.52
610.7	8719.67
611.057	8792.44
611.414	8768.03
611.771	8761.03
612.127	8804.19
612.484	8749.05
612.841	8797.64
613.198	8755.83
613.554	8743.17
613.911	8820.23
614.267	8788.37
614.624	8720.35
614.98	8852.32
615.337	8829.73
615.693	8922.6
616.05	8858.43
616.406	8900.68
616.762	8853
617.118	8853.45
617.475	8871.08
617.831	8877.63
618.187	8935.03
618.543	8858.88
618.899	8957.41
619.255	8937.75
619.611	8940.01
619.967	8854.81
620.323	9013
620.678	8955.6
621.034	8922.15
621.39	8903.62
621.746	8923.51
622.101	8977.29
622.457	8903.4
622.812	8961.02
623.168	8994.69
623.523	8946.33
623.879	8946.78
624.234	8932.1
624.589	8954.69
624.945	8980
625.3	8967.57
625.655	8997.86
626.01	8984.3
626.365	8983.17
626.72	8927.8
627.075	8852.55
627.43	8931.42
627.785	8969.16
628.14	8855.49
628.495	8930.97
628.85	8926.67
629.205	8909.5
629.559	8965.99
629.914	8951.98
630.269	8937.75
630.623	8875.15
630.978	8888.48
631.332	8898.65
631.687	8895.26
632.041	8882.61
632.396	8889.38
632.75	8856.39
633.104	8844.64
633.459	8810.74
633.813	8821.59
634.167	8734.81
634.521	8808.26
634.875	8777.3
635.229	8747.47
635.583	8782.72
635.937	8749.28
636.291	8700.69
636.645	8677.64
636.999	8723.97
637.352	8741.14
637.706	8677.19
638.06	8770.97
638.413	8671.31
638.767	8713.12
639.121	8677.87
639.474	8630.86
639.828	8656.4
640.181	8639.9
640.534	8616.17
640.888	8533.01
641.241	8549.73
641.594	8605.32
641.947	8664.08
642.301	8536.85
642.654	8604.42
643.007	8574.59
643.36	8586.12
643.713	8604.87
644.066	8565.33
644.419	8524.65
644.771	8537.98
645.124	8478.55
645.477	8454.37
645.83	8375.73
646.182	8328.95
646.535	8345.67
646.888	8313.81
647.24	8284.66
647.593	8337.08
647.945	8300.7
648.298	8263.41
648.65	8169.63
649.002	8276.52
649.355	8227.03
649.707	8239.23
650.059	8330.76
650.411	8421.83
650.763	8395.16
651.115	8483.29
651.467	8472.9
651.819	8401.71
652.171	8461.6
652.523	8446.23
652.875	8485.1
653.227	8459.11
653.578	8542.05
653.93	8540.24
654.282	8434.71
654.633	8415.05
654.985	8501.37
655.337	8466.12
655.688	8517.64
656.039	8454.82
656.391	8444.65
656.742	8443.29
657.094	8428.38
657.445	8497.3
657.796	8513.12
658.147	8496.4
658.498	8473.35
658.849	8534.14
659.2	8493.24
659.551	8476.29
659.902	8528.49
660.253	8525.78
660.604	8502.5
660.955	8466.8
661.306	8609.84
661.656	8534.82
662.007	8542.95
662.358	8573.24
662.708	8566.46
663.059	8562.16
663.409	8440.81
663.76	8596.29
664.11	8549.51
664.461	8548.15
664.811	8521.03
665.161	8474.48
665.511	8533.69
665.862	8634.93
666.212	8608.94
666.562	8562.16
666.912	8599.45
667.262	8530.52
667.612	8568.04
667.962	8561.03
668.312	8537.53
668.662	8540.47
669.011	8527.13
669.361	8479.9
669.711	8531.43
670.06	8555.61
670.41	8501.37
670.76	8491.2
671.109	8472.45
671.459	8500.02
671.808	8489.17
672.157	8479.45
672.507	8514.25
672.856	8436.29
673.205	8476.51
673.554	8504.99
673.904	8499.79
674.253	8577.75
674.602	8448.27
674.951	8372.34
675.3	8323.75
675.649	8436.29
675.998	8442.84
676.346	8460.24
676.695	8475.61
677.044	8401.26
677.393	8394.71
677.741	8421.37
678.09	8366.01
678.438	8388.83
678.787	8295.28
679.135	8329.17
679.484	8312.68
679.832	8337.99
680.181	8306.35
680.529	8319.23
680.877	8256.63
681.225	8253.02
681.573	8314.03
681.922	8232.45
682.27	8280.14
682.618	8245.11
682.966	8208.5
683.314	8189.74
683.661	8205.34
684.009	8105
684.357	8083.3
684.705	8050.76
685.053	8151.55
685.4	8064.77
685.748	8086.47
686.095	7993.36
686.443	8002.85
686.79	8003.53
687.138	7971.89
687.485	7986.81
687.832	7996.3
688.18	7933.48
688.527	7964.89
688.874	7885.34
689.221	7869.3
689.568	7890.54
689.915	7816.64
690.262	7846.7
690.609	7797.21
690.956	7784.1
691.303	7704.56
691.65	7754.27
691.997	7702.98
692.344	7618.23
692.69	7642.64
693.037	7671.11
693.383	7548.18
693.73	7620.04
694.077	7540.49
694.423	7484.22
694.769	7466.6
695.116	7473.83
695.462	7438.8
695.808	7424.34
696.155	7359.93
696.501	7313.38
696.847	7371.91
697.193	7280.84
697.539	7324.45
697.885	7243.55
698.231	7249.2
698.577	7214.63
698.923	7196.32
699.269	7140.5
699.614	7138.47
699.96	7051.47
700.306	7068.19
700.651	7017.34
700.997	7030.68
701.342	7010.79
701.688	6945.71
702.033	6975.76
702.379	6958.14
702.724	6953.16
703.069	6880.85
703.415	6832.04
703.76	6856.67
704.105	6791.81
704.45	6800.63
704.795	6735.54
705.14	6792.72
705.485	6733.74
705.83	6696.22
706.175	6713.85
706.52	6676.56
706.865	6670.23
707.209	6635.43
707.554	6559.5
707.899	6662.78
708.243	6556.11
708.588	6535.77
708.932	6509.11
709.277	6533.29
709.621	6472.73
709.966	6522.44
710.31	6474.08
710.654	6408.77
710.998	6384.82
711.342	6377.36
711.687	6405.16
712.031	6317.25
712.375	6287.65
712.719	6331.03
713.063	6352.28
713.407	6367.64
713.75	6244.48
714.094	6277.02
714.438	6292.39
714.782	6310.92
715.125	6205.39
715.469	6271.15
715.812	6182.56
716.156	6209.23
716.499	6222.56
716.843	6199.74
717.186	6177.59
717.53	6215.56
717.873	6197.25
718.216	6120.19
718.559	6148.21
718.902	6116.35
719.246	6130.36
719.589	6119.74
719.932	6077.26
720.275	6101.44
720.617	6135.11
720.96	6098.72
721.303	6077.26
721.646	6079.06
721.989	6042
722.331	6029.12
722.674	6075
723.016	6035.9
723.359	5991.16
723.701	6041.55
724.044	5996.81
724.386	5993.87
724.729	6040.42
725.071	6009.46
725.413	6079.52
725.755	6027.31
726.097	5968.11
726.439	5983.47
726.782	5942.12
727.124	5953.64
727.465	6014.88
727.807	6037.26
728.149	5986.18
728.491	5993.64
728.833	6031.15
729.175	5978.5
729.516	5964.72
729.858	6024.83
730.199	5939.63
730.541	5979.18
730.882	5979.86
731.224	6008.33
731.565	5963.81
731.906	5930.59
732.248	5997.71
732.589	5959.52
732.93	5946.19
733.271	5916.13
733.612	5915
733.953	5936.69
734.294	5937.6
734.635	5944.15
734.976	5972.85
735.317	5962.91
735.658	5955.9
735.999	5950.48
736.339	5957.94
736.68	5945.96
737.021	5966.3
737.361	6028.67
737.702	5973.53
738.042	6000.2
738.383	6003.13
738.723	5970.82
739.063	5981.66
739.404	6057.14
739.744	5993.64
740.084	6026.18
740.424	6100.76
740.764	6061.44
741.104	6091.72
741.444	6051.72
741.784	6108.89
742.124	6104.37
742.464	6150.7
742.804	6154.77
743.143	6182.79
743.483	6195.22
743.823	6190.92
744.162	6202.68
744.502	6260.98
744.841	6228.66
745.181	6272.73
745.52	6329.68
745.86	6327.64
746.199	6378.49
746.538	6410.58
746.877	6463.23
747.216	6502.1
747.556	6539.62
747.895	6564.02
748.234	6582.33
748.573	6663.23
748.911	6703.23
749.25	6755.88
749.589	6860.29
749.928	6895.99
750.267	7022.77
750.605	6997.01
750.944	7095.99
751.283	7131.92
751.621	7262.54
751.96	7276.77
752.298	7409.65
752.636	7518.35
752.975	7548.63
753.313	7592.47
753.651	7775.97
753.989	7854.61
754.327	7911.11
754.666	8050.99
755.004	8163.98
755.342	8316.52
755.679	8383.18
756.017	8537.3
756.355	8706.11
756.693	8812.78
757.031	8979.55
757.368	9076.5
757.706	9167.8
758.044	9277.17
758.381	9522.14
758.719	9584.96
759.056	9876.03
759.394	9882.58
759.731	9971.84
760.068	10132.97
760.405	10286.41
760.743	10440.08
761.08	10620.64
761.417	10807.75
761.754	10948.77
762.091	11142.43
762.428	11305.14
762.765	11415.19
763.102	11635.3
763.438	11810.21
763.775	11931.34
764.112	12253.82
764.449	12308.05
764.785	12475.28
765.122	12565.22
765.458	12741.49
765.795	12950.07
766.131	13064.42
766.467	13098.31
766.804	13325.43
767.14	13411.07
767.476	13581.24
767.812	13784.17
768.148	13950.72
768.485	13965.18
768.821	14086.08
769.157	14194.56
769.492	14417.83
769.828	14548.45
770.164	14655.33
770.5	14720.19
770.836	14858.04
771.171	14987.53
771.507	15045.61
771.842	15041.99
772.178	15191.59
772.513	15408.31
772.849	15380.74
773.184	15448.31
773.519	15575.76
773.855	15711.35
774.19	15663.44
774.525	15768.53
774.86	15894.4
775.195	15965.13
775.53	15966.03
775.865	16027.73
776.2	16095.75
776.535	16047.16
776.87	16062.98
777.205	16235.86
777.539	16280.83
777.874	16270.66
778.209	16238.12
778.543	16322.18
778.878	16356.53
779.212	16448.73
779.547	16376.65
779.881	16560.6
780.215	16428.62
780.55	16620.03
780.884	16562.4
781.218	16504.1
781.552	16565.79
781.886	16636.98
782.22	16623.19
782.554	16620.71
782.888	16523.31
783.222	16508.39
783.556	16471.78
783.889	16548.84
784.223	16496.64
784.557	16477.21
784.89	16606.92
785.224	16573.7
785.557	16452.8
785.891	16579.58
786.224	16542.29
786.558	16541.39
786.891	16480.15
787.224	16382.97
787.557	16380.71
787.891	16391.56
788.224	16428.4
788.557	16576.64
788.89	16453.25
789.223	16489.41
789.556	16399.24
789.888	16346.82
790.221	16396.98
790.554	16303.65
790.887	16284.9
791.219	16260.49
791.552	16250.32
791.884	16201.06
792.217	16221.17
792.549	16116.31
792.882	16095.3
793.214	16036.77
793.546	16115.41
793.879	16014.85
794.211	15992.25
794.543	16009.65
794.875	15902.08
795.207	16011.68
795.539	16054.85
795.871	15941.4
796.203	15767.85
796.535	15714.29
796.867	15778.7
797.198	15681.07
797.53	15775.53
797.862	15642.65
798.193	15668.19
798.525	15630.68
798.856	15622.54
799.188	15417.57
799.519	15469.32
799.85	15438.82
800.182	15375.77
800.513	15403.34
800.844	15326.5
801.175	15399.27
801.506	15367.86
801.837	15252.83
802.168	15206.05
802.499	15216.68
802.83	15218.03
803.161	15136.23
803.491	15116.11
803.822	15137.36
804.153	15029.56
804.483	14931.03
804.814	15005.38
805.145	14921.09
805.475	14910.92
805.805	14858.04
806.136	14789.34
806.466	14880.19
806.796	14879.96
807.126	14748.21
807.457	14717.48
807.787	14709.57
808.117	14646.52
808.447	14597.94
808.777	14675
809.107	14606.97
809.436	14559.74
809.766	14478.84
810.096	14435.68
810.426	14434.1
810.755	14473.87
811.085	14439.07
811.414	14461.89
811.744	14309.36
812.073	14278.85
812.403	14305.97
812.732	14261
813.061	14248.57
813.39	14178.74
813.719	14116.59
814.049	14143.94
814.378	14204.27
814.707	14125.63
815.036	14081.79
815.365	14033.88
815.693	14000.66
816.022	13964.51
816.351	13921.12
816.68	13856.03
817.008	13957.95
817.337	13738.3
817.665	13764.06
817.994	13818.75
818.322	13814.91
818.651	13649.94
818.979	13663.72
819.307	13745.3
819.636	13661.01
819.964	13590.05
820.292	13693.55
820.62	13614.23
820.948	13716.38
821.276	13683.84
821.604	13680.67
821.932	13642.03
822.259	13656.27
822.587	13667.34
822.915	13591.63
823.243	13606.1
823.57	13554.12
823.898	13568.36
824.225	13600.22
824.553	13556.83
824.88	13575.36
825.207	13641.58
825.535	13631.41
825.862	13692.87
826.189	13587.79
826.516	13698.52
826.843	13719.09
827.17	13747.34
827.497	13690.16
827.824	13691.52
828.151	13571.3
828.478	13692.87
828.805	13699.43
829.131	13700.11
829.458	13667.79
829.785	13569.94
830.111	13645.87
830.438	13642.93
830.764	13628.24
831.09	13657.17
831.417	13646.1
831.743	13649.71
832.069	13604.29
832.395	13550.05
832.722	13565.19
833.048	13513.22
833.374	13576.04
833.7	13538.3
834.026	13563.84
834.351	13539.88
834.677	13563.61
835.003	13505.99
835.329	13548.7
835.654	13485.65
835.98	13428.47
836.306	13436.38
836.631	13404.07
836.956	13482.26
837.282	13509.15
837.607	13354.58
837.932	13338.76
838.258	13361.81
838.583	13294.92
838.908	13242.72
839.233	13345.99
839.558	13300.57
839.883	13238.42
840.208	13196.16
840.533	13247.24
840.858	13130.63
841.182	13203.62
841.507	13244.3
841.832	13129.95
842.156	13011.08
842.481	13046.56
842.805	12984.19
843.13	12970.18
843.454	12946.68
843.778	12974.7
844.103	12852.9
844.427	12870.52
844.751	12862.16
845.075	12818.77
845.399	12880.47
845.723	12649.96
846.047	12811.54
846.371	12704.2
846.695	12656.97
847.019	12473.92
847.343	12563.86
847.666	12391.89
847.99	12424.21
848.313	12435.05
848.637	12376.3
848.96	12219.01
849.284	12223.31
849.607	12188.28
849.931	12100.6
850.254	12102.41
850.577	11989.64
850.9	11924.56
851.223	11879.14
851.546	11824.45
851.869	11771.34
852.192	11844.79
852.515	11780.38
852.838	11716.88
853.161	11699.48
853.483	11642.08
853.806	11520.28
854.129	11676.88
854.451	11555.53
854.774	11475.98
855.096	11342.43
855.419	11487.96
855.741	11393.73
856.063	11299.49
856.385	11302.43
856.708	11285.03
857.03	11264.69
857.352	11194.41
857.674	11166.39
857.996	11166.39
858.318	11068.54
858.64	11021.76
858.961	11053.17
859.283	10903.12
859.605	10963.91
859.926	11035.77
860.248	10937.69
860.57	10891.37
860.891	10862.44
861.212	10832.61
861.534	10827.87
861.855	10757.58
862.176	10779.73
862.498	10818.83
862.819	10814.98
863.14	10702.44
863.461	10702.22
863.782	10715.78
864.103	10615.22
864.424	10640.53
864.745	10686.4
865.065	10605.5
865.386	10560.3
865.707	10457.03
866.027	10530.92
866.348	10502.68
866.668	10467.42
866.989	10473.07
867.309	10377.71
867.63	10533.64
867.95	10446.86
868.27	10437.82
868.59	10415.67
868.91	10355.34
869.23	10332.28
869.55	10255
869.87	10445.28
870.19	10296.13
870.51	10331.83
870.83	10323.02
871.15	10249.12
871.469	10225.39
871.789	10225.62
872.109	10258.84
872.428	10151.27
872.748	10219.07
873.067	10206.64
873.386	10101.56
873.706	10151.95
874.025	10088.68
874.344	10063.14
874.663	10133.19
874.982	10019.98
875.301	10077.83
875.62	9975.68
875.939	9992.63
876.258	9985.85
876.577	10010.26
876.896	9980.66
877.214	9936.36
877.533	9923.71
877.852	9909.02
878.17	9937.72
878.489	9899.53
878.807	9938.4
879.125	9882.81
879.444	9893.88
879.762	9877.83
880.08	9942.01
880.398	9827.44
880.716	9760.77
881.034	9730.72
881.352	9716.71
881.67	9705.63
881.988	9704.5
882.306	9688.91
882.624	9629.25
882.941	9600.33
883.259	9537.05
883.577	9476.49
883.894	9544.28
884.212	9521.23
884.529	9534.79
884.846	9467.9
885.164	9511.52
885.481	9474.68
885.798	9419.31
886.115	9335.93
886.432	9438.07
886.75	9345.19
887.067	9347
887.383	9264.29
887.7	9370.95
888.017	9270.39
888.334	9226.33
888.651	9192.88
888.967	9203.73
889.284	9160.11
889.6	9191.07
889.917	9083.28
890.233	9026.1
890.55	9005.77
890.866	9039.21
891.182	8967.8
891.498	9011.19
891.815	8942.04
892.131	8917.41
892.447	8850.29
892.763	8867.24
893.079	8840.12
893.395	8831.76
893.71	8826.34
894.026	8766.9
894.342	8724.87
894.657	8728.26
894.973	8671.54
895.289	8649.62
895.604	8655.94
895.92	8655.72
896.235	8507.02
896.55	8568.72
896.865	8535.95
897.181	8536.85
897.496	8497.3
897.811	8471.32
898.126	8407.82
898.441	8348.61
898.756	8288.04
899.071	8278.33
899.386	8284.88
899.7	8265.67
900.015	8258.67
900.33	8138.9
900.644	8172.12
900.959	8190.42
901.273	8103.87
901.588	8064.77
901.902	7987.94
902.216	8079.91
902.531	7996.53
902.845	7964.44
903.159	7918.56
903.473	7895.74
903.787	7843.31
904.101	7799.02
904.415	7790.88
904.729	7793.14
905.042	7679.47
905.356	7694.61
905.67	7714.27
905.984	7660.94
906.297	7658
906.611	7590.89
906.924	7533.49
907.237	7571.23
907.551	7506.6
907.864	7470.89
908.177	7452.59
908.491	7458.46
908.804	7376.43
909.117	7360.16
909.43	7318.13
909.743	7319.03
910.056	7268.86
910.368	7240.39
910.681	7182.54
910.994	7213.04
911.307	7177.11
911.619	7063.22
911.932	7079.71
912.244	7049.66
912.557	7052.6
912.869	6946.16
913.181	6961.07
913.494	6885.6
913.806	6923.11
914.118	6884.69
914.43	6806.28
914.742	6832.49
915.054	6806.73
915.366	6818.03
915.678	6744.13
915.99	6683.79
916.302	6673.4
916.613	6640.63
916.925	6705.26
917.236	6665.94
917.548	6579.16
917.859	6650.35
918.171	6532.61
918.482	6560.18
918.794	6490.13
919.105	6515.44
919.416	6474.53
919.727	6421.65
920.038	6424.14
920.349	6391.82
920.66	6353.63
920.971	6316.57
921.282	6336.68
921.593	6267.08
921.903	6195.22
922.214	6198.61
922.525	6186.18
922.835	6128.55
923.146	6094.66
923.456	6108.22
923.767	6092.62
924.077	6045.62
924.387	6046.3
924.697	5988.67
925.008	5999.74
925.318	5932.4
925.628	5902.8
925.938	5922.01
926.248	5853.98
926.558	5903.7
926.867	5816.25
927.177	5858.28
927.487	5790.71
927.796	5722.69
928.106	5723.59
928.416	5713.88
928.725	5718.39
929.034	5643.82
929.344	5685.18
929.653	5688.11
929.962	5586.65
930.271	5616.7
930.581	5558.4
930.89	5508.23
931.199	5484.95
931.508	5459.64
931.817	5490.6
932.125	5464.16
932.434	5477.27
932.743	5391.85
933.051	5362.25
933.36	5352.98
933.669	5330.83
933.977	5294.9
934.286	5312.3
934.594	5301.91
934.902	5248.58
935.21	5195.24
935.519	5212.65
935.827	5171.52
936.135	5133.55
936.443	5067.79
936.751	5105.08
937.059	5114.12
937.367	5074.57
937.674	5092.42
937.982	5024.18
938.29	5039.09
938.597	4987.79
938.905	4953.44
939.213	4959.32
939.52	4890.85
939.827	4886.33
940.135	4849.49
940.442	4858.08
940.749	4827.34
941.056	4817.4
941.363	4796.61
941.67	4765.65
941.977	4741.92
942.284	4705.99
942.591	4735.82
942.898	4688.82
943.205	4705.54
943.511	4632.1
943.818	4635.26
944.125	4618.99
944.431	4598.2
944.738	4595.03
945.044	4539.67
945.35	4483.63
945.657	4509.39
945.963	4501.7
946.269	4421.25
946.575	4437.07
946.881	4466.22
947.187	4395.94
947.493	4376.06
947.799	4393.46
948.105	4350.97
948.41	4336.74
948.716	4298.55
949.022	4287.92
949.327	4345.1
949.633	4244.54
949.938	4272.33
950.244	4250.41
950.549	4234.59
950.854	4238.66
951.16	4185.1
951.465	4153.92
951.77	4180.36
952.075	4107.59
952.38	4138.32
952.685	4106.01
952.99	4098.78
953.294	4077.08
953.599	4052
953.904	4050.87
954.209	3988.04
954.513	4030.08
954.818	4003.64
955.122	3967.25
955.426	3960.93
955.731	3909.63
956.035	3863.53
956.339	3892.45
956.643	3849.07
956.948	3856.3
957.252	3855.17
957.556	3812.46
957.86	3836.41
958.163	3807.94
958.467	3763.87
958.771	3798.9
959.075	3745.57
959.378	3706.24
959.682	3704.44
959.985	3704.89
960.289	3691.78
960.592	3666.25
960.896	3654.95
961.199	3665.57
961.502	3588.28
961.805	3628.28
962.108	3617.89
962.411	3599.81
962.714	3590.54
963.017	3544.44
963.32	3518
963.623	3531.56
963.926	3482.07
964.228	3463.31
964.531	3455.63
964.833	3470.77
965.136	3433.71
965.438	3438.91
965.741	3387.83
966.043	3397.1
966.345	3383.77
966.648	3393.71
966.95	3371.11
967.252	3306.25
967.554	3320.27
967.856	3313.71
968.158	3309.42
968.46	3247.73
968.761	3240.72
969.063	3282.75
969.365	3242.98
969.666	3247.5
969.968	3191.68
970.269	3187.84
970.571	3184.45
970.872	3194.39
971.174	3172.25
971.475	3171.34
971.776	3085.24
972.077	3093.15
972.378	3111.46
972.679	3061.06
972.98	3061.06
973.281	3089.54
973.582	3046.83
973.883	3100.61
974.183	3012.48
974.484	3060.16
974.785	2997.79
975.085	3000.73
975.386	2995.75
975.686	2968.86
975.986	2992.59
976.287	2949.88
976.587	2927.96
976.887	2923.67
977.187	2894.06
977.487	2889.32
977.787	2854.74
978.087	2835.98
978.387	2838.47
978.687	2812.93
978.987	2797.79
979.286	2824.91
979.586	2794.4
979.885	2770.22
980.185	2798.7
980.484	2783.78
980.784	2758.92
981.083	2749.89
981.382	2727.29
981.682	2737.46
981.981	2724.58
982.28	2664.24
982.579	2675.99
982.878	2682.54
983.177	2654.07
983.475	2661.3
983.774	2631.47
984.073	2589.89
984.372	2607.97
984.67	2573.17
984.969	2575.88
985.267	2562.32
985.566	2544.69
985.864	2517.35
986.162	2560.74
986.461	2491.14
986.759	2497.91
987.057	2505.82
987.355	2484.81
987.653	2463.11
987.951	2485.26
988.249	2479.61
988.547	2427.86
988.844	2456.56
989.142	2407.52
989.44	2398.93
989.737	2404.13
990.035	2362.1
990.332	2374.53
990.63	2349.22
990.927	2337.47
991.224	2330.24
991.521	2328.43
991.819	2293.63
992.116	2323.91
992.413	2270.35
992.71	2301.54
993.006	2310.12
993.303	2258.82
993.6	2274.87
993.897	2260.63
994.193	2244.81
994.49	2226.96
994.787	2193.52
995.083	2175.21
995.379	2189.9
995.676	2175.89
995.972	2177.47
996.268	2143.57
996.565	2158.26
996.861	2139.96
997.157	2118.94
997.453	2115.33
997.749	2122.78
998.044	2100.18
998.34	2081.2
998.636	2091.6
998.932	2042.11
999.227	2042.56
999.523	2045.72
999.818	2039.4
1000.114	2008.44
1000.409	2049.34
1000.704	1999.85
1001	2006.63
1001.295	1982.9
1001.59	1979.51
1001.885	1968.21
1002.18	1952.39
1002.475	1952.84
1002.77	1932.28
1003.065	1921.21
1003.359	1926.18
1003.654	1894.31
1003.949	1907.2
1004.243	1880.53
1004.538	1876.69
1004.832	1880.3
1005.127	1876.91
1005.421	1854.54
1005.715	1835.56
1006.009	1800.31
1006.304	1807.76
1006.598	1797.14
1006.892	1810.93
1007.186	1759.18
1007.48	1756.24
1007.773	1749.91
1008.067	1746.3
1008.361	1733.64
1008.655	1685.51
1008.948	1711.95
1009.242	1713.53
1009.535	1700.65
1009.829	1674.89
1010.122	1688.44
1010.415	1664.49
1010.708	1645.06
1011.001	1639.63
1011.295	1657.48
1011.588	1629.24
1011.881	1656.81
1012.173	1635.11
1012.466	1611.84
1012.759	1591.5
1013.052	1585.4
1013.344	1562.57
1013.637	1594.21
1013.93	1574.77
1014.222	1560.09
1014.514	1543.14
1014.807	1530.71
1015.099	1528.22
1015.391	1528.45
1015.683	1515.57
1015.976	1508.79
1016.268	1480.09
1016.56	1496.58
1016.851	1476.02
1017.143	1476.02
1017.435	1480.09
1017.727	1436.93
1018.018	1451.16
1018.31	1443.48
1018.602	1407.1
1018.893	1411.62
1019.185	1402.58
1019.476	1385.63
1019.767	1383.82
1020.058	1372.52
1020.35	1372.29
1020.641	1361
1020.932	1346.76
1021.223	1343.37
1021.514	1314.44
1021.804	1281.45
1022.095	1304.95
1022.386	1292.97
1022.677	1308.79
1022.967	1278.06
1023.258	1297.27
1023.548	1294.33
1023.839	1245.29
1024.129	1259.76
1024.419	1246.42
1024.709	1214.33
1025	1212.98
1025.29	1226.31
1025.58	1228.12
1025.87	1174.33
1026.16	1200.55
1026.449	1201.9
1026.739	1181.11
1027.029	1164.39
1027.319	1177.72
1027.608	1158.74
1027.898	1154.22
1028.187	1158.97
1028.477	1123.04
1028.766	1130.49
1029.055	1092.98
1029.344	1146.76
1029.634	1114.22
1029.923	1075.13
1030.212	1102.47
1030.501	1088.23
1030.79	1102.25
1031.078	1100.21
1031.367	1061.34
1031.656	1045.07
1031.945	1058.63
1032.233	1060.44
1032.522	1016.82
1032.81	1028.12
1033.099	1020.44
1033.387	1021.34
1033.675	1035.13
1033.963	1026.99
1034.251	1008.91
1034.54	1004.39
1034.828	982.93
1035.116	989.93
1035.403	981.12
1035.691	926.66
1035.979	990.16
1036.267	969.59
1036.554	975.69
1036.842	942.93
1037.129	941.8
1037.417	950.84
1037.704	943.83
1037.992	924.4
1038.279	928.24
1038.566	901.12
1038.853	901.12
1039.14	901.12
