Data from hue_00_FLMS001491_61.txt Node
Date: Mon Feb 06 15:30:03 GMT 2017
User: dcchb
Spectrometer: FLMS00149
Trigger mode: 0
Integration Time (sec): 2.000000E-2
Scans to average: 10
Electric dark correction enabled: true
Nonlinearity correction enabled: false
Boxcar width: 0
XAxis mode: Wavelengths
Number of Pixels in Spectrum: 2048
>>>>>Begin Spectral Data<<<<<
341.393	-1.98
341.776	-1.98
342.16	-1.98
342.543	-37.23
342.927	-48.76
343.31	-67.51
343.693	-75.2
344.077	-59.15
344.46	-51.24
344.843	-41.52
345.226	-29.1
345.61	-33.39
345.993	-25.03
346.376	-17.12
346.759	-5.37
347.142	7.74
347.525	40.96
347.908	73.73
348.291	75.31
348.674	79.83
349.057	127.06
349.44	134.29
349.823	125.02
350.206	172.26
350.588	202.54
350.971	216.55
351.354	224.46
351.737	217.68
352.119	226.49
352.502	244.12
352.884	269.43
353.267	289.99
353.65	299.03
354.032	287.28
354.414	330.22
354.797	320.73
355.179	319.14
355.562	353.27
355.944	332.03
356.326	320.05
356.709	320.73
357.091	334.96
357.473	344.91
357.855	346.49
358.238	328.64
358.62	341.29
359.002	334.96
359.384	338.35
359.766	351.01
360.148	332.93
360.53	343.1
360.912	318.92
361.294	328.86
361.676	338.35
362.057	309.88
362.439	321.63
362.821	330.44
363.203	315.98
363.584	313.49
363.966	313.27
364.348	326.38
364.729	317.79
365.111	311.01
365.493	313.04
365.874	306.94
366.256	306.49
366.637	298.81
367.019	325.02
367.4	311.23
367.781	301.29
368.163	312.14
368.544	309.88
368.925	324.34
369.306	307.39
369.688	309.2
370.069	295.42
370.45	306.94
370.831	310.56
371.212	286.83
371.593	317.11
371.974	295.64
372.355	303.33
372.736	313.27
373.117	330.67
373.498	319.6
373.879	315.3
374.26	305.59
374.641	311.91
375.021	322.08
375.402	309.65
375.783	306.26
376.163	332.93
376.544	321.63
376.925	313.72
377.305	341.29
377.686	323.89
378.066	296.32
378.447	322.31
378.827	316.43
379.208	338.58
379.588	341.74
379.968	341.06
380.349	323.66
380.729	324.34
381.109	341.97
381.489	324.79
381.87	341.74
382.25	332.03
382.63	338.35
383.01	323.66
383.39	346.71
383.77	343.1
384.15	322.53
384.53	333.61
384.91	318.92
385.29	343.78
385.67	327.51
386.049	348.07
386.429	332.93
386.809	331.8
387.189	331.57
387.568	348.75
387.948	342.19
388.328	337.45
388.707	344
389.087	346.94
389.466	358.92
389.846	360.5
390.225	366.37
390.605	362.53
390.984	363.44
391.363	340.84
391.743	369.99
392.122	353.72
392.501	354.62
392.881	365.7
393.26	345.58
393.639	355.75
394.018	382.19
394.397	362.76
394.776	367.96
395.155	367.28
395.534	374.96
395.913	350.78
396.292	389.2
396.671	372.02
397.05	371.35
397.429	370.44
397.808	393.04
398.186	374.06
398.565	371.57
398.944	380.61
399.323	358.24
399.701	379.48
400.08	388.07
400.458	384
400.837	399.82
401.215	375.41
401.594	377.45
401.972	396.2
402.351	395.75
402.729	365.24
403.107	377
403.486	379.71
403.864	407.73
404.242	404.57
404.62	398.01
404.999	384
405.377	397.56
405.755	401.18
406.133	418.35
406.511	405.92
406.889	407.5
407.267	418.8
407.645	401.85
408.023	402.08
408.401	401.63
408.779	429.88
409.156	438.46
409.534	442.53
409.912	419.25
410.29	437.11
410.667	436.2
411.045	442.08
411.422	448.63
411.8	453.15
412.178	447.5
412.555	447.05
412.933	454.06
413.31	451.34
413.687	450.44
414.065	454.28
414.442	456.54
414.819	455.86
415.197	459.25
415.574	458.35
415.951	466.48
416.328	468.29
416.705	452.02
417.082	465.13
417.46	482.53
417.837	496.54
418.214	474.85
418.591	459.71
418.967	510.33
419.344	490.21
419.721	483.89
420.098	498.8
420.475	504.9
420.852	491.57
421.228	515.3
421.605	480.72
421.982	511.46
422.358	525.92
422.735	507.84
423.111	519.82
423.488	525.69
423.864	518.46
424.241	529.99
424.617	564.11
424.994	531.57
425.37	538.8
425.746	551.68
426.123	534.96
426.499	572.92
426.875	562.08
427.251	564.79
427.627	557.78
428.003	564.34
428.379	574.28
428.756	578.35
429.132	566.82
429.507	600.04
429.883	595.97
430.259	593.94
430.635	595.52
431.011	574.5
431.387	614.05
431.763	628.06
432.138	633.49
432.514	616.31
432.89	622.86
433.265	626.93
433.641	619.48
434.016	641.17
434.392	643.43
434.767	654.73
435.143	664.45
435.518	652.69
435.894	652.02
436.269	657.67
436.644	679.81
437.02	660.6
437.395	675.52
437.77	674.84
438.145	680.72
438.52	709.64
438.895	681.17
439.271	699.93
439.646	686.82
440.021	713.26
440.395	703.09
440.77	692.92
441.145	701.28
441.52	735.63
441.895	731.79
442.27	732.47
442.645	747.38
443.019	728.17
443.394	736.99
443.769	736.08
444.143	758.45
444.518	767.95
444.892	758.45
445.267	769.3
445.641	759.58
446.016	729.08
446.39	788.96
446.764	779.92
447.139	762.52
447.513	773.6
447.887	765.46
448.262	782.86
448.636	789.19
449.01	785.8
449.384	801.17
449.758	806.36
450.132	801.84
450.506	816.76
450.88	823.54
451.254	796.87
451.628	817.21
452.002	818.11
452.376	829.87
452.75	854.5
453.123	834.61
453.497	851.56
453.871	857.21
454.244	846.14
454.618	878
454.992	890.43
455.365	881.84
455.739	903.54
456.112	902.63
456.486	915.29
456.859	939.47
457.232	946.92
457.606	934.95
457.979	936.98
458.352	949.41
458.725	962.52
459.099	971.78
459.472	977.66
459.845	1019.24
460.218	990.31
460.591	995.74
460.964	1013.14
461.337	1033.02
461.71	1022.85
462.083	1062.18
462.456	1056.53
462.829	1042.06
463.201	1062.85
463.574	1092.91
463.947	1095.39
464.32	1099.69
464.692	1132.23
465.065	1111.21
465.438	1160.25
465.81	1110.76
466.183	1172.68
466.555	1158.22
466.928	1181.95
467.3	1194.6
467.672	1198.9
468.045	1214.26
468.417	1218.56
468.789	1227.14
469.161	1272.11
469.534	1259.46
469.906	1293.58
470.278	1295.62
470.65	1321.6
471.022	1328.16
471.394	1360.25
471.766	1356.18
472.138	1408.38
472.51	1406.8
472.882	1430.98
473.253	1461.26
473.625	1501.94
473.997	1501.71
474.369	1482.96
474.74	1521.15
475.112	1542.84
475.484	1579.45
475.855	1590.52
476.227	1617.42
476.598	1637.08
476.97	1666.68
477.341	1716.62
477.713	1734.02
478.084	1743.29
478.455	1772.67
478.827	1814.47
479.198	1881.81
479.569	1858.99
479.94	1897.18
480.311	1968.14
480.682	1982.38
481.053	2025.99
481.424	2053.79
481.795	2104.18
482.166	2115.48
482.537	2153.67
482.908	2191.41
483.279	2200.22
483.65	2227.57
484.021	2295.82
484.391	2318.19
484.762	2404.74
485.133	2363.61
485.503	2390.73
485.874	2488.8
486.244	2488.35
486.615	2579.88
486.985	2597.95
487.356	2633.43
487.726	2632.76
488.097	2700.1
488.467	2696.03
488.837	2759.76
489.207	2804.95
489.578	2808.34
489.948	2873.43
490.318	2916.59
490.688	2942.35
491.058	2978.96
491.428	3054.21
491.798	3052.86
492.168	3135.79
492.538	3129.47
492.908	3162.01
493.278	3281.78
493.648	3236.36
494.017	3272.29
494.387	3317.48
494.757	3346.64
495.126	3346.18
495.496	3414.2
495.866	3414.2
496.235	3456.69
496.605	3489.91
496.974	3527.65
497.344	3522.22
497.713	3515.22
498.082	3524.71
498.452	3625.72
498.821	3657.59
499.19	3656.23
499.559	3649.45
499.928	3686.51
500.298	3736.46
500.667	3781.43
501.036	3784.59
501.405	3792.5
501.774	3772.84
502.143	3834.08
502.512	3898.26
502.88	3898.71
503.249	3891.71
503.618	3889.67
503.987	3951.37
504.356	3999.27
504.724	3997.47
505.093	3965.6
505.462	4027.07
505.83	4013.96
506.199	4072.94
506.567	4095.32
506.936	4098.03
507.304	4168.08
507.672	4133.06
508.041	4161.75
508.409	4178.25
508.777	4185.71
509.145	4225.93
509.514	4235.43
509.882	4225.93
510.25	4246.5
510.618	4299.15
510.986	4321.52
511.354	4338.25
511.722	4337.12
512.09	4402.88
512.458	4366.5
512.826	4431.35
513.193	4430.45
513.561	4412.82
513.929	4465.7
514.297	4488.3
514.664	4513.84
515.032	4553.61
515.4	4533.95
515.767	4589.09
516.135	4587.96
516.502	4557
516.869	4577.34
517.237	4602.42
517.604	4641.06
517.972	4610.56
518.339	4672.7
518.706	4647.62
519.073	4685.81
519.44	4721.74
519.808	4751.57
520.175	4712.7
520.542	4782.98
520.909	4754.96
521.276	4789.08
521.643	4837.22
522.009	4833.83
522.376	4803.55
522.743	4879.25
523.11	4914.5
523.477	4971.68
523.843	4973.71
524.21	4990.66
524.577	5062.52
524.943	5039.47
525.31	5048.06
525.676	5126.7
526.043	5130.09
526.409	5163.99
526.776	5211.9
527.142	5190.65
527.508	5154.95
527.874	5246.92
528.241	5248.96
528.607	5282.4
528.973	5375.51
529.339	5346.81
529.705	5387.49
530.071	5351.1
530.437	5440.82
530.803	5415.96
531.169	5498.44
531.535	5476.97
531.901	5505.45
532.267	5516.52
532.632	5558.33
532.998	5580.7
533.364	5649.17
533.73	5669.51
534.095	5661.15
534.461	5644.88
534.826	5686.91
535.192	5754.93
535.557	5760.36
535.923	5740.24
536.288	5798.32
536.653	5846.68
537.019	5815.72
537.384	5882.61
537.749	5830.64
538.114	5871.99
538.479	5973.23
538.845	5941.14
539.21	5973.68
539.575	6026.11
539.94	6011.2
540.305	6044.19
540.67	6049.16
541.034	6046.23
541.399	6131.19
541.764	6122.38
542.129	6129.61
542.494	6146.11
542.858	6170.06
543.223	6218.42
543.587	6258.65
543.952	6285.54
544.316	6281.47
544.681	6302.72
545.045	6375.48
545.41	6410.06
545.774	6384.3
546.138	6407.35
546.503	6443.05
546.867	6410.96
547.231	6528.7
547.595	6521.92
547.959	6525.08
548.324	6572.09
548.688	6530.51
549.052	6616.61
549.416	6619.32
549.779	6568.47
550.143	6601.24
550.507	6675.59
550.871	6739.99
551.235	6716.04
551.599	6793.1
551.962	6836.26
552.326	6776.6
552.689	6830.39
553.053	6828.35
553.417	6817.28
553.78	6936.15
554.143	6863.83
554.507	6944.51
554.87	6949.93
555.234	7002.13
555.597	6890.5
555.96	6936.15
556.323	7001
556.686	6994.67
557.05	7060.44
557.413	7055.46
557.776	7106.76
558.139	7129.36
558.502	7146.31
558.865	7166.65
559.228	7193.09
559.59	7234.22
559.953	7228.34
560.316	7330.94
560.679	7238.96
561.041	7316.25
561.404	7359.41
561.767	7430.37
562.129	7447.77
562.492	7465.4
562.854	7422.01
563.217	7435.34
563.579	7497.49
563.941	7513.76
564.304	7496.13
564.666	7616.35
565.028	7584.49
565.39	7658.39
565.753	7676.69
566.115	7679.63
566.477	7666.75
566.839	7693.19
567.201	7845.27
567.563	7781.77
567.925	7845.5
568.287	7828.1
568.648	7906.06
569.01	7938.15
569.372	7958.27
569.734	7960.75
570.095	8011.6
570.457	8098.15
570.819	8081.43
571.18	8113.52
571.542	8144.48
571.903	8215.89
572.265	8298.37
572.626	8231.7
572.987	8304.7
573.349	8356.45
573.71	8391.93
574.071	8440.29
574.432	8465.14
574.794	8543.33
575.155	8629.66
575.516	8635.08
575.877	8694.52
576.238	8740.62
576.599	8787.17
576.96	8921.4
577.32	8973.38
577.681	8954.4
578.042	9121.4
578.403	9197.78
578.763	9215.63
579.124	9351
579.485	9474.84
579.845	9578.34
580.206	9660.82
580.566	9715.51
580.927	9859.01
581.287	10019.91
581.648	10080.02
582.008	10226.68
582.368	10390.97
582.728	10526.79
583.089	10571.98
583.449	10733.79
583.809	10937.85
584.169	10992.99
584.529	11186.88
584.889	11488.57
585.249	11507.55
585.609	11719.97
585.969	12015.79
586.329	12123.35
586.688	12300.75
587.048	12590.01
587.408	12764.47
587.768	12938.7
588.127	13107.28
588.487	13373.04
588.846	13672.47
589.206	13802.41
589.565	14000.37
589.925	14361.94
590.284	14595.38
590.643	14909.27
591.003	15110.17
591.362	15430.39
591.721	15615.24
592.08	15845.29
592.44	16167.09
592.799	16452.73
593.158	16562.11
593.517	16878.48
593.876	17176.33
594.235	17532.93
594.593	17761.4
594.952	18127.26
595.311	18231.67
595.67	18570.19
596.029	19018.09
596.387	19213.79
596.746	19466.44
597.104	19752.76
597.463	19979.64
597.822	20325.62
598.18	20573.75
598.538	20803.58
598.897	21232.72
599.255	21296.9
599.613	21921.74
599.972	22062.98
600.33	22360.6
600.688	22540.03
601.046	22823.86
601.404	23232.89
601.762	23443.51
602.12	23763.5
602.478	23888.92
602.836	24233.54
603.194	24338.85
603.552	24676.7
603.91	24786.75
604.268	25200.3
604.625	25361.65
604.983	25703.56
605.341	25906.04
605.698	26207.73
606.056	26457.44
606.413	26588.74
606.771	26967.03
607.128	27225.1
607.485	27255.84
607.843	27549.61
608.2	27863.96
608.557	28132.65
608.914	28161.8
609.272	28695.35
609.629	28917.26
609.986	28988.67
610.343	29116.81
610.7	29483.58
611.057	29692.38
611.414	29659.84
611.771	30001.08
612.127	30177.34
612.484	30313.61
612.841	30625.47
613.198	30730.77
613.554	30808.29
613.911	31203.3
614.267	31332.79
614.624	31439.23
614.98	31567.36
615.337	31881.25
615.693	31997.41
616.05	32122.38
616.406	32390.17
616.762	32423.38
617.118	32531.4
617.475	32648.69
617.831	32906.99
618.187	33080.99
618.543	33078.06
618.899	33566.63
619.255	33545.16
619.611	33707.19
619.967	33658.38
620.323	33911.71
620.678	33873.29
621.034	33910.8
621.39	34064.47
621.746	34091.14
622.101	34642.76
622.457	34275.31
622.812	34524.57
623.168	34657.9
623.523	34729.99
623.879	34786.03
624.234	34772.93
624.589	35038.46
624.945	35096.53
625.3	35218.57
625.655	35135.4
626.01	35280.48
626.365	35407.94
626.72	35457.43
627.075	35418.79
627.43	35478.45
627.785	35491.55
628.14	35780.36
628.495	35703.3
628.85	35864.2
629.205	35589.18
629.559	35872.11
629.914	35819.45
630.269	35999.79
630.623	35871.66
630.978	35951.43
631.332	35964.76
631.687	36233
632.041	35994.36
632.396	35967.7
632.75	36027.13
633.104	36076.85
633.459	35849.74
633.813	36042.5
634.167	35951.2
634.521	35889.51
634.875	36102.16
635.229	36027.13
635.583	35974.93
635.937	36044.31
636.291	36040.46
636.645	35997.08
636.999	36059.67
637.352	36058.54
637.706	35991.43
638.06	36131.76
638.413	36110.29
638.767	36130.18
639.121	35998.43
639.474	35931.99
639.828	36098.09
640.181	36052.67
640.534	36127.69
640.888	35999.79
641.241	35784.43
641.594	36043.4
641.947	35971.54
642.301	35878.89
642.654	36074.59
643.007	35924.99
643.36	35932.67
643.713	35818.32
644.066	36134.47
644.419	35759.12
644.771	35636.18
645.124	35332.46
645.477	35134.73
645.83	34993.71
646.182	34990.1
646.535	34853.38
646.888	34890.44
647.24	34699.03
647.593	34973.15
647.945	34889.53
648.298	34779.71
648.65	34782.64
649.002	34663.33
649.355	34905.58
649.707	34685.02
650.059	34984
650.411	35230.32
650.763	35275.51
651.115	35571.55
651.467	35523.19
651.819	35536.98
652.171	35445
652.523	35515.05
652.875	35487.26
653.227	35278
653.578	35527.48
653.93	35385.11
654.282	35349.41
654.633	35300.6
654.985	35265.12
655.337	35311.22
655.688	35246.59
656.039	35456.98
656.391	35160.94
656.742	35279.81
657.094	35146.03
657.445	35327.04
657.796	35347.15
658.147	35224.67
658.498	35191.22
658.849	35127.72
659.2	35189.64
659.551	35249.53
659.902	35294.95
660.253	35201.84
660.604	35149.41
660.955	34928.18
661.306	35226.02
661.656	35153.03
662.007	35193.26
662.358	35238.9
662.708	35071.9
663.059	35106.25
663.409	34955.75
663.76	35276.19
664.11	35087.27
664.461	35132.92
664.811	35172.47
665.161	35094.95
665.511	35014.28
665.862	35066.25
666.212	35166.82
666.562	35160.04
666.912	34984.67
667.262	34993.94
667.612	35093.37
667.962	35086.59
668.312	35098.12
668.662	35145.57
669.011	35091.79
669.361	34966.82
669.711	34972.92
670.06	34885.24
670.41	34801.18
670.76	34772.7
671.109	35099.47
671.459	34815.86
671.808	34937.44
672.157	35009.31
672.507	34764.11
672.856	34715.53
673.205	34816.99
673.554	34846.6
673.904	34739.93
674.253	34890.66
674.602	34752.36
674.951	34310.79
675.3	34186.05
675.649	34641.63
675.998	34755.98
676.346	34743.78
676.695	34765.02
677.044	34514.18
677.393	34602.99
677.741	34592.59
678.09	34708.07
678.438	34390.11
678.787	34477.34
679.135	34546.72
679.484	34415.65
679.832	34548.07
680.181	34422.43
680.529	34427.63
680.877	34298.14
681.225	34223.56
681.573	34367.97
681.922	34083.68
682.27	34019.73
682.618	34246.16
682.966	34071.03
683.314	34128.88
683.661	33929.56
684.009	33746.06
684.357	33876.68
684.705	33671.04
685.053	33738.6
685.4	33628.32
685.748	33494.77
686.095	33549.46
686.443	33381.33
686.79	33363.7
687.138	33434.88
687.485	33349.46
687.832	33315.79
688.18	33341.78
688.527	33148.11
688.874	33094.33
689.221	33047.32
689.568	33078.73
689.915	33019.75
690.262	32819.76
690.609	32816.37
690.956	32723.49
691.303	32693.21
691.65	32572.31
691.997	32469.71
692.344	32382.03
692.69	32287.34
693.037	32416.15
693.383	32048.48
693.73	32233.11
694.077	32028.82
694.423	32096.39
694.769	31909.05
695.116	31864.3
695.462	31724.42
695.808	31639
696.155	31779.33
696.501	31485.33
696.847	31529.85
697.193	31282.62
697.539	31500.7
697.885	31141.61
698.231	31057.54
698.577	30980.71
698.923	30989.98
699.269	30938
699.614	30720.83
699.96	30637.67
700.306	30829.3
700.651	30706.82
700.997	30507.28
701.342	30444
701.688	30349.09
702.033	30179.15
702.379	30266.38
702.724	30232.48
703.069	30216.66
703.415	29911.36
703.76	29881.76
704.105	29900.29
704.45	29881.08
704.795	29747.97
705.14	29675.66
705.485	29715.89
705.83	29423.92
706.175	29611.26
706.52	29584.59
706.865	29328.32
707.209	29269.34
707.554	29220.31
707.899	29171.04
708.243	29088.11
708.588	29094.66
708.932	28943.7
709.277	28833.42
709.621	28924.95
709.966	28609.02
710.31	28745.06
710.654	28409.25
710.998	28566.76
711.342	28470.27
711.687	28510.04
712.031	28328.8
712.375	28210.84
712.719	28311.63
713.063	28169.49
713.407	28251.97
713.75	28091.75
714.094	28058.75
714.438	28016.27
714.782	27952.54
715.125	27721.81
715.469	27903.5
715.812	27744.41
716.156	27639.56
716.499	27603.85
716.843	27617.18
717.186	27483.85
717.53	27569.73
717.873	27579.67
718.216	27496.28
718.559	27316.17
718.902	27259.9
719.246	27323.18
719.589	27227.59
719.932	27071.44
720.275	27111.66
720.617	27093.36
720.96	27061.94
721.303	27087.48
721.646	26960.7
721.989	26860.59
722.331	27006.8
722.674	26870.08
723.016	26862.85
723.359	26786.92
723.701	26763.65
724.044	26582.86
724.386	26476.87
724.729	26666.7
725.071	26580.83
725.413	26542.64
725.755	26462.86
726.097	26248.86
726.439	26201.18
726.782	26191.01
727.124	26319.82
727.465	26191.91
727.807	26258.35
728.149	26136.32
728.491	26031.91
728.833	26131.57
729.175	25996.44
729.516	26067.39
729.858	25872.14
730.199	26102.65
730.541	25916.66
730.882	25747.85
731.224	25899.26
731.565	25794.41
731.906	25645.48
732.248	25816.1
732.589	25667.86
732.93	25435.55
733.271	25569.55
733.612	25497.01
733.953	25522.78
734.294	25419.28
734.635	25400.97
734.976	25486.62
735.317	25315.55
735.658	25330.01
735.999	25257.7
736.339	25233.97
736.68	25272.39
737.021	25194.65
737.361	25044.37
737.702	25234.65
738.042	25242.56
738.383	25076.46
738.723	25005.5
739.063	24993.52
739.404	25040.08
739.744	24997.37
740.084	24859.06
740.424	24776.58
740.764	24848.89
741.104	24911.04
741.444	24691.38
741.784	24661.78
742.124	24648.22
742.464	24769.57
742.804	24568.68
743.143	24502.92
743.483	24549.69
743.823	24502.24
744.162	24518.96
744.502	24483.25
744.841	24462.92
745.181	24573.65
745.52	24299.53
745.86	24334.78
746.199	24268.34
746.538	24168.01
746.877	24250.94
747.216	24380.88
747.556	24113.09
747.895	24080.33
748.234	24050.27
748.573	23997.62
748.911	24057.05
749.25	23862.48
749.589	23891.63
749.928	23836.27
750.267	23949.26
750.605	23724.86
750.944	23782.71
751.283	23589.49
751.621	23679.66
751.96	23549.72
752.298	23608.02
752.636	23652.77
752.975	23496.61
753.313	23376.39
753.651	23338.43
753.989	23295.72
754.327	23391.76
754.666	23139.79
755.004	23243.51
755.342	23220.91
755.679	23173.91
756.017	23028.38
756.355	23167.13
756.693	23050.07
757.031	23097.98
757.368	22888.72
757.706	22892.11
758.044	22804.43
758.381	22814.15
758.719	22752
759.056	22803.07
759.394	22652.34
759.731	22500.26
760.068	22434.49
760.405	22370.32
760.743	22252.35
761.08	22321.96
761.417	22145.24
761.754	22193.37
762.091	22231.11
762.428	22144.78
762.765	21971
763.102	22033.6
763.438	21895.53
763.775	21863.89
764.112	21759.48
764.449	21732.37
764.785	21694.4
765.122	21490.79
765.458	21415.31
765.795	21456.67
766.131	21391.58
766.467	21388.42
766.804	21324.24
767.14	21159.27
767.476	21172.61
767.812	21031.37
768.148	21036.57
768.485	20871.82
768.821	20849.68
769.157	20822.79
769.492	20765.16
769.828	20766.06
770.164	20476.35
770.5	20442
770.836	20524.04
771.171	20386.41
771.507	20269.58
771.842	20172.63
772.178	20146.42
772.513	20104.61
772.849	20014.67
773.184	20032.52
773.519	19886.31
773.855	19962.7
774.19	19731.06
774.525	19675.92
774.86	19678.41
775.195	19607.68
775.53	19606.55
775.865	19452.43
776.2	19350.51
776.535	19256.5
776.87	19194.58
777.205	19171.53
777.539	19099.44
777.874	19126.79
778.209	18859.9
778.543	18900.8
778.878	18807.92
779.212	18844.98
779.547	18748.94
779.881	18630.08
780.215	18535.84
780.55	18659.45
780.884	18395.51
781.218	18462.85
781.552	18463.75
781.886	18275.96
782.22	18134.27
782.554	18104.44
782.888	17979.02
783.222	17878.46
783.556	17876.65
783.889	17833.49
784.223	17664.45
784.557	17691.79
784.89	17646.82
785.224	17565.7
785.557	17442.54
785.891	17367.96
786.224	17410.45
786.558	17421.52
786.891	17205.03
787.224	17122.54
787.557	17124.13
787.891	17126.84
788.224	17007.52
788.557	16961.64
788.89	16996.67
789.223	16893.4
789.556	16786.51
789.888	16740.86
790.221	16739.5
790.554	16623.8
790.887	16570.47
791.219	16591.71
791.552	16476.23
791.884	16351.26
792.217	16325.5
792.549	16335.67
792.882	16181.55
793.214	16151.95
793.546	16057.71
793.879	16011.61
794.211	16011.16
794.543	15943.14
794.875	15969.35
795.207	15929.58
795.539	15812.3
795.871	15824.5
796.203	15633.54
796.535	15658.63
796.867	15537.95
797.198	15421.12
797.53	15494.56
797.862	15495.24
798.193	15469.93
798.525	15295.02
798.856	15348.13
799.188	15243.95
799.519	15190.17
799.85	15163.95
800.182	15042.15
800.513	14990.85
800.844	14956.05
801.175	14965.99
801.506	14985.2
801.837	14847.8
802.168	14834.69
802.499	14742.49
802.83	14741.14
803.161	14668.37
803.491	14706.56
803.822	14663.63
804.153	14625.66
804.483	14495.04
804.814	14326.46
805.145	14403.97
805.475	14382.96
805.805	14236.74
806.136	14292.79
806.466	14245.11
806.796	14263.64
807.126	14166.24
807.457	14065.9
807.787	14079.69
808.117	13937.77
808.447	13997.65
808.777	13968.73
809.107	13935.74
809.436	13925.34
809.766	13869.97
810.096	13799.92
810.426	13860.03
810.755	13716.98
811.085	13719.24
811.414	13687.15
811.744	13548.17
812.073	13541.85
812.403	13572.35
812.732	13458.23
813.061	13495.52
813.39	13375.52
813.719	13456.43
814.049	13441.74
814.378	13390.89
814.707	13321.97
815.036	13319.03
815.365	13243.78
815.693	13108.41
816.022	13126.72
816.351	13080.62
816.68	12977.34
817.008	13023.22
817.337	12908.87
817.665	12914.29
817.994	12964.91
818.322	12978.92
818.651	12881.3
818.979	12827.97
819.307	12908.42
819.636	12847.18
819.964	12745.94
820.292	12817.57
820.62	12736.67
820.948	12760.4
821.276	12759.95
821.604	12678.14
821.932	12771.47
822.259	12807.18
822.587	12733.51
822.915	12741.19
823.243	12742.09
823.57	12763.11
823.898	12716.56
824.225	12671.81
824.553	12645.6
824.88	12667.97
825.207	12681.76
825.535	12705.26
825.862	12652.83
826.189	12632.94
826.516	12788.87
826.843	12734.41
827.17	12666.62
827.497	12655.99
827.824	12681.98
828.151	12697.12
828.478	12555.43
828.805	12701.87
829.131	12650.35
829.458	12649.89
829.785	12619.16
830.111	12516.34
830.438	12709.33
830.764	12592.95
831.09	12607.41
831.417	12586.17
831.743	12595.88
832.069	12634.53
832.395	12475.21
832.722	12592.72
833.048	12548.65
833.374	12535.32
833.7	12488.77
834.026	12470.01
834.351	12457.81
834.677	12527.18
835.003	12391.14
835.329	12469.11
835.654	12494.87
835.98	12369.45
836.306	12336.23
836.631	12368.54
836.956	12315.21
837.282	12344.36
837.607	12315.44
837.932	12239.73
838.258	12198.83
838.583	12284.25
838.908	12169.91
839.233	12209.45
839.558	12172.17
839.883	12139.4
840.208	12124.48
840.533	12023.24
840.858	12082.45
841.182	12128.55
841.507	12097.14
841.832	12016.92
842.156	12038.38
842.481	12069.34
842.805	11896.01
843.13	11896.69
843.454	11926.07
843.778	11914.09
844.103	11879.97
844.427	11840.2
844.751	11806.98
845.075	11791.84
845.399	11708.22
845.723	11694.21
846.047	11704.38
846.371	11583.25
846.695	11689.69
847.019	11496.48
847.343	11511.17
847.666	11380.32
847.99	11312.3
848.313	11334
848.637	11242.92
848.96	11276.14
849.284	11242.47
849.607	11147.56
849.931	11140.33
850.254	10991.18
850.577	11014.91
850.9	10898.3
851.223	10865.31
851.546	10912.31
851.869	10799.32
852.192	10832.77
852.515	10721.13
852.838	10709.61
853.161	10682.94
853.483	10616.95
853.806	10595.03
854.129	10548.93
854.451	10470.97
854.774	10481.81
855.096	10478.2
855.419	10432.78
855.741	10390.29
856.063	10351.87
856.385	10432.1
856.708	10254.25
857.03	10233.23
857.352	10239.79
857.674	10248.6
857.996	10219.67
858.318	10124.76
858.64	10190.52
858.961	10089.28
859.283	10084.31
859.605	10039.57
859.926	10013.58
860.248	9953.47
860.57	9995.5
860.891	9927.71
861.212	9830.98
861.534	9861.49
861.855	9890.19
862.176	9865.79
862.498	9875.28
862.819	9861.27
863.14	9748.73
863.461	9783.98
863.782	9769.29
864.103	9745.11
864.424	9666.02
864.745	9660.14
865.065	9665.79
865.386	9611.33
865.707	9643.87
866.027	9647.94
866.348	9625.79
866.668	9643.64
866.989	9531.78
867.309	9493.82
867.63	9545.34
867.95	9568.17
868.27	9482.75
868.59	9480.71
868.91	9405.01
869.23	9347.16
869.55	9449.98
869.87	9460.15
870.19	9377.44
870.51	9469.64
870.83	9453.14
871.15	9343.99
871.469	9276.2
871.789	9324.33
872.109	9328.4
872.428	9203.43
872.748	9307.83
873.067	9340.15
873.386	9268.97
873.706	9205.01
874.025	9286.14
874.344	9205.24
874.663	9153.04
874.982	9210.89
875.301	9197.78
875.62	9089.54
875.939	9106.26
876.258	9079.59
876.577	9075.98
876.896	9044.79
877.214	9000.05
877.533	9083.89
877.852	9035.53
878.17	8993.72
878.489	9010.89
878.807	8984.68
879.125	8998.92
879.444	8981.06
879.762	8905.81
880.08	8971.12
880.398	8872.59
880.716	8896.77
881.034	8904.46
881.352	8832.37
881.67	8821.07
881.988	8859.26
882.306	8800.05
882.624	8743.56
882.941	8783.78
883.259	8711.01
883.577	8740.17
883.894	8718.92
884.212	8644.8
884.529	8680.28
884.846	8570.45
885.164	8609.1
885.481	8575.42
885.798	8618.36
886.115	8509.44
886.432	8530
886.75	8493.17
887.067	8534.75
887.383	8497.91
887.7	8461.3
888.017	8410
888.334	8382.21
888.651	8410
888.967	8408.87
889.284	8321.87
889.6	8328.65
889.917	8275.55
890.233	8278.71
890.55	8278.93
890.866	8269.44
891.182	8248.2
891.498	8175.43
891.815	8178.6
892.131	8159.39
892.447	8125.04
892.763	8116.45
893.079	8056.12
893.395	7984.71
893.71	7982.67
894.026	8014.76
894.342	7978.6
894.657	7940.41
894.973	7884.59
895.289	7927.08
895.604	7964.82
895.92	7832.39
896.235	7839.62
896.55	7758.95
896.865	7864.71
897.181	7731.6
897.496	7731.83
897.811	7707.65
898.126	7662.45
898.441	7567.32
898.756	7577.71
899.071	7577.94
899.386	7565.73
899.7	7525.96
900.015	7464.49
900.33	7476.24
900.644	7430.37
900.959	7422.91
901.273	7346.98
901.588	7346.53
901.902	7319.19
902.216	7354.44
902.531	7320.54
902.845	7265.18
903.159	7251.17
903.473	7182.47
903.787	7177.04
904.101	7136.14
904.415	7138.4
904.729	7102.02
905.042	7060.66
905.356	7036.71
905.67	7058.18
905.984	7017.73
906.297	6977.27
906.611	6956.48
906.924	6921.91
907.237	6889.82
907.551	6883.72
907.864	6879.42
908.177	6772.31
908.491	6834
908.804	6767.56
909.117	6716.49
909.43	6645.08
909.743	6707.45
910.056	6674.91
910.368	6620.67
910.681	6595.14
910.994	6627.9
911.307	6531.64
911.619	6502.03
911.932	6499.32
912.244	6480.79
912.557	6473.11
912.869	6439.21
913.181	6366.22
913.494	6399.44
913.806	6337.07
914.118	6349.49
914.43	6281.93
914.742	6258.87
915.054	6285.09
915.366	6261.13
915.678	6175.94
915.99	6208.48
916.302	6126
916.613	6142.27
916.925	6078.99
917.236	6097.98
917.548	6051.65
917.859	5984.08
918.171	5958.32
918.482	5940.69
918.794	5930.52
919.105	5933.69
919.416	5904.99
919.727	5914.03
920.038	5865.44
920.349	5839.9
920.66	5798.77
920.971	5782.05
921.282	5767.59
921.593	5735.5
921.903	5719.91
922.214	5693.47
922.525	5695.5
922.835	5650.76
923.146	5603.07
923.456	5620.02
923.767	5580.7
924.077	5558.78
924.387	5519.69
924.697	5497.77
925.008	5435.85
925.318	5474.04
925.628	5453.25
925.938	5439.69
926.248	5340.93
926.558	5365.11
926.867	5342.29
927.177	5312.46
927.487	5289.41
927.796	5272.01
928.106	5263.19
928.416	5209.41
928.725	5233.14
929.034	5170.09
929.344	5177.55
929.653	5129.41
929.962	5095.52
930.271	5128.06
930.581	5064.78
930.89	5087.83
931.199	5046.25
931.508	5006.7
931.817	4984.78
932.125	4970.77
932.434	4917.22
932.743	4883.77
933.051	4907.72
933.36	4849.19
933.669	4861.62
933.977	4842.87
934.286	4770.33
934.594	4844.45
934.902	4776.88
935.21	4778.69
935.519	4778.24
935.827	4720.84
936.135	4740.04
936.443	4675.87
936.751	4674.28
937.059	4667.28
937.367	4589.77
937.674	4637.22
937.982	4584.34
938.29	4578.24
938.597	4571.24
938.905	4530.11
939.213	4480.84
939.52	4463.44
939.827	4515.87
940.135	4462.99
940.442	4402.2
940.749	4440.84
941.056	4448.53
941.363	4362.43
941.67	4338.02
941.977	4340.51
942.284	4311.58
942.591	4295.54
942.898	4287.18
943.205	4241.98
943.511	4271.58
943.818	4225.93
944.125	4232.49
944.431	4205.14
944.738	4200.4
945.044	4141.19
945.35	4187.97
945.657	4139.16
945.963	4083.79
946.269	4118.59
946.575	4068.42
946.881	4060.29
947.187	4051.25
947.493	4018.93
947.799	3953.4
948.105	4008.99
948.41	3984.36
948.716	3954.75
949.022	3900.74
949.327	3940.29
949.633	3896
949.938	3864.81
950.244	3905.94
950.549	3816.68
950.854	3860.75
951.16	3800.18
951.465	3793.63
951.77	3828.2
952.075	3784.82
952.38	3771.03
952.685	3761.77
952.99	3720.41
953.294	3693.74
953.599	3670.02
953.904	3657.81
954.209	3645.38
954.513	3685.16
954.818	3597.48
955.122	3601.54
955.426	3578.72
955.731	3591.6
956.035	3557.7
956.339	3552.51
956.643	3587.98
956.948	3558.83
957.252	3525.61
957.556	3535.78
957.86	3515.9
958.163	3448.1
958.467	3441.32
958.771	3439.06
959.075	3442.68
959.378	3400.19
959.682	3447.88
959.985	3385.73
960.289	3350.93
960.592	3332.62
960.896	3347.31
961.199	3319.97
961.502	3300.08
961.805	3297.6
962.108	3286.52
962.411	3261.44
962.714	3237.94
963.017	3235.23
963.32	3251.5
963.623	3163.59
963.926	3178.5
964.228	3157.71
964.531	3143.02
964.833	3157.71
965.136	3110.94
965.438	3129.01
965.741	3072.52
966.043	3111.84
966.345	3086.3
966.648	3053.99
966.95	3054.89
967.252	3059.41
967.554	3038.17
967.856	3064.16
968.158	3005.63
968.46	3005.18
968.761	2954.1
969.063	2939.41
969.365	2920.66
969.666	2949.81
969.968	2935.12
970.269	2886.08
970.571	2933.09
970.872	2886.08
971.174	2883.82
971.475	2874.11
971.776	2835.91
972.077	2822.58
972.378	2836.37
972.679	2824.39
972.98	2814.67
973.281	2772.41
973.582	2785.07
973.883	2784.84
974.183	2763.83
974.484	2738.74
974.785	2739.87
975.085	2718.63
975.386	2720.66
975.686	2641.12
975.986	2694.67
976.287	2667.78
976.587	2634.34
976.887	2634.79
977.187	2649.93
977.487	2647.44
977.787	2587.11
978.087	2610.84
978.387	2619.2
978.687	2614
978.987	2540.78
979.286	2535.36
979.586	2528.13
979.885	2575.58
980.185	2509.82
980.484	2503.95
980.784	2512.98
981.083	2501.46
981.382	2479.77
981.682	2465.53
981.981	2466.43
982.28	2469.37
982.579	2421.24
982.878	2450.16
983.177	2458.3
983.475	2440.44
983.774	2389.82
984.073	2379.2
984.372	2370.39
984.67	2393.44
984.969	2351.41
985.267	2356.83
985.566	2339.43
985.864	2339.66
986.162	2346.21
986.461	2315.93
986.759	2297.17
987.057	2279.54
987.355	2268.25
987.653	2251.97
987.951	2289.04
988.249	2275.25
988.547	2241.58
988.844	2230.96
989.142	2200.68
989.44	2205.2
989.737	2224.4
990.035	2199.55
990.332	2161.58
990.63	2126.55
990.927	2163.16
991.224	2154.12
991.521	2135.82
991.819	2145.54
992.116	2103.73
992.413	2137.85
992.71	2077.06
993.006	2113
993.303	2045.2
993.6	2084.75
993.897	2063.96
994.193	2042.04
994.49	2033.45
994.787	2054.47
995.083	2013.11
995.379	2011.08
995.676	2007.24
995.972	1982.15
996.268	1972.66
996.565	1974.47
996.861	1948.25
997.157	1959.1
997.453	1961.81
997.749	1952.77
998.044	1914.81
998.34	1917.75
998.636	1953.68
998.932	1907.58
999.227	1882.72
999.523	1876.84
999.818	1872.55
1000.114	1890.18
1000.409	1891.31
1000.704	1860.35
1001	1834.81
1001.295	1799.78
1001.59	1827.35
1001.885	1851.08
1002.18	1810.86
1002.475	1802.72
1002.77	1782.61
1003.065	1795.04
1003.359	1775.83
1003.654	1760.46
1003.949	1757.75
1004.243	1750.52
1004.538	1734.25
1004.832	1715.49
1005.127	1731.99
1005.421	1704.87
1005.715	1678.43
1006.009	1702.16
1006.304	1658.09
1006.598	1692.89
1006.892	1636.62
1007.186	1658.77
1007.48	1620.58
1007.773	1630.97
1008.067	1622.16
1008.361	1587.36
1008.655	1605.66
1008.948	1599.79
1009.242	1616.06
1009.535	1563.41
1009.829	1565.89
1010.122	1555.27
1010.415	1548.72
1010.708	1575.16
1011.001	1566.12
1011.295	1512.56
1011.588	1517.76
1011.881	1504.65
1012.173	1480.7
1012.466	1518.66
1012.759	1505.78
1013.052	1501.03
1013.344	1489.73
1013.637	1425.78
1013.93	1444.54
1014.222	1470.07
1014.514	1443.18
1014.807	1419.45
1015.099	1403.86
1015.391	1401.38
1015.683	1447.48
1015.976	1411.32
1016.268	1392.56
1016.56	1377.42
1016.851	1351.21
1017.143	1396.86
1017.435	1367.7
1017.727	1345.11
1018.018	1341.04
1018.31	1322.06
1018.602	1343.52
1018.893	1327.03
1019.185	1334.94
1019.476	1308.5
1019.767	1292.68
1020.058	1281.83
1020.35	1276.41
1020.641	1267.14
1020.932	1255.39
1021.223	1242.74
1021.514	1229.18
1021.804	1226.92
1022.095	1205
1022.386	1221.95
1022.677	1228.72
1022.967	1209.06
1023.258	1187.82
1023.548	1197.99
1023.839	1157.77
1024.129	1183.53
1024.419	1157.31
1024.709	1166.58
1025	1125.22
1025.29	1162.51
1025.58	1144.21
1025.87	1110.31
1026.16	1133.59
1026.449	1096.3
1026.739	1103.76
1027.029	1105.79
1027.319	1066.92
1027.608	1080.93
1027.898	1067.15
1028.187	1089.75
1028.477	1059.69
1028.766	1063.98
1029.055	1059.46
1029.344	1049.52
1029.634	1052.01
1029.923	1044.1
1030.212	1051.55
1030.501	1048.84
1030.79	1026.47
1031.078	1032.12
1031.367	1026.92
1031.656	1000.03
1031.945	1002.74
1032.233	969.52
1032.522	953.25
1032.81	975.4
1033.099	958.45
1033.387	954.38
1033.675	957.77
1033.963	963.42
1034.251	949.41
1034.54	940.37
1034.828	945.12
1035.116	913.48
1035.403	911.22
1035.691	920.48
1035.979	935.4
1036.267	922.52
1036.554	924.55
1036.842	884.1
1037.129	878.23
1037.417	872.35
1037.704	880.26
1037.992	882.97
1038.279	889.98
1038.566	859.24
1038.853	859.24
1039.14	859.24
