Data from hue_200_FLMS001491_00077.txt Node
Date: Tue Feb 07 16:43:55 GMT 2017
User: dcchb
Spectrometer: FLMS00149
Trigger mode: 0
Integration Time (sec): 2.000000E-2
Scans to average: 10
Electric dark correction enabled: true
Nonlinearity correction enabled: false
Boxcar width: 0
XAxis mode: Wavelengths
Number of Pixels in Spectrum: 2048
>>>>>Begin Spectral Data<<<<<
341.393	-28.21
341.776	-28.21
342.16	-28.21
342.543	-63.01
342.927	-81.31
343.31	-51.26
343.693	-56.68
344.077	-54.65
344.46	-64.81
344.843	-49.45
345.226	-32.95
345.61	-28.21
345.993	-10.8
346.376	4.79
346.759	-5.38
347.142	29.87
347.525	47.72
347.908	33.71
348.291	69.42
348.674	84.33
349.057	84.33
349.44	123.65
349.823	140.38
350.206	177.89
350.588	195.97
350.971	205.91
351.354	209.98
351.737	230.32
352.119	244.33
352.502	252.92
352.884	299.92
353.267	274.61
353.65	288.17
354.032	306.25
354.414	307.83
354.797	312.8
355.179	334.5
355.562	325.23
355.944	314.38
356.326	335.4
356.709	308.73
357.091	332.46
357.473	343.76
357.855	338.34
358.238	346.02
358.62	322.97
359.002	345.12
359.384	336.08
359.766	332.01
360.148	334.72
360.53	332.91
360.912	347.38
361.294	325.68
361.676	319.81
362.057	335.17
362.439	337.89
362.821	334.5
363.203	342.18
363.584	332.69
363.966	320.94
364.348	320.03
364.729	320.71
365.111	307.38
365.493	328.4
365.874	334.5
366.256	320.49
366.637	308.06
367.019	320.26
367.4	324.33
367.781	320.26
368.163	313.48
368.544	305.8
368.925	307.15
369.306	328.85
369.688	328.85
370.069	322.52
370.45	313.03
370.831	318.45
371.212	291.11
371.593	338.11
371.974	331.79
372.355	314.84
372.736	312.58
373.117	320.49
373.498	318
373.879	328.17
374.26	343.08
374.641	311.67
375.021	322.52
375.402	333.14
375.783	313.71
376.163	326.59
376.544	308.51
376.925	319.81
377.305	322.07
377.686	310.77
378.066	317.55
378.447	338.34
378.827	321.62
379.208	301.28
379.588	332.24
379.968	325.91
380.349	328.17
380.729	323.65
381.109	332.69
381.489	343.76
381.87	318.9
382.25	314.16
382.63	318
383.01	343.31
383.39	335.4
383.77	341.95
384.15	340.82
384.53	348.73
384.91	339.92
385.29	361.61
385.67	343.76
386.049	364.1
386.429	350.99
386.809	352.8
387.189	358.68
387.568	357.32
387.948	352.12
388.328	364.78
388.707	347.6
389.087	337.89
389.466	346.47
389.846	363.87
390.225	372.01
390.605	354.61
390.984	362.29
391.363	358.68
391.743	373.59
392.122	360.94
392.501	377.43
392.881	360.26
393.26	376.08
393.639	383.54
394.018	386.7
394.397	386.47
394.776	385.12
395.155	379.47
395.534	391.67
395.913	383.08
396.292	402.29
396.671	400.94
397.05	402.29
397.429	380.15
397.808	389.18
398.186	408.85
398.565	394.16
398.944	400.26
399.323	404.55
399.701	405.91
400.08	415.62
400.458	408.85
400.837	418.11
401.215	413.14
401.594	419.92
401.972	421.27
402.351	428.96
402.729	426.02
403.107	429.86
403.486	428.28
403.864	440.71
404.242	438.9
404.62	430.31
404.999	441.16
405.377	438.9
405.755	438.67
406.133	464.89
406.511	438.45
406.889	460.37
407.267	457.43
407.645	485.91
408.023	493.81
408.401	498.33
408.779	512.57
409.156	526.36
409.534	526.13
409.912	513.93
410.29	520.03
410.667	540.82
411.045	546.47
411.422	549.86
411.8	570.87
412.178	559.58
412.555	562.06
412.933	585.79
413.31	614.94
413.687	627.14
414.065	620.59
414.442	635.05
414.819	642.51
415.197	655.17
415.574	649.97
415.951	654.71
416.328	683.64
416.705	684.32
417.082	678.67
417.46	706.69
417.837	719.12
418.214	704.43
418.591	736.07
418.967	706.01
419.344	730.19
419.721	772.68
420.098	764.77
420.475	794.82
420.852	777.2
421.228	809.29
421.605	829.85
421.982	830.98
422.358	854.03
422.735	865.1
423.111	910.53
423.488	902.62
423.864	924.99
424.241	949.4
424.617	949.4
424.994	963.41
425.37	968.38
425.746	985.55
426.123	1009.51
426.499	997.76
426.875	1005.44
427.251	1094.48
427.627	1071.88
428.003	1073.69
428.379	1079.56
428.756	1108.94
429.132	1122.5
429.507	1134.93
429.883	1164.31
430.259	1178.09
430.635	1148.71
431.011	1178.54
431.387	1218.32
431.763	1245.66
432.138	1231.65
432.514	1255.83
432.89	1288.14
433.265	1311.42
433.641	1328.6
434.016	1392.32
434.392	1392.77
434.767	1409.95
435.143	1432.1
435.518	1469.16
435.894	1510.74
436.269	1511.64
436.644	1547.8
437.02	1555.93
437.395	1608.81
437.77	1618.53
438.145	1651.52
438.52	1696.95
438.895	1700.79
439.271	1710.28
439.646	1760.67
440.021	1796.15
440.395	1813.78
440.77	1804.97
441.145	1832.99
441.52	1876.15
441.895	1903.95
442.27	1934.91
442.645	1932.42
443.019	1940.1
443.394	1959.99
443.769	2028.24
444.143	2003.83
444.518	2028.69
444.892	2041.34
445.267	2075.69
445.641	2115.92
446.016	2112.08
446.39	2123.38
446.764	2147.1
447.139	2211.74
447.513	2175.58
447.887	2187.78
448.262	2196.82
448.636	2185.52
449.01	2224.84
449.384	2285.63
449.758	2296.25
450.132	2333.77
450.506	2356.59
450.88	2371.51
451.254	2341.9
451.628	2402.69
452.002	2430.94
452.376	2470.71
452.75	2467.55
453.123	2472.52
453.497	2565.17
453.871	2542.57
454.244	2621.44
454.618	2613.76
454.992	2633.87
455.365	2642.68
455.739	2704.6
456.112	2754.55
456.486	2773.98
456.859	2795.68
457.232	2831.38
457.606	2867.76
457.979	2863.47
458.352	2932.62
458.725	2956.12
459.099	2958.61
459.472	3032.96
459.845	3065.95
460.218	3106.85
460.591	3140.98
460.964	3160.64
461.337	3237.25
461.71	3234.99
462.083	3333.51
462.456	3308.88
462.829	3308.43
463.201	3350.69
463.574	3376
463.947	3411.7
464.32	3517.46
464.692	3545.26
465.065	3557.91
465.438	3612.83
465.81	3643.34
466.183	3691.02
466.555	3771.92
466.928	3836.78
467.3	3803.33
467.672	3875.87
468.045	4005.59
468.417	3992.48
468.789	4017.34
469.161	4065.92
469.534	4109.76
469.906	4179.14
470.278	4224.11
470.65	4246.71
471.022	4352.02
471.394	4414.16
471.766	4455.97
472.138	4507.49
472.51	4611.22
472.882	4667.94
473.253	4728.05
473.625	4759.01
473.997	4890.54
474.369	4877.65
474.74	4931.21
475.112	4990.42
475.484	5123.07
475.855	5176.63
476.227	5155.16
476.598	5335.04
476.97	5414.82
477.341	5516.73
477.713	5617.07
478.084	5604.64
478.455	5715.37
478.827	5790.85
479.198	5934.35
479.569	5921.69
479.94	6098.19
480.311	6131.18
480.682	6206.66
481.053	6418.18
481.424	6443.49
481.795	6459.31
482.166	6620.43
482.537	6763.93
482.908	6801.9
483.279	6857.04
483.65	6972.74
484.021	7107.43
484.391	7147.88
484.762	7243.92
485.133	7263.35
485.503	7356.01
485.874	7574.31
486.244	7553.06
486.615	7722.78
486.985	7744.92
487.356	7927.52
487.726	7975.88
488.097	8096.78
488.467	8110.11
488.837	8249.77
489.207	8316.89
489.578	8412.7
489.948	8540.61
490.318	8572.02
490.688	8663.54
491.058	8795.97
491.428	8836.42
491.798	8952.8
492.168	9108.73
492.538	9089.97
492.908	9144.89
493.278	9331.1
493.648	9253.13
494.017	9388.95
494.387	9379.46
494.757	9501.71
495.126	9572.22
495.496	9618.77
495.866	9628.49
496.235	9746.68
496.605	9845.89
496.974	9798.43
497.344	9904.64
497.713	9938.76
498.082	9999.78
498.452	10038.65
498.821	10043.85
499.19	10095.82
499.559	10196.61
499.928	10171.75
500.298	10241.81
500.667	10376.49
501.036	10329.04
501.405	10371.97
501.774	10360.67
502.143	10413.55
502.512	10443.84
502.88	10532.87
503.249	10527.68
503.618	10499.65
503.987	10569.71
504.356	10618.29
504.724	10660.55
505.093	10613.77
505.462	10740.1
505.83	10722.92
506.199	10774.45
506.567	10808.35
506.936	10878.4
507.304	10897.38
507.672	10910.94
508.041	10915.69
508.409	11000.66
508.777	11058.06
509.145	11032.75
509.514	11123.59
509.882	11116.36
510.25	11111.39
510.618	11084.72
510.986	11195.45
511.354	11246.3
511.722	11242.68
512.09	11282.91
512.458	11219.18
512.826	11307.54
513.193	11270.25
513.561	11281.55
513.929	11348.22
514.297	11423.47
514.664	11389.8
515.032	11430.48
515.4	11505.05
515.767	11418.73
516.135	11493.53
516.502	11410.36
516.869	11554.09
517.237	11491.49
517.604	11578.72
517.972	11489.23
518.339	11533.98
518.706	11488.33
519.073	11500.08
519.44	11544.15
519.808	11581.21
520.175	11492.62
520.542	11566.97
520.909	11635.44
521.276	11579.62
521.643	11676.8
522.009	11641.54
522.376	11747.76
522.743	11716.8
523.11	11708.44
523.477	11729.45
523.843	11752.73
524.21	11793.63
524.577	11822.56
524.943	11888.54
525.31	11842.44
525.676	11861.88
526.043	11851.48
526.409	11824.14
526.776	11903.23
527.142	11858.94
527.508	11833.86
527.874	11880.41
528.241	11918.37
528.607	11846.51
528.973	11872.05
529.339	11814.42
529.705	11900.52
530.071	11812.61
530.437	11821.43
530.803	11750.69
531.169	11844.93
531.535	11731.71
531.901	11735.33
532.267	11648.55
532.632	11733.75
532.998	11571.26
533.364	11725.61
533.73	11644.26
534.095	11612.62
534.461	11565.84
534.826	11574.88
535.192	11540.53
535.557	11565.39
535.923	11452.4
536.288	11462.34
536.653	11478.38
537.019	11433.41
537.384	11312.51
537.749	11338.5
538.114	11230.03
538.479	11229.58
538.845	11195.23
539.21	11096.7
539.575	11136.92
539.94	11025.97
540.305	11088.56
540.67	10972.86
541.034	11023.26
541.399	10950.71
541.764	10879.98
542.129	10821
542.494	10779.42
542.858	10845.86
543.223	10676.37
543.587	10692.42
543.952	10589.82
544.316	10559.54
544.681	10542.14
545.045	10489.03
545.41	10493.33
545.774	10479.31
546.138	10344.86
546.503	10354.12
546.867	10234.58
547.231	10318.19
547.595	10220.56
547.959	10221.24
548.324	10113.45
548.688	10063.73
549.052	10068.7
549.416	9997.29
549.779	9909.84
550.143	9879.1
550.507	9866.68
550.871	9817.64
551.235	9825.55
551.599	9826.68
551.962	9724.08
552.326	9668.49
552.689	9637.3
553.053	9512.79
553.417	9560.92
553.78	9641.6
554.143	9439.57
554.507	9479.34
554.87	9389.63
555.234	9498.78
555.597	9430.75
555.96	9389.17
556.323	9336.97
556.686	9290.42
557.05	9319.57
557.413	9243.42
557.776	9247.71
558.139	9228.27
558.502	9193.25
558.865	9242.96
559.228	9172.23
559.59	9174.04
559.953	9163.42
560.316	9221.04
560.679	9093.81
561.041	9117.99
561.404	9126.36
561.767	9077.77
562.129	9074.38
562.492	9058.34
562.854	9019.47
563.217	9016.53
563.579	8996.87
563.941	9007.49
564.304	8942.41
564.666	9056.53
565.028	9013.82
565.39	9046.81
565.753	9017.66
566.115	9011.56
566.477	9038.67
566.839	8986.47
567.201	9016.08
567.563	9006.36
567.925	9023.76
568.287	8955.97
568.648	8976.53
569.01	8998.68
569.372	9035.29
569.734	8904.67
570.095	8905.57
570.457	9089.07
570.819	8986.25
571.18	8995.29
571.542	8969.98
571.903	9035.29
572.265	9055.85
572.626	8969.98
572.987	9013.82
573.349	8965.46
573.71	9038.67
574.071	8995.29
574.432	9027.38
574.794	9151.21
575.155	9046.36
575.516	9009.07
575.877	8990.09
576.238	8985.34
576.599	9059.01
576.96	8970.2
577.32	9014.49
577.681	9026.47
578.042	9085.23
578.403	9010.2
578.763	9062.85
579.124	9055.17
579.485	9022.18
579.845	9008.17
580.206	9015.62
580.566	8964.55
580.927	8924.55
581.287	9077.09
581.648	9012.46
582.008	8993.48
582.368	9008.85
582.728	9004.78
583.089	8906.7
583.449	8962.97
583.809	8944.89
584.169	8998.9
584.529	8861.73
584.889	9005.23
585.249	8987.83
585.609	8982.63
585.969	8954.38
586.329	8925.46
586.688	8902.41
587.048	8898.34
587.408	8879.36
587.768	8955.06
588.127	8872.58
588.487	8818.34
588.846	8971.78
589.206	8907.15
589.565	8872.35
589.925	8971.11
590.284	8877.32
590.643	8885.01
591.003	8875.52
591.362	8913.25
591.721	8867.61
592.08	8878.68
592.44	8872.35
592.799	8855.85
593.158	8864.89
593.517	8838.68
593.876	8787.16
594.235	8797.78
594.593	8796.2
594.952	8792.81
595.311	8764.33
595.67	8765.91
596.029	8860.15
596.387	8741.73
596.746	8847.04
597.104	8716.2
597.463	8761.85
597.822	8806.59
598.18	8721.85
598.538	8735.86
598.897	8828.28
599.255	8646.14
599.613	8771.79
599.972	8743.99
600.33	8782.18
600.688	8740.38
601.046	8762.3
601.404	8742.86
601.762	8720.04
602.12	8822.41
602.478	8754.39
602.836	8737.44
603.194	8737.21
603.552	8733.6
603.91	8701.96
604.268	8692.02
604.625	8645.24
604.983	8742.41
605.341	8727.04
605.698	8682.75
606.056	8658.8
606.413	8691.34
606.771	8776.08
607.128	8727.5
607.485	8669.19
607.843	8681.85
608.2	8765.69
608.557	8728.4
608.914	8683.2
609.272	8683.88
609.629	8799.59
609.986	8733.15
610.343	8653.37
610.7	8753.71
611.057	8685.01
611.414	8720.94
611.771	8764.11
612.127	8799.13
612.484	8810.21
612.841	8741.51
613.198	8745.12
613.554	8726.82
613.911	8779.25
614.267	8807.27
614.624	8809.3
614.98	8774.27
615.337	8859.24
615.693	8808.85
616.05	8815.18
616.406	8908.06
616.762	8827.15
617.118	8827.61
617.475	8785.35
617.831	8897.89
618.187	8831.9
618.543	8822.41
618.899	8888.85
619.255	8915.97
619.611	8835.29
619.967	8894.27
620.323	8930.88
620.678	8850.21
621.034	8853.14
621.39	8800.26
621.746	8843.2
622.101	8962.07
622.457	8857.66
622.812	8933.37
623.168	8887.27
623.523	8891.33
623.879	8920.49
624.234	8853.37
624.589	8840.04
624.945	8856.31
625.3	8911.45
625.655	8852.69
626.01	8872.58
626.365	8852.92
626.72	8875.06
627.075	8832.13
627.43	8833.71
627.785	8819.02
628.14	8830.32
628.495	8865.12
628.85	8823.54
629.205	8772.02
629.559	8784.9
629.914	8786.03
630.269	8814.05
630.623	8803.43
630.978	8762.3
631.332	8832.8
631.687	8816.08
632.041	8743.54
632.396	8745.58
632.75	8695.18
633.104	8794.84
633.459	8689.31
633.813	8696.08
634.167	8697.21
634.521	8680.49
634.875	8684.56
635.229	8636.65
635.583	8654.96
635.937	8640.04
636.291	8628.52
636.645	8597.1
636.999	8584.9
637.352	8582.42
637.706	8565.92
638.06	8585.81
638.413	8556.43
638.767	8551.68
639.121	8522.76
639.474	8543.77
639.828	8544.9
640.181	8462.87
640.534	8572.02
640.888	8503.77
641.241	8481.63
641.594	8519.82
641.947	8515.3
642.301	8499.25
642.654	8460.38
643.007	8454.28
643.36	8402.53
643.713	8389.88
644.066	8506.26
644.419	8403.66
644.771	8327.28
645.124	8332.25
645.477	8295.19
645.83	8209.32
646.182	8229.88
646.535	8291.35
646.888	8203.22
647.24	8109.89
647.593	8217
647.945	8139.94
648.298	8181.52
648.65	8199.83
649.002	8090.23
649.355	8140.39
649.707	8128.19
650.059	8175.87
650.411	8290.9
650.763	8269.43
651.115	8396.88
651.467	8334.96
651.819	8316.43
652.171	8348.75
652.523	8309.43
652.875	8337.68
653.227	8259.49
653.578	8329.09
653.93	8394.85
654.282	8261.52
654.633	8266.49
654.985	8299.49
655.337	8347.85
655.688	8320.05
656.039	8334.29
656.391	8336.32
656.742	8336.77
657.094	8309.65
657.445	8428.75
657.796	8313.04
658.147	8306.04
658.498	8357.79
658.849	8334.96
659.2	8344.68
659.551	8354.4
659.902	8379.48
660.253	8371.8
660.604	8390.56
660.955	8289.54
661.306	8420.61
661.656	8395.75
662.007	8376.32
662.358	8363.66
662.708	8421.29
663.059	8439.37
663.409	8326.6
663.76	8395.08
664.11	8448.18
664.461	8419.48
664.811	8424.68
665.161	8445.02
665.511	8439.14
665.862	8393.72
666.212	8391.01
666.562	8441.85
666.912	8470.78
667.262	8377.22
667.612	8435.53
667.962	8398.69
668.312	8447.5
668.662	8473.72
669.011	8467.39
669.361	8394.85
669.711	8403.66
670.06	8394.62
670.41	8357.34
670.76	8344.68
671.109	8432.14
671.459	8351.69
671.808	8343.78
672.157	8380.84
672.507	8348.3
672.856	8353.04
673.205	8380.84
673.554	8367.73
673.904	8338.35
674.253	8389.2
674.602	8316.66
674.951	8227.17
675.3	8188.08
675.649	8260.16
675.998	8277.34
676.346	8308.07
676.695	8282.54
677.044	8304.46
677.393	8252.25
677.741	8252.71
678.09	8250.9
678.438	8253.84
678.787	8208.41
679.135	8242.99
679.484	8160.05
679.832	8168.42
680.181	8130.45
680.529	8146.72
680.877	8142.88
681.225	8146.04
681.573	8138.13
681.922	8097
682.27	8035.76
682.618	8143.78
682.966	8094.52
683.314	8103.56
683.661	8079.6
684.009	7936.1
684.357	8013.84
684.705	7975.65
685.053	8001.19
685.4	7942.66
685.748	7943.79
686.095	7879.16
686.443	7835.99
686.79	7906.73
687.138	7833.06
687.485	7800.52
687.832	7758.71
688.18	7814.07
688.527	7741.31
688.874	7691.59
689.221	7704.92
689.568	7724.13
689.915	7644.36
690.262	7621.54
690.609	7626.06
690.956	7627.64
691.303	7632.16
691.65	7552.39
691.997	7515.32
692.344	7452.28
692.69	7470.81
693.037	7438.04
693.383	7429
693.73	7440.52
694.077	7367.76
694.423	7348.78
694.769	7323.47
695.116	7327.31
695.462	7293.86
695.808	7268.33
696.155	7243.02
696.501	7240.53
696.847	7187.2
697.193	7117.37
697.539	7168.22
697.885	7067.88
698.231	7116.92
698.577	7063.59
698.923	6995.11
699.269	6997.6
699.614	6999.63
699.96	6948.33
700.306	6962.12
700.651	6900.43
700.997	6898.39
701.342	6824.04
701.688	6845.51
702.033	6808.9
702.379	6754.44
702.724	6760.09
703.069	6800.77
703.415	6683.48
703.76	6673.77
704.105	6697.49
704.45	6703.14
704.795	6615.24
705.14	6619.3
705.485	6563.26
705.83	6550.6
706.175	6558.51
706.52	6485.07
706.865	6490.04
707.209	6482.58
707.554	6446.43
707.899	6408.91
708.243	6381.8
708.588	6367.78
708.932	6390.38
709.277	6352.87
709.621	6280.78
709.966	6302.02
710.31	6317.84
710.654	6257.73
710.998	6233.78
711.342	6287.56
711.687	6220.9
712.031	6252.08
712.375	6185.19
712.719	6191.29
713.063	6163.04
713.407	6174.57
713.75	6121.46
714.094	6103.61
714.438	6155.13
714.782	6181.35
715.125	6146.77
715.469	6085.76
715.812	6113.55
716.156	6045.31
716.499	6069.26
716.843	6010.05
717.186	6024.29
717.53	6042.82
717.873	6032.88
718.216	6090.5
718.559	6030.84
718.902	5951.3
719.246	5983.16
719.589	5955.14
719.932	5956.04
720.275	5924.41
720.617	5936.38
720.96	5924.41
721.303	5940.23
721.646	5941.58
721.989	5908.81
722.331	5954.24
722.674	5938.87
723.016	5935.25
723.359	5878.53
723.701	5927.12
724.044	5848.93
724.386	5835.14
724.729	5914.92
725.071	5888.25
725.413	5870.17
725.755	5855.26
726.097	5884.63
726.439	5842.15
726.782	5804.64
727.124	5839.44
727.465	5842.6
727.807	5866.78
728.149	5791.98
728.491	5861.81
728.833	5863.62
729.175	5844.86
729.516	5819.55
729.858	5793.56
730.199	5864.97
730.541	5807.35
730.882	5835.82
731.224	5790.4
731.565	5836.5
731.906	5807.57
732.248	5851.41
732.589	5803.05
732.93	5861.13
733.271	5845.09
733.612	5832.88
733.953	5875.37
734.294	5822.94
734.635	5841.02
734.976	5879.89
735.317	5857.97
735.658	5848.25
735.999	5862.49
736.339	5834.24
736.68	5829.27
737.021	5840.34
737.361	5837.4
737.702	5860.23
738.042	5862.71
738.383	5880.57
738.723	5879.89
739.063	5858.42
739.404	5951.52
739.744	5971.18
740.084	5907.01
740.424	5951.52
740.764	5998.3
741.104	5987
741.444	6004.4
741.784	5969.83
742.124	5994.24
742.464	6023.61
742.804	6094.8
743.143	6024.52
743.483	6045.99
743.823	6080.33
744.162	6107.23
744.502	6163.72
744.841	6183.16
745.181	6232.19
745.52	6267
745.86	6318.97
746.199	6392.19
746.538	6365.98
746.877	6413.66
747.216	6430.38
747.556	6514.67
747.895	6565.97
748.234	6575.01
748.573	6641.9
748.911	6726.87
749.25	6796.02
749.589	6797.83
749.928	6862.23
750.267	6991.5
750.605	7006.64
750.944	7040.31
751.283	7183.81
751.621	7203.24
751.96	7325.05
752.298	7374.31
752.636	7522.1
752.975	7563.69
753.313	7643.23
753.651	7794.87
753.989	7864.02
754.327	8006.61
754.666	8109.66
755.004	8233.72
755.342	8372.03
755.679	8530.67
756.017	8637.56
756.355	8798.23
756.693	8891.79
757.031	9047.71
757.368	9161.38
757.706	9326.8
758.044	9518.21
758.381	9750.52
758.719	9788.26
759.056	10014.47
759.394	10127.01
759.731	10265.54
760.068	10471.63
760.405	10620.55
760.743	10783.26
761.08	10982.8
761.417	11132.86
761.754	11332.85
762.091	11497.14
762.428	11698.94
762.765	11778.72
763.102	12139.84
763.438	12264.13
763.775	12369.21
764.112	12670.22
764.449	12779.82
764.785	12992.24
765.122	13061.39
765.458	13161.05
765.795	13328.51
766.131	13628.38
766.467	13806.01
766.804	13937.53
767.14	14031.99
767.476	14175.49
767.812	14345.2
768.148	14513.11
768.485	14618.64
768.821	14725.53
769.157	14945.41
769.492	15040.32
769.828	15168.01
770.164	15206.42
770.5	15345.4
770.836	15627.2
771.171	15484.83
771.507	15710.82
771.842	15742.23
772.178	15888.44
772.513	16002.79
772.849	16137.02
773.184	16160.75
773.519	16323.68
773.855	16275.09
774.19	16442.55
774.525	16436.9
774.86	16682.54
775.195	16690
775.53	16697.91
775.865	16754.4
776.2	16846.61
776.535	16916.66
776.87	16929.09
777.205	17032.14
777.539	17058.12
777.874	17147.39
778.209	17102.19
778.543	17148.29
778.878	17079.82
779.212	17271.45
779.547	17231.45
779.881	17297.89
780.215	17307.61
780.55	17339.25
780.884	17375.18
781.218	17320.72
781.552	17473.93
781.886	17452.69
782.22	17497.44
782.554	17488.85
782.888	17359.13
783.222	17277.55
783.556	17336.54
783.889	17435.29
784.223	17322.98
784.557	17282.75
784.89	17434.84
785.224	17326.37
785.557	17308.29
785.891	17404.78
786.224	17435.52
786.558	17351.45
786.891	17264.9
787.224	17299.02
787.557	17227.84
787.891	17320.72
788.224	17243.66
788.557	17297.89
788.89	17290.66
789.223	17294.05
789.556	17137.44
789.888	17214.28
790.221	17099.93
790.554	17064.9
790.887	17169.53
791.219	17021.06
791.552	17021.97
791.884	16905.13
792.217	16876.66
792.549	16882.76
792.882	16868.75
793.214	16881.41
793.546	16912.59
793.879	16730
794.211	16723.22
794.543	16817.45
794.875	16705.14
795.207	16769.77
795.539	16763.9
795.871	16749.66
796.203	16511.25
796.535	16545.6
796.867	16546.27
797.198	16524.13
797.53	16559.61
797.862	16429.89
798.193	16433.73
798.525	16311.48
798.856	16371.36
799.188	16202.78
799.519	16093.18
799.85	16123.69
800.182	16218.82
800.513	16160.52
800.844	16119.62
801.175	16147.64
801.506	16105.61
801.837	16053.86
802.168	15981.32
802.499	15983.58
802.83	15878.04
803.161	15849.12
803.491	15846.63
803.822	15904.48
804.153	15846.18
804.483	15674.66
804.814	15738.16
805.145	15634.89
805.475	15660.87
805.805	15543.81
806.136	15547.66
806.466	15604.83
806.796	15532.97
807.126	15422.24
807.457	15354.21
807.787	15523.48
808.117	15311.96
808.447	15361.45
808.777	15357.38
809.107	15273.77
809.436	15244.16
809.766	15241.9
810.096	15157.84
810.426	15121
810.755	15230.15
811.085	15104.28
811.414	15126.42
811.744	15053.21
812.073	14978.86
812.403	14940.21
812.732	14956.03
813.061	14964.39
813.39	14950.38
813.719	14864.96
814.049	14911.97
814.378	14753.55
814.707	14771.63
815.036	14777.73
815.365	14679.66
815.693	14612.77
816.022	14590.85
816.351	14657.74
816.68	14540.23
817.008	14567.34
817.337	14443.5
817.665	14476.05
817.994	14436.5
818.322	14464.75
818.651	14379.1
818.979	14314.69
819.307	14366.22
819.636	14274.24
819.964	14320.34
820.292	14351.08
820.62	14393.34
820.948	14284.86
821.276	14331.64
821.604	14333.22
821.932	14303.85
822.259	14316.28
822.587	14297.52
822.915	14283.51
823.243	14242.83
823.57	14294.36
823.898	14366.67
824.225	14235.37
824.553	14206
824.88	14276.05
825.207	14330.51
825.535	14240.8
825.862	14318.76
826.189	14212.1
826.516	14347.01
826.843	14340.68
827.17	14321.02
827.497	14339.55
827.824	14314.69
828.151	14292.55
828.478	14303.62
828.805	14389.95
829.131	14256.16
829.458	14297.75
829.785	14303.62
830.111	14244.87
830.438	14324.64
830.764	14325.32
831.09	14295.94
831.417	14260.46
831.743	14337.29
832.069	14329.16
832.395	14282.15
832.722	14259.78
833.048	14237.86
833.374	14357.86
833.7	14196.96
834.026	14107.24
834.351	14264.75
834.677	14255.49
835.003	14295.26
835.329	14121.48
835.654	14183.17
835.98	14092.33
836.306	14192.21
836.631	14110.18
836.956	14174.36
837.282	14184.3
837.607	14057.07
837.932	13981.82
838.258	14059.56
838.583	14037.87
838.908	13979.34
839.233	14020.92
839.558	13933.91
839.883	13924.2
840.208	13847.14
840.533	13779.57
840.858	13863.41
841.182	13855.72
841.507	13828.15
841.832	13841.94
842.156	13752.22
842.481	13730.08
842.805	13672.23
843.13	13708.83
843.454	13714.03
843.778	13529.63
844.103	13586.58
844.427	13580.7
844.751	13547.26
845.075	13488.73
845.399	13406.47
845.723	13458.67
846.047	13451.89
846.371	13245.8
846.695	13297.09
847.019	13236.98
847.343	13150.43
847.666	13111.56
847.99	13069.53
848.313	13026.37
848.637	12909.53
848.96	12920.83
849.284	12887.61
849.607	12832.47
849.931	12782.08
850.254	12710.44
850.577	12610.33
850.9	12559.71
851.223	12574.63
851.546	12498.02
851.869	12387.29
852.192	12413.73
852.515	12314.75
852.838	12291.92
853.161	12273.62
853.483	12182.77
853.806	12227.07
854.129	12163.79
854.451	12042.89
854.774	12050.35
855.096	11973.96
855.419	11905.72
855.741	12011.7
856.063	11974.64
856.385	11818.26
856.708	11791.37
857.03	11755.44
857.352	11720.64
857.674	11690.58
857.996	11643.35
858.318	11659.4
858.64	11581.66
858.961	11540.53
859.283	11537.59
859.605	11478.16
859.926	11549.8
860.248	11444.04
860.57	11503.24
860.891	11467.76
861.212	11418.27
861.534	11363.81
861.855	11342.79
862.176	11318.39
862.498	11375.11
862.819	11292.85
863.14	11281.55
863.461	11284.72
863.782	11259.86
864.103	11214.89
864.424	11164.72
864.745	11200.88
865.065	11148.9
865.386	11139.18
865.707	11135.79
866.027	10980.09
866.348	11006.76
866.668	11127.21
866.989	11001.79
867.309	10996.59
867.63	10981.45
867.95	11003.14
868.27	10906.2
868.59	10917.27
868.91	10886.08
869.23	10905.74
869.55	10818.97
869.87	10894.67
870.19	10742.36
870.51	10843.83
870.83	10807.67
871.15	10809.7
871.469	10729.25
871.789	10828.23
872.109	10761.57
872.428	10697.16
872.748	10711.85
873.067	10698.52
873.386	10700.1
873.706	10617.39
874.025	10582.14
874.344	10560.22
874.663	10588.69
874.982	10553.66
875.301	10550.5
875.62	10503.95
875.939	10485.42
876.258	10502.59
876.577	10488.81
876.896	10547.79
877.214	10475.25
877.533	10419.88
877.852	10410.62
878.17	10421.69
878.489	10362.26
878.807	10465.3
879.125	10386.21
879.444	10357.06
879.762	10307.57
880.08	10275.03
880.398	10329.71
880.716	10312.31
881.034	10238.42
881.352	10253.33
881.67	10175.14
881.988	10179.44
882.306	10200.45
882.624	10136.27
882.941	10081.81
883.259	10070.96
883.577	10129.95
883.894	10072.32
884.212	10065.77
884.529	10006.56
884.846	9908.03
885.164	9988.93
885.481	9862.38
885.798	9921.82
886.115	9819.9
886.432	9819.9
886.75	9788.94
887.067	9862.61
887.383	9722.27
887.7	9781.93
888.017	9745.55
888.334	9697.19
888.651	9674.36
888.967	9685.66
889.284	9659.22
889.6	9603.18
889.917	9493.8
890.233	9562.73
890.55	9521.37
890.866	9526.35
891.182	9460.58
891.498	9438.66
891.815	9444.31
892.131	9319.8
892.447	9404.31
892.763	9295.17
893.079	9268.73
893.395	9303.98
893.71	9244.32
894.026	9232.34
894.342	9196.41
894.657	9169.07
894.973	9122.29
895.289	9126.58
895.604	9035.06
895.92	9007.72
896.235	8995.74
896.55	8957.55
896.865	8948.06
897.181	8864.44
897.496	8938.79
897.811	8911.67
898.126	8841.17
898.441	8806.36
898.756	8742.86
899.071	8689.98
899.386	8701.96
899.7	8612.92
900.015	8604.79
900.33	8530.21
900.644	8549.42
900.959	8556.65
901.273	8518.01
901.588	8484.79
901.902	8457.67
902.216	8465.81
902.531	8384
902.845	8368.64
903.159	8284.57
903.473	8286.83
903.787	8282.08
904.101	8187.85
904.415	8205.93
904.729	8160.73
905.042	8111.92
905.356	8130.68
905.67	8074.86
905.984	8067.63
906.297	7999.61
906.611	7993.05
906.924	7958.7
907.237	7981.98
907.551	7902.66
907.864	7827.18
908.177	7885.71
908.491	7789.44
908.804	7758.71
909.117	7749.9
909.43	7671.03
909.743	7628.54
910.056	7647.52
910.368	7613.18
910.681	7570.92
910.994	7561.2
911.307	7534.99
911.619	7463.35
911.932	7462.67
912.244	7422.22
912.557	7381.77
912.869	7380.41
913.181	7340.64
913.494	7339.28
913.806	7274.65
914.118	7231.72
914.43	7084.83
914.742	7166.18
915.054	7127.31
915.366	7085.96
915.678	7100.87
915.99	7039.86
916.302	7023.81
916.613	6981.78
916.925	7009.12
917.236	6927.09
917.548	6879.41
917.859	6895.45
918.171	6789.24
918.482	6842.12
918.794	6762.58
919.105	6761.45
919.416	6749.24
919.727	6707.44
920.038	6727.55
920.349	6652.75
920.66	6634.67
920.971	6603.94
921.282	6645.97
921.593	6548.34
921.903	6516.26
922.214	6440.1
922.525	6486.65
922.835	6455.92
923.146	6392.64
923.456	6384.96
923.767	6383.83
924.077	6377.5
924.387	6341.57
924.697	6290.5
925.008	6285.3
925.318	6260.67
925.628	6206.21
925.938	6177.06
926.248	6119.2
926.558	6161.46
926.867	6100.9
927.177	6114.68
927.487	6044.4
927.796	6005.31
928.106	6019.55
928.416	6011.41
928.725	5972.99
929.034	5939.77
929.344	5955.14
929.653	5927.12
929.962	5881.24
930.271	5826.1
930.581	5817.29
930.89	5823.17
931.199	5750.17
931.508	5740.91
931.817	5743.39
932.125	5747.91
932.434	5706.56
932.743	5666.33
933.051	5662.04
933.36	5597.86
933.669	5617.97
933.977	5621.82
934.286	5540.01
934.594	5565.09
934.902	5518.54
935.21	5466.34
935.519	5493.68
935.827	5412.78
936.135	5418.66
936.443	5390.18
936.751	5382.5
937.059	5352.67
937.367	5258.44
937.674	5368.94
937.982	5274.25
938.29	5215.5
938.597	5239.68
938.905	5212.79
939.213	5166.69
939.52	5179.57
939.827	5157.19
940.135	5074.71
940.442	5073.13
940.749	5060.02
941.056	5120.59
941.363	4996.75
941.67	5012.79
941.977	4949.29
942.284	4943.87
942.591	4930.76
942.898	4914.72
943.205	4876.07
943.511	4878.33
943.818	4909.97
944.125	4826.58
944.431	4820.03
944.738	4789.07
945.044	4767.6
945.35	4735.51
945.657	4705.68
945.963	4738.67
946.269	4667.72
946.575	4642.41
946.881	4624.55
947.187	4624.1
947.493	4635.17
947.799	4604.67
948.105	4560.15
948.41	4554.5
948.716	4576.42
949.022	4541.62
949.327	4544.1
949.633	4463.65
949.938	4467.5
950.244	4447.16
950.549	4436.54
950.854	4420.72
951.16	4361.28
951.465	4356.09
951.77	4345.69
952.075	4297.56
952.38	4324.9
952.685	4310.21
952.99	4296.2
953.294	4279.03
953.599	4259.37
953.904	4226.37
954.209	4198.12
954.513	4216.65
954.818	4177.56
955.122	4178.01
955.426	4154.06
955.731	4115.87
956.035	4126.26
956.339	4086.26
956.643	4053.04
956.948	4030.22
957.252	4051.24
957.556	3993.61
957.86	4034.51
958.163	4006.94
958.467	3984.34
958.771	3955.87
959.075	3931.46
959.378	3913.61
959.682	3921.52
959.985	3843.11
960.289	3890.56
960.592	3826.38
960.896	3828.87
961.199	3811.02
961.502	3800.85
961.805	3755.42
962.108	3775.31
962.411	3733.28
962.714	3726.5
963.017	3696.89
963.32	3727.63
963.623	3710.23
963.926	3663.67
964.228	3666.84
964.531	3633.85
964.833	3624.13
965.136	3588.65
965.438	3630.46
965.741	3544.13
966.043	3534.41
966.345	3537.35
966.648	3494.64
966.95	3498.93
967.252	3482.89
967.554	3482.44
967.856	3444.7
968.158	3429.56
968.46	3440.86
968.761	3414.42
969.063	3372.16
969.365	3360.18
969.666	3351.37
969.968	3389.33
970.269	3329.9
970.571	3345.04
970.872	3349.11
971.174	3288.77
971.475	3333.29
971.776	3267.98
972.077	3268.66
972.378	3211.03
972.679	3222.78
972.98	3215.55
973.281	3206.74
973.582	3219.84
973.883	3181.88
974.183	3183.01
974.484	3158.15
974.785	3178.49
975.085	3151.82
975.386	3103.46
975.686	3113.86
975.986	3056.23
976.287	3051.71
976.587	3072.73
976.887	3057.36
977.187	3031.15
977.487	3015.78
977.787	2979.17
978.087	3011.26
978.387	2969
978.687	2973.52
978.987	2966.29
979.286	2912.28
979.586	2911.6
979.885	2917.03
980.185	2896.24
980.484	2881.32
980.784	2902.11
981.083	2863.24
981.382	2827.09
981.682	2858.5
981.981	2802.91
982.28	2801.1
982.579	2782.79
982.878	2800.87
983.177	2788.9
983.475	2780.08
983.774	2728.56
984.073	2745.51
984.372	2703.93
984.67	2744.6
984.969	2719.07
985.267	2692.4
985.566	2667.09
985.864	2710.48
986.162	2642.46
986.461	2657.37
986.759	2612.86
987.057	2604.04
987.355	2601.33
987.653	2587.32
987.951	2553.87
988.249	2569.47
988.547	2535.57
988.844	2529.24
989.142	2559.98
989.44	2506.64
989.737	2490.6
990.035	2499.64
990.332	2498.73
990.63	2470.26
990.927	2471.84
991.224	2472.75
991.521	2422.13
991.819	2463.25
992.116	2428
992.413	2423.71
992.71	2415.8
993.006	2368.79
993.303	2380.32
993.6	2366.31
993.897	2346.42
994.193	2309.59
994.49	2338.29
994.787	2306.42
995.083	2292.86
995.379	2299.19
995.676	2278.63
995.972	2275.46
996.268	2230.04
996.565	2227.33
996.861	2245.86
997.157	2256.93
997.453	2217.39
997.749	2198.4
998.044	2216.93
998.34	2180.55
998.636	2188.23
998.932	2196.59
999.227	2162.47
999.523	2171.51
999.818	2152.53
1000.114	2120.66
1000.409	2103.94
1000.704	2070.95
1001	2077.5
1001.295	2092.64
1001.59	2073.43
1001.885	2077.73
1002.18	2031.18
1002.475	2032.98
1002.77	2028.24
1003.065	2005.41
1003.359	1995.47
1003.654	1982.82
1003.949	1984.85
1004.243	1950.5
1004.538	1977.39
1004.832	1938.97
1005.127	1949.82
1005.421	1899.88
1005.715	1900.33
1006.009	1874.12
1006.304	1868.47
1006.598	1885.19
1006.892	1873.44
1007.186	1846.32
1007.48	1853.55
1007.773	1848.36
1008.067	1828.69
1008.361	1820.56
1008.655	1797.74
1008.948	1794.35
1009.242	1816.94
1009.535	1770.17
1009.829	1753.89
1010.122	1765.42
1010.415	1768.58
1010.708	1713.44
1011.001	1731.75
1011.295	1724.29
1011.588	1696.27
1011.881	1670.05
1012.173	1672.31
1012.466	1655.14
1012.759	1664.63
1013.052	1644.29
1013.344	1642.03
1013.637	1641.36
1013.93	1607.91
1014.222	1607.23
1014.514	1594.35
1014.807	1576.27
1015.099	1590.28
1015.391	1555.03
1015.683	1567.23
1015.976	1580.34
1016.268	1541.7
1016.56	1515.71
1016.851	1506.44
1017.143	1519.55
1017.435	1518.65
1017.727	1516.16
1018.018	1493.56
1018.31	1471.64
1018.602	1480
1018.893	1454.24
1019.185	1454.24
1019.476	1441.59
1019.767	1469.61
1020.058	1435.48
1020.35	1416.5
1020.641	1388.25
1020.932	1411.3
1021.223	1426.67
1021.514	1400.23
1021.804	1357.07
1022.095	1370.63
1022.386	1361.59
1022.677	1345.09
1022.967	1335.37
1023.258	1319.78
1023.548	1294.7
1023.839	1311.19
1024.129	1326.56
1024.419	1336.05
1024.709	1286.11
1025	1277.52
1025.29	1271.2
1025.58	1281.36
1025.87	1260.8
1026.16	1257.64
1026.449	1245.66
1026.739	1216.28
1027.029	1224.19
1027.319	1241.14
1027.608	1220.8
1027.898	1209.5
1028.187	1198.43
1028.477	1173.57
1028.766	1188.71
1029.055	1165.21
1029.344	1147.81
1029.634	1138.54
1029.923	1144.42
1030.212	1143.97
1030.501	1166.79
1030.79	1122.72
1031.078	1132.22
1031.367	1115.04
1031.656	1097.41
1031.945	1121.82
1032.233	1093.57
1032.522	1097.64
1032.81	1090.41
1033.099	1069.84
1033.387	1056.96
1033.675	1051.99
1033.963	1043.4
1034.251	1058.09
1034.54	1060.35
1034.828	1049.96
1035.116	1021.26
1035.403	1034.14
1035.691	1026.68
1035.979	996.85
1036.267	1016.29
1036.554	997.53
1036.842	1000.24
1037.129	989.17
1037.417	973.8
1037.704	967.25
1037.992	973.35
1038.279	941.71
1038.566	907.14
1038.853	907.14
1039.14	907.14
