Data from hue_250_FLMS001491_00055.txt Node
Date: Tue Feb 07 16:01:10 GMT 2017
User: dcchb
Spectrometer: FLMS00149
Trigger mode: 0
Integration Time (sec): 2.000000E-2
Scans to average: 10
Electric dark correction enabled: true
Nonlinearity correction enabled: false
Boxcar width: 0
XAxis mode: Wavelengths
Number of Pixels in Spectrum: 2048
>>>>>Begin Spectral Data<<<<<
341.393	12.78
341.776	12.78
342.16	12.78
342.543	-65.41
342.927	-48.46
343.31	-69.48
343.693	-75.13
344.077	-59.08
344.46	-59.08
344.843	-42.81
345.226	-31.51
345.61	-32.64
345.993	-16.14
346.376	-11.4
346.759	14.82
347.142	41.71
347.525	34.48
347.908	39.22
348.291	63.85
348.674	82.16
349.057	121.03
349.44	137.52
349.823	143.4
350.206	170.52
350.588	210.29
350.971	217.97
351.354	223.4
351.737	226.79
352.119	245.77
352.502	274.24
352.884	263.62
353.267	292.32
353.65	298.88
354.032	294.58
354.414	301.14
354.797	302.72
355.179	314.7
355.562	330.97
355.944	315.83
356.326	329.16
356.709	339.55
357.091	313.11
357.473	339.1
357.855	326.45
358.238	334.36
358.62	347.91
359.002	344.07
359.384	332.77
359.766	329.16
360.148	315.37
360.53	319.89
360.912	337.97
361.294	338.42
361.676	322.38
362.057	315.83
362.439	340.23
362.821	329.38
363.203	341.59
363.584	335.71
363.966	315.15
364.348	304.75
364.729	317.41
365.111	292.55
365.493	309.72
365.874	317.41
366.256	309.72
366.637	334.58
367.019	313.57
367.4	337.29
367.781	302.27
368.163	336.16
368.544	300.91
368.925	309.5
369.306	340.68
369.688	310.18
370.069	327.12
370.45	298.88
370.831	312.44
371.212	309.95
371.593	313.79
371.974	294.36
372.355	310.4
372.736	313.11
373.117	325.77
373.498	311.98
373.879	312.44
374.26	305.2
374.641	322.83
375.021	321.02
375.402	309.5
375.783	325.09
376.163	319.44
376.544	329.61
376.925	304.53
377.305	322.83
377.686	336.39
378.066	314.02
378.447	336.84
378.827	350.17
379.208	331.42
379.588	340.91
379.968	327.8
380.349	338.2
380.729	310.18
381.109	347.01
381.489	332.1
381.87	356.5
382.25	341.59
382.63	340.68
383.01	333.68
383.39	348.59
383.77	350.63
384.15	343.62
384.53	351.98
384.91	336.16
385.29	378.2
385.67	358.76
386.049	343.17
386.429	359.44
386.809	347.69
387.189	351.53
387.568	360.12
387.948	351.76
388.328	363.28
388.707	354.92
389.087	362.6
389.466	370.51
389.846	354.24
390.225	367.35
390.605	381.13
390.984	378.42
391.363	371.87
391.743	376.39
392.122	364.86
392.501	379.33
392.881	353.79
393.26	371.19
393.639	388.59
394.018	378.87
394.397	382.26
394.776	394.47
395.155	389.95
395.534	398.08
395.913	377.29
396.292	394.69
396.671	405.99
397.05	383.62
397.429	395.14
397.808	410.96
398.186	430.17
398.565	418.87
398.944	404.86
399.323	422.49
399.701	415.48
400.08	427.91
400.458	426.33
400.837	430.17
401.215	434.47
401.594	433.56
401.972	424.3
402.351	422.49
402.729	406.67
403.107	434.47
403.486	427.01
403.864	429.49
404.242	423.62
404.62	450.06
404.999	460
405.377	459.32
405.755	466.1
406.133	448.48
406.511	456.61
406.889	484.41
407.267	458.65
407.645	472.43
408.023	486.22
408.401	499.1
408.779	488.02
409.156	496.61
409.534	493
409.912	511.75
410.29	510.85
410.667	512.43
411.045	515.59
411.422	532.32
411.8	554.24
412.178	554.01
412.555	542.49
412.933	565.54
413.31	557.17
413.687	565.99
414.065	577.97
414.442	582.48
414.819	589.94
415.197	603.28
415.574	597.4
415.951	598.98
416.328	623.84
416.705	611.86
417.082	614.12
417.46	644.18
417.837	636.72
418.214	633.1
418.591	640.79
418.967	654.12
419.344	664.74
419.721	673.78
420.098	682.82
420.475	680.79
420.852	710.84
421.228	689.37
421.605	698.41
421.982	702.93
422.358	723.5
422.735	727.79
423.111	740.45
423.488	762.14
423.864	748.13
424.241	787.45
424.617	778.64
424.994	794.68
425.37	798.07
425.746	798.3
426.123	822.25
426.499	832.65
426.875	838.3
427.251	858.18
427.627	885.53
428.003	875.58
428.379	903.83
428.756	897.5
429.132	902.25
429.507	916.94
429.883	924.85
430.259	967.56
430.635	955.36
431.011	956.49
431.387	982.7
431.763	987.45
432.138	982.7
432.514	1013.43
432.89	1011.4
433.265	1035.13
433.641	1035.81
434.016	1047.11
434.392	1064.96
434.767	1118.97
435.143	1110.38
435.518	1108.57
435.894	1153.09
436.269	1142.02
436.644	1185.18
437.02	1191.28
437.395	1191.06
437.77	1236.25
438.145	1240.55
438.52	1241.9
438.895	1261.11
439.271	1271.05
439.646	1307.44
440.021	1345.18
440.395	1307.66
440.77	1333.88
441.145	1363.26
441.52	1396.7
441.895	1370.26
442.27	1396.7
442.645	1375.91
443.019	1418.39
443.394	1453.2
443.769	1434.89
444.143	1419.07
444.518	1478.05
444.892	1457.04
445.267	1478.28
445.641	1490.94
446.016	1507.43
446.39	1511.5
446.764	1537.49
447.139	1527.32
447.513	1532.52
447.887	1548.11
448.262	1582.46
448.636	1573.87
449.01	1575.45
449.384	1610.03
449.758	1613.64
450.132	1601.21
450.506	1639.41
450.88	1616.36
451.254	1659.97
451.628	1665.17
452.002	1662.23
452.376	1710.59
452.75	1737.93
453.123	1723.02
453.497	1758.72
453.871	1737.71
454.244	1764.83
454.618	1827.2
454.992	1787.65
455.365	1824.71
455.739	1852.51
456.112	1859.74
456.486	1911.49
456.859	1919.4
457.232	1955.56
457.606	1951.26
457.979	1968.89
458.352	1997.36
458.725	1989.23
459.099	2054.76
459.472	2078.72
459.845	2063.8
460.218	2087.98
460.591	2097.7
460.964	2112.16
461.337	2184.7
461.71	2200.97
462.083	2217.24
462.456	2223.57
462.829	2241.65
463.201	2265.6
463.574	2291.37
463.947	2272.16
464.32	2360.52
464.692	2383.79
465.065	2385.15
465.438	2402.78
465.81	2445.26
466.183	2450.46
466.555	2515.54
466.928	2526.61
467.3	2528.42
467.672	2578.59
468.045	2647.29
468.417	2636.67
468.789	2650.9
469.161	2694.29
469.534	2707.85
469.906	2770.45
470.278	2754.18
470.65	2830.79
471.022	2830.34
471.394	2875.08
471.766	2957.34
472.138	2936.32
472.51	3028.75
472.882	3046.6
473.253	3046.37
473.625	3101.29
473.997	3160.72
474.369	3180.38
474.74	3206.14
475.112	3280.94
475.484	3305.12
475.855	3315.52
476.227	3367.72
476.598	3477.78
476.97	3511
477.341	3563.88
477.713	3609.75
478.084	3579.02
478.455	3675.28
478.827	3733.81
479.198	3853.36
479.569	3856.97
479.94	3913.7
480.311	3984.88
480.682	4039.79
481.053	4124.54
481.424	4153.01
481.795	4223.97
482.166	4189.17
482.537	4340.58
482.908	4428.94
483.279	4466
483.65	4489.95
484.021	4545.09
484.391	4603.4
484.762	4657.63
485.133	4706.67
485.503	4726.33
485.874	4842.94
486.244	4811.07
486.615	4938.08
486.985	4959.32
487.356	5082.93
487.726	5129.94
488.097	5167.45
488.467	5162.93
488.837	5283.83
489.207	5357.05
489.578	5395.24
489.948	5502.13
490.318	5501.45
490.688	5514.11
491.058	5613.76
491.428	5645.4
491.798	5700.54
492.168	5781.22
492.538	5829.58
492.908	5853.53
493.278	5922.91
493.648	5964.26
494.017	6060.98
494.387	6063.7
494.757	6118.61
495.126	6176.91
495.496	6188.66
495.866	6247.42
496.235	6227.08
496.605	6383.24
496.974	6368.55
497.344	6438.6
497.713	6422.11
498.082	6493.97
498.452	6454.87
498.821	6533.74
499.19	6558.15
499.559	6598.15
499.928	6644.25
500.298	6645.15
500.667	6708.88
501.036	6696.67
501.405	6784.36
501.774	6748.88
502.143	6759.72
502.512	6826.39
502.88	6829.1
503.249	6863.9
503.618	6880.62
503.987	6976.67
504.356	6957.23
504.724	7005.37
505.093	7016.44
505.462	7025.03
505.83	7082.43
506.199	7118.81
506.567	7144.8
506.936	7181.41
507.304	7207.17
507.672	7208.07
508.041	7210.11
508.409	7327.62
508.777	7382.98
509.145	7344.57
509.514	7420.05
509.882	7309.54
510.25	7414.85
510.618	7416.88
510.986	7447.84
511.354	7544.11
511.722	7545.24
512.09	7540.49
512.458	7550.89
512.826	7638.34
513.193	7624.33
513.561	7656.87
513.929	7689.64
514.297	7764.67
514.664	7781.62
515.032	7788.85
515.4	7832.01
515.767	7789.75
516.135	7811.67
516.502	7773.26
516.869	7871.11
517.237	7905.23
517.604	7887.15
517.972	7925.12
518.339	7921.05
518.706	7952.01
519.073	7891.9
519.44	8018.45
519.808	8016.19
520.175	8035.17
520.542	8094.83
520.909	8114.72
521.276	8032.23
521.643	8108.61
522.009	8153.81
522.376	8175.51
522.743	8165.79
523.11	8227.03
523.477	8273.36
523.843	8229.06
524.21	8321.49
524.577	8344.77
524.943	8378.21
525.31	8383.18
525.676	8421.15
526.043	8472.45
526.409	8475.38
526.776	8541.6
527.142	8554.7
527.508	8577.75
527.874	8623.18
528.241	8544.08
528.607	8559.45
528.973	8577.53
529.339	8594.03
529.705	8571.88
530.071	8653.23
530.437	8702.72
530.803	8690.29
531.169	8744.3
531.535	8710.63
531.901	8730.75
532.267	8761.03
532.632	8795.83
532.998	8749.73
533.364	8829.5
533.73	8755.15
534.095	8813.23
534.461	8825.66
534.826	8831.31
535.192	8828.37
535.557	8850.29
535.923	8740.91
536.288	8797.86
536.653	8831.31
537.019	8756.96
537.384	8796.96
537.749	8874.24
538.114	8795.6
538.479	8826.34
538.845	8856.84
539.21	8780.69
539.575	8809.16
539.94	8739.56
540.305	8745.21
540.67	8755.38
541.034	8854.58
541.399	8836.28
541.764	8778.65
542.129	8806
542.494	8832.21
542.858	8826.79
543.223	8798.77
543.587	8785.21
543.952	8763.74
544.316	8802.83
544.681	8750.63
545.045	8847.13
545.41	8825.21
545.774	8780.46
546.138	8816.84
546.503	8811.19
546.867	8796.96
547.231	8816.17
547.595	8798.99
547.959	8848.03
548.324	8804.19
548.688	8766.9
549.052	8768.94
549.416	8763.51
549.779	8749.95
550.143	8802.83
550.507	8817.97
550.871	8786.11
551.235	8739.33
551.599	8788.6
551.962	8713.8
552.326	8772.78
552.689	8869.72
553.053	8764.42
553.417	8733.68
553.78	8777.75
554.143	8732.55
554.507	8829.27
554.87	8812.32
555.234	8926.22
555.597	8779.11
555.96	8802.61
556.323	8824.98
556.686	8816.62
557.05	8824.75
557.413	8783.62
557.776	8858.43
558.139	8881.25
558.502	8885.09
558.865	8869.5
559.228	8890.06
559.59	8895.71
559.953	8951.76
560.316	9031.75
560.679	9036.5
561.041	8987.01
561.404	9097.06
561.767	9019.78
562.129	8997.63
562.492	9092.09
562.854	9083.5
563.217	9072.2
563.579	9144.75
563.941	9128.7
564.304	9176.83
564.666	9209.38
565.028	9255.03
565.39	9233.1
565.753	9274.69
566.115	9333.67
566.477	9315.36
566.839	9251.64
567.201	9419.77
567.563	9344.74
567.925	9426.77
568.287	9382.25
568.648	9363.27
569.01	9505.87
569.372	9562.14
569.734	9443.95
570.095	9513.32
570.457	9544.73
570.819	9599.42
571.18	9603.49
571.542	9637.16
571.903	9583.6
572.265	9629.93
572.626	9650.04
572.987	9698.63
573.349	9756.93
573.71	9707.67
574.071	9806.42
574.432	9811.85
574.794	9880.55
575.155	9850.49
575.516	9876.93
575.877	9869.47
576.238	9942.46
576.599	9997.15
576.96	9904.95
577.32	9905.86
577.681	9938.17
578.042	9971.16
578.403	10002.8
578.763	10040.09
579.124	10039.86
579.485	10121.22
579.845	10115.12
580.206	10138.84
580.566	10071.5
580.927	10190.37
581.287	10182.91
581.648	10173.64
582.008	10229.24
582.368	10179.07
582.728	10300.2
583.089	10240.99
583.449	10276.92
583.809	10255.45
584.169	10289.8
584.529	10292.74
584.889	10351.72
585.249	10347.43
585.609	10307.43
585.969	10397.37
586.329	10394.66
586.688	10410.02
587.048	10430.14
587.408	10434.66
587.768	10416.12
588.127	10415.67
588.487	10448.67
588.846	10449.8
589.206	10429.01
589.565	10456.8
589.925	10547.65
590.284	10540.64
590.643	10549
591.003	10532.28
591.362	10531.6
591.721	10537.25
592.08	10553.07
592.44	10570.7
592.799	10539.06
593.158	10574.54
593.517	10576.35
593.876	10681.43
594.235	10589
594.593	10606.4
594.952	10650.02
595.311	10606.63
595.67	10659.51
596.029	10637.59
596.387	10699.05
596.746	10691.6
597.104	10708.32
597.463	10597.81
597.822	10666.74
598.18	10705.38
598.538	10669.23
598.897	10657.47
599.255	10712.61
599.613	10801.65
599.972	10735.21
600.33	10753.06
600.688	10713.07
601.046	10703.8
601.404	10795.55
601.762	10721.2
602.12	10840.07
602.478	10821.31
602.836	10827.19
603.194	10772.73
603.552	10801.88
603.91	10809.56
604.268	10851.59
604.625	10785.38
604.983	10899.5
605.341	10831.03
605.698	10879.39
606.056	10859.73
606.413	10891.14
606.771	10923
607.128	10901.99
607.485	10828.32
607.843	10876.23
608.2	10926.17
608.557	10962.55
608.914	10900.86
609.272	11008.65
609.629	10945.83
609.986	11026.96
610.343	10985.15
610.7	11117.8
611.057	10998.71
611.414	10994.64
611.771	11050.23
612.127	11056.33
612.484	11060.85
612.841	11104.47
613.198	11023.79
613.554	11021.76
613.911	11137.01
614.267	11113.06
614.624	11071.7
614.98	11139.95
615.337	11231.47
615.693	11101.53
616.05	11146.73
616.406	11170
616.762	11176.1
617.118	11136.33
617.475	11130.68
617.831	11193.05
618.187	11147.4
618.543	11144.92
618.899	11202.32
619.255	11289.32
619.611	11207.74
619.967	11232.15
620.323	11232.15
620.678	11297.01
621.034	11234.18
621.39	11260.17
621.746	11226.05
622.101	11345.14
622.457	11228.08
622.812	11247.51
623.168	11246.84
623.523	11252.26
623.879	11292.49
624.234	11233.28
624.589	11310.56
624.945	11256.78
625.3	11277.57
625.655	11242.09
626.01	11260.17
626.365	11286.84
626.72	11240.28
627.075	11233.28
627.43	11264.01
627.785	11223.79
628.14	11249.32
628.495	11243.45
628.85	11254.75
629.205	11208.87
629.559	11236.89
629.914	11152.15
630.269	11216.56
630.623	11134.07
630.978	11083
631.332	11158.48
631.687	11172.49
632.041	11152.83
632.396	11134.75
632.75	11069.21
633.104	11098.14
633.459	11067.63
633.813	11040.97
634.167	11036
634.521	11002.32
634.875	11071.25
635.229	11013.85
635.583	11006.62
635.937	11045.03
636.291	10937.47
636.645	10974.08
636.999	10978.6
637.352	10911.25
637.706	10969.33
638.06	10899.73
638.413	10897.69
638.767	10910.57
639.121	10838.49
639.474	10864.93
639.828	10812.27
640.181	10861.08
640.534	10822.67
640.888	10766.85
641.241	10816.79
641.594	10789.67
641.947	10843.91
642.301	10844.36
642.654	10769.11
643.007	10757.81
643.36	10741.77
643.713	10737.02
644.066	10729.34
644.419	10735.66
644.771	10664.71
645.124	10599.17
645.477	10490.92
645.83	10494.54
646.182	10483.02
646.535	10378.16
646.888	10380.65
647.24	10366.18
647.593	10380.65
647.945	10399.85
648.298	10296.13
648.65	10290.25
649.002	10354.21
649.355	10402.57
649.707	10361.21
650.059	10308.1
650.411	10518.49
650.763	10509.91
651.115	10656.12
651.467	10610.92
651.819	10562.56
652.171	10522.11
652.523	10531.38
652.875	10556.69
653.227	10469.23
653.578	10603.92
653.93	10551.71
654.282	10457.03
654.633	10479.4
654.985	10518.49
655.337	10458.84
655.688	10494.09
656.039	10549.45
656.391	10528.66
656.742	10519.62
657.094	10507.65
657.445	10577.02
657.796	10565.73
658.147	10501.32
658.498	10495.67
658.849	10516.46
659.2	10497.7
659.551	10523.47
659.902	10484.15
660.253	10452.28
660.604	10472.62
660.955	10508.33
661.306	10505.84
661.656	10471.72
662.007	10552.62
662.358	10536.12
662.708	10534.31
663.059	10471.26
663.409	10458.84
663.76	10588.1
664.11	10461.09
664.461	10493.18
664.811	10506.29
665.161	10556.69
665.511	10520.98
665.862	10519.62
666.212	10526.4
666.562	10565.27
666.912	10539.06
667.262	10478.72
667.612	10455.67
667.962	10561.43
668.312	10508.55
668.662	10545.61
669.011	10511.72
669.361	10497.93
669.711	10442.34
670.06	10478.04
670.41	10505.39
670.76	10466.29
671.109	10500.19
671.459	10454.09
671.808	10432.62
672.157	10461.32
672.507	10449.57
672.856	10485.5
673.205	10379.74
673.554	10489.12
673.904	10368.67
674.253	10469.46
674.602	10430.14
674.951	10273.98
675.3	10189.92
675.649	10394.66
675.998	10380.87
676.346	10357.37
676.695	10357.82
677.044	10255
677.393	10274.89
677.741	10316.92
678.09	10314.66
678.438	10283.25
678.787	10281.44
679.135	10269.91
679.484	10240.99
679.832	10208.67
680.181	10166.64
680.529	10207.32
680.877	10215.68
681.225	10169.58
681.573	10150.59
681.922	10117.6
682.27	10038.06
682.618	10123.02
682.966	10069.69
683.314	10102.69
683.661	10033.54
684.009	10021.33
684.357	9987.89
684.705	10002.35
685.053	10012.29
685.4	9943.59
685.748	9880.55
686.095	9920.09
686.443	9887.55
686.79	9876.93
687.138	9822.92
687.485	9864.27
687.832	9808.91
688.18	9870.38
688.527	9718.97
688.874	9784.5
689.221	9689.59
689.568	9730.94
689.915	9626.54
690.262	9620.21
690.609	9612.53
690.956	9496.37
691.303	9600.78
691.65	9481.01
691.997	9512.65
692.344	9395.59
692.69	9400.11
693.037	9421.8
693.383	9403.5
693.73	9391.07
694.077	9292.99
694.423	9295.25
694.769	9299.77
695.116	9276.95
695.462	9234.01
695.808	9185.42
696.155	9211.86
696.501	9124.86
696.847	9126.21
697.193	9003.51
697.539	9070.85
697.885	9013.9
698.231	8992.43
698.577	8980.23
698.923	8961.7
699.269	8906.11
699.614	8810.74
699.96	8851.87
700.306	8794.47
700.651	8797.18
700.997	8754.47
701.342	8728.03
701.688	8672.44
702.033	8694.36
702.379	8695.49
702.724	8629.73
703.069	8585.89
703.415	8505.21
703.76	8519.68
704.105	8554.7
704.45	8469.96
704.795	8436.52
705.14	8402.84
705.485	8415.05
705.83	8368.49
706.175	8392.45
706.52	8358.55
706.865	8337.99
707.209	8232.68
707.554	8210.98
707.899	8243.53
708.243	8202.4
708.588	8210.76
708.932	8192
709.277	8116.07
709.621	8131.44
709.966	8067.71
710.31	8066.58
710.654	8016.19
710.998	8034.72
711.342	8035.4
711.687	7995.85
712.031	7935.74
712.375	7945.68
712.719	7974.61
713.063	7937.77
713.407	7960.82
713.75	7916.3
714.094	7925.79
714.438	7881.28
714.782	7900.26
715.125	7844.21
715.469	7848.51
715.812	7778
716.156	7756.99
716.499	7787.04
716.843	7820.49
717.186	7738
717.53	7717.44
717.873	7802.18
718.216	7791.11
718.559	7709.3
718.902	7719.25
719.246	7708.85
719.589	7692.58
719.932	7621.85
720.275	7648.74
720.617	7606.93
720.96	7651.23
721.303	7635.18
721.646	7625.01
721.989	7532.13
722.331	7583.88
722.674	7591.11
723.016	7544.11
723.359	7602.41
723.701	7595.41
724.044	7483.32
724.386	7477.9
724.729	7546.14
725.071	7570.55
725.413	7498.01
725.755	7517.44
726.097	7484.22
726.439	7435.19
726.782	7446.71
727.124	7491
727.465	7403.1
727.807	7470.21
728.149	7376.43
728.491	7429.08
728.833	7466.6
729.175	7399.25
729.516	7423.89
729.858	7455.07
730.199	7407.39
730.541	7413.04
730.882	7425.92
731.224	7333.49
731.565	7357
731.906	7452.36
732.248	7393.38
732.589	7320.61
732.93	7286.94
733.271	7339.37
733.612	7421.4
733.953	7371.23
734.294	7368.29
734.635	7345.47
734.976	7387.96
735.317	7308.86
735.658	7331.69
735.999	7329.88
736.339	7362.65
736.68	7342.08
737.021	7362.87
737.361	7296.43
737.702	7334.17
738.042	7295.3
738.383	7301.86
738.723	7332.59
739.063	7354.51
739.404	7348.41
739.744	7347.05
740.084	7276.09
740.424	7355.87
740.764	7371.01
741.104	7360.84
741.444	7370.1
741.784	7284.91
742.124	7387.96
742.464	7404.23
742.804	7350.67
743.143	7299.14
743.483	7393.15
743.823	7428.18
744.162	7376.2
744.502	7437.67
744.841	7417.11
745.181	7442.87
745.52	7479.93
745.86	7531.68
746.199	7498.91
746.538	7557.44
746.877	7642.41
747.216	7623.43
747.556	7611
747.895	7642.19
748.234	7675.41
748.573	7723.54
748.911	7813.93
749.25	7797.66
749.589	7824.55
749.928	7850.09
750.267	7938.22
750.605	7966.7
750.944	7967.15
751.283	8017.32
751.621	8111.33
751.96	8024.1
752.298	8183.19
752.636	8225.67
752.975	8251.44
753.313	8310.64
753.651	8367.36
753.989	8478.77
754.327	8527.81
754.666	8553.8
755.004	8656.4
755.342	8838.54
755.679	8835.6
756.017	8890.74
756.355	9032.66
756.693	9034.69
757.031	9236.72
757.368	9300.67
757.706	9382.03
758.044	9402.14
758.381	9619.76
758.719	9696.14
759.056	9762.13
759.394	9872.86
759.731	9897.72
760.068	10074.89
760.405	10047.32
760.743	10231.72
761.08	10397.82
761.417	10400.31
761.754	10491.83
762.091	10626.51
762.428	10703.57
762.765	10851.14
763.102	10979.5
763.438	11051.81
763.775	11005.26
764.112	11160.29
764.449	11394.4
764.785	11376.1
765.122	11525.93
765.458	11530.22
765.795	11707.84
766.131	11864.67
766.467	11896.54
766.804	11945.58
767.14	11911.23
767.476	12056.31
767.812	12204.1
768.148	12251.56
768.485	12229.18
768.821	12336.07
769.157	12452.46
769.492	12523.19
769.828	12572.9
770.164	12621.26
770.5	12656.97
770.836	12673.92
771.171	12840.02
771.507	12835.04
771.842	12808.83
772.178	12914.82
772.513	12973.35
772.849	13062.61
773.184	13034.36
773.519	13129.05
773.855	13056.73
774.19	13123.4
774.525	13155.04
774.86	13237.97
775.195	13240.91
775.53	13239.55
775.865	13225.77
776.2	13253.11
776.535	13291.76
776.87	13272.77
777.205	13279.78
777.539	13292.21
777.874	13312.77
778.209	13284.52
778.543	13207.01
778.878	13323.62
779.212	13463.95
779.547	13334.24
779.881	13326.78
780.215	13297.18
780.55	13389.83
780.884	13313.9
781.218	13350.28
781.552	13345.76
781.886	13283.62
782.22	13226.9
782.554	13296.95
782.888	13198.88
783.222	13197.52
783.556	13158.65
783.889	13205.88
784.223	13114.81
784.557	13061.03
784.89	13174.92
785.224	13179.67
785.557	13071.65
785.891	13077.52
786.224	13098.54
786.558	13136.96
786.891	13029.16
787.224	13018.54
787.557	13036.62
787.891	12963.85
788.224	12922.5
788.557	13002.95
788.89	12983.97
789.223	12903.29
789.556	12858.55
789.888	12859
790.221	12818.55
790.554	12708.04
790.887	12798.89
791.219	12786.01
791.552	12718.44
791.884	12658.78
792.217	12713.69
792.549	12667.14
792.882	12568.16
793.214	12489.06
793.546	12590.3
793.879	12556.86
794.211	12454.94
794.543	12519.12
794.875	12487.93
795.207	12517.09
795.539	12472.79
795.871	12426.24
796.203	12342.18
796.535	12324.55
796.867	12296.07
797.198	12235.51
797.53	12253.14
797.862	12132.24
798.193	12219.01
798.525	12193.25
798.856	12163.88
799.188	12008.85
799.519	11956.42
799.85	11932.69
800.182	12007.72
800.513	11975.41
800.844	11902.19
801.175	11975.86
801.506	11926.37
801.837	11827.84
802.168	11760.5
802.499	11815.18
802.83	11721.17
803.161	11697.67
803.491	11666.26
803.822	11724.11
804.153	11695.64
804.483	11569.54
804.814	11555.08
805.145	11519.15
805.475	11535.87
805.805	11457.23
806.136	11582.2
806.466	11534.29
806.796	11453.84
807.126	11351.02
807.457	11409.32
807.787	11357.12
808.117	11315.31
808.447	11324.8
808.777	11352.82
809.107	11202.77
809.436	11206.39
809.766	11212.49
810.096	11261.75
810.426	11157.8
810.755	11194.64
811.085	11150.79
811.414	11080.29
811.744	11032.61
812.073	10984.25
812.403	10951.03
812.732	10987.63
813.061	10999.84
813.39	10854.3
813.719	10857.47
814.049	10895.43
814.378	10850.69
814.707	10837.58
815.036	10807.07
815.365	10823.35
815.693	10736.57
816.022	10687.08
816.351	10740.18
816.68	10659.28
817.008	10735.89
817.337	10589.45
817.665	10669
817.994	10574.54
818.322	10636.01
818.651	10565.5
818.979	10547.42
819.307	10640.07
819.636	10460.42
819.964	10470.13
820.292	10576.8
820.62	10480.76
820.948	10531.83
821.276	10503.35
821.604	10448.67
821.932	10428.78
822.259	10489.57
822.587	10416.35
822.915	10388.33
823.243	10392.85
823.57	10432.4
823.898	10441.89
824.225	10392.62
824.553	10429.01
824.88	10377.93
825.207	10428.33
825.535	10426.97
825.862	10430.59
826.189	10470.36
826.516	10427.88
826.843	10433.53
827.17	10457.71
827.497	10478.5
827.824	10556.69
828.151	10464.26
828.478	10518.95
828.805	10497.93
829.131	10470.81
829.458	10473.75
829.785	10402.34
830.111	10402.34
830.438	10582
830.764	10443.02
831.09	10500.87
831.417	10385.62
831.743	10454.32
832.069	10404.6
832.395	10356.46
832.722	10468.78
833.048	10382
833.374	10439.17
833.7	10388.55
834.026	10355.79
834.351	10387.2
834.677	10362.34
835.003	10423.13
835.329	10379.29
835.654	10330.48
835.98	10311.72
836.306	10345.39
836.631	10285.05
836.956	10316.92
837.282	10312.85
837.607	10229.24
837.932	10245.73
838.258	10253.87
838.583	10214.77
838.908	10258.39
839.233	10147.66
839.558	10162.35
839.883	10116.47
840.208	10090.26
840.533	10123.25
840.858	10160.99
841.182	10111.05
841.507	10114.21
841.832	10024.27
842.156	10076.7
842.481	10013.65
842.805	9984.72
843.13	10008.23
843.454	9984.05
843.778	9920.54
844.103	9886.19
844.427	9879.19
844.751	9858.62
845.075	9840.55
845.399	9795.35
845.723	9781.56
846.047	9770.72
846.371	9653.21
846.695	9675.35
847.019	9595.36
847.343	9585.41
847.666	9530.5
847.99	9466.77
848.313	9478.75
848.637	9409.15
848.96	9369.6
849.284	9385.19
849.607	9210.05
849.931	9305.42
850.254	9183.39
850.577	9181.13
850.9	9092.77
851.223	9108.59
851.546	9030.85
851.869	8987.01
852.192	9026.78
852.515	8982.26
852.838	8871.08
853.161	8980.46
853.483	8818.65
853.806	8917.86
854.129	8892.1
854.451	8807.13
854.774	8820.46
855.096	8806
855.419	8734.81
855.741	8730.07
856.063	8731.2
856.385	8648.04
856.708	8681.25
857.03	8589.73
857.352	8613.91
857.674	8558.55
857.996	8538.89
858.318	8506.8
858.64	8473.8
858.961	8453.24
859.283	8512.45
859.605	8437.65
859.926	8414.14
860.248	8414.14
860.57	8366.91
860.891	8364.88
861.212	8339.57
861.534	8251.89
861.855	8236.97
862.176	8287.14
862.498	8290.08
862.819	8249.85
863.14	8236.52
863.461	8229.52
863.782	8177.09
864.103	8238.1
864.424	8170.08
864.745	8193.58
865.065	8155.17
865.386	8089.41
865.707	8109.97
866.027	8145.22
866.348	8114.04
866.668	8094.38
866.989	8062.97
867.309	8021.84
867.63	8055.73
867.95	7973.7
868.27	7930.31
868.59	7985.23
868.91	7929.41
869.23	8054.15
869.55	7973.93
869.87	8020.93
870.19	7905
870.51	7939.35
870.83	7959.69
871.15	7926.92
871.469	7949.52
871.789	7924.66
872.109	7855.51
872.428	7851.9
872.748	7887.38
873.067	7839.47
873.386	7834.72
873.706	7838.79
874.025	7779.81
874.344	7760.83
874.663	7759.7
874.982	7761.05
875.301	7705.46
875.62	7723.77
875.939	7651.45
876.258	7716.08
876.577	7747.72
876.896	7720.38
877.214	7618.91
877.533	7662.98
877.852	7653.94
878.17	7611
878.489	7590.21
878.807	7648.51
879.125	7598.57
879.444	7570.55
879.762	7593.37
880.08	7599.7
880.398	7502.75
880.716	7533.71
881.034	7489.65
881.352	7514.28
881.67	7474.28
881.988	7435.19
882.306	7417.56
882.624	7398.12
882.941	7437.45
883.259	7308.18
883.577	7362.65
883.894	7350.67
884.212	7317.9
884.529	7377.33
884.846	7304.79
885.164	7298.69
885.481	7300.27
885.798	7264.57
886.115	7200.62
886.432	7214.63
886.75	7169.66
887.067	7220.95
887.383	7202.2
887.7	7190.45
888.017	7117.45
888.334	7171.24
888.651	7165.81
888.967	7130.11
889.284	7043.11
889.6	7018.02
889.917	6991.58
890.233	7001.07
890.55	6946.61
890.866	6977.12
891.182	6962.88
891.498	6921.75
891.815	6930.79
892.131	6896.44
892.447	6910.45
892.763	6860.06
893.079	6886.73
893.395	6807.41
893.71	6799.04
894.026	6777.8
894.342	6741.87
894.657	6653.06
894.973	6732.15
895.289	6708.88
895.604	6751.36
895.92	6620.97
896.235	6611.25
896.55	6631.37
896.865	6608.99
897.181	6470.01
897.496	6587.52
897.811	6556.34
898.126	6561.99
898.441	6502.56
898.756	6468.88
899.071	6411.71
899.386	6463.69
899.7	6427.75
900.015	6339.62
900.33	6289.68
900.644	6246.29
900.959	6324.48
901.273	6273.41
901.588	6236.8
901.902	6235.44
902.216	6228.21
902.531	6145.73
902.845	6167.65
903.159	6140.98
903.473	6114.99
903.787	6074.77
904.101	6070.7
904.415	6048.33
904.729	6027.31
905.042	6003.81
905.356	5974.21
905.67	5958.61
905.984	5906.19
906.297	5935.34
906.611	5886.98
906.924	5881.78
907.237	5852.63
907.551	5928.33
907.864	5800.43
908.177	5778.05
908.491	5788
908.804	5783.93
909.117	5732.86
909.43	5724.04
909.743	5649.7
910.056	5633.88
910.368	5587.32
910.681	5607.89
910.994	5598.85
911.307	5592.52
911.619	5513.2
911.932	5591.84
912.244	5499.64
912.557	5510.04
912.869	5450.38
913.181	5470.27
913.494	5405.86
913.806	5398.4
914.118	5377.61
914.43	5372.87
914.742	5341.91
915.054	5281.8
915.366	5318.63
915.678	5325.86
915.99	5309.37
916.302	5272.08
916.613	5215.36
916.925	5176.94
917.236	5164.51
917.548	5167.67
917.859	5141.46
918.171	5122.93
918.482	5098.98
918.794	5077.73
919.105	5042.03
919.416	5021.92
919.727	5013.78
920.038	4962.26
920.349	4923.61
920.66	4987.11
920.971	4950.51
921.282	4916.16
921.593	4880.9
921.903	4850.62
922.214	4859.21
922.525	4801.58
922.835	4782.37
923.146	4765.65
923.456	4819.21
923.767	4740.79
924.077	4727.23
924.387	4694.47
924.697	4689.5
925.008	4707.35
925.318	4638.65
925.628	4672.55
925.938	4599.33
926.248	4575.15
926.558	4564.3
926.867	4617.63
927.177	4598.2
927.487	4507.58
927.796	4517.97
928.106	4530.86
928.416	4447.02
928.725	4493.12
929.034	4399.11
929.344	4407.92
929.653	4400.46
929.962	4403.63
930.271	4395.49
930.581	4328.6
930.89	4314.14
931.199	4287.47
931.508	4345.1
931.817	4293.35
932.125	4286.79
932.434	4236.17
932.743	4241.37
933.051	4234.37
933.36	4177.87
933.669	4146.23
933.977	4141.49
934.286	4121.83
934.594	4135.39
934.902	4136.06
935.21	4096.29
935.519	4057.87
935.827	4105.56
936.135	4047.7
936.443	4015.39
936.751	4028.04
937.059	4012
937.367	3952.11
937.674	3961.15
937.982	3978.33
938.29	3916.18
938.597	3937.2
938.905	3867.82
939.213	3881.61
939.52	3866.24
939.827	3872.12
940.135	3801.16
940.442	3795.51
940.749	3834.83
941.056	3818.78
941.363	3766.36
941.67	3760.48
941.977	3777.43
942.284	3737.66
942.591	3684.78
942.898	3703.76
943.205	3680.93
943.511	3676.64
943.818	3650.65
944.125	3651.56
944.431	3595.96
944.738	3579.02
945.044	3582.18
945.35	3598.68
945.657	3558.23
945.963	3544.67
946.269	3515.51
946.575	3517.1
946.881	3535.4
947.187	3483.2
947.493	3464.67
947.799	3451.79
948.105	3437.1
948.41	3419.02
948.716	3456.08
949.022	3407.27
949.327	3416.31
949.633	3362.75
949.938	3385.12
950.244	3371.79
950.549	3304.22
950.854	3345.58
951.16	3330.89
951.465	3317.33
951.77	3273.04
952.075	3261.96
952.38	3282.3
952.685	3247.05
952.99	3216.31
953.294	3245.69
953.599	3223.77
953.904	3173.6
954.209	3163.89
954.513	3153.04
954.818	3198.69
955.122	3142.19
955.426	3132.93
955.731	3102.42
956.035	3080.27
956.339	3025.81
956.643	3066.71
956.948	3079.14
957.252	3067.39
957.556	3043.44
957.86	3028.97
958.163	3024.23
958.467	3005.92
958.771	3005.02
959.075	2984.23
959.378	2963.44
959.682	2957.34
959.985	2937.45
960.289	2919.15
960.592	2932.71
960.896	2912.14
961.199	2881.18
961.502	2877.11
961.805	2843.44
962.108	2837.79
962.411	2852.93
962.714	2838.02
963.017	2817.68
963.32	2815.42
963.623	2784.46
963.926	2780.62
964.228	2750.56
964.531	2755.76
964.833	2729.77
965.136	2752.15
965.438	2709.21
965.741	2693.16
966.043	2711.92
966.345	2695.42
966.648	2678.7
966.95	2633.73
967.252	2668.31
967.554	2613.84
967.856	2639.15
968.158	2642.32
968.46	2578.14
968.761	2618.82
969.063	2606.84
969.365	2561.87
969.666	2570.23
969.968	2548.76
970.269	2577.01
970.571	2546.05
970.872	2525.03
971.174	2489.78
971.475	2502.43
971.776	2516.45
972.077	2460.63
972.378	2438.03
972.679	2473.28
972.98	2475.77
973.281	2443.9
973.582	2407.75
973.883	2432.61
974.183	2410.23
974.484	2441.19
974.785	2368.65
975.085	2408.2
975.386	2373.85
975.686	2364.58
975.986	2341.76
976.287	2351.48
976.587	2322.1
976.887	2321.2
977.187	2340.63
977.487	2307.19
977.787	2300.63
978.087	2286.85
978.387	2312.83
978.687	2265.15
978.987	2252.5
979.286	2229.9
979.586	2261.54
979.885	2248.2
980.185	2195.78
980.484	2194.65
980.784	2191.03
981.083	2189
981.382	2202.33
981.682	2186.96
981.981	2192.61
982.28	2139.28
982.579	2166.85
982.878	2188.77
983.177	2130.24
983.475	2144.03
983.774	2127.53
984.073	2100.86
984.372	2107.87
984.67	2068.77
984.969	2078.94
985.267	2095.67
985.566	2037.14
985.864	2034.65
986.162	2045.27
986.461	2023.35
986.759	2031.49
987.057	2010.92
987.355	1984.03
987.653	2021.32
987.951	2004.14
988.249	1977.93
988.547	1969.79
988.844	1959.62
989.142	1953.3
989.44	1951.94
989.737	1935.44
990.035	1931.6
990.332	1916.23
990.63	1898.38
990.927	1899.74
991.224	1907.87
991.521	1850.7
991.819	1889.34
992.116	1849.57
992.413	1854.99
992.71	1841.21
993.006	1810.93
993.303	1822.45
993.6	1798.05
993.897	1830.59
994.193	1810.02
994.49	1785.84
994.787	1819.97
995.083	1785.84
995.379	1782
995.676	1758.5
995.972	1749.01
996.268	1744.04
996.565	1760.53
996.861	1711.27
997.157	1715.79
997.453	1689.8
997.749	1735.45
998.044	1706.52
998.34	1694.09
998.636	1686.86
998.932	1665.85
999.227	1635.56
999.523	1668.11
999.818	1687.31
1000.114	1661.78
1000.409	1650.48
1000.704	1617.03
1001	1609.58
1001.295	1646.41
1001.59	1625.17
1001.885	1600.76
1002.18	1581.55
1002.475	1603.02
1002.77	1555.79
1003.065	1579.07
1003.359	1572.29
1003.654	1584.04
1003.949	1540.65
1004.243	1504.49
1004.538	1521.67
1004.832	1528.45
1005.127	1519.41
1005.421	1488.9
1005.715	1499.07
1006.009	1472.4
1006.304	1493.2
1006.598	1507.43
1006.892	1473.08
1007.186	1461.11
1007.48	1447.55
1007.773	1466.3
1008.067	1455.46
1008.361	1400.09
1008.655	1420.88
1008.948	1416.14
1009.242	1429.92
1009.535	1379.75
1009.829	1371.84
1010.122	1400.09
1010.415	1390.83
1010.708	1347.89
1011.001	1376.81
1011.295	1335.69
1011.588	1332.52
1011.881	1353.09
1012.173	1336.14
1012.466	1340.66
1012.759	1317.38
1013.052	1313.31
1013.344	1311.51
1013.637	1298.17
1013.93	1277.61
1014.222	1291.39
1014.514	1290.71
1014.807	1278.29
1015.099	1250.49
1015.391	1244.84
1015.683	1235.8
1015.976	1251.17
1016.268	1224.5
1016.56	1233.99
1016.851	1231.96
1017.143	1202.81
1017.435	1186.31
1017.727	1192.41
1018.018	1215.01
1018.31	1185.86
1018.602	1195.12
1018.893	1149.02
1019.185	1122.81
1019.476	1148.8
1019.767	1154.67
1020.058	1171.4
1020.35	1166.2
1020.641	1139.31
1020.932	1135.24
1021.223	1127.1
1021.514	1111.28
1021.804	1105.86
1022.095	1078.52
1022.386	1074.22
1022.677	1108.8
1022.967	1082.13
1023.258	1076.93
1023.548	1053.66
1023.839	1065.64
1024.129	1043.94
1024.419	1036.94
1024.709	1045.52
1025	1035.13
1025.29	1024.73
1025.58	1008.69
1025.87	1010.95
1026.16	1023.6
1026.449	1019.54
1026.739	981.57
1027.029	1008.91
1027.319	996.71
1027.608	960.78
1027.898	976.82
1028.187	966.88
1028.477	957.16
1028.766	975.47
1029.055	937.28
1029.344	944.28
1029.634	968.24
1029.923	928.01
1030.212	930.5
1030.501	914.91
1030.79	910.39
1031.078	905.19
1031.367	893.89
1031.656	913.55
1031.945	880.33
1032.233	911.06
1032.522	901.57
1032.81	872.42
1033.099	880.56
1033.387	859.99
1033.675	871.29
1033.963	843.04
1034.251	844.4
1034.54	851.18
1034.828	834.46
1035.116	846.21
1035.403	816.6
1035.691	850.05
1035.979	836.26
1036.267	819.77
1036.554	822.48
1036.842	815.02
1037.129	818.64
1037.417	806.43
1037.704	791.74
1037.992	806.89
1038.279	807.34
1038.566	795.59
1038.853	795.59
1039.14	795.59
