Data from hue_310_FLMS001491_50.txt Node
Date: Mon Feb 06 15:49:45 GMT 2017
User: dcchb
Spectrometer: FLMS00149
Trigger mode: 0
Integration Time (sec): 2.000000E-2
Scans to average: 10
Electric dark correction enabled: true
Nonlinearity correction enabled: false
Boxcar width: 0
XAxis mode: Wavelengths
Number of Pixels in Spectrum: 2048
>>>>>Begin Spectral Data<<<<<
341.393	-13.22
341.776	-13.22
342.16	-13.22
342.543	-64.07
342.927	-63.39
343.31	-63.61
343.693	-102.94
344.077	-63.61
344.46	-69.04
344.843	-61.81
345.226	-40.11
345.61	-37.17
345.993	-23.39
346.376	-8.7
346.759	17.97
347.142	45.99
347.525	38.53
347.908	82.6
348.291	86.66
348.674	95.25
349.057	103.39
349.44	100.68
349.823	136.38
350.206	183.16
350.588	191.75
350.971	218.64
351.354	209.15
351.737	232.42
352.119	249.6
352.502	258.41
352.884	275.36
353.267	272.2
353.65	291.18
354.032	295.47
354.414	303.38
354.797	302.25
355.179	335.47
355.562	316.71
355.944	319.43
356.326	321.91
356.709	331.4
357.091	331.63
357.473	339.09
357.855	337.28
358.238	342.25
358.62	336.6
359.002	342.02
359.384	328.69
359.766	328.47
360.148	363.95
360.53	328.01
360.912	327.79
361.294	355.36
361.676	322.82
362.057	324.4
362.439	318.97
362.821	322.82
363.203	323.95
363.584	313.55
363.966	321.23
364.348	301.12
364.729	326.88
365.111	300.44
365.493	327.79
365.874	307.9
366.256	317.84
366.637	340.67
367.019	317.62
367.4	313.1
367.781	313.78
368.163	302.93
368.544	310.39
368.925	312.2
369.306	302.7
369.688	297.51
370.069	299.54
370.45	319.88
370.831	320.33
371.212	299.77
371.593	304.74
371.974	292.99
372.355	304.96
372.736	310.84
373.117	326.21
373.498	326.43
373.879	316.49
374.26	311.52
374.641	291.86
375.021	318.52
375.402	328.92
375.783	296.38
376.163	315.36
376.544	298.64
376.925	316.04
377.305	326.21
377.686	314
378.066	315.36
378.447	307.45
378.827	334.12
379.208	318.07
379.588	337.96
379.968	333.89
380.349	347
380.729	333.44
381.109	334.79
381.489	319.43
381.87	347
382.25	323.95
382.63	335.7
383.01	338.86
383.39	336.15
383.77	321.23
384.15	328.24
384.53	350.39
384.91	341.35
385.29	345.64
385.67	317.39
386.049	330.95
386.429	359.2
386.809	357.39
387.189	348.8
387.568	362.14
387.948	360.56
388.328	345.19
388.707	352.19
389.087	356.26
389.466	376.15
389.846	380.22
390.225	359.88
390.605	358.97
390.984	348.58
391.363	364.85
391.743	352.19
392.122	352.65
392.501	372.31
392.881	363.27
393.26	358.3
393.639	377.28
394.018	374.34
394.397	389.26
394.776	356.71
395.155	389.03
395.534	385.87
395.913	373.21
396.292	382.02
396.671	399.2
397.05	374.79
397.429	375.92
397.808	394.9
398.186	404.62
398.565	392.87
398.944	376.6
399.323	394.68
399.701	402.81
400.08	399.2
400.458	373.89
400.837	400.78
401.215	400.33
401.594	391.29
401.972	415.92
402.351	405.3
402.729	419.76
403.107	410.27
403.486	423.83
403.864	413.44
404.242	425.19
404.62	410.72
404.999	442.36
405.377	420.21
405.755	431.06
406.133	446.43
406.511	416.37
406.889	450.04
407.267	446.88
407.645	454.79
408.023	450.27
408.401	450.72
408.779	458.86
409.156	469.48
409.534	450.95
409.912	488.91
410.29	494.79
410.667	491.85
411.045	498.63
411.422	505.18
411.8	496.82
412.178	513.55
412.555	509.93
412.933	520.78
413.31	521.68
413.687	521.23
414.065	552.41
414.442	550.61
414.819	556.71
415.197	560.55
415.574	578.63
415.951	602.13
416.328	578.4
416.705	596.03
417.082	609.36
417.46	605.97
417.837	611.85
418.214	627.67
418.591	630.15
418.967	645.29
419.344	633.54
419.721	677.16
420.098	682.13
420.475	669.47
420.852	674.67
421.228	692.52
421.605	687.1
421.982	705.18
422.358	723.26
422.735	699.3
423.111	728.91
423.488	735.91
423.864	702.47
424.241	742.47
424.617	741.56
424.994	758.29
425.37	784.27
425.746	766.19
426.123	772.07
426.499	783.14
426.875	794.89
427.251	790.6
427.627	811.39
428.003	831.73
428.379	831.5
428.756	826.08
429.132	839.64
429.507	837.61
429.883	879.64
430.259	886.64
430.635	870.6
431.011	904.5
431.387	919.64
431.763	951.5
432.138	921.22
432.514	933.87
432.89	974.78
433.265	949.47
433.641	989.69
434.016	1000.54
434.392	1007.77
434.767	1044.83
435.143	1010.93
435.518	1033.31
435.894	990.14
436.269	1018.62
436.644	1066.07
437.02	1086.86
437.395	1062.91
437.77	1086.41
438.145	1101.78
438.52	1104.26
438.895	1105.62
439.271	1098.39
439.646	1111.95
440.021	1146.3
440.395	1126.41
440.77	1124.38
441.145	1159.18
441.52	1159.63
441.895	1165.05
442.27	1183.81
442.645	1182.91
443.019	1181.1
443.394	1169.35
443.769	1190.82
444.143	1185.17
444.518	1210.93
444.892	1189.46
445.267	1214.54
445.641	1210.02
446.016	1255.22
446.39	1238.95
446.764	1236.01
447.139	1232.4
447.513	1262.23
447.887	1243.47
448.262	1243.47
448.636	1243.02
449.01	1258.61
449.384	1247.76
449.758	1278.5
450.132	1267.88
450.506	1269.46
450.88	1307.42
451.254	1306.07
451.628	1313.52
452.002	1320.08
452.376	1340.64
452.75	1321.66
453.123	1352.85
453.497	1323.02
453.871	1350.13
454.244	1353.52
454.618	1360.53
454.992	1378.38
455.365	1393.75
455.739	1393.3
456.112	1426.74
456.486	1387.87
456.859	1430.81
457.232	1436.69
457.606	1433.97
457.979	1449.34
458.352	1503.12
458.725	1487.08
459.099	1504.25
459.472	1469.23
459.845	1496.8
460.218	1516.01
460.591	1525.27
460.964	1531.37
461.337	1581.31
461.71	1578.83
462.083	1582.44
462.456	1567.76
462.829	1603.23
463.201	1620.64
463.574	1627.19
463.947	1633.29
464.32	1652.95
464.692	1670.13
465.065	1678.26
465.438	1666.96
465.81	1683.68
466.183	1684.14
466.555	1736.56
466.928	1726.4
467.3	1756.68
467.672	1734.76
468.045	1775.21
468.417	1795.32
468.789	1771.82
469.161	1806.85
469.534	1864.24
469.906	1837.13
470.278	1849.56
470.65	1891.59
471.022	1921.87
471.394	1918.93
471.766	1932.94
472.138	1977.24
472.51	1980.4
472.882	1988.31
473.253	2040.06
473.625	2043.45
473.997	2078.7
474.369	2055.2
474.74	2078.25
475.112	2076.67
475.484	2146.27
475.855	2170
476.227	2174.97
476.598	2206.38
476.97	2205.25
477.341	2235.53
477.713	2248.87
478.084	2284.12
478.455	2342.88
478.827	2302.2
479.198	2355.08
479.569	2369.99
479.94	2439.14
480.311	2418.35
480.682	2487.73
481.053	2523.21
481.424	2554.62
481.795	2560.72
482.166	2584.45
482.537	2586.03
482.908	2605.24
483.279	2668.74
483.65	2704.9
484.021	2748.06
484.391	2733.83
484.762	2758.91
485.133	2776.99
485.503	2789.19
485.874	2818.57
486.244	2855.41
486.615	2901.96
486.985	2907.16
487.356	2948.28
487.726	2998
488.097	3014.72
488.467	3013.37
488.837	3077.77
489.207	3071.67
489.578	3150.99
489.948	3116.64
490.318	3159.58
490.688	3180.37
491.058	3184.44
491.428	3260.37
491.798	3244.32
492.168	3311.66
492.538	3332
492.908	3334.49
493.278	3363.64
493.648	3347.6
494.017	3407.03
494.387	3407.26
494.757	3435.28
495.126	3468.5
495.496	3479.57
495.866	3514.82
496.235	3542.17
496.605	3561.6
496.974	3532.9
497.344	3619.45
497.713	3571.32
498.082	3630.3
498.452	3623.75
498.821	3630.75
499.19	3632.11
499.559	3673.24
499.928	3699.22
500.298	3679.79
500.667	3743.52
501.036	3732.67
501.405	3770.41
501.774	3753.46
502.143	3785.55
502.512	3796.85
502.88	3835.94
503.249	3857.19
503.618	3878.43
503.987	3817.41
504.356	3900.58
504.724	3892.21
505.093	3910.07
505.462	3922.72
505.83	3941.48
506.199	3977.18
506.567	3989.39
506.936	3964.08
507.304	4004.08
507.672	4020.57
508.041	4011.08
508.409	4062.15
508.777	4104.19
509.145	4074.58
509.514	4081.59
509.882	4121.59
510.25	4056.5
510.618	4103.73
510.986	4117.74
511.354	4122.26
511.722	4153.45
512.09	4170.4
512.458	4169.95
512.826	4184.18
513.193	4197.97
513.561	4185.31
513.929	4176.73
514.297	4246.56
514.664	4281.81
515.032	4237.29
515.4	4281.81
515.767	4291.07
516.135	4264.41
516.502	4232.54
516.869	4324.97
517.237	4322.03
517.604	4257.18
517.972	4363.16
518.339	4363.84
518.706	4357.51
519.073	4367.68
519.44	4340.56
519.808	4364.29
520.175	4355.03
520.542	4408.36
520.909	4477.28
521.276	4433.44
521.643	4491.29
522.009	4493.78
522.376	4517.28
522.743	4502.82
523.11	4578.07
523.477	4599.31
523.843	4552.54
524.21	4604.74
524.577	4616.94
524.943	4653.55
525.31	4648.8
525.676	4669.14
526.043	4741.46
526.409	4746.88
526.776	4706.43
527.142	4783.72
527.508	4819.65
527.874	4819.87
528.241	4827.1
528.607	4846.09
528.973	4835.24
529.339	4903.71
529.705	4929.47
530.071	4961.11
530.437	4957.95
530.803	5013.54
531.169	5056.93
531.535	5028.46
531.901	4995.69
532.267	5120.88
532.632	5119.53
532.998	5141.9
533.364	5086.31
533.73	5117.49
534.095	5216.47
534.461	5182.8
534.826	5163.14
535.192	5199.75
535.557	5249.69
535.923	5203.59
536.288	5326.07
536.653	5359.29
537.019	5307.54
537.384	5358.39
537.749	5386.41
538.114	5421.21
538.479	5386.19
538.845	5450.82
539.21	5439.07
539.575	5461.21
539.94	5496.24
540.305	5501.66
540.67	5539.18
541.034	5563.13
541.399	5597.03
541.764	5602
542.129	5625.73
542.494	5628.21
542.858	5657.82
543.223	5665.5
543.587	5712.96
543.952	5742.56
544.316	5755.22
544.681	5783.69
545.045	5757.25
545.41	5821.65
545.774	5848.55
546.138	5839.28
546.503	5859.62
546.867	5892.61
547.231	5977.13
547.595	5952.5
547.959	5983.01
548.324	5957.7
548.688	6004.25
549.052	6023.46
549.416	6048.32
549.779	6039.73
550.143	6090.57
550.507	6112.04
550.871	6129.44
551.235	6152.27
551.599	6193.62
551.962	6208.99
552.326	6176.9
552.689	6280.4
553.053	6227.52
553.417	6254.41
553.78	6316.56
554.143	6242.89
554.507	6361.98
554.87	6290.34
555.234	6359.72
555.597	6317.91
555.96	6391.36
556.323	6398.59
556.686	6377.12
557.05	6455.31
557.413	6441.75
557.776	6441.75
558.139	6459.83
558.502	6438.81
558.865	6536.66
559.228	6634.74
559.59	6583.67
559.953	6604.23
560.316	6644.68
560.679	6584.35
561.041	6611.01
561.404	6699.37
561.767	6694.63
562.129	6700.5
562.492	6762.42
562.854	6761.07
563.217	6705.7
563.579	6768.07
563.941	6839.93
564.304	6846.49
564.666	6881.74
565.028	6939.82
565.39	6891.01
565.753	6957.67
566.115	6980.27
566.477	6996.77
566.839	6996.99
567.201	7061.17
567.563	7076.31
567.925	7124.67
568.287	7090.1
568.648	7111.56
569.01	7150.66
569.372	7212.13
569.734	7224.33
570.095	7235.63
570.457	7232.24
570.819	7353.14
571.18	7359.24
571.542	7410.77
571.903	7397.21
572.265	7461.39
572.626	7439.69
572.987	7521.27
573.349	7545.45
573.71	7653.7
574.071	7604.66
574.432	7691.21
574.794	7828.61
575.155	7793.35
575.516	7788.38
575.877	7924.65
576.238	7956.51
576.599	8065.44
576.96	8074.25
577.32	8131.42
577.681	8239.22
578.042	8340.23
578.403	8346.79
578.763	8502.94
579.124	8504.52
579.485	8700
579.845	8834.01
580.206	8887.11
580.566	9033.55
580.927	9107.9
581.287	9206.65
581.648	9407.55
582.008	9561.67
582.368	9673.3
582.728	9825.39
583.089	9915.11
583.449	10107.42
583.809	10275.78
584.169	10440.52
584.529	10549.89
584.889	10853.61
585.249	10982.42
585.609	11125.47
585.969	11416.54
586.329	11488.4
586.688	11778.56
587.048	11981.49
587.408	12193.46
587.768	12514.81
588.127	12733.56
588.487	12832.32
588.846	13271.18
589.206	13406.77
589.565	13642.47
589.925	14000.65
590.284	14181.66
590.643	14346.18
591.003	14735.54
591.362	14944.13
591.721	15239.71
592.08	15558.35
592.44	15838.79
592.799	16091.22
593.158	16426.35
593.517	16666.12
593.876	16856.39
594.235	17185.42
594.593	17498.86
594.952	17859.53
595.311	18125.74
595.67	18403.24
596.029	18781.99
596.387	18981.08
596.746	19438.92
597.104	19565.02
597.463	19923.88
597.822	20240.48
598.18	20484.32
598.538	20660.81
598.897	20991.2
599.255	21198.65
599.613	21813.78
599.972	21839.76
600.33	22294.44
600.688	22428.45
601.046	22867.99
601.404	23148.66
601.762	23297.58
602.12	23655.76
602.478	23961.74
602.836	24287.61
603.194	24373.03
603.552	24662.52
603.91	24841.04
604.268	25155.84
604.625	25311.31
604.983	25841.92
605.341	25818.19
605.698	26232.42
606.056	26463.6
606.413	26743.59
606.771	26928.67
607.128	27284.59
607.485	27220.19
607.843	27426.06
608.2	27901.53
608.557	28221.29
608.914	28193.72
609.272	28577.44
609.629	28851.78
609.986	29160.48
610.343	29118.44
610.7	29501.48
611.057	29770.63
611.414	29849.95
611.771	30091.75
612.127	30248.36
612.484	30305.98
612.841	30807.66
613.198	30799.53
613.554	30872.52
613.911	31221.66
614.267	31395.22
614.624	31487.42
614.98	31638.83
615.337	31936.22
615.693	31960.63
616.05	32062.09
616.406	32480.16
616.762	32452.37
617.118	32644.45
617.475	32783.43
617.831	32886.93
618.187	33079.92
618.543	33203.53
618.899	33557.65
619.255	33641.04
619.611	33700.02
619.967	33952.67
620.323	33958.09
620.678	33989.28
621.034	33957.86
621.39	34244.41
621.746	34146.11
622.101	34705.64
622.457	34463.61
622.812	34630.61
623.168	34944.73
623.523	34956.03
623.879	35043.03
624.234	34842.36
624.589	35098.4
624.945	35349.47
625.3	35410.71
625.655	35491.38
626.01	35489.58
626.365	35588.1
626.72	35632.17
627.075	35617.03
627.43	35812.73
627.785	35758.72
628.14	35745.84
628.495	35977.92
628.85	35937.47
629.205	35920.3
629.559	36157.35
629.914	35949.22
630.269	36151.48
630.623	36212.95
630.978	36108.09
631.332	36271.93
631.687	36403.9
632.041	36225.38
632.396	36402.77
632.75	36258.14
633.104	36381.76
633.459	36283.68
633.813	36391.02
634.167	36461.3
634.521	36338.82
634.875	36510.79
635.229	36318.25
635.583	36332.27
635.937	36492.71
636.291	36285.94
636.645	36461.3
636.999	36352.15
637.352	36471.02
637.706	36306.05
638.06	36473.96
638.413	36417.23
638.767	36432.83
639.121	36470.79
639.474	36349.21
639.828	36390.34
640.181	36384.47
640.534	36339.27
640.888	36311.02
641.241	36267.41
641.594	36310.12
641.947	36391.47
642.301	36188.54
642.654	36262.21
643.007	36255.66
643.36	36346.95
643.713	36306.95
644.066	36452.26
644.419	36180.63
644.771	35993.74
645.124	35640.98
645.477	35677.59
645.83	35382.46
646.182	35294.55
646.535	35227.89
646.888	35312.18
647.24	35043.94
647.593	35285.06
647.945	35112.41
648.298	34918.52
648.65	34950.83
649.002	35050.04
649.355	35206.19
649.707	35064.05
650.059	35343.59
650.411	35628.55
650.763	35775.22
651.115	36138.15
651.467	35969.34
651.819	35998.71
652.171	36001.43
652.523	35849.57
652.875	35846.4
653.227	35714.88
653.578	36076.68
653.93	35993.52
654.282	35785.39
654.633	35648.67
654.985	35782
655.337	35842.56
655.688	35766.4
656.039	35883.24
656.391	35633.3
656.742	35674.66
657.094	35666.29
657.445	35861.54
657.796	35687.99
658.147	35696.12
658.498	35593.08
658.849	35683.69
659.2	35563.92
659.551	35590.36
659.902	35741.77
660.253	35611.83
660.604	35669.23
660.955	35533.19
661.306	35665.84
661.656	35646.86
662.007	35586.97
662.358	35630.36
662.708	35577.48
663.059	35483.25
663.409	35337.26
663.76	35560.76
664.11	35652.06
664.461	35697.25
664.811	35625.39
665.161	35568.44
665.511	35591.27
665.862	35506.07
666.212	35758.72
666.562	35570.03
666.912	35573.64
667.262	35526.86
667.612	35566.41
667.962	35506.98
668.312	35447.09
668.662	35636.46
669.011	35562.79
669.361	35520.76
669.711	35506.52
670.06	35283.48
670.41	35397.83
670.76	35254.1
671.109	35485.96
671.459	35353.31
671.808	35399.63
672.157	35474.21
672.507	35184.27
672.856	35182.01
673.205	35223.82
673.554	35274.21
673.904	35139.53
674.253	35432.85
674.602	35267.21
674.951	34907.67
675.3	34665.42
675.649	35150.6
675.998	35110.38
676.346	35220.88
676.695	35366.19
677.044	35032.86
677.393	35154.67
677.741	35208.68
678.09	35095.24
678.438	35064.73
678.787	35244.38
679.135	35197.15
679.484	34798.75
679.832	34999.42
680.181	34722.36
680.529	34888.91
680.877	34834.45
681.225	34758.97
681.573	34990.38
681.922	34807.56
682.27	34644.85
682.618	34618.86
682.966	34625.19
683.314	34641.91
683.661	34427
684.009	34262.71
684.357	34236.95
684.705	34309.04
685.053	34345.65
685.4	34108.37
685.748	34048.48
686.095	34085.09
686.443	33909.28
686.79	33903.63
687.138	34055.04
687.485	34082.83
687.832	33832.67
688.18	33875.61
688.527	33738.89
688.874	33735.27
689.221	33600.36
689.568	33617.53
689.915	33527.14
690.262	33397.2
690.609	33335.06
690.956	33294.38
691.303	33276.75
691.65	32965.12
691.997	33129.19
692.344	33045.12
692.69	32833.83
693.037	32807.61
693.383	32724
693.73	32860.49
694.077	32509.31
694.423	32606.94
694.769	32479.94
695.116	32439.94
695.462	32430.9
695.808	32305.25
696.155	32322.43
696.501	32051.02
696.847	32128.08
697.193	31900.52
697.539	32000.85
697.885	31766.28
698.231	31688.77
698.577	31734.87
698.923	31643.35
699.269	31453.52
699.614	31275.9
699.96	31284.49
700.306	31185.06
700.651	31241.1
700.997	31111.84
701.342	31014.44
701.688	30990.48
702.033	30883.37
702.379	30896.93
702.724	30714.11
703.069	30762.02
703.415	30402.25
703.76	30528.58
704.105	30463.72
704.45	30455.36
704.795	30155.48
705.14	30132.65
705.485	30098.53
705.83	29981.02
706.175	30086.78
706.52	30024.18
706.865	29929.95
707.209	29844.98
707.554	29700.57
707.899	29748.03
708.243	29626.9
708.588	29595.27
708.932	29416.51
709.277	29353.24
709.621	29327.48
709.966	29167.26
710.31	29229.85
710.654	29025.56
710.998	29196.86
711.342	29070.76
711.687	29063.3
712.031	28899.01
712.375	28834.84
712.719	28855.63
713.063	28862.86
713.407	28764.55
713.75	28668.96
714.094	28600.26
714.438	28589.64
714.782	28572.92
715.125	28383.55
715.469	28377.9
715.812	28407.73
716.156	28336.54
716.499	28208.86
716.843	28269.88
717.186	28077.34
717.53	28204.8
717.873	28227.17
718.216	28129.09
718.559	27875.31
718.902	27765.71
719.246	27950.34
719.589	27855.65
719.932	27705.6
720.275	27762.32
720.617	27562.78
720.96	27530.91
721.303	27600.74
721.646	27563.68
721.989	27459.28
722.331	27499.28
722.674	27481.65
723.016	27459.96
723.359	27391.26
723.701	27272.62
724.044	27189.45
724.386	26998.27
724.729	27252.96
725.071	27151.94
725.413	26981.32
725.755	26968.22
726.097	26906.98
726.439	26759.18
726.782	26810.48
727.124	26844.83
727.465	26712.63
727.807	26713.08
728.149	26651.16
728.491	26633.76
728.833	26665.85
729.175	26508.34
729.516	26517.16
729.858	26420.44
730.199	26457.95
730.541	26417.27
730.882	26402.58
731.224	26433.54
731.565	26274.9
731.906	26161.91
732.248	26307.44
732.589	26077.62
732.93	26059.77
733.271	26043.72
733.612	26107.9
733.953	26137.96
734.294	26012.08
734.635	25871.3
734.976	25997.62
735.317	25858.19
735.658	25781.36
735.999	25781.36
736.339	25723.96
736.68	25845.76
737.021	25694.8
737.361	25634.69
737.702	25783.62
738.042	25600.8
738.383	25629.95
738.723	25620.23
739.063	25349.05
739.404	25627.24
739.744	25510.85
740.084	25337.53
740.424	25428.14
740.764	25355.6
741.104	25368.49
741.444	25203.07
741.784	25214.37
742.124	25245.32
742.464	25214.59
742.804	25091.66
743.143	24992
743.483	25088.49
743.823	24883.53
744.162	25029.74
744.502	24962.85
744.841	24890.53
745.181	25022.51
745.52	24740.71
745.86	24786.13
746.199	24842.17
746.538	24769.63
746.877	24766.02
747.216	24684.66
747.556	24656.41
747.895	24560.15
748.234	24538
748.573	24602.18
748.911	24397.66
749.25	24360.83
749.589	24365.35
749.928	24275.86
750.267	24261.85
750.605	24303.88
750.944	24238.12
751.283	24101.85
751.621	24158.8
751.96	24022.08
752.298	24042.64
752.636	24157.22
752.975	23868.64
753.313	23863.44
753.651	23936.21
753.989	23821.41
754.327	23783.67
754.666	23603.79
755.004	23646.72
755.342	23661.19
755.679	23538.25
756.017	23379.39
756.355	23516.1
756.693	23375.77
757.031	23378.03
757.368	23205.6
757.706	23175.55
758.044	23242.89
758.381	23211.93
758.719	23075.21
759.056	23114.99
759.394	22926.97
759.731	22847.87
760.068	22826.86
760.405	22763.13
760.743	22691.27
761.08	22707.76
761.417	22506.41
761.754	22531.72
762.091	22536.24
762.428	22350.94
762.765	22280.66
763.102	22282.46
763.438	22199.98
763.775	22042.47
764.112	22111.4
764.449	22138.74
764.785	22046.54
765.122	21850.84
765.458	21832.31
765.795	21762.25
766.131	21724.29
766.467	21662.37
766.804	21587.12
767.14	21437.29
767.476	21395.03
767.812	21370.62
768.148	21371.08
768.485	21191.19
768.821	21118.65
769.157	21071.2
769.492	21113.46
769.828	21053.12
770.164	20821.03
770.5	20777.65
770.836	20776.97
771.171	20579.46
771.507	20639.8
771.842	20552.11
772.178	20480.03
772.513	20365
772.849	20307.83
773.184	20295.62
773.519	20214.27
773.855	20234.16
774.19	20095.63
774.525	20033.48
774.86	19996.65
775.195	19854.96
775.53	19877.78
775.865	19581.97
776.2	19580.39
776.535	19431.69
776.87	19466.72
777.205	19426.04
777.539	19366.61
777.874	19302.66
778.209	19168.42
778.543	19183.11
778.878	19020.18
779.212	18941.76
779.547	18929.78
779.881	18933.85
780.215	18885.72
780.55	18927.98
780.884	18634.88
781.218	18630.13
781.552	18608.66
781.886	18496.35
782.22	18466.29
782.554	18385.39
782.888	18190.6
783.222	18201.44
783.556	18070.37
783.889	18115.34
784.223	17881.22
784.557	17876.93
784.89	17907.89
785.224	17853.2
785.557	17728.91
785.891	17674.68
786.224	17673.32
786.558	17656.37
786.891	17437.62
787.224	17401.24
787.557	17284.18
787.891	17300.45
788.224	17292.54
788.557	17215.71
788.89	17266.78
789.223	17156.5
789.556	17036.73
789.888	16934.36
790.221	16848.71
790.554	16738.66
790.887	16744.98
791.219	16749.28
791.552	16633.57
791.884	16603.07
792.217	16483.3
792.549	16465.22
792.882	16316.75
793.214	16258.22
793.546	16341.38
793.879	16156.3
794.211	16137.77
794.543	16127.6
794.875	16121.05
795.207	16178.44
795.539	16003.99
795.871	16009.41
796.203	15842.18
796.535	15785.01
796.867	15708.17
797.198	15648.29
797.53	15706.82
797.862	15549.31
798.193	15577.1
798.525	15482.64
798.856	15541.17
799.188	15382.31
799.519	15317.45
799.85	15269.09
800.182	15348.18
800.513	15248.53
800.844	15079.04
801.175	15155.87
801.506	15048.08
801.837	14994.52
802.168	14996.78
802.499	14919.49
802.83	14940.51
803.161	14844.92
803.491	14871.13
803.822	14808.54
804.153	14749.78
804.483	14676.79
804.814	14542.1
805.145	14622.78
805.475	14554.98
805.805	14583.68
806.136	14457.13
806.466	14439.96
806.796	14396.34
807.126	14329.23
807.457	14160.87
807.787	14274.77
808.117	14140.08
808.447	14173.98
808.777	14138.27
809.107	14172.4
809.436	14017.37
809.766	14067.31
810.096	14000.87
810.426	13951.38
810.755	14022.8
811.085	13941.89
811.414	13858.96
811.744	13787.77
812.073	13752.29
812.403	13843.82
812.732	13661
813.061	13717.72
813.39	13572.86
813.719	13537.61
814.049	13618.06
814.378	13594.78
814.707	13406.54
815.036	13418.97
815.365	13423.26
815.693	13293.32
816.022	13310.95
816.351	13314.34
816.68	13149.37
817.008	13261.23
817.337	13078.87
817.665	13136.04
817.994	13116.38
818.322	13134.91
818.651	13082.93
818.979	13010.39
819.307	13093.33
819.636	12954.57
819.964	12906.21
820.292	12947.34
820.62	12884.97
820.948	12813.34
821.276	12918.42
821.604	12935.59
821.932	12880.23
822.259	12854.69
822.587	12844.75
822.915	12777.4
823.243	12803.39
823.57	12872.54
823.898	12790.96
824.225	12781.7
824.553	12783.51
824.88	12798.65
825.207	12839.32
825.535	12768.14
825.862	12835.71
826.189	12725.88
826.516	12801.58
826.843	12839.1
827.17	12810.4
827.497	12754.58
827.824	12839.55
828.151	12770.62
828.478	12745.99
828.805	12841.81
829.131	12747.35
829.458	12703.51
829.785	12644.75
830.111	12698.31
830.438	12810.4
830.764	12701.93
831.09	12748.25
831.417	12700.34
831.743	12737.86
832.069	12714.35
832.395	12736.73
832.722	12787.57
833.048	12667.35
833.374	12665.09
833.7	12640.68
834.026	12665.32
834.351	12685.43
834.677	12643.85
835.003	12689.95
835.329	12682.27
835.654	12606.34
835.98	12626.67
836.306	12605.66
836.631	12535.83
836.956	12553
837.282	12494.93
837.607	12485.89
837.932	12409.96
838.258	12381.93
838.583	12370.18
838.908	12355.72
839.233	12375.38
839.558	12441.59
839.883	12307.13
840.208	12329.73
840.533	12331.31
840.858	12321.14
841.182	12346.23
841.507	12291.77
841.832	12102.85
842.156	12177.65
842.481	12135.84
842.805	12150.75
843.13	12106.01
843.454	12012.23
843.778	12096.52
844.103	11996.18
844.427	11950.99
844.751	11997.31
845.075	11929.06
845.399	11911.21
845.723	11792.8
846.047	11833.02
846.371	11737.43
846.695	11703.76
847.019	11642.97
847.343	11580.37
847.666	11532.01
847.99	11541.5
848.313	11520.49
848.637	11371.34
848.96	11386.93
849.284	11318.69
849.607	11220.61
849.931	11235.07
850.254	11123.21
850.577	11182.42
850.9	11034.85
851.223	11036.21
851.546	11016.55
851.869	10830.79
852.192	10928.41
852.515	10859.94
852.838	10868.3
853.161	10794.18
853.483	10705.59
853.806	10607.29
854.129	10692.04
854.451	10531.14
854.774	10579.27
855.096	10556.45
855.419	10537.01
855.741	10477.35
856.063	10457.24
856.385	10420.4
856.708	10330.91
857.03	10344.7
857.352	10413.17
857.674	10381.08
857.996	10309.45
858.318	10217.47
858.64	10224.48
858.961	10211.6
859.283	10195.33
859.605	10121.65
859.926	10154.42
860.248	10048.21
860.57	10048.44
860.891	10050.7
861.212	10056.35
861.534	9989.45
861.855	9998.95
862.176	9946.97
862.498	9985.39
862.819	9979.29
863.14	9907.88
863.461	9837.59
863.782	9752.62
864.103	9877.37
864.424	9779.29
864.745	9852.06
865.065	9785.17
865.386	9714.21
865.707	9751.5
866.027	9775
866.348	9700.2
866.668	9662.46
866.989	9627.66
867.309	9627.66
867.63	9609.35
867.95	9591.5
868.27	9608.45
868.59	9535
868.91	9550.82
869.23	9570.48
869.55	9481.45
869.87	9541.78
870.19	9518.73
870.51	9528
870.83	9472.18
871.15	9428.34
871.469	9475.12
871.789	9507.21
872.109	9374.33
872.428	9391.5
872.748	9413.88
873.067	9397.61
873.386	9402.8
873.706	9368
874.025	9332.75
874.344	9314.9
874.663	9254.33
874.982	9298.4
875.301	9287.33
875.62	9238.06
875.939	9255.01
876.258	9172.75
876.577	9205.97
876.896	9197.16
877.214	9112.87
877.533	9188.57
877.852	9110.38
878.17	9177.27
878.489	9108.12
878.807	9116.94
879.125	9109.7
879.444	9062.47
879.762	9008.46
880.08	9053.66
880.398	9000.1
880.716	8975.92
881.034	8969.59
881.352	8935.25
881.67	8903.61
881.988	8959.43
882.306	8916.94
882.624	8897.96
882.941	8915.13
883.259	8836.72
883.577	8826.55
883.894	8798.53
884.212	8760.79
884.529	8702.48
884.846	8756.94
885.164	8724.63
885.481	8685.08
885.798	8711.52
886.115	8657.29
886.432	8649.83
886.75	8614.12
887.067	8629.94
887.383	8523.73
887.7	8591.07
888.017	8577.06
888.334	8608.02
888.651	8583.39
888.967	8472.88
889.284	8396.5
889.6	8424.07
889.917	8330.74
890.233	8377.52
890.55	8316.28
890.866	8334.36
891.182	8231.31
891.498	8328.71
891.815	8281.03
892.131	8204.19
892.447	8182.72
892.763	8156.96
893.079	8197.86
893.395	8158.99
893.71	8128.03
894.026	8072.9
894.342	8104.76
894.657	8073.12
894.973	7982.28
895.289	8046.23
895.604	8016.17
895.92	7923.75
896.235	7942.05
896.55	7897.98
896.865	7902.05
897.181	7847.14
897.496	7850.08
897.811	7795.16
898.126	7749.74
898.441	7709.51
898.756	7725.56
899.071	7707.93
899.386	7700.25
899.7	7653.02
900.015	7612.12
900.33	7544.1
900.644	7563.3
900.959	7515.17
901.273	7494.15
901.588	7509.75
901.902	7439.69
902.216	7407.6
902.531	7353.59
902.845	7353.82
903.159	7367.38
903.473	7278.79
903.787	7277.66
904.101	7255.97
904.415	7279.02
904.729	7210.09
905.042	7120.6
905.356	7142.52
905.67	7081.96
905.984	7079.02
906.297	7067.27
906.611	6989.53
906.924	7006.48
907.237	6966.94
907.551	6986.37
907.864	6919.03
908.177	6884.68
908.491	6901.85
908.804	6869.99
909.117	6829.99
909.43	6764
909.743	6780.05
910.056	6693.72
910.368	6697.56
910.681	6641.97
910.994	6633.84
911.307	6637.9
911.619	6608.53
911.932	6587.74
912.244	6543.67
912.557	6528.08
912.869	6494.41
913.181	6429.1
913.494	6459.83
913.806	6408.76
914.118	6399.94
914.43	6360.17
914.742	6341.42
915.054	6323.11
915.366	6326.73
915.678	6239.72
915.99	6291.92
916.302	6233.62
916.613	6197.92
916.925	6156.56
917.236	6191.14
917.548	6064.36
917.859	6038.15
918.171	6023.91
918.482	6034.76
918.794	5985.49
919.105	6015.55
919.416	5966.51
919.727	5887.64
920.038	5966.28
920.349	5843.58
920.66	5860.98
920.971	5855.55
921.282	5844.71
921.593	5810.58
921.903	5820.98
922.214	5754.99
922.525	5736.01
922.835	5697.59
923.146	5730.13
923.456	5690.13
923.767	5606.07
924.077	5644.26
924.387	5640.42
924.697	5604.49
925.008	5556.58
925.318	5521.1
925.628	5502.57
925.938	5470.93
926.248	5472.96
926.558	5414.43
926.867	5441.78
927.177	5380.76
927.487	5340.09
927.796	5303.02
928.106	5324.94
928.416	5297.83
928.725	5288.79
929.034	5225.06
929.344	5201.78
929.653	5209.92
929.962	5178.28
930.271	5171.73
930.581	5081.79
930.89	5092.86
931.199	5094.22
931.508	5035.23
931.817	5089.24
932.125	5038.62
932.434	5038.4
932.743	4963.37
933.051	4973.32
933.36	4909.81
933.669	4889.25
933.977	4903.49
934.286	4913.66
934.594	4854.22
934.902	4816.94
935.21	4823.26
935.519	4780.33
935.827	4779.2
936.135	4788.46
936.443	4727.9
936.751	4733.77
937.059	4685.87
937.367	4612.2
937.674	4636.83
937.982	4628.47
938.29	4629.6
938.597	4592.99
938.905	4586.66
939.213	4521.58
939.52	4508.7
939.827	4507.79
940.135	4529.49
940.442	4492.2
940.749	4481.13
941.056	4509.15
941.363	4447.23
941.67	4382.14
941.977	4417.62
942.284	4377.63
942.591	4355.03
942.898	4357.96
943.205	4300.56
943.511	4305.76
943.818	4282.49
944.125	4240
944.431	4232.09
944.738	4188.48
945.044	4187.35
945.35	4209.72
945.657	4142.6
945.963	4166.78
946.269	4054.92
946.575	4108.71
946.881	4071.64
947.187	4056.28
947.493	4076.39
947.799	4028.93
948.105	4029.61
948.41	4015.83
948.716	4018.76
949.022	3981.03
949.327	3957.07
949.633	3952.1
949.938	3944.64
950.244	3921.82
950.549	3881.14
950.854	3873.46
951.16	3879.33
951.465	3838.66
951.77	3818.09
952.075	3786.91
952.38	3804.98
952.685	3786.45
952.99	3771.99
953.294	3751.43
953.599	3710.07
953.904	3711.2
954.209	3711.43
954.513	3682.5
954.818	3648.83
955.122	3628.04
955.426	3639.57
955.731	3650.86
956.035	3569.28
956.339	3623.75
956.643	3612
956.948	3547.14
957.252	3545.78
957.556	3550.08
957.86	3495.61
958.163	3467.14
958.467	3497.65
958.771	3474.6
959.075	3473.24
959.378	3476.18
959.682	3441.38
959.985	3417.2
960.289	3420.14
960.592	3403.19
960.896	3359.35
961.199	3367.71
961.502	3338.33
961.805	3332.68
962.108	3308.95
962.411	3307.82
962.714	3256.98
963.017	3256.52
963.32	3294.49
963.623	3259.69
963.926	3237.77
964.228	3239.8
964.531	3205.45
964.833	3163.42
965.136	3148.05
965.438	3164.1
965.741	3141.95
966.043	3176.75
966.345	3119.8
966.648	3076.64
966.95	3087.04
967.252	3062.41
967.554	3097.88
967.856	3058.56
968.158	3022.63
968.46	2994.84
968.761	3055.4
969.063	3028.06
969.365	2998.68
969.666	2983.99
969.968	2939.02
970.269	2917.1
970.571	2900.15
970.872	2919.36
971.174	2883.65
971.475	2902.86
971.776	2885.91
972.077	2859.47
972.378	2860.83
972.679	2875.74
972.98	2850.21
973.281	2832.35
973.582	2788.51
973.883	2810.43
974.183	2787.38
974.484	2790.55
974.785	2745.8
975.085	2728.18
975.386	2757.55
975.686	2700.15
975.986	2752.81
976.287	2665.35
976.587	2660.38
976.887	2660.16
977.187	2667.39
977.487	2663.77
977.787	2624.68
978.087	2629.65
978.387	2599.82
978.687	2624.45
978.987	2580.38
979.286	2582.42
979.586	2590.1
979.885	2553.72
980.185	2545.58
980.484	2521.63
980.784	2520.05
981.083	2482.08
981.382	2537.45
981.682	2516.21
981.981	2505.81
982.28	2526.15
982.579	2450.44
982.878	2439.82
983.177	2435.76
983.475	2469.2
983.774	2413.83
984.073	2426.94
984.372	2412.03
984.67	2370.9
984.969	2386.72
985.267	2376.32
985.566	2368.41
985.864	2332.03
986.162	2351.69
986.461	2331.8
986.759	2331.13
987.057	2275.53
987.355	2311.24
987.653	2271.92
987.951	2289.32
988.249	2265.14
988.547	2260.17
988.844	2302.43
989.142	2247.06
989.44	2220.17
989.737	2240.51
990.035	2238.02
990.332	2200.96
990.63	2196.89
990.927	2166.61
991.224	2181.75
991.521	2108.08
991.819	2174.97
992.116	2124.58
992.413	2140.62
992.71	2107.85
993.006	2121.64
993.303	2118.02
993.6	2100.62
993.897	2090.68
994.193	2069.66
994.49	2055.88
994.787	2059.72
995.083	2028.53
995.379	2061.08
995.676	2008.2
995.972	2010.68
996.268	1993.73
996.565	1979.72
996.861	1975.88
997.157	1999.83
997.453	1950.8
997.749	1965.03
998.044	1963.23
998.34	1965.03
998.636	1933.4
998.932	1913.28
999.227	1941.53
999.523	1901.31
999.818	1901.08
1000.114	1882.1
1000.409	1866.5
1000.704	1838.71
1001	1877.13
1001.295	1861.08
1001.59	1815.66
1001.885	1844.81
1002.18	1817.01
1002.475	1786.51
1002.77	1812.95
1003.065	1785.38
1003.359	1781.31
1003.654	1779.73
1003.949	1720.75
1004.243	1751.93
1004.538	1760.07
1004.832	1754.42
1005.127	1705.38
1005.421	1678.49
1005.715	1692.27
1006.009	1687.75
1006.304	1680.52
1006.598	1648.21
1006.892	1671.48
1007.186	1673.74
1007.48	1656.57
1007.773	1658.83
1008.067	1648.88
1008.361	1615.66
1008.655	1636.45
1008.948	1624.25
1009.242	1574.08
1009.535	1571.15
1009.829	1562.78
1010.122	1547.42
1010.415	1546.74
1010.708	1549.9
1011.001	1558.26
1011.295	1560.52
1011.588	1508.32
1011.881	1525.27
1012.173	1508.1
1012.466	1516.46
1012.759	1497.7
1013.052	1485.5
1013.344	1492.05
1013.637	1456.8
1013.93	1470.13
1014.222	1457.7
1014.514	1454.99
1014.807	1443.92
1015.099	1438.49
1015.391	1425.39
1015.683	1437.36
1015.976	1410.47
1016.268	1394.43
1016.56	1389.45
1016.851	1390.36
1017.143	1353.98
1017.435	1377.7
1017.727	1372.96
1018.018	1323.02
1018.31	1331.6
1018.602	1343.35
1018.893	1326.18
1019.185	1338.83
1019.476	1297.71
1019.767	1292.73
1020.058	1284.37
1020.35	1285.5
1020.641	1257.48
1020.932	1277.37
1021.223	1271.04
1021.514	1255.45
1021.804	1216.13
1022.095	1236.01
1022.386	1237.59
1022.677	1228.78
1022.967	1218.61
1023.258	1209.8
1023.548	1207.54
1023.839	1212.74
1024.129	1183.58
1024.419	1171.38
1024.709	1164.83
1025	1156.92
1025.29	1142.68
1025.58	1155.79
1025.87	1108.33
1026.16	1133.64
1026.449	1120.31
1026.739	1120.54
1027.029	1105.62
1027.319	1098.16
1027.608	1111.95
1027.898	1079.18
1028.187	1073.31
1028.477	1066.53
1028.766	1068.33
1029.055	1059.07
1029.344	1069.24
1029.634	1052.51
1029.923	1047.32
1030.212	1045.51
1030.501	1041.89
1030.79	1044.15
1031.078	1016.13
1031.367	1001.22
1031.656	1004.15
1031.945	1008
1032.233	998.73
1032.522	962.8
1032.81	1001.89
1033.099	985.85
1033.387	964.16
1033.675	954.66
1033.963	947.88
1034.251	950.82
1034.54	951.95
1034.828	947.21
1035.116	943.37
1035.403	942.24
1035.691	932.07
1035.979	930.26
1036.267	907.21
1036.554	918.28
1036.842	900.65
1037.129	894.1
1037.417	895.91
1037.704	885.51
1037.992	869.92
1038.279	860.2
1038.566	853.65
1038.853	853.65
1039.14	853.65
