Data from hue_160_FLMS001491_00014.txt Node
Date: Tue Feb 07 16:50:49 GMT 2017
User: dcchb
Spectrometer: FLMS00149
Trigger mode: 0
Integration Time (sec): 2.000000E-2
Scans to average: 10
Electric dark correction enabled: true
Nonlinearity correction enabled: false
Boxcar width: 0
XAxis mode: Wavelengths
Number of Pixels in Spectrum: 2048
>>>>>Begin Spectral Data<<<<<
341.393	-16.45
341.776	-16.45
342.16	-16.45
342.543	-66.62
342.927	-103.01
343.31	-74.53
343.693	-57.58
344.077	-60.75
344.46	-59.84
344.843	-61.2
345.226	-28.66
345.61	-39.28
345.993	-25.72
346.376	-17.81
346.759	6.14
347.142	33.49
347.525	43.21
347.908	66.03
348.291	77.55
348.674	64.9
349.057	134.05
349.44	122.98
349.823	149.42
350.206	145.12
350.588	181.51
350.971	216.99
351.354	208.4
351.737	241.62
352.119	245.91
352.502	253.37
352.884	281.39
353.267	268.96
353.65	299.24
354.032	285.91
354.414	283.65
354.797	290.66
355.179	309.86
355.562	321.39
355.944	335.4
356.326	328.4
356.709	321.62
357.091	309.64
357.473	345.12
357.855	346.47
358.238	330.43
358.62	331.11
359.002	323.88
359.384	338.79
359.766	315.06
360.148	320.03
360.53	342.18
360.912	332.01
361.294	337.21
361.676	345.8
362.057	318
362.439	335.85
362.821	352.8
363.203	314.61
363.584	315.51
363.966	330.2
364.348	328.62
364.729	320.03
365.111	305.8
365.493	305.12
365.874	332.24
366.256	301.05
366.637	308.73
367.019	320.94
367.4	316.42
367.781	318.9
368.163	308.96
368.544	289.53
368.925	287.27
369.306	313.48
369.688	314.61
370.069	342.18
370.45	310.99
370.831	317.77
371.212	300.83
371.593	300.37
371.974	285.68
372.355	308.73
372.736	308.73
373.117	291.11
373.498	317.32
373.879	312.8
374.26	325.01
374.641	313.93
375.021	325.91
375.402	321.84
375.783	293.82
376.163	312.12
376.544	311.22
376.925	305.35
377.305	348.06
377.686	324.55
378.066	324.78
378.447	314.38
378.827	332.01
379.208	320.94
379.588	334.72
379.968	325.68
380.349	329.07
380.729	347.38
381.109	341.05
381.489	319.13
381.87	331.33
382.25	331.79
382.63	334.95
383.01	331.11
383.39	332.24
383.77	336.76
384.15	350.99
384.53	343.31
384.91	333.37
385.29	335.63
385.67	349.64
386.049	336.98
386.429	329.98
386.809	336.08
387.189	350.99
387.568	336.53
387.948	353.48
388.328	351.22
388.707	353.03
389.087	358.9
389.466	333.59
389.846	358
390.225	363.2
390.605	350.99
390.984	356.19
391.363	355.51
391.743	358
392.122	388.28
392.501	358.9
392.881	370.88
393.26	369.52
393.639	376.53
394.018	358.9
394.397	369.3
394.776	381.28
395.155	385.12
395.534	370.2
395.913	361.39
396.292	392.57
396.671	379.92
397.05	359.58
397.429	380.15
397.808	385.12
398.186	378.79
398.565	381.28
398.944	368.62
399.323	391.9
399.701	376.53
400.08	396.19
400.458	389.18
400.837	390.77
401.215	399.81
401.594	398
401.972	390.99
402.351	408.39
402.729	409.3
403.107	408.39
403.486	407.72
403.864	385.57
404.242	416.3
404.62	426.47
404.999	412.91
405.377	389.64
405.755	411.56
406.133	405.23
406.511	420.6
406.889	409.3
407.267	434.61
407.645	424.44
408.023	418.34
408.401	432.57
408.779	425.34
409.156	444.1
409.534	432.12
409.912	435.51
410.29	452.69
410.667	450.2
411.045	442.52
411.422	439.13
411.8	459.47
412.178	472.12
412.555	474.83
412.933	471.67
413.31	464.44
413.687	456.98
414.065	489.07
414.442	477.77
414.819	492.91
415.197	492.23
415.574	496.3
415.951	484.78
416.328	492.68
416.705	491.1
417.082	497.2
417.46	510.31
417.837	505.34
418.214	492.01
418.591	517.09
418.967	517.09
419.344	501.95
419.721	516.64
420.098	489.75
420.475	530.42
420.852	514.83
421.228	524.32
421.605	534.27
421.982	530.42
422.358	556.64
422.735	561.16
423.111	542.18
423.488	557.77
423.864	567.71
424.241	577.65
424.617	590.31
424.994	567.03
425.37	566.13
425.746	576.3
426.123	567.94
426.499	571.1
426.875	589.41
427.251	585.79
427.627	602.06
428.003	629.18
428.379	604.55
428.756	625.11
429.132	627.37
429.507	627.14
429.883	619.91
430.259	622.62
430.635	642.51
431.011	630.76
431.387	628.27
431.763	656.52
432.138	672.34
432.514	671.89
432.89	676.63
433.265	673.7
433.641	675.96
434.016	677.54
434.392	664.43
434.767	709.63
435.143	697.43
435.518	689.97
435.894	737.88
436.269	731.77
436.644	741.49
437.02	734.03
437.395	776.07
437.77	770.19
438.145	754.6
438.52	784.43
438.895	776.52
439.271	785.56
439.646	789.4
440.021	814.03
440.395	786.01
440.77	791.66
441.145	791.21
441.52	807.7
441.895	824.88
442.27	828.04
442.645	811.55
443.019	849.06
443.394	807.7
443.769	861.71
444.143	832.79
444.518	862.39
444.892	846.12
445.267	864.43
445.641	857.87
446.016	895.16
446.39	884.31
446.764	885.67
447.139	900.81
447.513	910.98
447.887	899.91
448.262	895.39
448.636	915.72
449.01	918.44
449.384	917.31
449.758	917.53
450.132	945.33
450.506	929.96
450.88	965.21
451.254	941.26
451.628	980.36
452.002	989.85
452.376	983.97
452.75	989.85
453.123	1011.32
453.497	1017.87
453.871	1026.46
454.244	1027.59
454.618	1024.2
454.992	1078.66
455.365	1061.03
455.739	1074.36
456.112	1094.48
456.486	1097.87
456.859	1111.65
457.232	1116.85
457.606	1127.02
457.979	1117.3
458.352	1164.08
458.725	1173.34
459.099	1158.2
459.472	1191.88
459.845	1197.53
460.218	1238.65
460.591	1263.96
460.964	1243.4
461.337	1298.77
461.71	1297.18
462.083	1352.32
462.456	1350.06
462.829	1332.44
463.201	1363.85
463.574	1377.18
463.947	1386.67
464.32	1421.47
464.692	1428.93
465.065	1432.1
465.438	1455.6
465.81	1472.32
466.183	1502.6
466.555	1503.96
466.928	1565.42
467.3	1548.7
467.672	1585.31
468.045	1644.07
468.417	1665.54
468.789	1648.59
469.161	1654.01
469.534	1729.26
469.906	1756.61
470.278	1781.69
470.65	1820.79
471.022	1862.59
471.394	1875.93
471.766	1899.65
472.138	1930.39
472.51	1970.84
472.882	2032.31
473.253	2074.34
473.625	2068.01
473.997	2190.27
474.369	2173.09
474.74	2258.06
475.112	2309.59
475.484	2348.46
475.855	2411.28
476.227	2415.8
476.598	2525.4
476.97	2596.58
477.341	2646.3
477.713	2680.65
478.084	2752.96
478.455	2820.08
478.827	2867.09
479.198	2980.08
479.569	3040.64
479.94	3152.73
480.311	3161.54
480.682	3255.55
481.053	3360.18
481.424	3465.49
481.795	3521.31
482.166	3622.32
482.537	3753.39
482.908	3832.48
483.279	3896.89
483.65	4019.82
484.021	4115.19
484.391	4218.69
484.762	4315.64
485.133	4399.93
485.503	4495.29
485.874	4613.03
486.244	4738.9
486.615	4869.74
486.985	4972.34
487.356	5144.54
487.726	5263.18
488.097	5360.35
488.467	5439.22
488.837	5614.58
489.207	5725.99
489.578	5841.92
489.948	5966.44
490.318	6106.55
490.688	6140.45
491.058	6304.28
491.428	6433.09
491.798	6581.79
492.168	6770.71
492.538	6850.94
492.908	6946.53
493.278	7127.99
493.648	7210.25
494.017	7363.46
494.387	7485.04
494.757	7548.54
495.126	7679.39
495.496	7734.75
495.866	7914.64
496.235	8035.76
496.605	8130.45
496.974	8238.7
497.344	8314.85
497.713	8424.68
498.082	8517.56
498.452	8653.37
498.821	8758.91
499.19	8830.32
499.559	8974.95
499.928	9095.17
500.298	9086.81
500.667	9196.86
501.036	9183.53
501.405	9387.59
501.774	9407.7
502.143	9479.34
502.512	9584.88
502.88	9681.37
503.249	9720.92
503.618	9849.95
503.987	9930.63
504.356	10056.95
504.724	10027.12
505.093	10049.5
505.462	10081.81
505.83	10209.49
506.199	10298.53
506.567	10350.5
506.936	10442.48
507.304	10549.37
507.672	10552.31
508.041	10567.45
508.409	10659.42
508.777	10779.42
509.145	10869.59
509.514	10819.42
509.882	10920.66
510.25	10928.34
510.618	11058.96
510.986	11036.81
511.354	11077.49
511.722	11180.09
512.09	11255.57
512.458	11242.91
512.826	11307.77
513.193	11367.43
513.561	11455.11
513.929	11450.81
514.297	11503.92
514.664	11552.96
515.032	11588.21
515.4	11625.5
515.767	11625.73
516.135	11726.97
516.502	11589.57
516.869	11778.04
517.237	11766.29
517.604	11759.73
517.972	11811.48
518.339	11838.83
518.706	11870.92
519.073	11970.35
519.44	11947.3
519.808	12038.6
520.175	11989.33
520.542	12067.07
520.909	12102.1
521.276	12005.38
521.643	12162.21
522.009	12199.27
522.376	12218.93
522.743	12211.47
523.11	12267.74
523.477	12305.71
523.843	12361.3
524.21	12444.46
524.577	12441.52
524.943	12439.49
525.31	12492.82
525.676	12540.05
526.043	12514.06
526.409	12598.81
526.776	12634.29
527.142	12585.7
527.508	12593.61
527.874	12613.95
528.241	12726.94
528.607	12674.51
528.973	12691.91
529.339	12666.15
529.705	12691.01
530.071	12744.57
530.437	12697.34
530.803	12754.51
531.169	12715.87
531.535	12637.45
531.901	12686.94
532.267	12524.46
532.632	12654.85
532.998	12530.33
533.364	12806.94
533.73	12575.53
534.095	12699.37
534.461	12645.81
534.826	12616.43
535.192	12673.38
535.557	12667.96
535.923	12591.35
536.288	12565.36
536.653	12577.79
537.019	12510.22
537.384	12494.86
537.749	12431.13
538.114	12456.89
538.479	12345.93
538.845	12342.54
539.21	12340.73
539.575	12296.89
539.94	12276.56
540.305	12276.56
540.67	12185.71
541.034	12265.71
541.399	12152.94
541.764	12123.79
542.129	12146.16
542.494	12121.98
542.858	12105.71
543.223	12056.9
543.587	12060.74
543.952	12029.78
544.316	11987.07
544.681	11909.11
545.045	11980.07
545.41	11900.75
545.774	11905.94
546.138	11849.22
546.503	11844.48
546.867	11773.74
547.231	11814.87
547.595	11650.13
547.959	11755.67
548.324	11671.15
548.688	11614.2
549.052	11613.75
549.416	11570.13
549.779	11538.27
550.143	11472.51
550.507	11553.86
550.871	11489.46
551.235	11437.26
551.599	11421.89
551.962	11448.78
552.326	11417.82
552.689	11427.31
553.053	11291.04
553.417	11340.76
553.78	11425.28
554.143	11298.95
554.507	11228.45
554.87	11275.9
555.234	11257.6
555.597	11244.04
555.96	11148.22
556.323	11201.56
556.686	11177.83
557.05	11189.8
557.413	11143.03
557.776	11113.87
558.139	11182.35
558.502	11158.62
558.865	11043.37
559.228	11156.81
559.59	11190.71
559.953	11114.78
560.316	11164.49
560.679	11128.79
561.041	11126.08
561.404	11149.81
561.767	11209.01
562.129	11147.55
562.492	11151.16
562.854	11189.58
563.217	11100.54
563.579	11147.09
563.941	11186.87
564.304	11177.15
564.666	11283.14
565.028	11261.22
565.39	11186.41
565.753	11327.43
566.115	11199.07
566.477	11277.71
566.839	11350.7
567.201	11267.77
567.563	11255.34
567.925	11343.92
568.287	11316.35
568.648	11354.77
569.01	11333.98
569.372	11392.96
569.734	11267.77
570.095	11385.28
570.457	11454.66
570.819	11395.9
571.18	11399.06
571.542	11429.8
571.903	11388.22
572.265	11421.89
572.626	11438.84
572.987	11448.55
573.349	11468.44
573.71	11478.61
574.071	11485.16
574.432	11493.98
574.794	11548.44
575.155	11447.88
575.516	11414.21
575.877	11490.81
576.238	11491.04
576.599	11494.88
576.96	11537.82
577.32	11525.84
577.681	11513.19
578.042	11544.37
578.403	11524.03
578.763	11577.37
579.124	11573.3
579.485	11568.55
579.845	11591.15
580.206	11552.51
580.566	11550.93
580.927	11570.59
581.287	11515.67
581.648	11526.07
582.008	11566.29
582.368	11517.25
582.728	11621.66
583.089	11519.51
583.449	11532.17
583.809	11588.66
584.169	11556.12
584.529	11456.24
584.889	11528.33
585.249	11484.49
585.609	11445.39
585.969	11452.62
586.329	11453.75
586.688	11477.25
587.048	11437.48
587.408	11431.38
587.768	11428.22
588.127	11415.34
588.487	11455.11
588.846	11407.88
589.206	11346.86
589.565	11396.8
589.925	11421.89
590.284	11416.92
590.643	11405.17
591.003	11395.67
591.362	11441.55
591.721	11398.61
592.08	11404.49
592.44	11435.67
592.799	11426.41
593.158	11351.83
593.517	11330.37
593.876	11346.86
594.235	11298.28
594.593	11283.14
594.952	11386.64
595.311	11220.76
595.67	11370.36
596.029	11300.08
596.387	11418.73
596.746	11332.63
597.104	11278.62
597.463	11299.18
597.822	11255.79
598.18	11266.64
598.538	11268.67
598.897	11271.16
599.255	11245.62
599.613	11395.22
599.972	11234.78
600.33	11267.99
600.688	11229.35
601.046	11303.47
601.404	11348.9
601.762	11290.14
602.12	11327.88
602.478	11356.35
602.836	11275.23
603.194	11298.5
603.552	11331.27
603.91	11319.29
604.268	11313.64
604.625	11264.6
604.983	11316.58
605.341	11240.65
605.698	11294.21
606.056	11361.33
606.413	11289.46
606.771	11326.3
607.128	11326.52
607.485	11273.42
607.843	11322
608.2	11331.95
608.557	11357.94
608.914	11395.9
609.272	11405.39
609.629	11375.34
609.986	11433.87
610.343	11416.01
610.7	11380.99
611.057	11347.99
611.414	11380.76
611.771	11421.89
612.127	11450.36
612.484	11389.8
612.841	11478.61
613.198	11417.82
613.554	11394.32
613.911	11489.91
614.267	11458.27
614.624	11447.88
614.98	11505.73
615.337	11550.7
615.693	11486.07
616.05	11503.47
616.406	11597.93
616.762	11573.3
617.118	11472.06
617.475	11528.55
617.831	11566.74
618.187	11557.48
618.543	11519.06
618.899	11670.7
619.255	11618.27
619.611	11491.04
619.967	11561.55
620.323	11712.73
620.678	11581.88
621.034	11651.71
621.39	11536.91
621.746	11538.72
622.101	11628.89
622.457	11549.8
622.812	11642.22
623.168	11639.28
623.523	11661.88
623.879	11620.98
624.234	11569.68
624.589	11614.2
624.945	11617.14
625.3	11645.16
625.655	11686.29
626.01	11638.15
626.365	11621.88
626.72	11563.13
627.075	11576.91
627.43	11560.87
627.785	11569.68
628.14	11617.36
628.495	11642.67
628.85	11590.47
629.205	11544.6
629.559	11675.89
629.914	11579.17
630.269	11600.42
630.623	11564.03
630.978	11512.51
631.332	11566.29
631.687	11634.99
632.041	11471.83
632.396	11559.29
632.75	11441.78
633.104	11522
633.459	11433.64
633.813	11435.9
634.167	11454.43
634.521	11336.92
634.875	11503.24
635.229	11358.84
635.583	11381.66
635.937	11332.4
636.291	11274.77
636.645	11380.99
636.999	11350.7
637.352	11363.59
637.706	11263.93
638.06	11309.8
638.413	11307.54
638.767	11300.31
639.121	11257.83
639.474	11232.29
639.828	11181.22
640.181	11189.58
640.534	11340.99
640.888	11233.19
641.241	11150.94
641.594	11177.15
641.947	11217.15
642.301	11179.41
642.654	11074.55
643.007	11123.59
643.36	11085.85
643.713	11093.08
644.066	11101.67
644.419	11114.1
644.771	11025.06
645.124	10916.14
645.477	10943.94
645.83	10868.68
646.182	10771.74
646.535	10727.67
646.888	10764.96
647.24	10693.32
647.593	10747.1
647.945	10788.91
648.298	10680.21
648.65	10692.19
649.002	10650.84
649.355	10663.94
649.707	10815.35
650.059	10747.78
650.411	10880.66
650.763	10894.67
651.115	11010.37
651.467	10946.2
651.819	10982.13
652.171	10973.99
652.523	10966.31
652.875	10971.28
653.227	10849.7
653.578	11024.84
653.93	10983.93
654.282	10992.07
654.633	10891.73
654.985	10956.36
655.337	10933.54
655.688	10926.76
656.039	11029.36
656.391	10979.41
656.742	10912.52
657.094	11018.51
657.445	10973.99
657.796	10922.02
658.147	10984.39
658.498	10913.43
658.849	10997.27
659.2	10936.7
659.551	10954.56
659.902	10969.92
660.253	10991.17
660.604	10998.62
660.955	10863.94
661.306	10992.07
661.656	10933.09
662.007	10938.06
662.358	10977.15
662.708	11020.77
663.059	11006.08
663.409	10967.66
663.76	10994.33
664.11	11024.61
664.461	11040.43
664.811	11071.84
665.161	11017.15
665.511	10942.13
665.862	11061.67
666.212	11032.07
666.562	11018.28
666.912	10961.34
667.262	10981.9
667.612	10999.3
667.962	10956.82
668.312	10922.02
668.662	10998.4
669.011	11052.41
669.361	11023.03
669.711	10959.75
670.06	10982.8
670.41	10948.91
670.76	10887.67
671.109	11018.06
671.459	10940.55
671.808	11013.09
672.157	10937.16
672.507	10980.77
672.856	10947.78
673.205	10888.57
673.554	10928.34
673.904	10850.38
674.253	11009.7
674.602	10923.6
674.951	10760.44
675.3	10728.8
675.649	10914.11
675.998	10849.7
676.346	10900.55
676.695	10908.91
677.044	10746.2
677.393	10841.11
677.741	10816.48
678.09	10796.59
678.438	10755.24
678.787	10803.37
679.135	10799.53
679.484	10735.81
679.832	10796.14
680.181	10711.17
680.529	10752.08
680.877	10669.37
681.225	10607.22
681.573	10702.81
681.922	10609.93
682.27	10606.09
682.618	10647.9
682.966	10550.95
683.314	10600.44
683.661	10473.67
684.009	10423.27
684.357	10523.83
684.705	10523.16
685.053	10453.33
685.4	10416.27
685.748	10376.49
686.095	10384.4
686.443	10327.91
686.79	10333.1
687.138	10384.4
687.485	10376.72
687.832	10359.77
688.18	10265.54
688.527	10197.51
688.874	10275.48
689.221	10159.78
689.568	10113.45
689.915	10170.4
690.262	10155.93
690.609	10117.52
690.956	10123.39
691.303	10051.53
691.65	10026.67
691.997	10042.94
692.344	9924.98
692.69	9943.06
693.037	9876.39
693.383	9812.44
693.73	9897.86
694.077	9792.55
694.423	9790.07
694.769	9750.29
695.116	9666.68
695.462	9661.71
695.808	9646.79
696.155	9594.14
696.501	9549.85
696.847	9524.31
697.193	9481.37
697.539	9463.97
697.885	9431.88
698.231	9331.32
698.577	9352.56
698.923	9336.29
699.269	9329.51
699.614	9208.39
699.96	9218.33
700.306	9162.74
700.651	9167.03
700.997	9127.03
701.342	9116.19
701.688	9041.39
702.033	9086.13
702.379	9042.29
702.724	9002.07
703.069	8951.22
703.415	8877.1
703.76	8935.63
704.105	8877.78
704.45	8868.06
704.795	8762.98
705.14	8855.4
705.485	8751.68
705.83	8766.82
706.175	8753.48
706.52	8689.31
706.865	8735.18
707.209	8714.84
707.554	8686.82
707.899	8621.28
708.243	8589.42
708.588	8574.28
708.932	8443.21
709.277	8516.43
709.621	8475.53
709.966	8414.06
710.31	8426.04
710.654	8399.6
710.998	8408.18
711.342	8369.09
711.687	8350.33
712.031	8387.62
712.375	8350.11
712.719	8329.09
713.063	8283.44
713.407	8310.56
713.75	8278.92
714.094	8210
714.438	8267.85
714.782	8246.38
715.125	8181.75
715.469	8192.37
715.812	8137.46
716.156	8131.81
716.499	8201.41
716.843	8171.35
717.186	8086.84
717.53	8108.08
717.873	8143.11
718.216	8106.5
718.559	8044.58
718.902	7974.07
719.246	8041.41
719.589	7990.57
719.932	7931.59
720.275	7992.6
720.617	7967.97
720.96	7946.73
721.303	7914.41
721.646	7893.85
721.989	7871.25
722.331	7921.64
722.674	7880.74
723.016	7908.53
723.359	7938.82
723.701	7953.05
724.044	7863.79
724.386	7768.43
724.729	7883.9
725.071	7840.51
725.413	7855.88
725.755	7847.29
726.097	7797.58
726.439	7771.14
726.782	7773.85
727.124	7848.2
727.465	7799.16
727.807	7819.95
728.149	7783.79
728.491	7792.15
728.833	7774.75
729.175	7830.8
729.516	7783.79
729.858	7740.86
730.199	7778.82
730.541	7729.78
730.882	7699.73
731.224	7776.11
731.565	7716
731.906	7738.14
732.248	7788.31
732.589	7761.87
732.93	7698.6
733.271	7733.62
733.612	7764.36
733.953	7760.97
734.294	7769.1
734.635	7759.84
734.976	7715.09
735.317	7730.01
735.658	7819.27
735.999	7727.97
736.339	7748.09
736.68	7783.34
737.021	7766.84
737.361	7794.19
737.702	7736.79
738.042	7745.15
738.383	7838.48
738.723	7740.4
739.063	7727.52
739.404	7805.49
739.744	7828.99
740.084	7792.61
740.424	7836.45
740.764	7836.67
741.104	7868.54
741.444	7814.53
741.784	7821.53
742.124	7895.88
742.464	7840.51
742.804	7912.83
743.143	7954.41
743.483	7962.54
743.823	7920.29
744.162	7977.01
744.502	7996.67
744.841	8014.29
745.181	8075.76
745.52	8036.89
745.86	8112.37
746.199	8155.76
746.538	8161.18
746.877	8176.55
747.216	8271.92
747.556	8296.32
747.895	8304.23
748.234	8330.67
748.573	8429.65
748.911	8500.38
749.25	8541.96
749.589	8567.73
749.928	8674.84
750.267	8720.72
750.605	8782.86
750.944	8853.14
751.283	8886.36
751.621	8962.07
751.96	8979.02
752.298	9087.26
752.636	9201.83
752.975	9246.35
753.313	9361.15
753.651	9452.45
753.989	9585.78
754.327	9641.37
754.666	9689.73
755.004	9847.02
755.342	10058.76
755.679	10157.06
756.017	10157.97
756.355	10356.38
756.693	10467.79
757.031	10673.43
757.368	10696.26
757.706	10867.78
758.044	10923.14
758.381	11156.59
758.719	11258.73
759.056	11413.3
759.394	11566.52
759.731	11673.63
760.068	11774.42
760.405	11924.93
760.743	12074.75
761.08	12241.3
761.417	12430.45
761.754	12574.18
762.091	12721.06
762.428	12820.04
762.765	13010.55
763.102	13204.21
763.438	13233.59
763.775	13486.47
764.112	13639.68
764.449	13787.02
764.785	13880.36
765.122	14044.42
765.458	14112.89
765.795	14287.35
766.131	14472.43
766.467	14644.4
766.804	14711.07
767.14	14825.87
767.476	14986.77
767.812	15040.55
768.148	15313.31
768.485	15337.94
768.821	15450.71
769.157	15497.94
769.492	15662.23
769.828	15798.05
770.164	15823.58
770.5	16076
770.836	16206.62
771.171	16206.62
771.507	16273.74
771.842	16233.06
772.178	16451.81
772.513	16552.6
772.849	16646.38
773.184	16642.99
773.519	16791.92
773.855	16750.34
774.19	16849.09
774.525	16959.14
774.86	17098.12
775.195	17080.27
775.53	17079.59
775.865	17158.01
776.2	17074.17
776.535	17078.24
776.87	17215.18
777.205	17310.1
777.539	17267.61
777.874	17406.82
778.209	17313.49
778.543	17341.28
778.878	17340.38
779.212	17509.86
779.547	17436.19
779.881	17607.26
780.215	17387.38
780.55	17515.97
780.884	17514.38
781.218	17532.24
781.552	17579.69
781.886	17446.82
782.22	17608.39
782.554	17500.83
782.888	17453.37
783.222	17513.48
783.556	17411.79
783.889	17404.78
784.223	17371.11
784.557	17394.84
784.89	17503.76
785.224	17325.69
785.557	17345.8
785.891	17282.3
786.224	17321.17
786.558	17395.07
786.891	17256.54
787.224	17252.24
787.557	17331.11
787.891	17288.4
788.224	17260.83
788.557	17246.37
788.89	17153.94
789.223	17177.22
789.556	17220.61
789.888	17140.61
790.221	17136.99
790.554	17101.51
790.887	16985.81
791.219	16984.23
791.552	16868.75
791.884	16899.26
792.217	16941.97
792.549	16859.94
792.882	16805.25
793.214	16700.17
793.546	16766.61
793.879	16690.68
794.211	16685.25
794.543	16707.17
794.875	16647.51
795.207	16714.86
795.539	16628.31
795.871	16617.68
796.203	16491.59
796.535	16421.76
796.867	16439.84
797.198	16479.38
797.53	16374.75
797.862	16269.67
798.193	16358.71
798.525	16137.92
798.856	16274.87
799.188	16026.97
799.519	16084.82
799.85	16002.11
800.182	15988.77
800.513	15994.2
800.844	15938.38
801.175	15984.48
801.506	15927.31
801.837	15922.11
802.168	15894.09
802.499	15750.81
802.83	15706.52
803.161	15752.85
803.491	15736.58
803.822	15727.99
804.153	15592.17
804.483	15534.55
804.814	15463.14
805.145	15573.64
805.475	15493.87
805.805	15447.77
806.136	15459.3
806.466	15505.62
806.796	15404.16
807.126	15328.68
807.457	15249.13
807.787	15212.07
808.117	15244.39
808.447	15194.9
808.777	15169.36
809.107	15016.14
809.436	15060.89
809.766	15042.13
810.096	14934.79
810.426	14939.54
810.755	15005.98
811.085	14982.47
811.414	14943.6
811.744	14858.86
812.073	14789.71
812.403	14802.37
812.732	14739.99
813.061	14757.17
813.39	14659.54
813.719	14650.05
814.049	14769.6
814.378	14570.96
814.707	14544.07
815.036	14603.5
815.365	14478.98
815.693	14425.43
816.022	14492.99
816.351	14404.64
816.68	14370.51
817.008	14413.9
817.337	14287.12
817.665	14246.67
817.994	14210.29
818.322	14298.65
818.651	14116.28
818.979	14123.29
819.307	14188.37
819.636	14143.17
819.964	14087.81
820.292	14163.29
820.62	14136.62
820.948	14144.3
821.276	13994.48
821.604	14071.99
821.932	14078.09
822.259	14178.43
822.587	14122.83
822.915	13980.01
823.243	14068.15
823.57	14094.36
823.898	14160.35
824.225	14014.14
824.553	14023.63
824.88	14107.24
825.207	14004.42
825.535	14010.75
825.862	14097.07
826.189	13963.29
826.516	14077.41
826.843	14105.66
827.17	14091.65
827.497	14070.41
827.824	14135.49
828.151	14099.11
828.478	14132.33
828.805	14147.02
829.131	14121.93
829.458	14104.08
829.785	14005.32
830.111	14035.38
830.438	14175.49
830.764	14004.19
831.09	14081.03
831.417	14070.86
831.743	14060.92
832.069	14093.91
832.395	14097.98
832.722	14023.4
833.048	14046.9
833.374	14020.46
833.7	14003.52
834.026	13982.05
834.351	14003.74
834.677	13995.38
835.003	13989.28
835.329	13960.58
835.654	13935.04
835.98	13877.42
836.306	14012.56
836.631	13769.85
836.956	13907.25
837.282	13931.2
837.607	13848.27
837.932	13825.44
838.258	13832.9
838.583	13856.63
838.908	13690.3
839.233	13671.32
839.558	13720.36
839.883	13664.32
840.208	13583.41
840.533	13588.16
840.858	13596.97
841.182	13640.14
841.507	13620.48
841.832	13529.18
842.156	13464.55
842.481	13523.53
842.805	13422.74
843.13	13390.65
843.454	13419.8
843.778	13364.89
844.103	13362.85
844.427	13303.2
844.751	13343.19
845.075	13255.29
845.399	13191.33
845.723	13170.09
846.047	13133.71
846.371	13077.44
846.695	13056.2
847.019	12990.21
847.343	12965.35
847.666	12873.6
847.99	12833.6
848.313	12902.98
848.637	12752.02
848.96	12677.68
849.284	12771.01
849.607	12523.33
849.931	12547.28
850.254	12474.06
850.577	12344.8
850.9	12341.86
851.223	12329.89
851.546	12237.01
851.869	12165.6
852.192	12207.18
852.515	12087.18
852.838	12078.37
853.161	12087.86
853.483	11982.55
853.806	11974.42
854.129	11923.12
854.451	11873.18
854.774	11853.29
855.096	11811.48
855.419	11788.21
855.741	11773.74
856.063	11700.98
856.385	11579.85
856.708	11644.93
857.03	11541.21
857.352	11572.62
857.674	11635.89
857.996	11458.95
858.318	11371.04
858.64	11465.73
858.961	11340.76
859.283	11399.74
859.605	11319.29
859.926	11326.3
860.248	11277.49
860.57	11228.45
860.891	11213.76
861.212	11204.04
861.534	11189.8
861.855	11133.31
862.176	11189.8
862.498	11107.55
862.819	11104.38
863.14	10996.14
863.461	10967.44
863.782	11053.31
864.103	10995.69
864.424	10953.43
864.745	10902.35
865.065	10919.98
865.386	10813.32
865.707	10924.73
866.027	10917.04
866.348	10869.14
866.668	10838.63
866.989	10789.36
867.309	10708.24
867.63	10744.62
867.95	10760.44
868.27	10719.08
868.59	10689.7
868.91	10776.26
869.23	10693.77
869.55	10563.83
869.87	10710.72
870.19	10695.13
870.51	10664.17
870.83	10636.15
871.15	10577.84
871.469	10536.26
871.789	10620.33
872.109	10510.73
872.428	10515.47
872.748	10429.82
873.067	10498.07
873.386	10404.97
873.706	10460.56
874.025	10447.45
874.344	10361.8
874.663	10422.37
874.982	10392.09
875.301	10327.45
875.62	10320.9
875.939	10380.79
876.258	10413.78
876.577	10297.4
876.896	10383.5
877.214	10197.74
877.533	10270.51
877.852	10254.69
878.17	10274.8
878.489	10218.98
878.807	10258.3
879.125	10202.94
879.444	10103.73
879.762	10188.93
880.08	10082.94
880.398	10059.66
880.716	10091.53
881.034	10030.06
881.352	10055.6
881.67	10030.74
881.988	9994.13
882.306	9969.95
882.624	9904.64
882.941	9894.47
883.259	9920.23
883.577	9798.2
883.894	9843.4
884.212	9810.41
884.529	9774.02
884.846	9771.54
885.164	9771.76
885.481	9731.31
885.798	9767.47
886.115	9612.44
886.432	9626.91
886.75	9650.18
887.067	9672.33
887.383	9562.95
887.7	9590.98
888.017	9568.15
888.334	9508.49
888.651	9506.46
888.967	9477.08
889.284	9389.85
889.6	9443.41
889.917	9334.71
890.233	9385.56
890.55	9336.52
890.866	9359.34
891.182	9332.68
891.498	9273.24
891.815	9179.01
892.131	9228.95
892.447	9167.94
892.763	9144.66
893.079	9131.78
893.395	9055.17
893.71	9136.3
894.026	9153.47
894.342	9063.98
894.657	8947.6
894.973	8972.24
895.289	8905.34
895.604	8857.66
895.92	8822.64
896.235	8739.02
896.55	8771.11
896.865	8774.5
897.181	8759.36
897.496	8742.64
897.811	8745.8
898.126	8662.87
898.441	8600.95
898.756	8562.98
899.071	8490.44
899.386	8557.56
899.7	8452.25
900.015	8441.85
900.33	8382.42
900.644	8340.39
900.959	8393.49
901.273	8385.58
901.588	8314.17
901.902	8316.66
902.216	8272.37
902.531	8229.43
902.845	8160.28
903.159	8181.07
903.473	8093.61
903.787	8142.88
904.101	8017.91
904.415	8094.29
904.729	8053.39
905.042	7931.36
905.356	7927.74
905.67	7924.58
905.984	7930.46
906.297	7907.63
906.611	7814.98
906.924	7817.92
907.237	7729.78
907.551	7856.78
907.864	7741.76
908.177	7726.84
908.491	7634.19
908.804	7630.12
909.117	7560.3
909.43	7472.61
909.743	7467.42
910.056	7510.81
910.368	7486.17
910.681	7421.54
910.994	7419.06
911.307	7381.77
911.619	7302
911.932	7320.3
912.244	7236.24
912.557	7205.28
912.869	7209.8
913.181	7156.24
913.494	7221.77
913.806	7077.37
914.118	7137.71
914.43	7074.43
914.742	7025.17
915.054	7026.07
915.366	6970.03
915.678	6940.42
915.99	6932.97
916.302	6878.28
916.613	6836.92
916.925	6866.53
917.236	6771.84
917.548	6734.1
917.859	6815.23
918.171	6749.24
918.482	6641.45
918.794	6644.16
919.105	6638.96
919.416	6555.8
919.727	6606.65
920.038	6567.55
920.349	6521.23
920.66	6529.14
920.971	6513.77
921.282	6521.9
921.593	6456.6
921.903	6401.68
922.214	6386.32
922.525	6361.23
922.835	6334.34
923.146	6273.78
923.456	6307.22
923.767	6209.14
924.077	6195.81
924.387	6143.84
924.697	6175.02
925.008	6112.88
925.318	6062.26
925.628	6108.58
925.938	6058.64
926.248	5987.91
926.558	5975.48
926.867	6034.69
927.177	5975.7
927.487	5949.94
927.796	5881.92
928.106	5889.38
928.416	5878.08
928.725	5819.1
929.034	5802.38
929.344	5856.16
929.653	5840.34
929.962	5791.98
930.271	5715.37
930.581	5680.8
930.89	5701.81
931.199	5605.54
931.508	5634.92
931.817	5627.69
932.125	5601.03
932.434	5571.87
932.743	5501.37
933.051	5481.25
933.36	5491.65
933.669	5455.27
933.977	5441.71
934.286	5436.06
934.594	5471.54
934.902	5388.38
935.21	5395.61
935.519	5385.66
935.827	5320.35
936.135	5330.75
936.443	5259.11
936.751	5241.49
937.059	5257.08
937.367	5208.04
937.674	5182.96
937.982	5186.35
938.29	5163.52
938.597	5151.55
938.905	5081.04
939.213	5094.82
939.52	5036.97
939.827	5050.76
940.135	5044.2
940.442	4983.87
940.749	4967.82
941.056	4995.62
941.363	4963.08
941.67	4931.44
941.977	4887.37
942.284	4896.18
942.591	4867.94
942.898	4897.31
943.205	4840.59
943.511	4809.18
943.818	4787.71
944.125	4737.09
944.431	4720.14
944.738	4755.4
945.044	4664.55
945.35	4698.45
945.657	4632.69
945.963	4603.76
946.269	4572.35
946.575	4593.37
946.881	4550.88
947.187	4533.48
947.493	4506.36
947.799	4556.98
948.105	4460.49
948.41	4454.84
948.716	4432.69
949.022	4431.11
949.327	4455.74
949.633	4353.83
949.938	4393.6
950.244	4408.06
950.549	4357.22
950.854	4317.22
951.16	4285.58
951.465	4264.56
951.77	4267.27
952.075	4234.51
952.38	4219.37
952.685	4225.69
952.99	4212.81
953.294	4166.71
953.599	4156.32
953.904	4115.64
954.209	4101.86
954.513	4117.22
954.818	4097.79
955.122	4048.75
955.426	4041.52
955.731	4040.61
956.035	3996.77
956.339	4024.57
956.643	3993.61
956.948	3969.88
957.252	3939.15
957.556	3973.72
957.86	3938.92
958.163	3904.12
958.467	3890.79
958.771	3906.38
959.075	3840.85
959.378	3862.09
959.682	3844.46
959.985	3854.63
960.289	3771.47
960.592	3773.95
960.896	3766.95
961.199	3746.16
961.502	3719.94
961.805	3715.42
962.108	3713.17
962.411	3670.23
962.714	3648.31
963.017	3618.25
963.32	3664.13
963.623	3590.23
963.926	3619.38
964.228	3569.67
964.531	3573.06
964.833	3575.77
965.136	3508.88
965.438	3504.58
965.741	3502.78
966.043	3479.05
966.345	3459.84
966.648	3501.65
966.95	3447.86
967.252	3430.91
967.554	3411.48
967.856	3374.42
968.158	3378.71
968.46	3384.81
968.761	3355.89
969.063	3379.39
969.365	3305.04
969.666	3264.14
969.968	3296.9
970.269	3271.59
970.571	3325.83
970.872	3285.38
971.174	3257.81
971.475	3238.6
971.776	3218.71
972.077	3205.61
972.378	3229.56
972.679	3169.68
972.98	3180.52
973.281	3135.55
973.582	3109.57
973.883	3118.6
974.183	3126.51
974.484	3128.77
974.785	3098.94
975.085	3091.03
975.386	3043.58
975.686	3038.83
975.986	3052.39
976.287	3050.81
976.587	2986.86
976.887	2968.55
977.187	3007.19
977.487	2972.85
977.787	2939.85
978.087	2943.24
978.387	2919.51
978.687	2909.57
978.987	2856.01
979.286	2887.42
979.586	2900.08
979.885	2863.24
980.185	2844.26
980.484	2832.96
980.784	2803.13
981.083	2796.13
981.382	2820.53
981.682	2812.4
981.981	2772.17
982.28	2747.09
982.579	2734.21
982.878	2733.08
983.177	2725.39
983.475	2697.15
983.774	2713.42
984.073	2659.41
984.372	2677.71
984.67	2668.22
984.969	2643.59
985.267	2649.01
985.566	2616.02
985.864	2593.42
986.162	2603.82
986.461	2572.63
986.759	2572.86
987.057	2579.18
987.355	2561.33
987.653	2553.87
987.951	2527.66
988.249	2538.51
988.547	2549.58
988.844	2482.01
989.142	2473.2
989.44	2482.91
989.737	2451.05
990.035	2451.96
990.332	2467.1
990.63	2442.92
990.927	2458.73
991.224	2410.37
991.521	2400.88
991.819	2387.1
992.116	2388.91
992.413	2370.6
992.71	2378.28
993.006	2320.89
993.303	2336.03
993.6	2329.25
993.897	2328.57
994.193	2309.59
994.49	2311.39
994.787	2275.91
995.083	2260.55
995.379	2254.45
995.676	2253.77
995.972	2238.85
996.268	2251.96
996.565	2179.87
996.861	2197.95
997.157	2222.81
997.453	2185.75
997.749	2172.41
998.044	2152.3
998.34	2155.24
998.636	2136.26
998.932	2139.2
999.227	2091.06
999.523	2118.63
999.818	2110.5
1000.114	2063.49
1000.409	2089.93
1000.704	2065.75
1001	2079.76
1001.295	2059.88
1001.59	2030.95
1001.885	2026.66
1002.18	1989.59
1002.475	1980.56
1002.77	2012.42
1003.065	1978.52
1003.359	1929.26
1003.654	1941.46
1003.949	1952.99
1004.243	1907.11
1004.538	1915.47
1004.832	1906.66
1005.127	1914.57
1005.421	1868.47
1005.715	1868.47
1006.009	1875.25
1006.304	1846.1
1006.598	1834.12
1006.892	1804.06
1007.186	1821.46
1007.48	1830.5
1007.773	1819.43
1008.067	1785.31
1008.361	1781.92
1008.655	1779.66
1008.948	1764.74
1009.242	1754.35
1009.535	1752.09
1009.829	1752.54
1010.122	1713.9
1010.415	1703.73
1010.708	1706.21
1011.001	1687.46
1011.295	1720
1011.588	1679.77
1011.881	1678.19
1012.173	1663.95
1012.466	1643.84
1012.759	1652.2
1013.052	1620.34
1013.344	1626.89
1013.637	1593.9
1013.93	1585.09
1014.222	1570.17
1014.514	1592.77
1014.807	1580.34
1015.099	1589.61
1015.391	1574.92
1015.683	1558.42
1015.976	1529.49
1016.268	1571.07
1016.56	1507.57
1016.851	1515.93
1017.143	1535.14
1017.435	1493.11
1017.727	1475.26
1018.018	1484.98
1018.31	1432.1
1018.602	1427.8
1018.893	1419.89
1019.185	1435.26
1019.476	1402.27
1019.767	1433
1020.058	1390.74
1020.35	1414.24
1020.641	1354.81
1020.932	1379.67
1021.223	1372.89
1021.514	1357.75
1021.804	1368.82
1022.095	1372.44
1022.386	1336.5
1022.677	1325.43
1022.967	1323.62
1023.258	1291.76
1023.548	1320.46
1023.839	1301.25
1024.129	1302.16
1024.419	1280.91
1024.709	1266.45
1025	1278.2
1025.29	1250.63
1025.58	1244.76
1025.87	1233.68
1026.16	1260.12
1026.449	1213.8
1026.739	1204.3
1027.029	1177.41
1027.319	1207.92
1027.608	1201.59
1027.898	1181.71
1028.187	1154.81
1028.477	1177.41
1028.766	1161.59
1029.055	1144.87
1029.344	1147.58
1029.634	1137.64
1029.923	1134.48
1030.212	1127.47
1030.501	1117.3
1030.79	1134.25
1031.078	1088.38
1031.367	1094.25
1031.656	1089.73
1031.945	1105.1
1032.233	1077.75
1032.522	1069.39
1032.81	1063.74
1033.099	1056.74
1033.387	1013.8
1033.675	1051.31
1033.963	1044.99
1034.251	1041.14
1034.54	1002.73
1034.828	1033.01
1035.116	1013.12
1035.403	987.59
1035.691	986.23
1035.979	989.39
1036.267	985.33
1036.554	976.51
1036.842	978.1
1037.129	975.16
1037.417	990.07
1037.704	963.18
1037.992	967.02
1038.279	947.36
1038.566	942.16
1038.853	942.16
1039.14	942.16
