Data from hue_20_FLMS001491_42.txt Node
Date: Mon Feb 06 15:34:10 GMT 2017
User: dcchb
Spectrometer: FLMS00149
Trigger mode: 0
Integration Time (sec): 2.000000E-2
Scans to average: 10
Electric dark correction enabled: true
Nonlinearity correction enabled: false
Boxcar width: 0
XAxis mode: Wavelengths
Number of Pixels in Spectrum: 2048
>>>>>Begin Spectral Data<<<<<
341.393	-11.09
341.776	-11.09
342.16	-11.09
342.543	-68.49
342.927	-59.9
343.31	-66.45
343.693	-81.59
344.077	-59.45
344.46	-67.36
344.843	-50.18
345.226	-60.8
345.61	-29.84
345.993	-28.49
346.376	-9.51
346.759	15.13
347.142	37.5
347.525	50.61
347.908	51.74
348.291	82.24
348.674	91.96
349.057	124.5
349.44	137.84
349.823	123.15
350.206	164.95
350.588	195.91
350.971	213.77
351.354	211.05
351.737	255.57
352.119	244.05
352.502	259.87
352.884	284.72
353.267	282.24
353.65	302.35
354.032	309.58
354.414	314.1
354.797	338.73
355.179	331.5
355.562	364.27
355.944	336.25
356.326	348.9
356.709	336.7
357.091	329.24
357.473	358.85
357.855	354.33
358.238	340.32
358.62	350.03
359.002	347.77
359.384	354.55
359.766	345.29
360.148	334.44
360.53	360.2
360.912	323.14
361.294	330.6
361.676	340.09
362.057	356.13
362.439	331.28
362.821	319.75
363.203	333.76
363.584	322.92
363.966	320.43
364.348	315.23
364.729	321.56
365.111	319.98
365.493	321.11
365.874	333.54
366.256	311.84
366.637	324.27
367.019	339.19
367.4	320.66
367.781	319.3
368.163	326.08
368.544	326.53
368.925	296.25
369.306	316.36
369.688	336.47
370.069	305.29
370.45	324.95
370.831	314.33
371.212	311.84
371.593	318.85
371.974	314.33
372.355	315.23
372.736	347.1
373.117	323.14
373.498	316.36
373.879	333.54
374.26	312.07
374.641	291.96
375.021	327.66
375.402	313.42
375.783	319.3
376.163	318.17
376.544	328.56
376.925	344.38
377.305	349.81
377.686	306.64
378.066	349.36
378.447	338.06
378.827	343.03
379.208	315.91
379.588	334.21
379.968	335.57
380.349	329.92
380.729	337.83
381.109	334.67
381.489	344.61
381.87	352.29
382.25	321.79
382.63	359.52
383.01	319.53
383.39	356.59
383.77	359.75
384.15	357.26
384.53	356.13
384.91	338.73
385.29	373.08
385.67	344.38
386.049	357.26
386.429	355.23
386.809	357.49
387.189	367.21
387.568	358.85
387.948	372.63
388.328	351.84
388.707	360.2
389.087	379.18
389.466	375.57
389.846	367.66
390.225	375.12
390.605	368.56
390.984	400.43
391.363	393.87
391.743	379.18
392.122	376.7
392.501	385.74
392.881	370.15
393.26	407.88
393.639	392.29
394.018	380.09
394.397	396.36
394.776	369.47
395.155	380.54
395.534	390.48
395.913	391.39
396.292	413.31
396.671	390.48
397.05	392.74
397.429	387.09
397.808	393.87
398.186	405.17
398.565	404.04
398.944	397.04
399.323	396.13
399.701	410.6
400.08	407.88
400.458	420.09
400.837	418.05
401.215	406.75
401.594	435.68
401.972	407.43
402.351	429.35
402.729	447.66
403.107	415.12
403.486	446.08
403.864	423.48
404.242	412.4
404.62	423.25
404.999	446.53
405.377	411.73
405.755	446.98
406.133	431.84
406.511	463.48
406.889	425.96
407.267	455.12
407.645	448.34
408.023	449.47
408.401	443.36
408.779	473.65
409.156	468.9
409.534	470.71
409.912	452.18
410.29	455.79
410.667	473.65
411.045	484.27
411.422	481.78
411.8	462.35
412.178	499.18
412.555	490.82
412.933	477.04
413.31	498.05
413.687	519.97
414.065	495.57
414.442	504.15
414.819	519.52
415.197	495.57
415.574	519.52
415.951	515
416.328	509.8
416.705	518.39
417.082	547.32
417.46	538.73
417.837	552.97
418.214	530.37
418.591	553.64
418.967	542.57
419.344	538.73
419.721	538.95
420.098	552.29
420.475	553.19
420.852	543.7
421.228	548.9
421.605	555.68
421.982	571.04
422.358	569.46
422.735	589.12
423.111	589.35
423.488	572.63
423.864	586.19
424.241	589.35
424.617	593.19
424.994	606.75
425.37	598.16
425.746	609.24
426.123	587.77
426.499	615.34
426.875	638.16
427.251	638.16
427.627	633.42
428.003	644.71
428.379	651.04
428.756	628.22
429.132	637.03
429.507	651.49
429.883	649.23
430.259	672.74
430.635	654.66
431.011	678.39
431.387	677.71
431.763	680.19
432.138	704.37
432.514	676.13
432.89	700.31
433.265	716.58
433.641	713.87
434.016	732.4
434.392	741.66
434.767	725.39
435.143	753.41
435.518	760.42
435.894	760.64
436.269	759.97
436.644	752.73
437.02	748.67
437.395	770.14
437.77	772.39
438.145	794.32
438.52	781.43
438.895	816.24
439.271	797.03
439.646	841.09
440.021	837.25
440.395	805.16
440.77	839.96
441.145	830.92
441.52	826.63
441.895	840.42
442.27	837.93
442.645	855.78
443.019	859.85
443.394	844.03
443.769	840.87
444.143	849.68
444.518	857.59
444.892	882.67
445.267	878.83
445.641	895.56
446.016	868.89
446.39	891.26
446.764	902.56
447.139	870.02
447.513	923.35
447.887	907.53
448.262	913.18
448.636	915.22
449.01	919.96
449.384	917.93
449.758	944.82
450.132	949.11
450.506	940.3
450.88	975.1
451.254	960.86
451.628	985.04
452.002	965.84
452.376	976.01
452.75	978.04
453.123	1004.03
453.497	1000.41
453.871	1015.55
454.244	1038.83
454.618	1024.82
454.992	1015.78
455.365	1053.29
455.739	1087.87
456.112	1074.76
456.486	1093.97
456.859	1097.36
457.232	1118.83
457.606	1106.62
457.979	1136.45
458.352	1159.05
458.725	1175.77
459.099	1163.8
459.472	1174.19
459.845	1199.95
460.218	1238.15
460.591	1216
460.964	1231.37
461.337	1251.25
461.71	1273.17
462.083	1278.14
462.456	1265.04
462.829	1292.61
463.201	1288.77
463.574	1291.25
463.947	1325.83
464.32	1336.67
464.692	1377.12
465.065	1394.75
465.438	1386.84
465.81	1399.72
466.183	1434.75
466.555	1431.81
466.928	1493.73
467.3	1456.44
467.672	1512.49
468.045	1503.9
468.417	1500.74
468.789	1517.01
469.161	1554.07
469.534	1603.11
469.906	1618.7
470.278	1625.03
470.65	1651.24
471.022	1658.7
471.394	1684.69
471.766	1699.83
472.138	1720.84
472.51	1773.5
472.882	1782.09
473.253	1818.92
473.625	1856.66
473.997	1862.54
474.369	1902.99
474.74	1917.9
475.112	1950.22
475.484	1982.76
475.855	1999.71
476.227	2042.19
476.598	2092.13
476.97	2109.76
477.341	2148.18
477.713	2164.22
478.084	2211
478.455	2257.55
478.827	2298.91
479.198	2345.01
479.569	2385.46
479.94	2438.11
480.311	2437.21
480.682	2513.59
481.053	2567.6
481.424	2626.36
481.795	2647.15
482.166	2681.95
482.537	2745.22
482.908	2828.61
483.279	2806.24
483.65	2876.07
484.021	2921.94
484.391	2993.13
484.762	2989.74
485.133	3029.28
485.503	3107.02
485.874	3180.24
486.244	3170.52
486.615	3231.09
486.985	3337.3
487.356	3364.19
487.726	3391.99
488.097	3482.83
488.467	3524.86
488.837	3552.66
489.207	3608.25
489.578	3679.66
489.948	3742.49
490.318	3760.79
490.688	3824.52
491.058	3868.13
491.428	3912.65
491.798	3988.81
492.168	4081.01
492.538	4062.48
492.908	4113.1
493.278	4188.58
493.648	4191.06
494.017	4236.48
494.387	4276.26
494.757	4286.65
495.126	4421.79
495.496	4381.11
495.866	4449.59
496.235	4537.27
496.605	4538.4
496.974	4519.42
497.344	4614.33
497.713	4653.65
498.082	4666.98
498.452	4729.13
498.821	4740.88
499.19	4757.37
499.559	4810.25
499.928	4856.58
500.298	4833.31
500.667	4924.83
501.036	4963.47
501.405	4993.3
501.774	4997.59
502.143	5076.91
502.512	5082.79
502.88	5116.91
503.249	5158.27
503.618	5134.77
503.987	5180.64
504.356	5184.71
504.724	5243.69
505.093	5325.27
505.462	5266.97
505.83	5307.42
506.199	5352.39
506.567	5474.19
506.936	5453.4
507.304	5490.01
507.672	5515.1
508.041	5457.92
508.409	5586.73
508.777	5589.67
509.145	5627.18
509.514	5649.55
509.882	5679.38
510.25	5664.92
510.618	5682.1
510.986	5738.59
511.354	5846.16
511.722	5851.13
512.09	5825.82
512.458	5872.15
512.826	5894.52
513.193	5926.16
513.561	5945.59
513.929	5986.27
514.297	6009.32
514.664	6045.25
515.032	6093.38
515.4	6142.42
515.767	6136.55
516.135	6167.51
516.502	6169.32
516.869	6280.5
517.237	6193.95
517.604	6230.78
517.972	6311.46
518.339	6363.89
518.706	6331.57
519.073	6343.32
519.44	6401.17
519.808	6448.63
520.175	6407.5
520.542	6494.96
520.909	6551.68
521.276	6511.91
521.643	6594.39
522.009	6632.13
522.376	6684.1
522.743	6692.01
523.11	6737.89
523.477	6823.99
523.843	6812.46
524.21	6892.91
524.577	6965.45
524.943	6936.53
525.31	6989.41
525.676	7022.63
526.043	7095.17
526.409	7095.39
526.776	7170.87
527.142	7188.27
527.508	7246.12
527.874	7267.59
528.241	7276.18
528.607	7320.7
528.973	7398.66
529.339	7431.65
529.705	7560.47
530.071	7547.36
530.437	7536.06
530.803	7690.63
531.169	7604.76
531.535	7692.66
531.901	7639.33
532.267	7757.97
532.632	7808.59
532.998	7858.54
533.364	7861.25
533.73	7870.74
534.095	7946.44
534.461	7988.7
534.826	8018.76
535.192	8043.16
535.557	8123.39
535.923	8137.17
536.288	8115.25
536.653	8198.19
537.019	8198.19
537.384	8185.53
537.749	8351.18
538.114	8305.76
538.479	8265.08
538.845	8318.41
539.21	8372.65
539.575	8383.72
539.94	8387.34
540.305	8477.5
540.67	8487.67
541.034	8557.05
541.399	8573.55
541.764	8571.29
542.129	8548.24
542.494	8617.16
542.858	8664.39
543.223	8688.57
543.587	8789.81
543.952	8768.12
544.316	8789.59
544.681	8832.97
545.045	8877.94
545.41	8930.15
545.774	8934.67
546.138	8944.84
546.503	8960.65
546.867	9085.62
547.231	9121.55
547.595	9082.91
547.959	9120.88
548.324	9156.36
548.688	9179.86
549.052	9173.76
549.416	9222.57
549.779	9250.82
550.143	9375.33
550.507	9406.52
550.871	9428.44
551.235	9406.52
551.599	9413.52
551.962	9517.7
552.326	9514.99
552.689	9634.31
553.053	9525.61
553.417	9526.06
553.78	9710.01
554.143	9689.22
554.507	9651.48
554.87	9787.75
555.234	9814.87
555.597	9811.93
555.96	9816.68
556.323	9825.72
556.686	9861.2
557.05	9944.58
557.413	9996.33
557.776	9992.04
558.139	10086.05
558.502	10138.48
558.865	10146.16
559.228	10161.07
559.59	10192.03
559.953	10225.93
560.316	10345.02
560.679	10307.74
561.041	10341.63
561.404	10387.74
561.767	10430.67
562.129	10443.55
562.492	10566.71
562.854	10496.89
563.217	10538.01
563.579	10601.74
563.941	10642.42
564.304	10721.96
564.666	10722.42
565.028	10743.21
565.39	10751.57
565.753	10864.11
566.115	10816.42
566.477	10945.01
566.839	10911.34
567.201	11021.17
567.563	11048.96
567.925	11073.82
568.287	11138.68
568.648	11107.04
569.01	11186.13
569.372	11239.24
569.734	11262.51
570.095	11356.75
570.457	11389.97
570.819	11411.89
571.18	11352.46
571.542	11628.83
571.903	11524.65
572.265	11633.58
572.626	11621.83
572.987	11718.55
573.349	11737.3
573.71	11777.53
574.071	11855.04
574.432	11891.2
574.794	11996.28
575.155	12040.35
575.516	12023.62
575.877	12208.7
576.238	12268.59
576.599	12325.31
576.96	12376.38
577.32	12463.61
577.681	12536.61
578.042	12595.13
578.403	12664.29
578.763	12706.32
579.124	12836.94
579.485	12991.96
579.845	13123.93
580.206	13114.22
580.566	13280.31
580.927	13406.64
581.287	13552.85
581.648	13539.29
582.008	13719.85
582.368	13860.19
582.728	14017.24
583.089	14111.25
583.449	14384.24
583.809	14475.99
584.169	14642.76
584.529	14713.5
584.889	15109.19
585.249	15196.65
585.609	15278
585.969	15616.75
586.329	15688.16
586.688	15925.22
587.048	16103.52
587.408	16353.45
587.768	16610.17
588.127	16825.08
588.487	17026.88
588.846	17308.68
589.206	17460.54
589.565	17715.23
589.925	18054.2
590.284	18280.64
590.643	18537.58
591.003	18947.28
591.362	19151.35
591.721	19372.58
592.08	19767.6
592.44	20018.67
592.799	20298.21
593.158	20549.28
593.517	20959.89
593.876	21230.61
594.235	21441
594.593	21760.32
594.952	22172.06
595.311	22387.65
595.67	22584.48
596.029	23114.18
596.387	23480.05
596.746	23745.58
597.104	23879.13
597.463	24241.61
597.822	24670.3
598.18	24874.13
598.538	25164.75
598.897	25586.66
599.255	25780.78
599.613	26348.45
599.972	26465.73
600.33	26928.54
600.688	27167.63
601.046	27415.08
601.404	27885.13
601.762	28213.48
602.12	28440.82
602.478	28813.24
602.836	29087.13
603.194	29182.72
603.552	29623.84
603.91	29834.46
604.268	30248.23
604.625	30311.05
604.983	30783.58
605.341	31005.27
605.698	31379.95
606.056	31721.41
606.413	32007.05
606.771	32294.05
607.128	32608.39
607.485	32783.3
607.843	33009.74
608.2	33446.11
608.557	33710.06
608.914	33827.12
609.272	34060.33
609.629	34495.35
609.986	34839.07
610.343	34778.51
610.7	35285.39
611.057	35560.41
611.414	35757.92
611.771	35930.57
612.127	36299.37
612.484	36419.59
612.841	36809.41
613.198	36733.03
613.554	36938.68
613.911	37460.7
614.267	37438.32
614.624	37601.48
614.98	38010.06
615.337	38257.74
615.693	38322.37
616.05	38303.84
616.406	38892.75
616.762	38692.98
617.118	38956.25
617.475	39058.62
617.831	39330.48
618.187	39547.87
618.543	39676.68
618.899	40110.12
619.255	40117.35
619.611	40100.4
619.967	40432.37
620.323	40638.92
620.678	40730.44
621.034	40729.54
621.39	40728.18
621.746	41015.4
622.101	41377.2
622.457	41209.07
622.812	41348.28
623.168	41494.94
623.523	41687.93
623.879	41878.21
624.234	41724.54
624.589	41893.12
624.945	42146.45
625.3	42222.15
625.655	42171.31
626.01	42360.45
626.365	42289.27
626.72	42418.76
627.075	42486.1
627.43	42542.37
627.785	42548.92
628.14	42719.31
628.495	42717.05
628.85	42806.77
629.205	42816.26
629.559	43146.65
629.914	42952.98
630.269	43103.94
630.623	43049.93
630.978	42973.55
631.332	43233.88
631.687	43333.76
632.041	43149.59
632.396	43297.38
632.75	43177.83
633.104	43282.46
633.459	43153.88
633.813	43208.57
634.167	43243.37
634.521	43322.46
634.875	43263.48
635.229	43323.59
635.583	43167.21
635.937	43269.36
636.291	43250.6
636.645	43258.74
636.999	43284.05
637.352	43397.94
637.706	43238.85
638.06	43355
638.413	43359.3
638.767	43361.33
639.121	43341.45
639.474	43216.93
639.828	43383.93
640.181	43274.1
640.534	43303.71
640.888	43165.86
641.241	43044.5
641.594	43261.22
641.947	43280.43
642.301	43138.29
642.654	43219.87
643.007	43256.48
643.36	43060.77
643.713	43155.91
644.066	43328.34
644.419	43014.22
644.771	42903.94
645.124	42538.53
645.477	42378.08
645.83	42156.62
646.182	42005.89
646.535	42011.08
646.888	42018.77
647.24	41752.11
647.593	42048.6
647.945	41951.43
648.298	41781.49
648.65	41693.13
649.002	41670.75
649.355	41889.51
649.707	41798.89
650.059	41920.92
650.411	42390.96
650.763	42589.15
651.115	42958.63
651.467	42895.36
651.819	42697.17
652.171	42677.73
652.523	42730.39
652.875	42625.53
653.227	42518.87
653.578	42826.66
653.93	42555.03
654.282	42616.27
654.633	42443.62
654.985	42506.66
655.337	42518.19
655.688	42625.31
656.039	42651.07
656.391	42329.95
656.742	42389.38
657.094	42496.5
657.445	42563.84
657.796	42430.28
658.147	42324.97
658.498	42413.11
658.849	42514.12
659.2	42415.14
659.551	42303.05
659.902	42586.66
660.253	42440
660.604	42481.81
660.955	42264.41
661.306	42425.99
661.656	42284.52
662.007	42300.12
662.358	42308.7
662.708	42193.68
663.059	42385.76
663.409	42072.55
663.76	42315.03
664.11	42319.55
664.461	42339.21
664.811	42181.93
665.161	42271.19
665.511	42200.68
665.862	42200.68
666.212	42313.22
666.562	42267.58
666.912	42190.74
667.262	42309.16
667.612	42223.28
667.962	42241.59
668.312	42035.26
668.662	42271.42
669.011	42213.57
669.361	42193
669.711	42170.63
670.06	42120.23
670.41	41908.94
670.76	42083.17
671.109	42224.19
671.459	41996.4
671.808	41959.33
672.157	42220.8
672.507	41863.07
672.856	41976.28
673.205	41886.57
673.554	42029.84
673.904	41816.74
674.253	42152.55
674.602	41984.87
674.951	41456.52
675.3	41342.18
675.649	41807.02
675.998	41830.75
676.346	41839.11
676.695	41856.51
677.044	41680.7
677.393	41667.14
677.741	41741.94
678.09	41734.26
678.438	41647.48
678.787	41517.54
679.135	41492.45
679.484	41292.01
679.832	41499.23
680.181	41205.23
680.529	41522.28
680.877	41411.1
681.225	41243.2
681.573	41453.81
681.922	41302.63
682.27	41018.79
682.618	41223.31
682.966	41014.05
683.314	41072.13
683.661	40887.5
684.009	40922.98
684.357	40762.53
684.705	40741.51
685.053	40692.93
685.4	40720.5
685.748	40493.61
686.095	40500.84
686.443	40423.1
686.79	40221.75
687.138	40387.4
687.485	40410
687.832	40170.46
688.18	40162.77
688.527	39990.8
688.874	40132.26
689.221	39765.95
689.568	39924.36
689.915	39761.43
690.262	39795.55
690.609	39676
690.956	39423.13
691.303	39565.95
691.65	39382.23
691.997	39346.3
692.344	38994.21
692.69	39098.62
693.037	39045.74
693.383	38685.3
693.73	38935.01
694.077	38597.84
694.423	38579.99
694.769	38530.95
695.116	38474.91
695.462	38352.2
695.808	38240.34
696.155	38402.82
696.501	38176.38
696.847	38013
697.193	37872.44
697.539	38056.61
697.885	37679.22
698.231	37601.03
698.577	37620.92
698.923	37500.92
699.269	37324.65
699.614	37200.36
699.96	37192.23
700.306	37290.08
700.651	37013.25
700.997	36927.6
701.342	36852.35
701.688	36808.96
702.033	36697.33
702.379	36664.33
702.724	36610.1
703.069	36506.6
703.415	36237.68
703.76	36200.39
704.105	36282.42
704.45	36164.01
704.795	35950.9
705.14	35919.49
705.485	35780.06
705.83	35696.45
706.175	35717.46
706.52	35481.76
706.865	35522.44
707.209	35486.74
707.554	35361.77
707.899	35404.03
708.243	35264.6
708.588	35071.38
708.932	35009.01
709.277	34939.63
709.621	34839.52
709.966	34682.92
710.31	34729.92
710.654	34545.07
710.998	34536.48
711.342	34616.25
711.687	34510.26
712.031	34296.03
712.375	34195.24
712.719	34254
713.063	34193.66
713.407	34364.28
713.75	34161.35
714.094	34036.61
714.438	33983.27
714.782	34032.31
715.125	33884.07
715.469	33805.65
715.812	33695.15
716.156	33562.72
716.499	33468.03
716.843	33504.64
717.186	33247.02
717.53	33527.92
717.873	33529.5
718.216	33401.37
718.559	33326.57
718.902	33014.03
719.246	33113.24
719.589	32973.13
719.932	32978.78
720.275	32938.33
720.617	32896.97
720.96	32732.23
721.303	32852.46
721.646	32822.85
721.989	32599.35
722.331	32609.07
722.674	32597.77
723.016	32485.46
723.359	32489.98
723.701	32583.54
724.044	32323.2
724.386	32155.75
724.729	32233.94
725.071	32118.69
725.413	32259.93
725.755	32207.73
726.097	32151.68
726.439	32012.93
726.782	31853.39
727.124	31989.2
727.465	31704.91
727.807	31676.44
728.149	31656.78
728.491	31592.15
728.833	31758.25
729.175	31521.42
729.516	31572.49
729.858	31546.95
730.199	31402.1
730.541	31497.46
730.882	31320.52
731.224	31472.83
731.565	31226.28
731.906	31249.11
732.248	31181.76
732.589	30977.02
732.93	31070.13
733.271	31039.17
733.612	30929.79
733.953	31099.96
734.294	30891.83
734.635	30738.84
734.976	30838.72
735.317	30673.3
735.658	30684.15
735.999	30764.6
736.339	30629.24
736.68	30608.22
737.021	30503.82
737.361	30483.93
737.702	30608.45
738.042	30536.58
738.383	30396.02
738.723	30591.95
739.063	30332.3
739.404	30443.48
739.744	30199.42
740.084	30104.28
740.424	30190.38
740.764	30024.28
741.104	30140.89
741.444	30003.72
741.784	29794.91
742.124	29975.02
742.464	29789.94
742.804	29780.67
743.143	29718.07
743.483	29787.68
743.823	29555.59
744.162	29703.16
744.502	29623.16
744.841	29509.94
745.181	29650.51
745.52	29547.46
745.86	29594.91
746.199	29381.13
746.538	29454.58
746.877	29523.73
747.216	29413.68
747.556	29385.65
747.895	29286.9
748.234	29157.86
748.573	29189.27
748.911	29166.68
749.25	29237.86
749.589	29052.78
749.928	29000.81
750.267	29022.27
750.605	28902.5
750.944	28834.93
751.283	28871.54
751.621	28798.32
751.96	28638.33
752.298	28613.92
752.636	28692.34
752.975	28453.7
753.313	28443.53
753.651	28481.04
753.989	28476.75
754.327	28300.94
754.666	28128.96
755.004	28172.58
755.342	28338.68
755.679	28056.65
756.017	28084.45
756.355	28101.39
756.693	27934.62
757.031	28047.61
757.368	27820.27
757.706	27933.26
758.044	27702.99
758.381	27625.02
758.719	27585.48
759.056	27682.2
759.394	27488.98
759.731	27473.16
760.068	27335.09
760.405	27398.36
760.743	27190.23
761.08	27252.83
761.417	27102.1
761.754	27071.59
762.091	26976
762.428	26867.53
762.765	26716.35
763.102	26828.21
763.438	26667.31
763.775	26521.32
764.112	26473.87
764.449	26497.59
764.785	26350.03
765.122	26253.31
765.458	26190.71
765.795	26049.02
766.131	26071.84
766.467	25995.69
766.804	25810.83
767.14	25735.58
767.476	25711.85
767.812	25612.19
768.148	25644.06
768.485	25434.8
768.821	25250.17
769.157	25370.84
769.492	25299.43
769.828	25230.51
770.164	25025.32
770.5	24978.31
770.836	24927.69
771.171	24734.02
771.507	24780.35
771.842	24570.87
772.178	24530.87
772.513	24479.34
772.849	24370.42
773.184	24246.13
773.519	24336.75
773.855	24092.69
774.19	24103.31
774.525	23977.66
774.86	23890.43
775.195	23840.94
775.53	23877.55
775.865	23621.96
776.2	23500.38
776.535	23398.01
776.87	23410.67
777.205	23315.31
777.539	23259.26
777.874	23207.29
778.209	23042.09
778.543	22996.67
778.878	22868.09
779.212	22938.37
779.547	22705.6
779.881	22726.17
780.215	22554.65
780.55	22531.37
780.884	22324.14
781.218	22414.54
781.552	22357.82
781.886	22221.1
782.22	22148.33
782.554	21962.12
782.888	21823.82
783.222	21763.03
783.556	21681
783.889	21621.56
784.223	21460.44
784.557	21510.15
784.89	21557.84
785.224	21330.05
785.557	21230.39
785.891	21060.22
786.224	21151.29
786.558	21065.42
786.891	20865.43
787.224	20761.47
787.557	20847.35
787.891	20790.17
788.224	20726.45
788.557	20648.93
788.89	20687.35
789.223	20645.77
789.556	20394.48
789.888	20374.82
790.221	20281.94
790.554	20177.76
790.887	20149.51
791.219	20061.15
791.552	20088.27
791.884	19971.89
792.217	19952.46
792.549	19744.78
792.882	19517.21
793.214	19624.33
793.546	19764.21
793.879	19504.56
794.211	19373.04
794.543	19380.04
794.875	19335.75
795.207	19468.17
795.539	19219.59
795.871	19157.9
796.203	19120.61
796.535	19094.85
796.867	18947.74
797.198	18891.47
797.53	18801.3
797.862	18752.71
798.193	18786.16
798.525	18615.77
798.856	18705.93
799.188	18538.71
799.519	18453.51
799.85	18339.39
800.182	18368.77
800.513	18361.54
800.844	18123.8
801.175	18218.72
801.506	18126.97
801.837	18103.92
802.168	18067.53
802.499	17924.71
802.83	17873.41
803.161	17851.04
803.491	17765.39
803.822	17839.52
804.153	17718.84
804.483	17612.63
804.814	17476.81
805.145	17559.07
805.475	17426.87
805.805	17330.38
806.136	17303.26
806.466	17351.17
806.796	17328.34
807.126	17180.1
807.457	17141.68
807.787	17155.92
808.117	17054
808.447	16982.14
808.777	17065.3
809.107	16908.47
809.436	16953.44
809.766	16866.66
810.096	16790.96
810.426	16878.64
810.755	16801.58
811.085	16767.91
811.414	16592.77
811.744	16540.12
812.073	16537.63
812.403	16538.99
812.732	16387.35
813.061	16353.45
813.39	16325.43
813.719	16296.73
814.049	16274.13
814.378	16283.63
814.707	16200.46
815.036	16233.46
815.365	16084.99
815.693	15903.75
816.022	16022.39
816.351	15922.73
816.68	15826.24
817.008	15936.52
817.337	15816.52
817.665	15747.14
817.994	15799.34
818.322	15732
818.651	15619.24
818.979	15607.49
819.307	15651.33
819.636	15555.28
819.964	15514.15
820.292	15591.21
820.62	15561.84
820.948	15508.05
821.276	15565.9
821.604	15442.52
821.932	15431.44
822.259	15565.68
822.587	15433.93
822.915	15381.05
823.243	15388.96
823.57	15394.84
823.898	15450.2
824.225	15422.86
824.553	15324.33
824.88	15383.99
825.207	15465.57
825.535	15369.53
825.862	15361.39
826.189	15421.28
826.516	15377.89
826.843	15478.67
827.17	15401.39
827.497	15420.15
827.824	15363.42
828.151	15410.88
828.478	15350.99
828.805	15401.16
829.131	15385.57
829.458	15283.88
829.785	15227.16
830.111	15262.18
830.438	15346.93
830.764	15344.89
831.09	15357.32
831.417	15228.96
831.743	15314.39
832.069	15358.9
832.395	15224.22
832.722	15306.25
833.048	15246.59
833.374	15261.05
833.7	15127.05
834.026	15177.67
834.351	15243.88
834.677	15182.64
835.003	15124.56
835.329	15148.51
835.654	15098.8
835.98	15017.22
836.306	15091.57
836.631	15043.43
836.956	14988.07
837.282	15170.21
837.607	14968.41
837.932	14931.34
838.258	14867.62
838.583	14905.81
838.908	14834.62
839.233	14882.08
839.558	14855.41
839.883	14753.95
840.208	14754.63
840.533	14780.84
840.858	14800.27
841.182	14700.39
841.507	14665.36
841.832	14570
842.156	14608.19
842.481	14638.7
842.805	14558.47
843.13	14559.38
843.454	14570
843.778	14451.36
844.103	14388.99
844.427	14395.09
844.751	14349.89
845.075	14382.66
845.399	14275.99
845.723	14224.47
846.047	14156.45
846.371	14085.49
846.695	14120.52
847.019	14011.59
847.343	13905.61
847.666	13879.85
847.99	13793.75
848.313	13799.4
848.637	13653.19
848.96	13648.67
849.284	13725.27
849.607	13576.13
849.931	13429.92
850.254	13446.86
850.577	13335.68
850.9	13276.02
851.223	13279.18
851.546	13224.95
851.869	13148.79
852.192	13100.21
852.515	13071.96
852.838	12915.58
853.161	13063.82
853.483	12874
853.806	12871.96
854.129	12822.93
854.451	12829.93
854.774	12681.46
855.096	12668.58
855.419	12690.27
855.741	12623.16
856.063	12551.52
856.385	12568.69
856.708	12423.84
857.03	12437.17
857.352	12422.71
857.674	12457.96
857.996	12361.47
858.318	12321.02
858.64	12230.17
858.961	12206.9
859.283	12218.42
859.605	12174.36
859.926	12155.15
860.248	12097.52
860.57	12058.43
860.891	12046
861.212	12013.68
861.534	11971.42
861.855	11890.07
862.176	11975.49
862.498	11920.58
862.819	11931.88
863.14	11922.84
863.461	11792.67
863.782	11829.28
864.103	11845.55
864.424	11819.79
864.745	11788.38
865.065	11686.23
865.386	11643.97
865.707	11700.02
866.027	11705.89
866.348	11649.85
866.668	11562.39
866.989	11615.27
867.309	11482.4
867.63	11576.4
867.95	11545.67
868.27	11490.98
868.59	11492.34
868.91	11440.14
869.23	11448.5
869.55	11365.34
869.87	11454.83
870.19	11334.15
870.51	11386.81
870.83	11371.44
871.15	11276.98
871.469	11302.29
871.789	11405.56
872.109	11268.16
872.428	11164.44
872.748	11280.82
873.067	11256.87
873.386	11223.19
873.706	11191.33
874.025	11137.09
874.344	11152.91
874.663	11152.24
874.982	11118.79
875.301	11095.29
875.62	11064.55
875.939	11059.36
876.258	11047.38
876.577	10951.56
876.896	11044.44
877.214	10855.29
877.533	10977.1
877.852	10861.4
878.17	10980.26
878.489	10916.31
878.807	10897.55
879.125	10943.65
879.444	10903.65
879.762	10838.12
880.08	10882.41
880.398	10805.58
880.716	10753.6
881.034	10765.8
881.352	10801.28
881.67	10680.61
881.988	10753.83
882.306	10669.76
882.624	10707.5
882.941	10636.77
883.259	10591.8
883.577	10571.01
883.894	10561.52
884.212	10569.2
884.529	10425.25
884.846	10420.05
885.164	10423.89
885.481	10387.74
885.798	10464.34
886.115	10353.61
886.432	10381.18
886.75	10318.13
887.067	10312.26
887.383	10312.48
887.7	10217.57
888.017	10227.06
888.334	10216.89
888.651	10131.02
888.967	10117.46
889.284	10131.24
889.6	10041.98
889.917	10047.63
890.233	10053.28
890.55	10001.53
890.866	10036.56
891.182	9936.9
891.498	9908.2
891.815	9923.34
892.131	9890.12
892.447	9845.6
892.763	9774.19
893.079	9748.66
893.395	9690.35
893.71	9661.88
894.026	9697.13
894.342	9660.75
894.657	9641.54
894.973	9632.5
895.289	9605.83
895.604	9572.39
895.92	9474.31
896.235	9453.07
896.55	9479.06
896.865	9355.9
897.181	9370.36
897.496	9406.97
897.811	9340.98
898.126	9298.05
898.441	9304.83
898.756	9188.22
899.071	9194.55
899.386	9200.42
899.7	9086.3
900.015	9076.36
900.33	9049.47
900.644	9018.28
900.959	9031.61
901.273	8945.97
901.588	8996.36
901.902	8886.98
902.216	8891.28
902.531	8874.78
902.845	8874.78
903.159	8755.46
903.473	8789.59
903.787	8717.04
904.101	8610.83
904.415	8647.67
904.729	8645.63
905.042	8549.37
905.356	8535.35
905.67	8495.58
905.984	8519.99
906.297	8436.37
906.611	8457.84
906.924	8459.65
907.237	8424.62
907.551	8344.85
907.864	8297.62
908.177	8283.16
908.491	8216.49
908.804	8221.69
909.117	8157.06
909.43	8137.63
909.743	8020.11
910.056	8069.15
910.368	8051.98
910.681	7944.64
910.994	7922.49
911.307	7887.24
911.619	7777.41
911.932	7842.04
912.244	7804.3
912.557	7859.67
912.869	7787.35
913.181	7715.04
913.494	7768.14
913.806	7635.27
914.118	7660.35
914.43	7593.46
914.742	7611.31
915.054	7508.04
915.366	7492.67
915.678	7430.3
915.99	7404.99
916.302	7356.85
916.613	7341.71
916.925	7311.66
917.236	7407.93
917.548	7310.53
917.859	7272.34
918.171	7209.51
918.482	7209.74
918.794	7169.51
919.105	7142.17
919.416	7100.82
919.727	7089.97
920.038	7077.54
920.349	7021.95
920.66	7006.13
920.971	7013.13
921.282	6978.11
921.593	6939.01
921.903	6880.26
922.214	6837.32
922.525	6832.57
922.835	6821.05
923.146	6731.33
923.456	6731.56
923.767	6733.59
924.077	6730.66
924.387	6669.19
924.697	6620.38
925.008	6579.25
925.318	6570.21
925.628	6561.85
925.938	6540.83
926.248	6468.52
926.558	6393.94
926.867	6413.38
927.177	6414.51
927.487	6375.19
927.796	6320.95
928.106	6324.79
928.416	6278.46
928.725	6247.96
929.034	6273.04
929.344	6246.38
929.653	6214.96
929.962	6183.55
930.271	6168.64
930.581	6098.13
930.89	6083.67
931.199	6078.47
931.508	6000.51
931.817	6021.52
932.125	5997.12
932.434	5955.31
932.743	5966.38
933.051	5887.74
933.36	5811.13
933.669	5812.26
933.977	5844.58
934.286	5787.18
934.594	5769.55
934.902	5713.96
935.21	5702.43
935.519	5739.72
935.827	5663.79
936.135	5677.12
936.443	5611.14
936.751	5585.38
937.059	5595.77
937.367	5519.16
937.674	5553.29
937.982	5532.72
938.29	5491.37
938.597	5448.66
938.905	5424.93
939.213	5375.21
939.52	5309.22
939.827	5368.43
940.135	5358.04
940.442	5339.51
940.749	5279.17
941.056	5283.46
941.363	5215.89
941.67	5274.42
941.977	5247.98
942.284	5182.67
942.591	5158.72
942.898	5164.14
943.205	5102.9
943.511	5120.98
943.818	5081.43
944.125	5027.88
944.431	5016.8
944.738	5055.9
945.044	5024.71
945.35	4961.89
945.657	4952.4
945.963	4954.88
946.269	4935.22
946.575	4896.13
946.881	4878.5
947.187	4850.48
947.493	4782.46
947.799	4797.15
948.105	4767.54
948.41	4768
948.716	4773.42
949.022	4704.72
949.327	4695.46
949.633	4660.43
949.938	4641.9
950.244	4636.93
950.549	4581.11
950.854	4578.4
951.16	4605.74
951.465	4538.85
951.77	4527.78
952.075	4454.78
952.38	4516.93
952.685	4438.51
952.99	4462.69
953.294	4448.46
953.599	4450.49
953.904	4402.36
954.209	4344.05
954.513	4320.78
954.818	4313.32
955.122	4292.3
955.426	4290.27
955.731	4276.48
956.035	4286.2
956.339	4280.55
956.643	4266.09
956.948	4211.17
957.252	4189.48
957.556	4172.76
957.86	4156.26
958.163	4129.82
958.467	4130.5
958.771	4093.89
959.075	4095.92
959.378	4097.28
959.682	4030.84
959.985	4024.51
960.289	3973.44
960.592	3989.71
960.896	3948.81
961.199	3956.94
961.502	3970.95
961.805	3895.25
962.108	3927.79
962.411	3952.2
962.714	3891.63
963.017	3821.13
963.32	3853.9
963.623	3828.59
963.926	3835.14
964.228	3774.58
964.531	3758.76
964.833	3776.16
965.136	3689.61
965.438	3721.02
965.741	3670.4
966.043	3692.77
966.345	3687.8
966.648	3637.4
966.95	3656.39
967.252	3657.29
967.554	3623.62
967.856	3611.42
968.158	3558.99
968.46	3545.88
968.761	3537.75
969.063	3536.39
969.365	3509.5
969.666	3508.59
969.968	3451.42
970.269	3483.96
970.571	3492.78
970.872	3444.64
971.174	3390.41
971.475	3405.32
971.776	3395.6
972.077	3378.2
972.378	3373
972.679	3344.98
972.98	3346.11
973.281	3326.45
973.582	3317.64
973.883	3312.22
974.183	3291.88
974.484	3251.65
974.785	3264.31
975.085	3238.77
975.386	3264.08
975.686	3196.29
975.986	3196.51
976.287	3188.83
976.587	3163.74
976.887	3133.24
977.187	3148.38
977.487	3122.62
977.787	3111.77
978.087	3062.73
978.387	3079.9
978.687	3080.58
978.987	3037.42
979.286	3023.64
979.586	3023.64
979.885	2930.53
980.185	2987.25
980.484	3003.3
980.784	2992.22
981.083	2945.9
981.382	2917.42
981.682	2940.7
981.981	2947.03
982.28	2901.83
982.579	2897.76
982.878	2870.64
983.177	2898.89
983.475	2853.24
983.774	2854.83
984.073	2841.04
984.372	2803.75
984.67	2792
984.969	2773.47
985.267	2787.71
985.566	2760.14
985.864	2804.66
986.162	2750.65
986.461	2738.22
986.759	2714.26
987.057	2700.03
987.355	2692.57
987.653	2721.04
987.951	2646.24
988.249	2660.71
988.547	2639.69
988.844	2632.01
989.142	2643.98
989.44	2627.26
989.737	2618.45
990.035	2593.59
990.332	2585.23
990.63	2577.09
990.927	2540.71
991.224	2543.65
991.521	2541.16
991.819	2526.7
992.116	2500.03
992.413	2487.6
992.71	2465.91
993.006	2485.57
993.303	2491.67
993.6	2454.61
993.897	2453.71
994.193	2414.84
994.49	2432.92
994.787	2424.55
995.083	2357.89
995.379	2379.81
995.676	2387.72
995.972	2363.09
996.268	2352.01
996.565	2329.64
996.861	2324.9
997.157	2331.9
997.453	2306.82
997.749	2272.92
998.044	2279.93
998.34	2253.03
998.636	2246.48
998.932	2232.47
999.227	2217.1
999.523	2212.36
999.818	2218.23
1000.114	2181.17
1000.409	2179.14
1000.704	2176.2
1001	2168.52
1001.295	2143.88
1001.59	2147.73
1001.885	2134.39
1002.18	2120.83
1002.475	2099.14
1002.77	2095.98
1003.065	2074.28
1003.359	2046.26
1003.654	2109.08
1003.949	2045.36
1004.243	2017.11
1004.538	2046.94
1004.832	2033.83
1005.127	2005.13
1005.421	1976.88
1005.715	1984.34
1006.009	1963.55
1006.304	1960.39
1006.598	1968.97
1006.892	1917.9
1007.186	1886.04
1007.48	1897.79
1007.773	1916.77
1008.067	1907.28
1008.361	1878.13
1008.655	1853.04
1008.948	1831.58
1009.242	1860.73
1009.535	1831.8
1009.829	1844.91
1010.122	1816.89
1010.415	1803.33
1010.708	1781.41
1011.001	1783.67
1011.295	1785.93
1011.588	1747.06
1011.881	1777.57
1012.173	1739.38
1012.466	1704.8
1012.759	1695.08
1013.052	1731.92
1013.344	1716.55
1013.637	1697.79
1013.93	1692.37
1014.222	1681.07
1014.514	1664.57
1014.807	1666.61
1015.099	1653.28
1015.391	1643.11
1015.683	1608.76
1015.976	1625.25
1016.268	1630.9
1016.56	1614.41
1016.851	1577.8
1017.143	1586.61
1017.435	1577.57
1017.727	1560.85
1018.018	1541.19
1018.31	1526.95
1018.602	1504.58
1018.893	1529.66
1019.185	1531.47
1019.476	1520.17
1019.767	1499.61
1020.058	1475.65
1020.35	1483.11
1020.641	1473.17
1020.932	1430.23
1021.223	1426.84
1021.514	1423.9
1021.804	1411.25
1022.095	1406.5
1022.386	1417.35
1022.677	1392.04
1022.967	1380.97
1023.258	1387.07
1023.548	1363.57
1023.839	1352.04
1024.129	1341.65
1024.419	1337.13
1024.709	1339.16
1025	1316.79
1025.29	1324.92
1025.58	1297.13
1025.87	1299.16
1026.16	1287.86
1026.449	1293.29
1026.739	1283.57
1027.029	1263
1027.319	1274.75
1027.608	1247.64
1027.898	1250.57
1028.187	1246.05
1028.477	1252.83
1028.766	1227.3
1029.055	1185.27
1029.344	1184.36
1029.634	1166.51
1029.923	1173.29
1030.212	1175.55
1030.501	1162.67
1030.79	1154.08
1031.078	1140.97
1031.367	1126.28
1031.656	1166.51
1031.945	1137.58
1032.233	1115.44
1032.522	1120.86
1032.81	1116.11
1033.099	1125.61
1033.387	1090.13
1033.675	1109.56
1033.963	1085.38
1034.251	1082.22
1034.54	1076.34
1034.828	1052.39
1035.116	1046.96
1035.403	1060.52
1035.691	1036.12
1035.979	1055.55
1036.267	1028.43
1036.554	1001.32
1036.842	997.7
1037.129	997.25
1037.417	1014.42
1037.704	1008.09
1037.992	1013.07
1038.279	983.24
1038.566	996.12
1038.853	996.12
1039.14	996.12
