Data from hue_210_FLMS001491_00004.txt Node
Date: Tue Feb 07 16:40:40 GMT 2017
User: dcchb
Spectrometer: FLMS00149
Trigger mode: 0
Integration Time (sec): 2.000000E-2
Scans to average: 10
Electric dark correction enabled: true
Nonlinearity correction enabled: false
Boxcar width: 0
XAxis mode: Wavelengths
Number of Pixels in Spectrum: 2048
>>>>>Begin Spectral Data<<<<<
341.393	2.94
341.776	2.94
342.16	2.94
342.543	-57.63
342.927	-63.28
343.31	-52.43
343.693	-63.05
344.077	-55.14
344.46	-43.39
344.843	-68.92
345.226	-38.42
345.61	-40
345.993	-17.85
346.376	-14.01
346.759	9.04
347.142	35.25
347.525	25.54
347.908	69.15
348.291	65.08
348.674	95.82
349.057	93.33
349.44	125.42
349.823	145.08
350.206	145.76
350.588	184.18
350.971	208.36
351.354	217.4
351.737	220.56
352.119	250.84
352.502	237.73
352.884	258.07
353.267	261.24
353.65	289.71
354.032	298.52
354.414	306.43
354.797	319.54
355.179	312.99
355.562	330.16
355.944	308.01
356.326	337.62
356.709	319.54
357.091	338.75
357.473	331.52
357.855	350.5
358.238	328.58
358.62	342.14
359.002	340.78
359.384	330.84
359.766	334.68
360.148	327.9
360.53	326.77
360.912	332.65
361.294	341.23
361.676	334.45
362.057	328.13
362.439	310.27
362.821	324.96
363.203	325.42
363.584	341.69
363.966	325.19
364.348	314.34
364.729	321.12
365.111	324.29
365.493	312.76
365.874	341.91
366.256	321.57
366.637	294.46
367.019	305.75
367.4	302.59
367.781	317.73
368.163	305.3
368.544	306.66
368.925	313.66
369.306	330.16
369.688	313.89
370.069	304.62
370.45	327.68
370.831	297.62
371.212	317.28
371.593	305.53
371.974	314.34
372.355	325.19
372.736	312.08
373.117	294.46
373.498	317.73
373.879	301.69
374.26	287.45
374.641	302.36
375.021	292.65
375.402	305.08
375.783	311.86
376.163	328.35
376.544	319.54
376.925	327.68
377.305	330.39
377.686	324.96
378.066	340.33
378.447	332.19
378.827	330.16
379.208	305.53
379.588	323.61
379.968	326.32
380.349	331.74
380.729	302.59
381.109	322.03
381.489	344.4
381.87	311.18
382.25	349.82
382.63	335.58
383.01	345.3
383.39	336.71
383.77	319.54
384.15	359.76
384.53	350.73
384.91	361.57
385.29	347.56
385.67	327.9
386.049	370.61
386.429	357.5
386.809	372.87
387.189	358.18
387.568	356.15
387.948	352.08
388.328	350.05
388.707	367.45
389.087	359.09
389.466	381.68
389.846	351.18
390.225	351.18
390.605	352.31
390.984	363.61
391.363	366.77
391.743	384.17
392.122	374.45
392.501	364.28
392.881	367.45
393.26	371.52
393.639	363.83
394.018	384.85
394.397	399.99
394.776	376.04
395.155	391.63
395.534	406.54
395.913	394.57
396.292	419.42
396.671	392.31
397.05	398.18
397.429	395.7
397.808	390.95
398.186	395.47
398.565	408.8
398.944	412.19
399.323	385.3
399.701	418.29
400.08	417.84
400.458	423.94
400.837	435.02
401.215	442.02
401.594	407.45
401.972	423.04
402.351	448.12
402.729	431.63
403.107	440.21
403.486	423.04
403.864	435.47
404.242	438.86
404.62	435.47
404.999	440.89
405.377	451.51
405.755	454
406.133	459.2
406.511	456.94
406.889	496.26
407.267	491.74
407.645	479.31
408.023	473.66
408.401	486.54
408.779	493.32
409.156	511.62
409.534	524.05
409.912	499.65
410.29	538.06
410.667	546.65
411.045	543.49
411.422	564.5
411.8	555.69
412.178	578.74
412.555	580.32
412.933	559.76
413.31	585.3
413.687	608.35
414.065	606.09
414.442	628.01
414.819	647.67
415.197	620.77
415.574	637.72
415.951	678.63
416.328	659.42
416.705	654.67
417.082	682.47
417.46	672.07
417.837	707.78
418.214	697.38
418.591	717.95
418.967	732.18
419.344	757.04
419.721	749.13
420.098	780.09
420.475	766.99
420.852	765.63
421.228	782.8
421.605	799.3
421.982	807.21
422.358	825.06
422.735	824.61
423.111	855.57
423.488	893.76
423.864	911.84
424.241	891.95
424.617	894.67
424.994	933.99
425.37	928.56
425.746	945.06
426.123	980.09
426.499	984.83
426.875	1013.53
427.251	1013.76
427.627	1028.67
428.003	1037.26
428.379	1043.59
428.756	1073.42
429.132	1078.16
429.507	1095.11
429.883	1104.38
430.259	1123.13
430.635	1123.81
431.011	1145.73
431.387	1150.25
431.763	1197.71
432.138	1162
432.514	1211.95
432.89	1231.61
433.265	1273.64
433.641	1265.05
434.016	1288.78
434.392	1326.97
434.767	1341.66
435.143	1337.14
435.518	1412.62
435.894	1413.3
436.269	1447.87
436.644	1468.89
437.02	1500.53
437.395	1488.1
437.77	1522.22
438.145	1558.15
438.52	1617.81
438.895	1631.82
439.271	1620.07
439.646	1643.8
440.021	1683.35
440.395	1719.28
440.77	1705.04
441.145	1709.33
441.52	1764.02
441.895	1786.39
442.27	1817.13
442.645	1806.96
443.019	1865.94
443.394	1855.32
443.769	1866.84
444.143	1855.09
444.518	1942.1
444.892	1921.98
445.267	1933.96
445.641	1961.08
446.016	1966.5
446.39	1983.9
446.764	2036.56
447.139	2004.69
447.513	2037.01
447.887	2028.2
448.262	2059.15
448.636	2072.49
449.01	2095.99
449.384	2141.19
449.758	2150.45
450.132	2164.91
450.506	2152.03
450.88	2189.77
451.254	2200.62
451.628	2218.92
452.002	2244.69
452.376	2244.01
452.75	2305.02
453.123	2310.9
453.497	2344.57
453.871	2393.16
454.244	2376.21
454.618	2411.91
454.992	2441.97
455.365	2450.33
455.739	2522.65
456.112	2524.91
456.486	2557.9
456.859	2570.55
457.232	2592.02
457.606	2635.64
457.979	2635.64
458.352	2702.98
458.725	2780.94
459.099	2747.95
459.472	2798.12
459.845	2836.08
460.218	2841.73
460.591	2867.72
460.964	2877.44
461.337	2935.29
461.71	2977.32
462.083	2968.51
462.456	3019.36
462.829	3030.43
463.201	3090.99
463.574	3104.55
463.947	3168.73
464.32	3236.75
464.692	3276.75
465.065	3225.68
465.438	3311.33
465.81	3344.09
466.183	3378.89
466.555	3403.07
466.928	3462.73
467.3	3461.38
467.672	3522.39
468.045	3613.92
468.417	3608.72
468.789	3652.33
469.161	3671.54
469.534	3697.08
469.906	3788.6
470.278	3830.63
470.65	3835.38
471.022	3964.42
471.394	4027.92
471.766	4009.16
472.138	4040.57
472.51	4128.93
472.882	4166.67
473.253	4223.62
473.625	4281.92
473.997	4356.04
474.369	4401.69
474.74	4424.29
475.112	4514.01
475.484	4584.06
475.855	4629.03
476.227	4670.84
476.598	4789.03
476.97	4824.51
477.341	4907.22
477.713	4980.89
478.084	4993.54
478.455	5136.59
478.827	5165.51
479.198	5291.61
479.569	5285.06
479.94	5431.04
480.311	5449.57
480.682	5553.98
481.053	5683.24
481.424	5768.89
481.795	5774.99
482.166	5841.65
482.537	5890.01
482.908	5968.2
483.279	6075.55
483.65	6161.87
484.021	6248.88
484.391	6364.13
484.762	6402.32
485.133	6484.58
485.503	6516.89
485.874	6650.9
486.244	6724.79
486.615	6762.08
486.985	6874.17
487.356	6931.57
487.726	7003.88
488.097	7138.12
488.467	7104.67
488.837	7277.55
489.207	7301.05
489.578	7468.96
489.948	7442.52
490.318	7567.94
490.688	7591.66
491.058	7698.55
491.428	7784.88
491.798	7858.1
492.168	8057.19
492.538	8010.41
492.908	8043.63
493.278	8157.75
493.648	8112.33
494.017	8219.44
494.387	8258.99
494.757	8331.31
495.126	8421.02
495.496	8422.6
495.866	8491.98
496.235	8573.79
496.605	8616.72
496.974	8639.55
497.344	8739.88
497.713	8746.44
498.082	8751.86
498.452	8879.54
498.821	8821.24
499.19	8880.9
499.559	8979.65
499.928	9013.32
500.298	9054.9
500.667	9061.46
501.036	9043.15
501.405	9155.69
501.774	9148.46
502.143	9165.41
502.512	9178.06
502.88	9237.05
503.249	9283.82
503.618	9315.91
503.987	9275.46
504.356	9312.75
504.724	9381.22
505.093	9454.89
505.462	9472.52
505.83	9446.08
506.199	9520.88
506.567	9585.28
506.936	9532.63
507.304	9657.37
507.672	9640.65
508.041	9670.71
508.409	9692.4
508.777	9767.43
509.145	9853.3
509.514	9713.19
509.882	9802.45
510.25	9814.66
510.618	9845.84
510.986	9761.55
511.354	9893.53
511.722	9947.31
512.09	9990.7
512.458	9895.78
512.826	9978.27
513.193	9999.29
513.561	10057.36
513.929	10030.24
514.297	10166.96
514.664	10098.94
515.032	10068.66
515.4	10098.72
515.767	10122.9
516.135	10134.65
516.502	10132.39
516.869	10203.35
517.237	10214.42
517.604	10089.68
517.972	10157.7
518.339	10183.91
518.706	10203.8
519.073	10183.46
519.44	10222.33
519.808	10311.82
520.175	10298.94
520.542	10240.18
520.909	10238.6
521.276	10272.27
521.643	10343.91
522.009	10349.11
522.376	10365.38
522.743	10290.35
523.11	10412.83
523.477	10402.89
523.843	10450.8
524.21	10470.69
524.577	10537.35
524.943	10458.03
525.31	10508.42
525.676	10520.63
526.043	10590.91
526.409	10578.48
526.776	10550.01
527.142	10637.01
527.508	10567.86
527.874	10572.83
528.241	10620.51
528.607	10541.42
528.973	10654.18
529.339	10536.22
529.705	10528.76
530.071	10600.17
530.437	10547.97
530.803	10613.73
531.169	10607.18
531.535	10501.42
531.901	10546.16
532.267	10559.27
532.632	10556.33
532.998	10523.57
533.364	10492.61
533.73	10506.84
534.095	10510.46
534.461	10505.49
534.826	10472.04
535.192	10453.51
535.557	10490.8
535.923	10426.62
536.288	10414.42
536.653	10470.91
537.019	10294.42
537.384	10338.94
537.749	10317.47
538.114	10301.42
538.479	10269.56
538.845	10212.61
539.21	10141.43
539.575	10127.19
539.94	10160.41
540.305	10146.63
540.67	10130.58
541.034	10093.75
541.399	10110.24
541.764	10069.57
542.129	10060.3
542.494	10025.27
542.858	9953.18
543.223	9957.7
543.587	9963.81
543.952	9857.14
544.316	9877.93
544.681	9827.54
545.045	9817.82
545.41	9789.57
545.774	9785.28
546.138	9737.37
546.503	9687.2
546.867	9655.79
547.231	9610.14
547.595	9603.36
547.959	9689.46
548.324	9623.48
548.688	9541.22
549.052	9554.33
549.416	9478.39
549.779	9489.47
550.143	9436.59
550.507	9555.45
550.871	9447.66
551.235	9357.49
551.599	9395.01
551.962	9384.84
552.326	9341.9
552.689	9303.48
553.053	9192.98
553.417	9270.04
553.78	9337.83
554.143	9207.89
554.507	9271.39
554.87	9204.96
555.234	9256.48
555.597	9145.75
555.96	9116.82
556.323	9145.75
556.686	9094.22
557.05	9167.22
557.413	9133.77
557.776	9122.7
558.139	9125.41
558.502	9111.85
558.865	9049.93
559.228	9072.3
559.59	9064.17
559.953	9079.54
560.316	9159.76
560.679	9076.6
561.041	9077.5
561.404	9109.82
561.767	9108.91
562.129	9043.83
562.492	9112.08
562.854	9052.42
563.217	9066.2
563.579	9082.7
563.941	9079.08
564.304	9082.25
564.666	9054.23
565.028	9094.68
565.39	9096.03
565.753	9144.62
566.115	9163.83
566.477	9160.66
566.839	9084.51
567.201	9149.82
567.563	9143.49
567.925	9228.91
568.287	9163.83
568.648	9162.47
569.01	9199.98
569.372	9267.78
569.734	9181.45
570.095	9248.34
570.457	9238.18
570.819	9227.78
571.18	9143.04
571.542	9301.9
571.903	9306.87
572.265	9297.16
572.626	9303.71
572.987	9286.31
573.349	9337.38
573.71	9365.63
574.071	9316.82
574.432	9406.31
574.794	9386.87
575.155	9354.33
575.516	9267.1
575.877	9421.9
576.238	9440.66
576.599	9405.85
576.96	9435.68
577.32	9348
577.681	9422.58
578.042	9493.54
578.403	9455.34
578.763	9430.03
579.124	9490.82
579.485	9555.45
579.845	9501.67
580.206	9501.22
580.566	9494.44
580.927	9510.03
581.287	9526.08
581.648	9508
582.008	9580.09
582.368	9567.43
582.728	9600.65
583.089	9579.86
583.449	9620.09
583.809	9589.13
584.169	9702.8
584.529	9646.3
584.889	9730.14
585.249	9577.6
585.609	9615.57
585.969	9592.06
586.329	9622.57
586.688	9647.88
587.048	9668.45
587.408	9695.34
587.768	9641.1
588.127	9616.92
588.487	9678.84
588.846	9684.04
589.206	9649.01
589.565	9604.72
589.925	9688.78
590.284	9637.49
590.643	9734.43
591.003	9764.04
591.362	9753.19
591.721	9710.25
592.08	9756.58
592.44	9784.15
592.799	9782.79
593.158	9706.86
593.517	9742.57
593.876	9765.84
594.235	9720.2
594.593	9738.28
594.952	9722.23
595.311	9743.92
595.67	9779.18
596.029	9839.74
596.387	9811.95
596.746	9807.2
597.104	9790.03
597.463	9722.23
597.822	9798.39
598.18	9763.59
598.538	9835.67
598.897	9833.19
599.255	9755.68
599.613	9914.09
599.972	9837.71
600.33	9835.9
600.688	9807.88
601.046	9846.07
601.404	9851.94
601.762	9844.03
602.12	9877.93
602.478	9858.05
602.836	9896.91
603.194	9880.64
603.552	9895.11
603.91	9871.38
604.268	9897.37
604.625	9833.41
604.983	9872.73
605.341	9821.89
605.698	9867.99
606.056	9938.5
606.413	9806.3
606.771	9937.82
607.128	9912.28
607.485	9923.58
607.843	9917.48
608.2	9924.48
608.557	9982.11
608.914	9938.04
609.272	10067.76
609.629	9923.81
609.986	10021.66
610.343	9943.02
610.7	9992.96
611.057	10086.97
611.414	10022.34
611.771	9958.38
612.127	10063.92
612.484	10014.43
612.841	10035.44
613.198	9976.69
613.554	9951.15
613.911	10140.52
614.267	10046.52
614.624	10105.72
614.98	10086.06
615.337	10080.86
615.693	10130.36
616.05	10072.05
616.406	10093.07
616.762	10126.97
617.118	10117.7
617.475	10067.08
617.831	10111.82
618.187	10072.05
618.543	10170.58
618.899	10171.71
619.255	10085.84
619.611	10185.72
619.967	10178.72
620.323	10206.06
620.678	10167.19
621.034	10123.58
621.39	10144.37
621.746	10134.2
622.101	10282.44
622.457	10138.94
622.812	10181.65
623.168	10211.71
623.523	10194.76
623.879	10180.07
624.234	10115.89
624.589	10234.99
624.945	10240.63
625.3	10204.7
625.655	10097.14
626.01	10217.58
626.365	10160.18
626.72	10125.61
627.075	10170.81
627.43	10103.01
627.785	10155.89
628.14	10134.87
628.495	10164.7
628.85	10095.55
629.205	10086.74
629.559	10154.31
629.914	10105.27
630.269	10148.43
630.623	10123.12
630.978	10043.35
631.332	10108.43
631.687	10088.55
632.041	10040.87
632.396	10126.29
632.75	9961.32
633.104	10004.93
633.459	10035.44
633.813	9910.25
634.167	9974.2
634.521	10025.05
634.875	9987.76
635.229	10045.16
635.583	9886.75
635.937	9919.51
636.291	9922.68
636.645	9868.44
636.999	9859.4
637.352	9889.91
637.706	9804.71
638.06	9854.88
638.413	9825.73
638.767	9820.31
639.121	9764.04
639.474	9780.31
639.828	9788.9
640.181	9796.13
640.534	9798.84
640.888	9749.57
641.241	9709.12
641.594	9704.15
641.947	9782.79
642.301	9728.56
642.654	9706.64
643.007	9731.72
643.36	9691.95
643.713	9627.32
644.066	9691.04
644.419	9660.08
644.771	9634.55
645.124	9523.59
645.477	9505.29
645.83	9490.37
646.182	9465.97
646.535	9386.19
646.888	9389.58
647.24	9304.84
647.593	9387.1
647.945	9298.29
648.298	9306.87
648.65	9319.53
649.002	9262.81
649.355	9331.96
649.707	9349.58
650.059	9373.31
650.411	9501.45
650.763	9481.78
651.115	9628.22
651.467	9632.06
651.819	9574.89
652.171	9525.85
652.523	9580.77
652.875	9571.5
653.227	9477.94
653.578	9595.68
653.93	9497.38
654.282	9517.26
654.633	9439.3
654.985	9564.27
655.337	9591.61
655.688	9606.08
656.039	9559.75
656.391	9514.55
656.742	9533.08
657.094	9552.97
657.445	9615.34
657.796	9575.12
658.147	9595.68
658.498	9498.28
658.849	9543.25
659.2	9596.58
659.551	9524.27
659.902	9587.32
660.253	9537.15
660.604	9525.85
660.955	9547.77
661.306	9551.84
661.656	9612.85
662.007	9618.28
662.358	9652.18
662.708	9601.1
663.059	9568.34
663.409	9601.1
663.76	9669.35
664.11	9574.21
664.461	9581.89
664.811	9583.02
665.161	9593.87
665.511	9620.54
665.862	9586.87
666.212	9693.76
666.562	9685.4
666.912	9540.99
667.262	9611.27
667.612	9580.09
667.962	9592.29
668.312	9536.7
668.662	9642.46
669.011	9641.1
669.361	9592.29
669.711	9565.85
670.06	9598.39
670.41	9558.17
670.76	9500.54
671.109	9559.97
671.459	9479.52
671.808	9594.78
672.157	9517.26
672.507	9523.37
672.856	9530.82
673.205	9497.83
673.554	9495.12
673.904	9539.64
674.253	9489.69
674.602	9562.46
674.951	9363.6
675.3	9375.57
675.649	9479.3
675.998	9506.64
676.346	9503.93
676.695	9579.41
677.044	9435.23
677.393	9452.18
677.741	9359.98
678.09	9364.5
678.438	9364.5
678.787	9360.66
679.135	9385.52
679.484	9307.1
679.832	9334.67
680.181	9353.43
680.529	9299.87
680.877	9313.65
681.225	9307.1
681.573	9290.83
681.922	9238.63
682.27	9160.89
682.618	9181.45
682.966	9215.35
683.314	9208.35
683.661	9167.44
684.009	9116.6
684.357	9134.45
684.705	9134.22
685.053	9079.76
685.4	9098.29
685.748	8997.5
686.095	9049.71
686.443	8964.96
686.79	8977.17
687.138	9014
687.485	8980.78
687.832	8917.73
688.18	8903.72
688.527	8855.59
688.874	8853.33
689.221	8824.17
689.568	8754.57
689.915	8734.46
690.262	8819.2
690.609	8756.61
690.956	8708.02
691.303	8680.45
691.65	8609.72
691.997	8694.23
692.344	8522.04
692.69	8543.28
693.037	8580.57
693.383	8485.88
693.73	8432.09
694.077	8394.81
694.423	8451.3
694.769	8356.84
695.116	8423.73
695.462	8318.2
695.808	8331.98
696.155	8290.86
696.501	8227.81
696.847	8212.21
697.193	8161.82
697.539	8213.12
697.885	8177.86
698.231	8151.88
698.577	8131.99
698.923	8096.06
699.269	8101.03
699.614	8013.57
699.96	8003.63
700.306	8000.24
700.651	7958.43
700.997	7875.5
701.342	7866.91
701.688	7880.47
702.033	7851.77
702.379	7820.13
702.724	7737.2
703.069	7797.54
703.415	7649.06
703.76	7651.78
704.105	7729.06
704.45	7663.98
704.795	7637.99
705.14	7562.96
705.485	7545.11
705.83	7574.04
706.175	7551.21
706.52	7533.81
706.865	7492.46
707.209	7476.87
707.554	7446.36
707.899	7460.14
708.243	7395.51
708.588	7398
708.932	7327.72
709.277	7334.72
709.621	7334.27
709.966	7313.48
710.31	7286.59
710.654	7234.61
710.998	7207.72
711.342	7225.57
711.687	7164.78
712.031	7128.85
712.375	7143.54
712.719	7156.2
713.063	7080.49
713.407	7175.63
713.75	7141.96
714.094	7102.19
714.438	7067.16
714.782	7066.71
715.125	7006.14
715.469	7056.31
715.812	7022.64
716.156	6979.7
716.499	7000.49
716.843	7032.36
717.186	6974.28
717.53	6963.21
717.873	7004.34
718.216	6994.84
718.559	6916.88
718.902	6950.33
719.246	6877.79
719.589	6853.83
719.932	6885.02
720.275	6835.98
720.617	6854.96
720.96	6822.87
721.303	6831.68
721.646	6817.45
721.989	6724.34
722.331	6761.18
722.674	6739.94
723.016	6824.23
723.359	6761.63
723.701	6761.63
724.044	6777.9
724.386	6723.67
724.729	6772.7
725.071	6750.78
725.413	6748.3
725.755	6773.38
726.097	6665.81
726.439	6678.02
726.782	6637.57
727.124	6772.93
727.465	6687.96
727.807	6698.81
728.149	6673.95
728.491	6588.08
728.833	6678.02
729.175	6660.16
729.516	6653.84
729.858	6638.47
730.199	6644.12
730.541	6647.06
730.882	6634.4
731.224	6686.38
731.565	6663.1
731.906	6652.48
732.248	6612.03
732.589	6543.56
732.93	6610.67
733.271	6614.29
733.612	6641.18
733.953	6682.54
734.294	6611.58
734.635	6573.84
734.976	6608.19
735.317	6584.46
735.658	6624.46
735.999	6669.2
736.339	6655.19
736.68	6703.78
737.021	6635.98
737.361	6635.53
737.702	6701.07
738.042	6636.66
738.383	6652.03
738.723	6711.01
739.063	6645.93
739.404	6730.22
739.744	6726.38
740.084	6724.57
740.424	6722.76
740.764	6654.29
741.104	6785.36
741.444	6779.48
741.784	6786.26
742.124	6842.76
742.464	6810.44
742.804	6823.32
743.143	6817
743.483	6812.02
743.823	6840.72
744.162	6854.74
744.502	6921.17
744.841	6883.66
745.181	6931.8
745.52	6949.65
745.86	7003.43
746.199	7051.57
746.538	7088.85
746.877	7146.48
747.216	7179.92
747.556	7204.78
747.895	7277.77
748.234	7295.4
748.573	7341.05
748.911	7406.58
749.25	7415.85
749.589	7539.24
749.928	7584.66
750.267	7655.39
750.605	7620.59
750.944	7724.77
751.283	7800.7
751.621	7883.41
751.96	7936.74
752.298	8095.61
752.636	8218.77
752.975	8169.28
753.313	8282.72
753.651	8441.81
753.989	8503.73
754.327	8659.43
754.666	8738.75
755.004	8839.77
755.342	9006.54
755.679	9067.11
756.017	9189.14
756.355	9444.27
756.693	9558.39
757.031	9692.17
757.368	9768.78
757.706	9931.49
758.044	10068.89
758.381	10237.92
758.719	10406.28
759.056	10536.45
759.394	10735.99
759.731	10847.4
760.068	11054.62
760.405	11255.52
760.743	11373.71
761.08	11567.38
761.417	11658
761.754	11933.92
762.091	12066.58
762.428	12210.07
762.765	12351.31
763.102	12594.25
763.438	12684.41
763.775	12973.44
764.112	13107.9
764.449	13264.28
764.785	13308.12
765.122	13518.06
765.458	13680.32
765.795	13917.83
766.131	14050.93
766.467	14219.97
766.804	14471.94
767.14	14446.63
767.476	14733.4
767.812	14779.05
768.148	14986.5
768.485	15080.96
768.821	15210.22
769.157	15442.08
769.492	15565.92
769.828	15736.76
770.164	15735.41
770.5	15866.48
770.836	16038.22
771.171	16071.67
771.507	16266.46
771.842	16231.89
772.178	16372.22
772.513	16520.92
772.849	16658.77
773.184	16757.53
773.519	16800.91
773.855	16893.57
774.19	16942.83
774.525	17011.76
774.86	17215.82
775.195	17246.33
775.53	17341.69
775.865	17322.03
776.2	17302.6
776.535	17435.47
776.87	17491.97
777.205	17493.78
777.539	17589.14
777.874	17756.82
778.209	17692.64
778.543	17792.07
778.878	17789.81
779.212	17843.82
779.547	17714.79
779.881	17903.26
780.215	17886.76
780.55	17917.49
780.884	17962.69
781.218	17967.66
781.552	18083.14
781.886	18052.18
782.22	17952.07
782.554	18001.11
782.888	17883.37
783.222	17982.8
783.556	17963.14
783.889	17926.99
784.223	17886.54
784.557	17943.03
784.89	17901
785.224	17946.19
785.557	17886.99
785.891	17836.82
786.224	18004.95
786.558	17987.1
786.891	17822.36
787.224	17760.89
787.557	17866.65
787.891	17879.98
788.224	17828.46
788.557	17815.58
788.89	17973.99
789.223	17866.2
789.556	17802.24
789.888	17719.99
790.221	17794.11
790.554	17768.12
790.887	17635.24
791.219	17674.79
791.552	17632.53
791.884	17541.46
792.217	17513.89
792.549	17577.39
792.882	17503.72
793.214	17443.61
793.546	17525.41
793.879	17309.6
794.211	17319.32
794.543	17449.94
794.875	17343.95
795.207	17476.83
795.539	17334.01
795.871	17376.72
796.203	17148.02
796.535	17165.42
796.867	17155.03
797.198	17015.15
797.53	17117.97
797.862	17020.34
798.193	16960.23
798.525	16890.4
798.856	16925.2
799.188	16868.03
799.519	16733.57
799.85	16645.89
800.182	16721.14
800.513	16699
800.844	16636.4
801.175	16723.85
801.506	16694.7
801.837	16565.89
802.168	16513.92
802.499	16571.54
802.83	16513.69
803.161	16444.09
803.491	16392.56
803.822	16464.65
804.153	16340.14
804.483	16234.6
804.814	16212.91
805.145	16163.64
805.475	16257.43
805.805	16045
806.136	16105.57
806.466	16155.96
806.796	16041.61
807.126	16040.26
807.457	15995.06
807.787	15969.52
808.117	15878.9
808.447	15780.83
808.777	15853.37
809.107	15849.98
809.436	15692.92
809.766	15784.67
810.096	15653.15
810.426	15778.79
810.755	15737.44
811.085	15722.75
811.414	15595.07
811.744	15565.92
812.073	15496.99
812.403	15511.68
812.732	15374.29
813.061	15485.02
813.39	15351.69
813.719	15331.8
814.049	15366.15
814.378	15339.03
814.707	15252.48
815.036	15293.84
815.365	15250.22
815.693	15118.25
816.022	15161.18
816.351	15162.09
816.68	14970.68
817.008	15046.38
817.337	14971.13
817.665	14899.5
817.994	14995.54
818.322	14944.24
818.651	14866.73
818.979	14798.03
819.307	14908.76
819.636	14958.48
819.964	14844.81
820.292	14869.89
820.62	14833.51
820.948	14829.89
821.276	14888.65
821.604	14828.99
821.932	14821.53
822.259	14816.79
822.587	14756.9
822.915	14765.71
823.243	14850.46
823.57	14799.16
823.898	14787.18
824.225	14792.83
824.553	14725.71
824.88	14769.1
825.207	14786.73
825.535	14798.03
825.862	14857.69
826.189	14805.03
826.516	14866.73
826.843	14880.06
827.17	14800.29
827.497	14870.12
827.824	14840.06
828.151	14851.13
828.478	14849.1
828.805	14890.91
829.131	14824.69
829.458	14856.11
829.785	14729.33
830.111	14712.61
830.438	14928.65
830.764	14862.66
831.09	14915.99
831.417	14807.52
831.743	14783.11
832.069	14824.92
832.395	14756.45
832.722	14803.68
833.048	14701.08
833.374	14795.32
833.7	14702.44
834.026	14780.4
834.351	14753.28
834.677	14727.07
835.003	14764.13
835.329	14677.81
835.654	14773.17
835.98	14605.49
836.306	14611.37
836.631	14546.74
836.956	14631.25
837.282	14591.25
837.607	14582.89
837.932	14480.52
838.258	14447.98
838.583	14545.61
838.908	14414.99
839.233	14581.54
839.558	14403.24
839.883	14371.83
840.208	14335.89
840.533	14346.74
840.858	14367.98
841.182	14380.86
841.507	14274.43
841.832	14271.04
842.156	14195.78
842.481	14174.99
842.805	14151.49
843.13	14157.82
843.454	14128.44
843.778	14078.73
844.103	13952.63
844.427	13993.08
844.751	14026.3
845.075	13984.49
845.399	13878.96
845.723	13842.12
846.047	13864.95
846.371	13736.81
846.695	13690.04
847.019	13606.2
847.343	13550.15
847.666	13486.65
847.99	13454.34
848.313	13429.93
848.637	13386.77
848.96	13324.17
849.284	13326.43
849.607	13155.81
849.931	13176.38
850.254	13020.22
850.577	13031.07
850.9	12945.2
851.223	12935.25
851.546	12883.96
851.869	12796.95
852.192	12921.47
852.515	12732.09
852.838	12687.8
853.161	12685.09
853.483	12665.66
853.806	12535.04
854.129	12550.4
854.451	12456.62
854.774	12485.55
855.096	12345.44
855.419	12324.2
855.741	12371.65
856.063	12202.62
856.385	12272.22
856.708	12166.91
857.03	12159.23
857.352	12123.75
857.674	12010.08
857.996	12003.07
858.318	12007.37
858.64	12037.42
858.961	11976.18
859.283	11878.78
859.605	11846.02
859.926	11881.95
860.248	11806.7
860.57	11793.59
860.891	11804.44
861.212	11701.84
861.534	11671.78
861.855	11664.55
862.176	11624.78
862.498	11696.42
862.819	11708.17
863.14	11573.93
863.461	11628.62
863.782	11555.4
864.103	11584.33
864.424	11541.62
864.745	11580.26
865.065	11477.89
865.386	11377.55
865.707	11417.78
866.027	11387.95
866.348	11415.52
866.668	11360.83
866.989	11345.01
867.309	11341.4
867.63	11269.31
867.95	11280.38
868.27	11270.21
868.59	11235.18
868.91	11329.19
869.23	11229.76
869.55	11177.33
869.87	11186.37
870.19	11234.73
870.51	11253.04
870.83	11178.92
871.15	11122.87
871.469	11121.29
871.789	11081.74
872.109	11065.7
872.428	11041.07
872.748	11013.72
873.067	11104.79
873.386	11051.46
873.706	11014.4
874.025	10929.43
874.344	10904.12
874.663	11004.68
874.982	10890.11
875.301	10866.38
875.62	10902.09
875.939	10895.98
876.258	10802.2
876.577	10833.61
876.896	10815.08
877.214	10742.32
877.533	10793.16
877.852	10738.47
878.17	10714.97
878.489	10742.54
878.807	10663.22
879.125	10639.49
879.444	10742.99
879.762	10677.46
880.08	10582.55
880.398	10529.89
880.716	10555.88
881.034	10541.19
881.352	10490.12
881.67	10545.03
881.988	10518.14
882.306	10480.4
882.624	10406.96
882.941	10362.21
883.259	10326.96
883.577	10365.6
883.894	10354.53
884.212	10335.77
884.529	10325.38
884.846	10354.3
885.164	10267.98
885.481	10225.72
885.798	10289.22
886.115	10110.92
886.432	10147.08
886.75	10072.28
887.067	10062.56
887.383	10040.64
887.7	10102.79
888.017	10030.7
888.334	10050.36
888.651	10004.71
888.967	9969.91
889.284	9968.78
889.6	9910.47
889.917	9800.42
890.233	9818.72
890.55	9848.55
890.866	9807.2
891.182	9782.57
891.498	9719.97
891.815	9781.21
892.131	9707.77
892.447	9689.91
892.763	9588
893.079	9599.07
893.395	9506.19
893.71	9565.85
894.026	9531.95
894.342	9505.96
894.657	9462.12
894.973	9421.45
895.289	9350.49
895.604	9317.72
895.92	9246.99
896.235	9249.7
896.55	9260.55
896.865	9193.88
897.181	9160.89
897.496	9192.07
897.811	9126.09
898.126	9078.18
898.441	9036.37
898.756	9062.59
899.071	8988.01
899.386	8993.89
899.7	8897.17
900.015	8840.22
900.33	8801.35
900.644	8766.32
900.959	8903.95
901.273	8765.19
901.588	8691.52
901.902	8685.2
902.216	8695.36
902.531	8627.8
902.845	8610.85
903.159	8592.32
903.473	8518.42
903.787	8492.66
904.101	8493.56
904.415	8467.35
904.729	8415.15
905.042	8360.91
905.356	8332.21
905.67	8300.57
905.984	8310.97
906.297	8257.86
906.611	8233
906.924	8161.59
907.237	8203.17
907.551	8110.75
907.864	8068.49
908.177	8101.93
908.491	8099.45
908.804	8009.28
909.117	7964.31
909.43	7877.31
909.743	7888.83
910.056	7872.34
910.368	7779.23
910.681	7777.2
910.994	7678.67
911.307	7779.23
911.619	7689.52
911.932	7641.16
912.244	7678.44
912.557	7554.38
912.869	7496.98
913.181	7496.53
913.494	7464.44
913.806	7389.41
914.118	7504.44
914.43	7405.23
914.742	7419.47
915.054	7270.77
915.366	7324.55
915.678	7304.67
915.99	7246.59
916.302	7195.07
916.613	7181.51
916.925	7139.02
917.236	7173.6
917.548	7107.61
917.859	7051.79
918.171	7008.18
918.482	6987.84
918.794	7003.66
919.105	6986.03
919.416	6865.81
919.727	6931.8
920.038	6921.63
920.349	6769.99
920.66	6885.24
920.971	6874.62
921.282	6800.27
921.593	6730.44
921.903	6691.8
922.214	6697.45
922.525	6660.16
922.835	6680.73
923.146	6557.79
923.456	6630.56
923.767	6525.93
924.077	6570
924.387	6534.29
924.697	6472.15
925.008	6434.18
925.318	6433.73
925.628	6431.24
925.938	6374.52
926.248	6297.69
926.558	6271.47
926.867	6280.74
927.177	6261.98
927.487	6230.34
927.796	6179.72
928.106	6134.08
928.416	6106.28
928.725	6175.88
929.034	6105.83
929.344	6085.49
929.653	6084.59
929.962	6062.21
930.271	5989.22
930.581	5943.57
930.89	5923.91
931.199	5929.79
931.508	5906.29
931.817	5938.6
932.125	5915.55
932.434	5864.48
932.743	5792.84
933.051	5781.54
933.36	5778.15
933.669	5695.9
933.977	5706.06
934.286	5671.26
934.594	5671.49
934.902	5706.52
935.21	5645.28
935.519	5595.56
935.827	5615.9
936.135	5591.27
936.443	5521.21
936.751	5492.06
937.059	5480.08
937.367	5463.81
937.674	5462.91
937.982	5428.78
938.29	5371.84
938.597	5353.31
938.905	5328
939.213	5355.11
939.52	5309.01
939.827	5305.4
940.135	5264.04
940.442	5227.66
940.749	5241.44
941.056	5231.73
941.363	5212.07
941.67	5167.32
941.977	5112.41
942.284	5077.83
942.591	5093.43
942.898	5095.23
943.205	5026.08
943.511	5020.88
943.818	5034.9
944.125	4949.02
944.431	4938.85
944.738	4972.75
945.044	4928.01
945.35	4922.58
945.657	4882.58
945.963	4811.17
946.269	4846.88
946.575	4772.76
946.881	4747.22
947.187	4749.71
947.493	4776.15
947.799	4764.85
948.105	4701.57
948.41	4716.26
948.716	4693.66
949.022	4633.1
949.327	4679.42
949.633	4632.65
949.938	4598.07
950.244	4588.13
950.549	4525.3
950.854	4504.51
951.16	4477.4
951.465	4500.9
951.77	4451.18
952.075	4484.85
952.38	4450.28
952.685	4454.35
952.99	4397.85
953.294	4376.38
953.599	4347.23
953.904	4365.08
954.209	4316.04
954.513	4310.85
954.818	4292.09
955.122	4283.96
955.426	4260.9
955.731	4211.19
956.035	4216.61
956.339	4216.39
956.643	4186.78
956.948	4178.87
957.252	4114.92
957.556	4144.07
957.86	4093.45
958.163	4106.11
958.467	4070.85
958.771	4057.52
959.075	4062.72
959.378	4022.04
959.682	4005.54
959.985	4001.93
960.289	3962.83
960.592	3950.86
960.896	3900.24
961.199	3876.28
961.502	3895.72
961.805	3897.3
962.108	3865.44
962.411	3862.95
962.714	3825.44
963.017	3820.69
963.32	3841.25
963.623	3775.49
963.926	3789.5
964.228	3740.69
964.531	3720.58
964.833	3743.86
965.136	3699.34
965.438	3700.47
965.741	3671.77
966.043	3695.27
966.345	3640.13
966.648	3659.34
966.95	3595.39
967.252	3617.53
967.554	3587.25
967.856	3594.26
968.158	3544.77
968.46	3510.19
968.761	3543.86
969.063	3489.4
969.365	3510.87
969.666	3465.22
969.968	3458.89
970.269	3449.17
970.571	3435.39
970.872	3464.54
971.174	3397.2
971.475	3385.22
971.776	3386.8
972.077	3314.94
972.378	3315.39
972.679	3365.79
972.98	3325.34
973.281	3289.63
973.582	3277.2
973.883	3295.28
974.183	3277.43
974.484	3255.28
974.785	3206.7
975.085	3227.71
975.386	3239.01
975.686	3186.13
975.986	3154.04
976.287	3166.02
976.587	3093.48
976.887	3112.91
977.187	3147.94
977.487	3068.62
977.787	3074.27
978.087	3059.35
978.387	3025.91
978.687	3065.68
978.987	3069.07
979.286	3011.67
979.586	3017.32
979.885	2959.92
980.185	2982.97
980.484	2951.56
980.784	2969.41
981.083	2931.67
981.382	2909.75
981.682	2902.52
981.981	2931.45
982.28	2944.78
982.579	2863.2
982.878	2827.27
983.177	2824.78
983.475	2820.72
983.774	2817.55
984.073	2817.55
984.372	2812.36
984.67	2797.21
984.969	2757.67
985.267	2779.59
985.566	2749.98
985.864	2698.91
986.162	2715.41
986.461	2718.35
986.759	2703.43
987.057	2660.5
987.355	2670.21
987.653	2668.18
987.951	2627.95
988.249	2652.13
988.547	2628.41
988.844	2615.3
989.142	2607.39
989.44	2613.49
989.737	2587.73
990.035	2543.21
990.332	2567.84
990.63	2561.29
990.927	2541.63
991.224	2501.18
991.521	2500.5
991.819	2458.01
992.116	2450.33
992.413	2469.99
992.71	2445.13
993.006	2460.95
993.303	2398.13
993.6	2406.49
993.897	2388.86
994.193	2404.91
994.49	2364.23
994.787	2412.59
995.083	2371.01
995.379	2373.72
995.676	2356.1
995.972	2332.59
996.268	2280.62
996.565	2314.52
996.861	2313.16
997.157	2285.36
997.453	2302.99
997.749	2288.53
998.044	2244.69
998.34	2230
998.636	2217.12
998.932	2210.34
999.227	2214.41
999.523	2176.89
999.818	2179.83
1000.114	2185.48
1000.409	2182.77
1000.704	2145.93
1001	2138.93
1001.295	2113.16
1001.59	2120.62
1001.885	2091.7
1002.18	2113.39
1002.475	2076.78
1002.77	2089.44
1003.065	2066.39
1003.359	2049.66
1003.654	2028.65
1003.949	2037.69
1004.243	1987.07
1004.538	2007.63
1004.832	2002.43
1005.127	1956.56
1005.421	1947.52
1005.715	1967.18
1006.009	1935.32
1006.304	1951.36
1006.598	1901.42
1006.892	1905.03
1007.186	1908.2
1007.48	1877.92
1007.773	1871.59
1008.067	1858.03
1008.361	1864.13
1008.655	1856.9
1008.948	1820.52
1009.242	1838.6
1009.535	1778.03
1009.829	1795.21
1010.122	1787.75
1010.415	1794.08
1010.708	1778.71
1011.001	1757.47
1011.295	1762.21
1011.588	1726.73
1011.881	1712.95
1012.173	1706.17
1012.466	1694.87
1012.759	1725.38
1013.052	1700.52
1013.344	1689.9
1013.637	1649.9
1013.93	1696.68
1014.222	1658.71
1014.514	1624.36
1014.807	1637.25
1015.099	1631.82
1015.391	1590.01
1015.683	1591.6
1015.976	1589.34
1016.268	1602.22
1016.56	1557.25
1016.851	1578.94
1017.143	1571.71
1017.435	1541.65
1017.727	1531.49
1018.018	1549.34
1018.31	1540.07
1018.602	1530.81
1018.893	1509.34
1019.185	1493.97
1019.476	1482.22
1019.767	1475.67
1020.058	1469.34
1020.35	1466.85
1020.641	1450.81
1020.932	1416.23
1021.223	1427.99
1021.514	1439.28
1021.804	1385.73
1022.095	1373.98
1022.386	1396.57
1022.677	1401.55
1022.967	1381.21
1023.258	1382.56
1023.548	1323.13
1023.839	1339.4
1024.129	1322.45
1024.419	1325.84
1024.709	1326.74
1025	1299.63
1025.29	1300.08
1025.58	1271.38
1025.87	1254.43
1026.16	1264.83
1026.449	1243.13
1026.739	1262.34
1027.029	1248.33
1027.319	1245.39
1027.608	1236.58
1027.898	1248.1
1028.187	1223.7
1028.477	1216.92
1028.766	1223.7
1029.055	1192.29
1029.344	1206.75
1029.634	1189.57
1029.923	1153.64
1030.212	1173.98
1030.501	1169.23
1030.79	1137.15
1031.078	1138.5
1031.367	1113.87
1031.656	1134.89
1031.945	1121.1
1032.233	1103.7
1032.522	1088.78
1032.81	1075.9
1033.099	1131.95
1033.387	1081.78
1033.675	1064.38
1033.963	1072.06
1034.251	1087.66
1034.54	1069.35
1034.828	1040.65
1035.116	1067.09
1035.403	1042.91
1035.691	1037.94
1035.979	1027.54
1036.267	1016.7
1036.554	995
1036.842	1001.56
1037.129	1011.27
1037.417	983.7
1037.704	978.28
1037.992	989.8
1038.279	985.51
1038.566	973.76
1038.853	973.76
1039.14	973.76
