Data from hue_230_FLMS001491_00040.txt Node
Date: Tue Feb 07 16:37:09 GMT 2017
User: dcchb
Spectrometer: FLMS00149
Trigger mode: 0
Integration Time (sec): 2.000000E-2
Scans to average: 10
Electric dark correction enabled: true
Nonlinearity correction enabled: false
Boxcar width: 0
XAxis mode: Wavelengths
Number of Pixels in Spectrum: 2048
>>>>>Begin Spectral Data<<<<<
341.393	-4.9
341.776	-4.9
342.16	-4.9
342.543	-65.92
342.927	-48.97
343.31	-68.18
343.693	-73.83
344.077	-72.92
344.46	-34.73
344.843	-46.71
345.226	-34.73
345.61	-29.53
345.993	-10.32
346.376	-29.31
346.759	1.65
347.142	36.23
347.525	43.01
347.908	50.69
348.291	69.22
348.674	87.75
349.057	111.71
349.44	134.3
349.823	148.54
350.206	162.78
350.588	189.44
350.971	212.72
351.354	238.71
351.737	227.64
352.119	264.92
352.502	247.07
352.884	258.37
353.267	267.41
353.65	283.9
354.032	306.05
354.414	287.97
354.797	279.16
355.179	302.66
355.562	323
355.944	332.94
356.326	340.85
356.709	343.79
357.091	316.22
357.473	361.42
357.855	338.37
358.238	353.51
358.62	330.23
359.002	337.46
359.384	349.21
359.766	327.07
360.148	349.44
360.53	344.92
360.912	329.1
361.294	334.3
361.676	318.25
362.057	317.35
362.439	334.53
362.821	321.42
363.203	323.68
363.584	318.25
363.966	313.28
364.348	318.03
364.729	316.9
365.111	310.34
365.493	316.22
365.874	308.76
366.256	310.34
366.637	312.83
367.019	302.21
367.4	314.86
367.781	314.19
368.163	314.41
368.544	316.9
368.925	301.98
369.306	315.99
369.688	310.12
370.069	299.95
370.45	325.26
370.831	307.86
371.212	303.11
371.593	304.47
371.974	316.67
372.355	302.66
372.736	308.76
373.117	310.34
373.498	311.47
373.879	313.06
374.26	311.7
374.641	313.06
375.021	315.99
375.402	315.99
375.783	326.16
376.163	316.22
376.544	315.32
376.925	348.54
377.305	323.9
377.686	312.83
378.066	314.41
378.447	319.61
378.827	320.51
379.208	318.03
379.588	319.38
379.968	335.66
380.349	331.36
380.729	321.64
381.109	317.35
381.489	332.04
381.87	342.66
382.25	336.78
382.63	349.67
383.01	341.76
383.39	344.02
383.77	329.55
384.15	347.86
384.53	352.6
384.91	358.48
385.29	342.66
385.67	347.86
386.049	358.48
386.429	325.03
386.809	359.38
387.189	358.71
387.568	362.77
387.948	334.98
388.328	365.71
388.707	351.25
389.087	350.57
389.466	363.9
389.846	355.32
390.225	357.58
390.605	334.3
390.984	343.34
391.363	367.74
391.743	360.51
392.122	358.93
392.501	365.71
392.881	390.34
393.26	369.1
393.639	362.55
394.018	359.84
394.397	358.71
394.776	375.43
395.155	381.98
395.534	394.64
395.913	376.11
396.292	368.2
396.671	400.51
397.05	415.43
397.429	405.03
397.808	369.55
398.186	401.19
398.565	390.57
398.944	381.98
399.323	380.63
399.701	376.56
400.08	394.41
400.458	411.36
400.837	424.92
401.215	404.81
401.594	395.54
401.972	395.31
402.351	415.43
402.729	414.75
403.107	404.13
403.486	423.34
403.864	411.81
404.242	420.85
404.62	419.04
404.999	441.41
405.377	430.12
405.755	422.21
406.133	442.54
406.511	441.19
406.889	426.95
407.267	446.61
407.645	456.56
408.023	445.48
408.401	467.4
408.779	468.98
409.156	468.98
409.534	491.58
409.912	493.84
410.29	494.97
410.667	509.44
411.045	500.85
411.422	504.46
411.8	502.2
412.178	517.57
412.555	515.99
412.933	560.06
413.31	531.58
413.687	585.37
414.065	562.99
414.442	563.22
414.819	574.97
415.197	587.63
415.574	612.26
415.951	597.34
416.328	597.34
416.705	601.41
417.082	597.57
417.46	613.16
417.837	623.78
418.214	629.88
418.591	643.22
418.967	644.57
419.344	630.11
419.721	652.93
420.098	675.53
420.475	680.96
420.852	687.06
421.228	668.75
421.605	675.08
421.982	704.23
422.358	716.89
422.735	708.07
423.111	748.75
423.488	752.59
423.864	750.33
424.241	782.42
424.617	781.07
424.994	775.87
425.37	796.43
425.746	794.4
426.123	834.85
426.499	818.58
426.875	833.5
427.251	853.61
427.627	868.3
428.003	853.38
428.379	856.55
428.756	893.15
429.132	902.19
429.507	901.52
429.883	916.88
430.259	918.24
430.635	909.43
431.011	922.76
431.387	931.12
431.763	948.97
432.138	953.72
432.514	963.21
432.89	1014.06
433.265	992.59
433.641	1027.61
434.016	1052.25
434.392	1051.79
434.767	1086.82
435.143	1082.53
435.518	1113.26
435.894	1150.55
436.269	1142.87
436.644	1152.13
437.02	1176.31
437.395	1176.31
437.77	1181.06
438.145	1218.57
438.52	1224.45
438.895	1263.77
439.271	1249.08
439.646	1290.43
440.021	1272.35
440.395	1305.35
440.77	1319.13
441.145	1323.65
441.52	1366.59
441.895	1345.12
442.27	1378.11
442.645	1347.15
443.019	1373.82
443.394	1366.14
443.769	1403.2
444.143	1392.8
444.518	1474.83
444.892	1454.27
445.267	1447.49
445.641	1492.69
446.016	1474.61
446.39	1456.76
446.764	1500.6
447.139	1518.9
447.513	1533.14
447.887	1524.78
448.262	1544.21
448.636	1515.51
449.01	1571.55
449.384	1584.21
449.758	1586.02
450.132	1590.09
450.506	1632.57
450.88	1625.56
451.254	1629.41
451.628	1657.88
452.002	1681.61
452.376	1652.68
452.75	1697.65
453.123	1688.39
453.497	1696.52
453.871	1740.59
454.244	1768.39
454.618	1778.1
454.992	1795.73
455.365	1770.65
455.739	1823.98
456.112	1868.95
456.486	1866.01
456.859	1890.87
457.232	1944.43
457.606	1898.33
457.979	1922.05
458.352	1981.26
458.725	1969.51
459.099	1984.65
459.472	1993.46
459.845	2050.86
460.218	2066.23
460.591	2056.06
460.964	2085.67
461.337	2133.12
461.71	2179.22
462.083	2162.05
462.456	2192.33
462.829	2214.7
463.201	2264.19
463.574	2259.67
463.947	2267.13
464.32	2303.06
464.692	2352.33
465.065	2313.91
465.438	2374.92
465.81	2428.03
466.183	2454.92
466.555	2460.12
466.928	2490.4
467.3	2500.34
467.672	2545.31
468.045	2580.57
468.417	2564.97
468.789	2605.2
469.161	2647.91
469.534	2687.68
469.906	2746.67
470.278	2763.16
470.65	2753.67
471.022	2794.12
471.394	2830.96
471.766	2856.72
472.138	2926.77
472.51	2921.35
472.882	3005.87
473.253	2990.73
473.625	3016.26
473.997	3091.51
474.369	3114.79
474.74	3118.63
475.112	3192.08
475.484	3211.74
475.855	3259.19
476.227	3308.91
476.598	3414.9
476.97	3430.04
477.341	3479.08
477.713	3500.09
478.084	3553.2
478.455	3649.92
478.827	3649.92
479.198	3709.58
479.569	3758.39
479.94	3805.39
480.311	3840.42
480.682	3958.61
481.053	4049
481.424	4041.09
481.795	4098.27
482.166	4153.63
482.537	4172.16
482.908	4225.5
483.279	4303.23
483.65	4359.73
484.021	4383.01
484.391	4490.8
484.762	4492.16
485.133	4533.96
485.503	4606.96
485.874	4681.08
486.244	4695.54
486.615	4761.75
486.985	4837.91
487.356	4882.88
487.726	4897.34
488.097	5018.92
488.467	5011.46
488.837	5116.09
489.207	5183.44
489.578	5248.07
489.948	5253.49
490.318	5353.15
490.688	5314.96
491.058	5394.73
491.428	5478.57
491.798	5499.81
492.168	5627.49
492.538	5590.21
492.908	5663.42
493.278	5714.5
493.648	5711.78
494.017	5840.14
494.387	5785.68
494.757	5876.98
495.126	5928.73
495.496	5960.14
495.866	5966.24
496.235	5995.39
496.605	6021.16
496.974	6120.36
497.344	6156.97
497.713	6176.63
498.082	6218.44
498.452	6272.9
498.821	6271.32
499.19	6334.82
499.559	6284.2
499.928	6370.75
500.298	6383.86
500.667	6448.04
501.036	6449.84
501.405	6471.76
501.774	6481.93
502.143	6533.01
502.512	6556.28
502.88	6565.77
503.249	6524.87
503.618	6585.43
503.987	6628.6
504.356	6668.82
504.724	6696.62
505.093	6694.36
505.462	6672.89
505.83	6769.84
506.199	6785.2
506.567	6832.43
506.936	6817.52
507.304	6855.03
507.672	6869.72
508.041	6942.94
508.409	6925.99
508.777	6937.74
509.145	7010.73
509.514	6998.3
509.882	6998.53
510.25	6989.94
510.618	7079.43
510.986	7086.44
511.354	7131.41
511.722	7134.8
512.09	7205.08
512.458	7179.99
512.826	7193.78
513.193	7227.45
513.561	7220.9
513.929	7271.07
514.297	7292.31
514.664	7355.13
515.032	7260.9
515.4	7316.49
515.767	7343.61
516.135	7389.25
516.502	7328.92
516.869	7367.11
517.237	7410.27
517.604	7412.53
517.972	7450.72
518.339	7442.36
518.706	7428.58
519.073	7386.09
519.44	7509.25
519.808	7514
520.175	7509.93
520.542	7573.66
520.909	7579.98
521.276	7518.07
521.643	7583.6
522.009	7599.19
522.376	7646.42
522.743	7674.22
523.11	7638.29
523.477	7700.21
523.843	7730.94
524.21	7737.04
524.577	7833.08
524.943	7853.65
525.31	7784.27
525.676	7825.18
526.043	7870.37
526.409	7879.41
526.776	7894.55
527.142	7915.12
527.508	7890.26
527.874	7941.33
528.241	7955.34
528.607	7940.2
528.973	8000.99
529.339	7904.27
529.705	8029.46
530.071	8021.1
530.437	7974.78
530.803	8036.92
531.169	8037.37
531.535	7968.45
531.901	8024.72
532.267	7959.18
532.632	8036.24
532.998	8043.25
533.364	8048.67
533.73	8098.84
534.095	8051.16
534.461	8069.46
534.826	8055.9
535.192	8079.18
535.557	8058.84
535.923	7998.96
536.288	8034.89
536.653	8045.06
537.019	7984.72
537.384	7975.23
537.749	7977.71
538.114	8016.13
538.479	7959.86
538.845	8010.71
539.21	7940.88
539.575	7979.3
539.94	7913.76
540.305	7937.72
540.67	7977.04
541.034	7925.96
541.399	7920.09
541.764	7909.02
542.129	7930.26
542.494	7923.25
542.858	7902.46
543.223	7854.55
543.587	7872.86
543.952	7863.14
544.316	7906.08
544.681	7884.16
545.045	7891.84
545.41	7897.04
545.774	7831.96
546.138	7827.66
546.503	7831.05
546.867	7812.07
547.231	7820.88
547.595	7792.18
547.959	7826.31
548.324	7772.75
548.688	7704.05
549.052	7773.2
549.416	7731.17
549.779	7714.67
550.143	7683.03
550.507	7710.38
550.871	7710.6
551.235	7683.94
551.599	7689.36
551.962	7647.1
552.326	7628.12
552.689	7672.86
553.053	7623.37
553.417	7652.07
553.78	7695.69
554.143	7655.69
554.507	7665.63
554.87	7612.3
555.234	7653.88
555.597	7654.33
555.96	7598.06
556.323	7638.74
556.686	7600.55
557.05	7683.94
557.413	7633.99
557.776	7608.91
558.139	7609.36
558.502	7670.15
558.865	7604.16
559.228	7666.99
559.59	7684.84
559.953	7637.38
560.316	7707.44
560.679	7675.35
561.041	7688.46
561.404	7701.34
561.767	7726.42
562.129	7660.43
562.492	7746.08
562.854	7676.25
563.217	7731.17
563.579	7737.95
563.941	7795.57
564.304	7801
564.666	7804.39
565.028	7788.57
565.39	7841.67
565.753	7816.81
566.115	7847.77
566.477	7860.88
566.839	7903.14
567.201	7904.5
567.563	7927.09
567.925	7957.83
568.287	7925.74
568.648	7938.17
569.01	7953.99
569.372	8079.86
569.734	8001.44
570.095	7971.61
570.457	8028.56
570.819	8048.9
571.18	8028.79
571.542	8070.14
571.903	8041.22
572.265	8091.16
572.626	8123.02
572.987	8103.36
573.349	8131.16
573.71	8143.59
574.071	8106.75
574.432	8175.22
574.794	8228.33
575.155	8271.94
575.516	8221.78
575.877	8254.54
576.238	8276.24
576.599	8297.25
576.96	8245.28
577.32	8349.46
577.681	8320.98
578.042	8372.05
578.403	8318.04
578.763	8372.51
579.124	8418.83
579.485	8429.91
579.845	8523.46
580.206	8425.39
580.566	8499.96
580.927	8464.48
581.287	8518.72
581.648	8523.69
582.008	8558.04
582.368	8520.07
582.728	8603.23
583.089	8575.21
583.449	8588.55
583.809	8570.01
584.169	8614.08
584.529	8622.44
584.889	8701.31
585.249	8592.16
585.609	8617.7
585.969	8653.4
586.329	8643.91
586.688	8734.98
587.048	8666.96
587.408	8718.94
587.768	8703.34
588.127	8697.24
588.487	8718.26
588.846	8784.47
589.206	8723.91
589.565	8753.29
589.925	8809.56
590.284	8714.19
590.643	8769.33
591.003	8822.66
591.362	8862.66
591.721	8819.27
592.08	8815.43
592.44	8869.22
592.799	8888.88
593.158	8872.61
593.517	8905.6
593.876	8899.05
594.235	8877.13
594.593	8829.22
594.952	8941.08
595.311	8884.13
595.67	8892.72
596.029	8933.85
596.387	9019.04
596.746	9033.05
597.104	9025.6
597.463	8913.73
597.822	9010
598.18	8920.06
598.538	8967.97
598.897	8987.63
599.255	8929.55
599.613	9013.17
599.972	8966.39
600.33	9005.03
600.688	9036.44
601.046	9067.85
601.404	9130.68
601.762	9087.29
602.12	9105.14
602.478	9154.86
602.836	9038.7
603.194	9040.28
603.552	9033.96
603.91	9006.16
604.268	9074.18
604.625	9082.77
604.983	9069.44
605.341	8992.6
605.698	9062.21
606.056	9169.1
606.413	9086.16
606.771	9107.18
607.128	9126.38
607.485	9119.15
607.843	9125.93
608.2	9149.43
608.557	9184.46
608.914	9136.55
609.272	9198.25
609.629	9254.97
609.986	9267.17
610.343	9176.33
610.7	9253.61
611.057	9231.01
611.414	9249.09
611.771	9214.97
612.127	9283.22
612.484	9324.35
612.841	9242.09
613.198	9324.12
613.554	9257.23
613.911	9276.21
614.267	9309.88
614.624	9303.33
614.98	9292.93
615.337	9351.92
615.693	9404.57
616.05	9295.87
616.406	9481.86
616.762	9285.25
617.118	9377.23
617.475	9377.23
617.831	9356.89
618.187	9368.86
618.543	9365.93
618.899	9410.67
619.255	9476.66
619.611	9437.56
619.967	9473.27
620.323	9448.41
620.678	9469.88
621.034	9455.19
621.39	9408.64
621.746	9412.7
622.101	9438.92
622.457	9375.42
622.812	9443.21
623.168	9486.6
623.523	9445.92
623.879	9522.08
624.234	9399.15
624.589	9449.09
624.945	9461.29
625.3	9518.92
625.655	9463.32
626.01	9528.41
626.365	9466.71
626.72	9385.36
627.075	9385.59
627.43	9441.63
627.785	9409.54
628.14	9461.52
628.495	9462.87
628.85	9421.97
629.205	9415.64
629.559	9489.54
629.914	9359.15
630.269	9430.33
630.623	9328.19
630.978	9391.46
631.332	9398.47
631.687	9437.11
632.041	9406.38
632.396	9377.68
632.75	9365.7
633.104	9352.82
633.459	9311.92
633.813	9278.47
634.167	9293.84
634.521	9277.11
634.875	9312.14
635.229	9309.66
635.583	9233.73
635.937	9227.17
636.291	9250.67
636.645	9266.72
636.999	9170
637.352	9227.62
637.706	9204.12
638.06	9197.57
638.413	9201.86
638.767	9152.37
639.121	9161.41
639.474	9064.92
639.828	9125.48
640.181	9159.83
640.534	9184.24
640.888	9050.68
641.241	9062.88
641.594	9097.91
641.947	9122.09
642.301	9098.36
642.654	9083.67
643.007	9083
643.36	9024.69
643.713	9072.15
644.066	9151.02
644.419	9049.55
644.771	9000.96
645.124	8904.02
645.477	8903.79
645.83	8883.23
646.182	8824.92
646.535	8751.03
646.888	8737.69
647.24	8733.63
647.593	8772.72
647.945	8733.85
648.298	8801.87
648.65	8701.31
649.002	8678.26
649.355	8776.56
649.707	8717.81
650.059	8787.18
650.411	8861.31
650.763	8888.88
651.115	8962.77
651.467	8959.38
651.819	8872.61
652.171	8966.84
652.523	8917.35
652.875	8903.79
653.227	8846.84
653.578	8891.14
653.93	8950.57
654.282	8856.11
654.633	8855.66
654.985	8895.43
655.337	8847.97
655.688	8898.82
656.039	8972.26
656.391	8853.4
656.742	8892.72
657.094	8823.12
657.445	8918.71
657.796	8922.55
658.147	8838.26
658.498	8831.48
658.849	8936.78
659.2	8888.65
659.551	8855.21
659.902	8890.46
660.253	8907.18
660.604	8868.31
660.955	8931.36
661.306	8901.76
661.656	8882.55
662.007	8891.59
662.358	8976.11
662.708	8879.16
663.059	8967.29
663.409	8929.1
663.76	8945.6
664.11	8917.58
664.461	8963
664.811	8921.64
665.161	8920.97
665.511	8957.8
665.862	8878.93
666.212	8918.93
666.562	8949.44
666.912	8946.28
667.262	8935.88
667.612	8888.88
667.962	8992.6
668.312	8905.83
668.662	8864.02
669.011	8915.32
669.361	8901.08
669.711	8861.98
670.06	8927.29
670.41	8836
670.76	8848.65
671.109	8887.75
671.459	8865.15
671.808	8850.23
672.157	8854.75
672.507	8792.83
672.856	8843.68
673.205	8836
673.554	8908.31
673.904	8785.83
674.253	8855.43
674.602	8810.46
674.951	8704.93
675.3	8633.74
675.649	8792.61
675.998	8772.72
676.346	8825.38
676.695	8753.06
677.044	8700.41
677.393	8714.87
677.741	8773.63
678.09	8737.69
678.438	8713.06
678.787	8693.18
679.135	8740.63
679.484	8699.05
679.832	8699.28
680.181	8625.61
680.529	8669.22
680.877	8649.79
681.225	8664.25
681.573	8682.1
681.922	8654.98
682.27	8538.6
682.618	8558.26
682.966	8528.21
683.314	8532.73
683.661	8527.98
684.009	8505.38
684.357	8434.2
684.705	8460.19
685.053	8491.6
685.4	8436.46
685.748	8389.91
686.095	8394.2
686.443	8364.82
686.79	8364.14
687.138	8299.29
687.485	8340.64
687.832	8322.11
688.18	8314.65
688.527	8244.83
688.874	8261.55
689.221	8264.26
689.568	8197.37
689.915	8231.49
690.262	8178.16
690.609	8199.18
690.956	8122.57
691.303	8123.47
691.65	8072.17
691.997	8052.51
692.344	8000.54
692.69	7984.04
693.037	7968.9
693.383	7944.27
693.73	7929.35
694.077	7906.76
694.423	7931.39
694.769	7834.21
695.116	7839.41
695.462	7765.97
695.808	7781.79
696.155	7701.34
696.501	7732.97
696.847	7707.44
697.193	7682.35
697.539	7686.65
697.885	7641
698.231	7636.25
698.577	7545.86
698.923	7530.04
699.269	7500.21
699.614	7488.91
699.96	7475.35
700.306	7435.13
700.651	7418.86
700.997	7395.58
701.342	7366.43
701.688	7339.09
702.033	7300.22
702.379	7280.78
702.724	7317.62
703.069	7345.19
703.415	7205.08
703.76	7210.28
704.105	7250.73
704.45	7176.38
704.795	7055.03
705.14	7132.09
705.485	7053.67
705.83	7069.94
706.175	7052.54
706.52	7042.6
706.865	6986.78
707.209	7016.16
707.554	6965.54
707.899	6944.29
708.243	6947.46
708.588	6949.04
708.932	6834.47
709.277	6798.08
709.621	6869.27
709.966	6817.97
710.31	6855.94
710.654	6757.86
710.998	6822.94
711.342	6761.93
711.687	6757.63
712.031	6685.54
712.375	6726.67
712.719	6727.58
713.063	6659.78
713.407	6709.72
713.75	6708.82
714.094	6658.43
714.438	6632.44
714.782	6637.18
715.125	6617.3
715.469	6626.11
715.812	6528.49
716.156	6546.34
716.499	6619.78
716.843	6559.45
717.186	6492.56
717.53	6543.18
717.873	6504.98
718.216	6532.33
718.559	6517.19
718.902	6447.58
719.246	6445.1
719.589	6482.39
719.932	6399.22
720.275	6403.07
720.617	6451.2
720.96	6442.84
721.303	6361.94
721.646	6398.32
721.989	6395.61
722.331	6442.84
722.674	6409.62
723.016	6426.79
723.359	6395.38
723.701	6344.99
724.044	6330.07
724.386	6335.27
724.729	6377.53
725.071	6375.5
725.413	6322.16
725.755	6326.01
726.097	6305.44
726.439	6295.27
726.782	6297.98
727.124	6321.03
727.465	6241.04
727.807	6261.37
728.149	6309.28
728.491	6251.21
728.833	6205.78
729.175	6231.09
729.516	6253.92
729.858	6224.77
730.199	6226.57
730.541	6273.58
730.882	6284.88
731.224	6223.86
731.565	6188.61
731.906	6233.81
732.248	6266.35
732.589	6225.9
732.93	6202.17
733.271	6199.91
733.612	6246.01
733.953	6194.71
734.294	6267.25
734.635	6246.69
734.976	6216.18
735.317	6230.64
735.658	6231.09
735.999	6268.83
736.339	6189.51
736.68	6278.1
737.021	6273.13
737.361	6217.08
737.702	6284.88
738.042	6200.59
738.383	6279
738.723	6288.49
739.063	6274.48
739.404	6279.45
739.744	6361.26
740.084	6297.76
740.424	6321.03
740.764	6284.88
741.104	6310.41
741.444	6307.7
741.784	6321.49
742.124	6318.1
742.464	6333.46
742.804	6303.41
743.143	6323.07
743.483	6376.4
743.823	6373.91
744.162	6390.64
744.502	6397.64
744.841	6441.26
745.181	6499.56
745.52	6468.6
745.86	6512.67
746.199	6514.48
746.538	6548.15
746.877	6598.99
747.216	6659.1
747.556	6670.63
747.895	6719.22
748.234	6674.47
748.573	6760.34
748.911	6811.19
749.25	6792.43
749.589	6813.22
749.928	6869.27
750.267	6949.27
750.605	7022.03
750.944	7006.67
751.283	7131.41
751.621	7152.88
751.96	7193.78
752.298	7333.44
752.636	7323.49
752.975	7372.76
753.313	7450.95
753.651	7557.61
753.989	7599.19
754.327	7718.96
754.666	7753.77
755.004	7906.98
755.342	7996.47
755.679	8118.5
756.017	8142.23
756.355	8255.67
756.693	8312.39
757.031	8444.37
757.368	8507.42
757.706	8603.01
758.044	8695.21
758.381	8813.17
758.719	8930.68
759.056	9075.99
759.394	9152.6
759.731	9207.74
760.068	9350.79
760.405	9434.62
760.743	9517.79
761.08	9616.31
761.417	9814.28
761.754	9904.67
762.091	9991.9
762.428	10062.86
762.765	10181.27
763.102	10330.87
763.438	10434.6
763.775	10510.98
764.112	10600.24
764.449	10776.74
764.785	10827.58
765.122	10934.25
765.458	11047.24
765.795	11124.3
766.131	11251.98
766.467	11392.77
766.804	11369.49
767.14	11468.02
767.476	11566.55
767.812	11614
768.148	11772.64
768.485	11818.97
768.821	11871.62
769.157	11928.12
769.492	12057.83
769.828	12128.79
770.164	12104.84
770.5	12199.75
770.836	12320.65
771.171	12308.45
771.507	12426.18
771.842	12496.24
772.178	12453.08
772.513	12512.51
772.849	12574.66
773.184	12664.6
773.519	12726.29
773.855	12742.33
774.19	12758.15
774.525	12821.65
774.86	12819.17
775.195	12849.68
775.53	12860.07
775.865	12897.36
776.2	12893.52
776.535	12877.7
776.87	12948.43
777.205	12951.82
777.539	12905.72
777.874	13051.25
778.209	13013.06
778.543	12943.91
778.878	13024.13
779.212	13020.75
779.547	13037.69
779.881	13095.09
780.215	13058.26
780.55	13022.33
780.884	13087.86
781.218	13102.78
781.552	13025.94
781.886	13062.55
782.22	12910.69
782.554	13026.62
782.888	12903.01
783.222	12915.66
783.556	12945.94
783.889	12870.47
784.223	12827.53
784.557	12857.81
784.89	12864.59
785.224	12902.33
785.557	12746.85
785.891	12878.38
786.224	12851.48
786.558	12926.06
786.891	12743.69
787.224	12660.3
787.557	12728.1
787.891	12695.56
788.224	12729
788.557	12664.14
788.89	12696.46
789.223	12701.88
789.556	12630.92
789.888	12667.76
790.221	12606.07
790.554	12514.77
790.887	12628.89
791.219	12460.53
791.552	12516.13
791.884	12420.31
792.217	12487.65
792.549	12389.35
792.882	12393.42
793.214	12287.21
793.546	12361.33
793.879	12273.65
794.211	12305.06
794.543	12272.06
794.875	12361.1
795.207	12239.75
795.539	12231.84
795.871	12217.6
796.203	12169.47
796.535	12164.95
796.867	12067.1
797.198	12070.26
797.53	12088.57
797.862	11965.63
798.193	11971.51
798.525	11932.19
798.856	11988.68
799.188	11834.79
799.519	11801.57
799.85	11742.59
800.182	11785.98
800.513	11759.76
800.844	11698.07
801.175	11781.68
801.506	11708.69
801.837	11643.61
802.168	11641.8
802.499	11616.94
802.83	11603.61
803.161	11518.86
803.491	11562.7
803.822	11542.14
804.153	11468.92
804.483	11432.54
804.814	11442.26
805.145	11373.33
805.475	11355.7
805.805	11377.17
806.136	11275.93
806.466	11287.46
806.796	11296.72
807.126	11207.01
807.457	11164.75
807.787	11210.62
808.117	11156.84
808.447	11067.8
808.777	11166.1
809.107	11042.04
809.436	10997.75
809.766	11078.42
810.096	11018.54
810.426	10916.17
810.755	10979.44
811.085	10946.9
811.414	10858.99
811.744	10876.85
812.073	10870.07
812.403	10783.06
812.732	10796.85
813.061	10762.5
813.39	10736.51
813.719	10706
814.049	10779.67
814.378	10716.17
814.707	10726.12
815.036	10629.4
815.365	10651.77
815.693	10559.79
816.022	10567.02
816.351	10600.7
816.68	10493.58
817.008	10590.3
817.337	10474.6
817.665	10453.58
817.994	10460.13
818.322	10382.62
818.651	10436.86
818.979	10354.83
819.307	10383.75
819.636	10355.73
819.964	10360.7
820.292	10385.56
820.62	10323.64
820.948	10311.89
821.276	10351.66
821.604	10345.79
821.932	10367.26
822.259	10274.15
822.587	10317.54
822.915	10287.94
823.243	10338.56
823.57	10255.39
823.898	10286.81
824.225	10253.36
824.553	10239.58
824.88	10256.07
825.207	10290.2
825.535	10292.68
825.862	10237.32
826.189	10198.45
826.516	10300.36
826.843	10330.19
827.17	10333.58
827.497	10259.46
827.824	10299.23
828.151	10389.18
828.478	10286.13
828.805	10386.46
829.131	10271.89
829.458	10263.3
829.785	10167.49
830.111	10254.72
830.438	10267.82
830.764	10272.34
831.09	10313.92
831.417	10290.87
831.743	10234.6
832.069	10346.69
832.395	10221.72
832.722	10324.77
833.048	10255.17
833.374	10268.05
833.7	10256.3
834.026	10222.63
834.351	10242.29
834.677	10218.56
835.003	10214.94
835.329	10251.78
835.654	10284.32
835.98	10183.98
836.306	10171.55
836.631	10176.07
836.956	10219.91
837.282	10106.25
837.607	10120.71
837.932	10047.94
838.258	10064.21
838.583	9997.77
838.908	9987.15
839.233	10059.02
839.558	10047.94
839.883	10013.37
840.208	9961.39
840.533	9995.29
840.858	9978.11
841.182	9980.6
841.507	9915.06
841.832	9874.16
842.156	9890.21
842.481	9905.12
842.805	9854.73
843.13	9868.29
843.454	9809.08
843.778	9760.27
844.103	9801.85
844.427	9814.05
844.751	9748.97
845.075	9692.02
845.399	9703.54
845.723	9709.42
846.047	9668.97
846.371	9617.44
846.695	9576.54
847.019	9460.84
847.343	9440.05
847.666	9451.57
847.99	9404.8
848.313	9382.87
848.637	9363.44
848.96	9320.28
849.284	9289.54
849.607	9226.27
849.931	9171.13
850.254	9172.26
850.577	9055.2
850.9	9040.51
851.223	9008.87
851.546	8986.28
851.869	8951.47
852.192	8980.85
852.515	8868.09
852.838	8797.13
853.161	8860.18
853.483	8861.31
853.806	8765.72
854.129	8755.09
854.451	8731.59
854.774	8706.73
855.096	8604.82
855.419	8648.43
855.741	8639.62
856.063	8542.44
856.385	8547.64
856.708	8483.92
857.03	8531.15
857.352	8488.89
857.674	8449.57
857.996	8361.66
858.318	8426.52
858.64	8360.08
858.961	8407.31
859.283	8361.66
859.605	8259.29
859.926	8345.16
860.248	8291.15
860.57	8268.1
860.891	8301.77
861.212	8195.56
861.534	8212.51
861.855	8240.76
862.176	8187.88
862.498	8184.04
862.819	8160.31
863.14	8174.54
863.461	8150.14
863.782	8119.63
864.103	8112.17
864.424	8063.81
864.745	8163.7
865.065	8109.46
865.386	7996.47
865.707	8010.48
866.027	7973.42
866.348	7988.56
866.668	7955.34
866.989	7954.66
867.309	7885.29
867.63	7918.96
867.95	7906.08
868.27	7835.34
868.59	7883.93
868.91	7801.22
869.23	7854.1
869.55	7815.68
869.87	7867.66
870.19	7835.8
870.51	7846.87
870.83	7784.95
871.15	7711.73
871.469	7812.97
871.789	7802.8
872.109	7787.66
872.428	7729.36
872.748	7739.75
873.067	7717.16
873.386	7701.56
873.706	7733.43
874.025	7617.5
874.344	7658.63
874.663	7692.07
874.982	7589.48
875.301	7614.79
875.62	7671.28
875.939	7647.1
876.258	7578.63
876.577	7598.74
876.896	7602.36
877.214	7515.35
877.533	7566.2
877.852	7517.84
878.17	7479.2
878.489	7559.42
878.807	7443.94
879.125	7435.58
879.444	7548.12
879.762	7452.08
880.08	7455.02
880.398	7432.64
880.716	7438.29
881.034	7362.59
881.352	7411.63
881.67	7377.5
881.988	7406.66
882.306	7420.21
882.624	7308.58
882.941	7260.44
883.259	7255.7
883.577	7272.65
883.894	7246.66
884.212	7275.13
884.529	7234.46
884.846	7224.97
885.164	7196.04
885.481	7116.95
885.798	7175.93
886.115	7126.21
886.432	7130.5
886.75	7158.53
887.067	7088.47
887.383	7099.09
887.7	7091.86
888.017	7098.64
888.334	7063.84
888.651	6973.9
888.967	6986.1
889.284	7001.24
889.6	6946.33
889.917	6885.31
890.233	6922.6
890.55	6899.78
890.866	6873.11
891.182	6853
891.498	6846.44
891.815	6772.1
892.131	6827.24
892.447	6750.85
892.763	6756.5
893.079	6726.67
893.395	6780.23
893.71	6746.56
894.026	6672.89
894.342	6612.33
894.657	6635.83
894.973	6639.9
895.289	6590.41
895.604	6654.58
895.92	6522.61
896.235	6518.77
896.55	6537.53
896.865	6495.04
897.181	6474.25
897.496	6458.88
897.811	6454.36
898.126	6419.11
898.441	6412.78
898.756	6356.06
899.071	6375.72
899.386	6334.82
899.7	6310.41
900.015	6253.47
900.33	6198.55
900.644	6204.88
900.959	6234.71
901.273	6278.78
901.588	6176.86
901.902	6119.01
902.216	6142.73
902.531	6082.17
902.845	6055.96
903.159	6078.1
903.473	5986.58
903.787	6007.82
904.101	5946.58
904.415	6002.85
904.729	5968.5
905.042	5879.46
905.356	5904.77
905.67	5902.29
905.984	5915.62
906.297	5875.62
906.611	5847.83
906.924	5860.71
907.237	5834.04
907.551	5806.02
907.864	5739.13
908.177	5810.99
908.491	5740.26
908.804	5738.45
909.117	5673.82
909.43	5619.81
909.743	5626.14
910.056	5609.19
910.368	5518.12
910.681	5522.19
910.994	5538.68
911.307	5533.26
911.619	5445.58
911.932	5434.05
912.244	5429.31
912.557	5425.46
912.869	5402.19
913.181	5348.18
913.494	5336.43
913.806	5331.91
914.118	5361.51
914.43	5267.73
914.742	5299.14
915.054	5201.97
915.366	5235.64
915.678	5189.99
915.99	5169.65
916.302	5150.67
916.613	5123.1
916.925	5142.31
917.236	5112.93
917.548	5065.93
917.859	5078.58
918.171	5034.06
918.482	4990.67
918.794	5017.79
919.105	4964.69
919.416	4957.23
919.727	4936.89
920.038	4956.78
920.349	4913.16
920.66	4887.17
920.971	4823.9
921.282	4832.71
921.593	4869.1
921.903	4820.51
922.214	4873.84
922.525	4789.55
922.835	4729.44
923.146	4770.34
923.456	4717.91
923.767	4699.16
924.077	4670.23
924.387	4644.02
924.697	4648.31
925.008	4659.38
925.318	4569.44
925.628	4593.85
925.938	4573.06
926.248	4532.15
926.558	4530.8
926.867	4501.65
927.177	4461.42
927.487	4457.13
927.796	4458.48
928.106	4442.21
928.416	4412.84
928.725	4414.42
929.034	4409.67
929.344	4376.68
929.653	4376.45
929.962	4346.4
930.271	4342.56
930.581	4275.89
930.89	4298.71
931.199	4268.88
931.508	4281.09
931.817	4212.62
932.125	4174.65
932.434	4153.63
932.743	4143.01
933.051	4156.35
933.36	4146.4
933.669	4113.63
933.977	4107.53
934.286	4124.03
934.594	4141.88
934.902	4073.18
935.21	4045.84
935.519	4028.89
935.827	4030.93
936.135	3992.96
936.443	3965.39
936.751	3918.84
937.059	3959.74
937.367	3947.54
937.674	3934.88
937.982	3915.22
938.29	3891.49
938.597	3836.35
938.905	3828.22
939.213	3853.75
939.52	3798.61
939.827	3825.05
940.135	3817.6
940.442	3773.76
940.749	3773.3
941.056	3752.74
941.363	3749.12
941.67	3702.8
941.977	3698.28
942.284	3673.87
942.591	3640.65
942.898	3640.88
943.205	3630.71
943.511	3578.96
943.818	3615.79
944.125	3590.94
944.431	3620.31
944.738	3604.04
945.044	3573.99
945.35	3544.61
945.657	3522.24
945.963	3517.27
946.269	3501.45
946.575	3523.82
946.881	3461.45
947.187	3415.35
947.493	3446.31
947.799	3409.7
948.105	3441.79
948.41	3410.38
948.716	3416.03
949.022	3392.98
949.327	3397.95
949.633	3356.14
949.938	3299.87
950.244	3319.76
950.549	3289.02
950.854	3307.78
951.16	3262.36
951.465	3218.29
951.77	3247.89
952.075	3226.2
952.38	3207.9
952.685	3191.85
952.99	3204.96
953.294	3185.07
953.599	3163.38
953.904	3141.23
954.209	3165.64
954.513	3120.89
954.818	3114.56
955.122	3117.73
955.426	3042.48
955.731	3069.14
956.035	3067.11
956.339	3086.09
956.643	3054.68
956.948	3032.53
957.252	3000.22
957.556	3026.43
957.86	2970.16
958.163	2948.69
958.467	2983.49
958.771	2948.92
959.075	2952.08
959.378	2902.82
959.682	2913.21
959.985	2917.06
960.289	2893.33
960.592	2861.24
960.896	2866.66
961.199	2851.75
961.502	2821.92
961.805	2809.71
962.108	2827.57
962.411	2809.49
962.714	2779.43
963.017	2781.01
963.32	2760.45
963.623	2754.8
963.926	2780.34
964.228	2688.81
964.531	2728.81
964.833	2708.02
965.136	2684.07
965.438	2665.54
965.741	2637.29
966.043	2669.83
966.345	2651.98
966.648	2648.14
966.95	2649.27
967.252	2590.96
967.554	2633.22
967.856	2589.16
968.158	2557.07
968.46	2561.59
968.761	2576.73
969.063	2567.69
969.365	2535.82
969.666	2571.98
969.968	2521.13
970.269	2501.7
970.571	2499.44
970.872	2465.99
971.174	2486.78
971.475	2483.4
971.776	2458.76
972.077	2430.06
972.378	2437.52
972.679	2421.7
972.98	2440.01
973.281	2417.41
973.582	2428.48
973.883	2402.49
974.183	2356.84
974.484	2359.1
974.785	2360.46
975.085	2379.67
975.386	2379.67
975.686	2319.11
975.986	2334.7
976.287	2318.2
976.587	2299.9
976.887	2283.85
977.187	2296.96
977.487	2279.11
977.787	2294.02
978.087	2277.98
978.387	2228.49
978.687	2246.34
978.987	2279.33
979.286	2190.52
979.586	2221.71
979.885	2209.73
980.185	2214.93
980.484	2211.31
980.784	2161.14
981.083	2131.09
981.382	2156.62
981.682	2188.49
981.981	2134.25
982.28	2130.64
982.579	2131.99
982.878	2124.53
983.177	2089.06
983.475	2094.48
983.774	2065.78
984.073	2084.76
984.372	2043.41
984.67	2059
984.969	2073.46
985.267	2065.1
985.566	2010.64
985.864	2036.85
986.162	2035.27
986.461	2007.02
986.759	2002.05
987.057	1996.18
987.355	1988.27
987.653	1995.95
987.951	1986.69
988.249	1969.28
988.547	1964.99
988.844	1939.45
989.142	1932.45
989.44	1919.12
989.737	1907.59
990.035	1931.09
990.332	1927.48
990.63	1868.04
990.927	1902.62
991.224	1863.3
991.521	1852.9
991.819	1886.8
992.116	1858.78
992.413	1819.91
992.71	1833.02
993.006	1840.7
993.303	1800.93
993.6	1811.1
993.897	1795.73
994.193	1821.49
994.49	1818.55
994.787	1789.18
995.083	1752.79
995.379	1763.64
995.676	1736.07
995.972	1744.21
996.268	1720.7
996.565	1708.73
996.861	1689.97
997.157	1709.4
997.453	1723.19
997.749	1705.11
998.044	1688.16
998.34	1685.22
998.636	1687.48
998.932	1668.5
999.227	1651.33
999.523	1663.08
999.818	1622.4
1000.114	1653.36
1000.409	1654.72
1000.704	1613.14
1001	1661.95
1001.295	1616.75
1001.59	1598.45
1001.885	1579.69
1002.18	1578.33
1002.475	1570.88
1002.77	1560.48
1003.065	1553.02
1003.359	1536.98
1003.654	1512.12
1003.949	1514.38
1004.243	1548.05
1004.538	1521.16
1004.832	1524.32
1005.127	1485
1005.421	1486.13
1005.715	1496.75
1006.009	1467.38
1006.304	1449.75
1006.598	1463.99
1006.892	1438.68
1007.186	1432.8
1007.48	1413.14
1007.773	1465.12
1008.067	1416.53
1008.361	1420.82
1008.655	1413.59
1008.948	1383.31
1009.242	1402.52
1009.535	1394.61
1009.829	1403.65
1010.122	1360.26
1010.415	1356.42
1010.708	1360.49
1011.001	1351.22
1011.295	1334.95
1011.588	1337.89
1011.881	1313.48
1012.173	1336.31
1012.466	1334.5
1012.759	1304.9
1013.052	1299.92
1013.344	1277.78
1013.637	1268.74
1013.93	1271.9
1014.222	1278.68
1014.514	1264.44
1014.807	1251.79
1015.099	1242.75
1015.391	1251.11
1015.683	1245.24
1015.976	1250.43
1016.268	1253.6
1016.56	1200.94
1016.851	1210.89
1017.143	1205.46
1017.435	1207.5
1017.727	1188.29
1018.018	1139.7
1018.31	1170.21
1018.602	1153.26
1018.893	1154.39
1019.185	1147.84
1019.476	1137.67
1019.767	1147.61
1020.058	1126.59
1020.35	1146.03
1020.641	1120.72
1020.932	1117.78
1021.223	1132.24
1021.514	1110.55
1021.804	1085.24
1022.095	1087.95
1022.386	1094.96
1022.677	1060.83
1022.967	1085.47
1023.258	1062.64
1023.548	1079.82
1023.839	1065.35
1024.129	1046.6
1024.419	1053.15
1024.709	1049.53
1025	1030.55
1025.29	1030.1
1025.58	1023.32
1025.87	1007.5
1026.16	994.17
1026.449	1009.08
1026.739	989.88
1027.029	977.22
1027.319	974.51
1027.608	961.4
1027.898	961.4
1028.187	968.86
1028.477	938.13
1028.766	964.11
1029.055	944
1029.344	943.77
1029.634	937.9
1029.923	921.85
1030.212	950.55
1030.501	944.68
1030.79	906.49
1031.078	901.52
1031.367	902.65
1031.656	897
1031.945	881.63
1032.233	895.19
1032.522	889.54
1032.81	864.23
1033.099	877.11
1033.387	887.73
1033.675	830.33
1033.963	880.27
1034.251	849.09
1034.54	869.2
1034.828	852.03
1035.116	846.38
1035.403	864
1035.691	827.17
1035.979	815.64
1036.267	823.33
1036.554	826.94
1036.842	805.25
1037.129	811.57
1037.417	799.15
1037.704	791.69
1037.992	796.21
1038.279	800.28
1038.566	781.07
1038.853	781.07
1039.14	781.07
