Data from hue_30_FLMS001491_23.txt Node
Date: Mon Feb 06 15:04:56 GMT 2017
User: dcchb
Spectrometer: FLMS00149
Trigger mode: 0
Integration Time (sec): 2.000000E-2
Scans to average: 10
Electric dark correction enabled: true
Nonlinearity correction enabled: false
Boxcar width: 0
XAxis mode: Wavelengths
Number of Pixels in Spectrum: 2048
>>>>>Begin Spectral Data<<<<<
341.393	-24.45
341.776	-24.45
342.16	-24.45
342.543	-60.83
342.927	-71.23
343.31	-66.03
343.693	-68.29
344.077	-61.06
344.46	-54.96
344.843	-54.05
345.226	-33.94
345.61	-37.33
345.993	-25.35
346.376	-13.6
346.759	21.43
347.142	23.91
347.525	35.44
347.908	73.63
348.291	60.07
348.674	80.86
349.057	119.28
349.44	131.25
349.823	135.1
350.206	183.46
350.588	181.87
350.971	209.9
351.354	241.76
351.737	237.47
352.119	254.64
352.502	257.35
352.884	265.49
353.267	282.21
353.65	298.71
354.032	315.88
354.414	320.18
354.797	312.72
355.179	313.62
355.562	331.25
355.944	329.67
356.326	339.16
356.709	327.63
357.091	330.57
357.473	350.68
357.855	350
358.238	346.62
358.62	331.25
359.002	326.28
359.384	346.84
359.766	348.42
360.148	341.19
360.53	334.41
360.912	373.06
361.294	353.39
361.676	343.45
362.057	322.89
362.439	350.91
362.821	319.05
363.203	334.86
363.584	327.63
363.966	335.54
364.348	337.8
364.729	306.62
365.111	308.65
365.493	311.81
365.874	308.42
366.256	312.94
366.637	309.33
367.019	329.89
367.4	318.82
367.781	320.63
368.163	314.07
368.544	327.18
368.925	312.04
369.306	328.76
369.688	311.36
370.069	312.72
370.45	312.72
370.831	309.33
371.212	324.02
371.593	320.18
371.974	312.94
372.355	312.94
372.736	316.56
373.117	316.56
373.498	336.45
373.879	322.44
374.26	316.79
374.641	330.57
375.021	319.27
375.402	325.6
375.783	314.07
376.163	334.41
376.544	321.76
376.925	309.78
377.305	315.43
377.686	341.87
378.066	336.22
378.447	323.34
378.827	329.21
379.208	326.95
379.588	342.1
379.968	355.88
380.349	347.97
380.729	342.32
381.109	326.73
381.489	338.48
381.87	335.77
382.25	343
382.63	350.91
383.01	333.06
383.39	345.71
383.77	328.76
384.15	338.25
384.53	344.58
384.91	344.13
385.29	370.34
385.67	334.86
386.049	352.72
386.429	361.3
386.809	367.18
387.189	351.13
387.568	371.7
387.948	360.85
388.328	347.07
388.707	355.88
389.087	364.47
389.466	355.88
389.846	388.65
390.225	360.4
390.605	389.1
390.984	364.92
391.363	368.76
391.743	342.55
392.122	372.38
392.501	403.34
392.881	364.92
393.26	357.91
393.639	347.97
394.018	358.59
394.397	375.99
394.776	390
395.155	387.52
395.534	379.38
395.913	379.61
396.292	404.01
396.671	386.84
397.05	386.84
397.429	397.69
397.808	377.57
398.186	384.81
398.565	386.39
398.944	392.94
399.323	400.17
399.701	383
400.08	374.64
400.458	391.13
400.837	406.5
401.215	413.28
401.594	423.9
401.972	415.54
402.351	423.9
402.729	422.09
403.107	397.24
403.486	426.61
403.864	420.06
404.242	396.33
404.62	411.47
404.999	415.09
405.377	405.37
405.755	422.55
406.133	422.32
406.511	422.32
406.889	434.75
407.267	454.18
407.645	437.91
408.023	429.1
408.401	444.47
408.779	428.87
409.156	437.91
409.534	464.8
409.912	450.34
410.29	444.69
410.667	468.87
411.045	451.92
411.422	448.08
411.8	451.02
412.178	463
412.555	453.73
412.933	461.64
413.31	480.85
413.687	464.13
414.065	473.39
414.442	473.62
414.819	503.22
415.197	496.22
415.574	476.56
415.951	488.31
416.328	491.02
416.705	484.69
417.082	510.23
417.46	495.99
417.837	514.75
418.214	508.19
418.591	503.45
418.967	518.81
419.344	526.27
419.721	510.9
420.098	516.33
420.475	523.56
420.852	535.76
421.228	562.88
421.605	531.24
421.982	559.04
422.358	545.03
422.735	546.38
423.111	549.32
423.488	544.35
423.864	561.52
424.241	585.25
424.617	559.26
424.994	582.99
425.37	552.03
425.746	565.82
426.123	567.85
426.499	567.85
426.875	563.33
427.251	576.67
427.627	592.94
428.003	593.61
428.379	618.92
428.756	593.84
429.132	597
429.507	617.79
429.883	611.02
430.259	623.9
430.635	622.54
431.011	630.68
431.387	627.06
431.763	654.18
432.138	646.95
432.514	657.34
432.89	654.4
433.265	647.4
433.641	657.79
434.016	673.16
434.392	679.49
434.767	689.21
435.143	705.7
435.518	691.24
435.894	719.26
436.269	705.93
436.644	694.85
437.02	706.83
437.395	704.8
437.77	718.81
438.145	730.33
438.52	750.45
438.895	715.19
439.271	735.08
439.646	750.22
440.021	773.27
440.395	769.65
440.77	775.98
441.145	778.02
441.52	761.52
441.895	778.69
442.27	754.06
442.645	780.5
443.019	795.19
443.394	791.8
443.769	804.91
444.143	796.09
444.518	815.53
444.892	790.9
445.267	809.2
445.641	823.21
446.016	818.47
446.39	819.82
446.764	822.99
447.139	820.73
447.513	837.68
447.887	849.88
448.262	832.25
448.636	859.82
449.01	842.87
449.384	867.05
449.758	877.22
450.132	881.29
450.506	897.56
450.88	888.07
451.254	888.75
451.628	909.54
452.002	890.78
452.376	907.5
452.75	947.05
453.123	919.71
453.497	935.53
453.871	946.37
454.244	924.23
454.618	944.79
454.992	956.09
455.365	961.29
455.739	973.72
456.112	977.33
456.486	982.3
456.859	1010.55
457.232	1042.42
457.606	1015.52
457.979	1030.66
458.352	1042.64
458.725	1067.73
459.099	1061.17
459.472	1082.19
459.845	1111.57
460.218	1107.73
460.591	1105.24
460.964	1102.3
461.337	1126.26
461.71	1168.74
462.083	1158.57
462.456	1175.07
462.829	1176.2
463.201	1187.95
463.574	1170.1
463.947	1229.76
464.32	1228.4
464.692	1252.58
465.065	1231.34
465.438	1260.04
465.81	1280.15
466.183	1319.02
466.555	1321.28
466.928	1314.05
467.3	1326.25
467.672	1359.7
468.045	1373.03
468.417	1388.85
468.789	1406.02
469.161	1433.37
469.534	1447.6
469.906	1508.84
470.278	1496.19
470.65	1517.21
471.022	1503.87
471.394	1566.92
471.766	1589.07
472.138	1648.05
472.51	1631.78
472.882	1684.66
473.253	1685.56
473.625	1713.36
473.997	1747.26
474.369	1756.3
474.74	1817.99
475.112	1807.37
475.484	1860.25
475.855	1898.66
476.227	1940.92
476.598	2001.94
476.97	2004.65
477.341	2054.37
477.713	2088.49
478.084	2116.29
478.455	2153.57
478.827	2180.24
479.198	2261.14
479.569	2297.07
479.94	2359.67
480.311	2368.26
480.682	2439.44
481.053	2471.98
481.424	2536.39
481.795	2606.67
482.166	2644.18
482.537	2707.91
482.908	2755.82
483.279	2787.23
483.65	2841.92
484.021	2977.73
484.391	2990.84
484.762	3074.91
485.133	3075.81
485.503	3188.57
485.874	3221.34
486.244	3285.75
486.615	3361.9
486.985	3411.85
487.356	3478.51
487.726	3478.51
488.097	3559.19
488.467	3664.49
488.837	3747.66
489.207	3777.71
489.578	3852.06
489.948	3899.06
490.318	3956.01
490.688	4074.65
491.058	4139.06
491.428	4201.66
491.798	4236.46
492.168	4360.97
492.538	4381.54
492.908	4392.84
493.278	4534.53
493.648	4538.37
494.017	4611.81
494.387	4696.56
494.757	4742.21
495.126	4836.21
495.496	4839.83
495.866	4884.35
496.235	4944.91
496.605	5017.45
496.974	5116.43
497.344	5051.35
497.713	5155.98
498.082	5211.57
498.452	5241.18
498.821	5340.16
499.19	5383.32
499.559	5409.31
499.928	5440.27
500.298	5512.13
500.667	5581.73
501.036	5600.26
501.405	5620.6
501.774	5690.66
502.143	5768.17
502.512	5739.24
502.88	5823.53
503.249	5826.47
503.618	5885
503.987	5923.64
504.356	5963.87
504.724	5998.44
505.093	6045.22
505.462	6120.7
505.83	6106.69
506.199	6187.14
506.567	6254.26
506.936	6268.04
507.304	6368.6
507.672	6350.53
508.041	6376.97
508.409	6435.49
508.777	6424.42
509.145	6513.23
509.514	6542.61
509.882	6556.62
510.25	6592.55
510.618	6674.36
510.986	6681.82
511.354	6698.54
511.722	6773.79
512.09	6812.21
512.458	6809.27
512.826	6860.34
513.193	6906.44
513.561	6904.63
513.929	6984.86
514.297	6996.38
514.664	7054.01
515.032	7079.09
515.4	7134.91
515.767	7147.34
516.135	7176.72
516.502	7183.05
516.869	7293.55
517.237	7275.47
517.604	7259.88
517.972	7351.4
518.339	7325.64
518.706	7395.24
519.073	7383.27
519.44	7414.23
519.808	7498.52
520.175	7547.1
520.542	7607.44
520.909	7675.46
521.276	7570.61
521.643	7661.68
522.009	7671.39
522.376	7726.76
522.743	7828.68
523.11	7920.43
523.477	7916.81
523.843	7943.48
524.21	8035.45
524.577	7979.18
524.943	8122
525.31	8102.57
525.676	8136.24
526.043	8192.74
526.409	8248.78
526.776	8278.84
527.142	8357.03
527.508	8374.88
527.874	8424.82
528.241	8537.36
528.607	8475.44
528.973	8617.81
529.339	8621.2
529.705	8649.67
530.071	8750.46
530.437	8770.57
530.803	8828.88
531.169	8820.52
531.535	8853.74
531.901	8903.68
532.267	8968.54
532.632	9046.5
532.998	9037.01
533.364	9086.95
533.73	9131.69
534.095	9182.32
534.461	9118.59
534.826	9259.15
535.192	9251.01
535.557	9351.58
535.923	9329.88
536.288	9418.02
536.653	9396.55
537.019	9418.92
537.384	9472.48
537.749	9510.89
538.114	9550.21
538.479	9602.19
538.845	9640.16
539.21	9594.73
539.575	9693.71
539.94	9732.81
540.305	9759.48
540.67	9734.16
541.034	9839.7
541.399	9837.44
541.764	9897.78
542.129	9923.99
542.494	10024.1
542.858	10089.18
543.223	10118.56
543.587	10174.83
543.952	10207.37
544.316	10210.54
544.681	10158.11
545.045	10292.12
545.41	10358.78
545.774	10374.37
546.138	10431.55
546.503	10439.01
546.867	10506.8
547.231	10560.36
547.595	10590.64
547.959	10608.94
548.324	10574.37
548.688	10671.09
549.052	10684.2
549.416	10725.33
549.779	10751.31
550.143	10765.1
550.507	10884.64
550.871	10867.69
551.235	10882.16
551.599	10972.1
551.962	10991.53
552.326	10999.22
552.689	11111.98
553.053	10983.4
553.417	11035.6
553.78	11165.54
554.143	11171.87
554.507	11260.45
554.87	11285.99
555.234	11319.43
555.597	11363.95
555.96	11340.22
556.323	11434.23
556.686	11398.98
557.05	11444.85
557.413	11516.04
557.776	11597.62
558.139	11571.18
558.502	11712.42
558.865	11684.4
559.228	11704.96
559.59	11691.63
559.953	11782.7
560.316	11920.1
560.679	11839.42
561.041	11970.72
561.404	11998.06
561.767	11979.08
562.129	11986.08
562.492	12135.46
562.854	12133.65
563.217	12101.56
563.579	12186.3
563.941	12272.18
564.304	12345.4
564.666	12388.11
565.028	12403.47
565.39	12396.02
565.753	12507.43
566.115	12463.13
566.477	12572.96
566.839	12622
567.201	12602.56
567.563	12678.04
567.925	12713.97
568.287	12779.73
568.648	12784.25
569.01	12831.71
569.372	12952.16
569.734	12954.19
570.095	13047.75
570.457	13145.37
570.819	13160.74
571.18	13183.11
571.542	13271.25
571.903	13280.29
572.265	13350.79
572.626	13416.78
572.987	13510.34
573.349	13564.8
573.71	13652.48
574.071	13684.12
574.432	13759.37
574.794	13874.62
575.155	13917.11
575.516	13879.59
575.877	14057.22
576.238	14161.85
576.599	14329.52
576.96	14371.33
577.32	14407.49
577.681	14625.11
578.042	14720.02
578.403	14817.42
578.763	14912.11
579.124	15052.9
579.485	15201.59
579.845	15316.39
580.206	15560.68
580.566	15585.99
580.927	15657.4
581.287	15919.77
581.648	16077.95
582.008	16251.06
582.368	16371.28
582.728	16651.05
583.089	16746.86
583.449	16931.49
583.809	17185.95
584.169	17411.25
584.529	17567.63
584.889	17844.46
585.249	17992.93
585.609	18227.27
585.969	18482.41
586.329	18709.07
586.688	18968.95
587.048	19180.24
587.408	19358.54
587.768	19562.16
588.127	19922.82
588.487	20104.51
588.846	20552.41
589.206	20727.32
589.565	20915.79
589.925	21333.86
590.284	21586.28
590.643	21815.88
591.003	22196.89
591.362	22513.04
591.721	22716.42
592.08	22967.94
592.44	23340.59
592.799	23703.74
593.158	23814.47
593.517	24146.89
593.876	24454.23
594.235	24729.48
594.593	25094.89
594.952	25397.26
595.311	25438.84
595.67	25804.25
596.029	26321.98
596.387	26597.9
596.746	26973.26
597.104	27120.15
597.463	27352.01
597.822	27740.7
598.18	27949.73
598.538	28176.62
598.897	28553.56
599.255	28597.4
599.613	29284.84
599.972	29504.72
600.33	29700.87
600.688	29897.7
601.046	30249.11
601.404	30591.24
601.762	30867.62
602.12	31184.9
602.478	31375.63
602.836	31599.8
603.194	31757.99
603.552	32043.63
603.91	32244.53
604.268	32593.68
604.625	32651.98
604.983	33002.93
605.341	33186.2
605.698	33585.97
606.056	33755.68
606.413	33942.79
606.771	34389.79
607.128	34442.44
607.485	34495.77
607.843	34779.83
608.2	35035.19
608.557	35429.08
608.914	35404.68
609.272	35779.36
609.629	35930.31
609.986	36235.16
610.343	36402.84
610.7	36709.95
611.057	36761.02
611.414	36881.7
611.771	37103.39
612.127	37377.05
612.484	37504.51
612.841	37687.1
613.198	37721
613.554	37873.99
613.911	38193.08
614.267	38344.26
614.624	38356.69
614.98	38558.72
615.337	38993.96
615.693	38928.65
616.05	38915.32
616.406	39383.33
616.762	39235.31
617.118	39450.45
617.475	39481.86
617.831	39784.9
618.187	39849.98
618.543	40051.33
618.899	40433.92
619.255	40364.32
619.611	40376.98
619.967	40772.67
620.323	40670.07
620.678	40779.22
621.034	40718.89
621.39	40750.3
621.746	40827.13
622.101	41291.98
622.457	40991.87
622.812	41346.22
623.168	41555.7
623.523	41502.82
623.879	41579.43
624.234	41414.24
624.589	41607.68
624.945	41649.03
625.3	41816.26
625.655	41752.53
626.01	41911.17
626.365	42091.51
626.72	41947.78
627.075	42188.23
627.43	42064.16
627.785	41907.33
628.14	42203.37
628.495	42299.86
628.85	42250.6
629.205	42132.86
629.559	42459.86
629.914	42444.94
630.269	42499.41
630.623	42305.06
630.978	42333.99
631.332	42484.04
631.687	42576.92
632.041	42432.74
632.396	42545.28
632.75	42403.81
633.104	42406.75
633.459	42293.31
633.813	42350.48
634.167	42345.96
634.521	42411.95
634.875	42481.55
635.229	42457.82
635.583	42153.2
635.937	42364.27
636.291	42239.07
636.645	42317.71
636.999	42298.96
637.352	42330.6
637.706	42284.5
638.06	42316.59
638.413	42148.68
638.767	42252.18
639.121	42416.02
639.474	42173.54
639.828	42141
640.181	42153.2
640.534	42401.55
640.888	42120.21
641.241	42051.51
641.594	42161.11
641.947	42181.67
642.301	42109.81
642.654	42209.47
643.007	42111.62
643.36	41962.02
643.713	41965.18
644.066	42180.54
644.419	41914.79
644.771	41741.01
645.124	41332.88
645.477	41317.52
645.83	40899.22
646.182	40859.67
646.535	40842.95
646.888	41008.14
647.24	40790.3
647.593	40920.46
647.945	40860.13
648.298	40659.91
648.65	40619.45
649.002	40546.69
649.355	40756.85
649.707	40569.29
650.059	40799.34
650.411	41221.02
650.763	41243.62
651.115	41708.69
651.467	41623.04
651.819	41562.48
652.171	41435.93
652.523	41436.61
652.875	41487.45
653.227	41277.29
653.578	41418.76
653.93	41359.77
654.282	41296.05
654.633	41122.49
654.985	41150.74
655.337	41249.72
655.688	41312.54
656.039	41375.37
656.391	41131.08
656.742	41083.4
657.094	41143.96
657.445	41235.48
657.796	41131.53
658.147	41099.44
658.498	41042.95
658.849	41202.04
659.2	41063.06
659.551	41129.5
659.902	41196.39
660.253	41115.94
660.604	41118.88
660.955	40924.53
661.306	41061.25
661.656	40919.33
662.007	40991.2
662.358	41057.64
662.708	40920.69
663.059	40906.68
663.409	40750.75
663.76	41050.18
664.11	41101.02
664.461	40901.48
664.811	40865.78
665.161	40917.3
665.511	40843.4
665.862	41019.22
666.212	41089.95
666.562	41066.9
666.912	40791.43
667.262	40908.03
667.612	40918.88
667.962	40911.88
668.312	40835.72
668.662	40953.23
669.011	40984.19
669.361	40659.91
669.711	40827.13
670.06	40775.38
670.41	40722.5
670.76	40690.41
671.109	40821.94
671.459	40771.54
671.808	40673.24
672.157	40872.33
672.507	40523.19
672.856	40612.45
673.205	40486.8
673.554	40746.23
673.904	40448.61
674.253	40722.28
674.602	40467.59
674.951	39945.8
675.3	39892.47
675.649	40394.6
675.998	40397.99
676.346	40482.51
676.695	40491.55
677.044	40285
677.393	40335.62
677.741	40356.41
678.09	40200.71
678.438	40121.16
678.787	40138.56
679.135	40269.86
679.484	39962.3
679.832	40240.48
680.181	40008.17
680.529	40160.03
680.877	39913.94
681.225	39831
681.573	39998.68
681.922	39681.17
682.27	39711.68
682.618	39753.26
682.966	39671.68
683.314	39589.65
683.661	39644.34
684.009	39509.2
684.357	39412.48
684.705	39338.58
685.053	39384.23
685.4	39320.51
685.748	39045.48
686.095	39157.12
686.443	38976.56
686.79	38880.74
687.138	39015.65
687.485	39165.71
687.832	38899.27
688.18	38831.7
688.527	38527.98
688.874	38603.69
689.221	38523.24
689.568	38521.43
689.915	38304.94
690.262	38452.73
690.609	38118.28
690.956	38047.77
691.303	37948.79
691.65	37925.51
691.997	37922.58
692.344	37593.77
692.69	37747.44
693.037	37746.99
693.383	37315.81
693.73	37525.98
694.077	37251.41
694.423	37308.58
694.769	37153.33
695.116	37039.66
695.462	37054.8
695.808	36893.45
696.155	36983.39
696.501	36790.4
696.847	36689.84
697.193	36541.14
697.539	36591.09
697.885	36323.52
698.231	36281.49
698.577	36161.27
698.923	36290.08
699.269	35990.2
699.614	35881.95
699.96	35743.88
700.306	35784.33
700.651	35625.46
700.997	35458.46
701.342	35478.8
701.688	35423.88
702.033	35205.81
702.379	35261.18
702.724	35183.44
703.069	35209.2
703.415	34714.98
703.76	34848.98
704.105	34883.11
704.45	34553.85
704.795	34570.12
705.14	34379.17
705.485	34439.5
705.83	34243.35
706.175	34411.71
706.52	34385.04
706.865	34192.28
707.209	34023.92
707.554	33883.59
707.899	34077.48
708.243	33889.91
708.588	33723.14
708.932	33641.56
709.277	33502.81
709.621	33612.18
709.966	33359.31
710.31	33411.51
710.654	33050.16
710.998	33272.53
711.342	33310.27
711.687	33137.84
712.031	33038.41
712.375	32837.96
712.719	32884.06
713.063	32805.87
713.407	32879.55
713.75	32677.06
714.094	32715.71
714.438	32518.42
714.782	32574.92
715.125	32444.98
715.469	32556.84
715.812	32252.89
716.156	32076.85
716.499	32232.56
716.843	32138.55
717.186	32057.19
717.53	32161.15
717.873	32201.14
718.216	32063.07
718.559	31935.84
718.902	31738.33
719.246	31752.34
719.589	31711.67
719.932	31449.07
720.275	31537.89
720.617	31450.66
720.96	31437.32
721.303	31344.67
721.646	31424.44
721.989	31184.22
722.331	31304.45
722.674	31163.88
723.016	31201.4
723.359	31094.51
723.701	31075.52
724.044	30826.94
724.386	30744.01
724.729	31022.64
725.071	30854.74
725.413	30790.33
725.755	30742.2
726.097	30510.12
726.439	30395.99
726.782	30614.97
727.124	30635.08
727.465	30381.98
727.807	30515.09
728.149	30414.3
728.491	30365.71
728.833	30421.98
729.175	30213.4
729.516	30196.68
729.858	30180.41
730.199	30027.87
730.541	30041.65
730.882	30065.38
731.224	30224.93
731.565	29836.24
731.906	29947.42
732.248	29934.54
732.589	29785.16
732.93	29663.13
733.271	29730.93
733.612	29671.27
733.953	29807.76
734.294	29678.05
734.635	29532.06
734.976	29650.7
735.317	29426.98
735.658	29337.27
735.999	29511.5
736.339	29468.11
736.68	29415.91
737.021	29370.48
737.361	29129.81
737.702	29318.73
738.042	29141.79
738.383	29166.87
738.723	29356.02
739.063	29059.76
739.404	29017.05
739.744	28906.54
740.084	28947.45
740.424	29009.82
740.764	28835.13
741.104	28891.4
741.444	28719.65
741.784	28641.01
742.124	28570.51
742.464	28676.94
742.804	28493.9
743.143	28590.39
743.483	28611.18
743.823	28400.57
744.162	28497.74
744.502	28428.14
744.841	28343.39
745.181	28528.93
745.52	28388.82
745.86	28292.1
746.199	28281.02
746.538	28209.16
746.877	28323.51
747.216	28201.02
747.556	28114.7
747.895	28148.82
748.234	28033.12
748.573	28015.94
748.911	27989.28
749.25	27964.65
749.589	27803.07
749.928	27848.49
750.267	27851.65
750.605	27713.13
750.944	27792.9
751.283	27628.38
751.621	27632.68
751.96	27573.47
752.298	27523.53
752.636	27549.52
752.975	27378.22
753.313	27349.97
753.651	27354.94
753.989	27239.24
754.327	27167.38
754.666	27041.05
755.004	27123.31
755.342	27194.5
755.679	27186.81
756.017	26912.47
756.355	26972.36
756.693	26827.5
757.031	26960.15
757.368	26750.21
757.706	26789.76
758.044	26609.43
758.381	26720.61
758.719	26549.77
759.056	26567.85
759.394	26563.1
759.731	26407.85
760.068	26336.89
760.405	26246.5
760.743	26166.05
761.08	26157.69
761.417	26042.44
761.754	26039.95
762.091	25827.3
762.428	25865.27
762.765	25658.04
763.102	25891.03
763.438	25576.01
763.775	25561.09
764.112	25612.39
764.449	25500.08
764.785	25348.67
765.122	25354.09
765.458	25191.61
765.795	25002.46
766.131	25080.43
766.467	24970.15
766.804	24908
767.14	24712.08
767.476	24799.31
767.812	24606.54
768.148	24661.46
768.485	24489.03
768.821	24418.98
769.157	24336.49
769.492	24278.19
769.828	24288.58
770.164	24049.49
770.5	23966.79
770.836	23968.14
771.171	23854.92
771.507	23817.86
771.842	23545.1
772.178	23607.47
772.513	23640.69
772.849	23434.6
773.184	23498.1
773.519	23394.82
773.855	23291.55
774.19	23232.79
774.525	23208.84
774.86	23036.64
775.195	22964.33
775.53	22921.84
775.865	22818.11
776.2	22595.07
776.535	22546.26
776.87	22462.42
777.205	22479.59
777.539	22293.16
777.874	22303.55
778.209	22161.63
778.543	22022.66
778.878	21980.62
779.212	21967.74
779.547	21775.43
779.881	21789.22
780.215	21788.09
780.55	21695.21
780.884	21573.63
781.218	21561.65
781.552	21492.73
781.886	21419.28
782.22	21269
782.554	21218.83
782.888	21064.26
783.222	21019.74
783.556	20861.33
783.889	20822.01
784.223	20677.38
784.557	20676.7
784.89	20704.95
785.224	20553.32
785.557	20513.54
785.891	20419.08
786.224	20378.86
786.558	20281.91
786.891	20157.17
787.224	20067.45
787.557	19905.2
787.891	19965.31
788.224	19912.2
788.557	19960.11
788.89	19835.82
789.223	19780.91
789.556	19517.41
789.888	19609.84
790.221	19643.06
790.554	19323.52
790.887	19422.72
791.219	19310.64
791.552	19304.99
791.884	19138.21
792.217	19166.91
792.549	19140.47
792.882	18963.07
793.214	18892.34
793.546	18926.01
793.879	18714.27
794.211	18642.86
794.543	18740.26
794.875	18624.33
795.207	18641.5
795.539	18519.02
795.871	18562.41
796.203	18365.8
796.535	18354.05
796.867	18241.51
797.198	18171.23
797.53	18261.62
797.862	18054.17
798.193	18083.1
798.525	18033.61
798.856	17986.83
799.188	17747.97
799.519	17717.01
799.85	17683.11
800.182	17723.56
800.513	17646.27
800.844	17538.25
801.175	17608.76
801.506	17491.48
801.837	17423.68
802.168	17285.38
802.499	17297.58
802.83	17225.04
803.161	17129
803.491	17098.27
803.822	17164.7
804.153	17020.98
804.483	16863.47
804.814	16964.26
805.145	16800.65
805.475	16828.44
805.805	16771.72
806.136	16712.74
806.466	16665.51
806.796	16622.57
807.126	16522.91
807.457	16452.41
807.787	16539.41
808.117	16439.98
808.447	16396.36
808.777	16378.06
809.107	16322.47
809.436	16224.84
809.766	16216.48
810.096	16182.36
810.426	16090.83
810.755	16110.72
811.085	16038.18
811.414	16040.21
811.744	15970.84
812.073	15904.4
812.403	15921.57
812.732	15824.4
813.061	15759.54
813.39	15664.86
813.719	15678.87
814.049	15725.19
814.378	15742.37
814.707	15608.36
815.036	15557.51
815.365	15444.75
815.693	15387.58
816.022	15415.15
816.351	15340.12
816.68	15161.37
817.008	15296.05
817.337	15143.51
817.665	15115.27
817.994	15148.49
818.322	15049.96
818.651	15048.15
818.979	15005.44
819.307	14973.58
819.636	15037.53
819.964	14983.07
820.292	14986
820.62	14931.54
820.948	14908.04
821.276	14926.57
821.604	14838.66
821.932	14935.61
822.259	14939.23
822.587	14865.33
822.915	14860.81
823.243	14927.93
823.57	14803.86
823.898	14821.49
824.225	14763.64
824.553	14730.87
824.88	14776.97
825.207	14852.22
825.535	14717.76
825.862	14815.16
826.189	14681.83
826.516	14715.05
826.843	14909.17
827.17	14785.33
827.497	14823.3
827.824	14782.17
828.151	14855.16
828.478	14689.97
828.805	14802.05
829.131	14794.6
829.458	14762.96
829.785	14649.52
830.111	14692.68
830.438	14765.67
830.764	14693.81
831.09	14720.93
831.417	14588.27
831.743	14767.7
832.069	14694.03
832.395	14590.31
832.722	14730.87
833.048	14669.63
833.374	14616.97
833.7	14569.07
834.026	14627.82
834.351	14566.35
834.677	14581.04
835.003	14650.87
835.329	14601.38
835.654	14530.65
835.98	14526.13
836.306	14473.25
836.631	14406.13
836.956	14434.61
837.282	14450.43
837.607	14362.07
837.932	14390.09
838.258	14409.3
838.583	14242.52
838.908	14287.72
839.233	14236.65
839.558	14264.22
839.883	14236.65
840.208	14191.67
840.533	14202.52
840.858	14150.55
841.182	14172.01
841.507	14167.27
841.832	14053.6
842.156	14102.64
842.481	14070.32
842.805	14079.81
843.13	13932.25
843.454	13897.22
843.778	13848.86
844.103	13830.33
844.427	13786.94
844.751	13748.07
845.075	13706.94
845.399	13796.21
845.723	13642.76
846.047	13692.03
846.371	13574.29
846.695	13484.35
847.019	13378.59
847.343	13305.6
847.666	13278.48
847.99	13291.13
848.313	13295.65
848.637	13156.22
848.96	13116.22
849.284	13148.31
849.607	13065.6
849.931	13005.72
850.254	12946.06
850.577	12904.93
850.9	12826.29
851.223	12789
851.546	12640.53
851.869	12594.88
852.192	12723.69
852.515	12571.6
852.838	12481.44
853.161	12479.63
853.483	12431.72
853.806	12423.81
854.129	12324.38
854.451	12309.46
854.774	12233.99
855.096	12168.9
855.419	12155.57
855.741	12089.81
856.063	12102.69
856.385	11963.94
856.708	12015.23
857.03	11941.11
857.352	11979.98
857.674	11895.01
857.996	11894.33
858.318	11782.02
858.64	11781.34
858.961	11826.99
859.283	11692.98
859.605	11691.63
859.926	11710.38
860.248	11703.6
860.57	11598.97
860.891	11562.37
861.212	11557.85
861.534	11504.06
861.855	11502.48
862.176	11532.76
862.498	11438.98
862.819	11488.92
863.14	11408.25
863.461	11348.81
863.782	11345.65
864.103	11370.73
864.424	11357.17
864.745	11345.65
865.065	11250.51
865.386	11203.28
865.707	11232.88
866.027	11172.09
866.348	11226.33
866.668	11192.21
866.989	11079.44
867.309	11040.8
867.63	11023.4
867.95	11110.85
868.27	10922.83
868.59	10961.03
868.91	10966.22
869.23	10976.62
869.55	10878.77
869.87	10928.48
870.19	10942.27
870.51	10940.01
870.83	10957.86
871.15	10896.39
871.469	10884.42
871.789	10855.72
872.109	10840.8
872.428	10740.24
872.748	10800.35
873.067	10788.6
873.386	10817.3
873.706	10803.74
874.025	10725.1
874.344	10683.29
874.663	10695.5
874.982	10671.09
875.301	10714.25
875.62	10635.61
875.939	10649.62
876.258	10576.85
876.577	10563.75
876.896	10581.15
877.214	10509.51
877.533	10564.43
877.852	10517.65
878.17	10503.86
878.489	10522.17
878.807	10530.3
879.125	10450.76
879.444	10461.15
879.762	10392.23
880.08	10403.53
880.398	10382.28
880.716	10383.64
881.034	10382.74
881.352	10334.38
881.67	10304.09
881.988	10298.22
882.306	10253.47
882.624	10196.07
882.941	10186.13
883.259	10073.37
883.577	10196.3
883.894	10146.81
884.212	10153.36
884.529	10050.54
884.846	10032.46
885.164	10021.16
885.481	9999.02
885.798	10059.81
886.115	9914.95
886.432	9937.32
886.75	9941.17
887.067	9925.8
887.383	9905.01
887.7	9867.72
888.017	9802.19
888.334	9850.09
888.651	9799.02
888.967	9803.54
889.284	9729.42
889.6	9689.65
889.917	9554.96
890.233	9623.89
890.55	9573.72
890.866	9617.33
891.182	9489.43
891.498	9460.73
891.815	9480.39
892.131	9518.13
892.447	9445.58
892.763	9483.32
893.079	9451.91
893.395	9309.32
893.71	9297.11
894.026	9321.29
894.342	9240.62
894.657	9271.8
894.973	9200.85
895.289	9205.37
895.604	9183.44
895.92	9128.76
896.235	9065.48
896.55	9121.53
896.865	9024.81
897.181	8992.04
897.496	9014.18
897.811	9012.6
898.126	8860.06
898.441	8944.81
898.756	8939.84
899.071	8869.1
899.386	8829.33
899.7	8730.35
900.015	8743.91
900.33	8678.37
900.644	8622.1
900.959	8706.17
901.273	8612.16
901.588	8624.82
901.902	8478.6
902.216	8453.07
902.531	8484.03
902.845	8459.62
903.159	8422.56
903.473	8396.57
903.787	8397.48
904.101	8323.13
904.415	8353.86
904.729	8316.12
905.042	8249.68
905.356	8229.57
905.67	8205.84
905.984	8222.57
906.297	8159.97
906.611	8091.27
906.924	8130.37
907.237	8035.45
907.551	8013.53
907.864	7963.82
908.177	8002.23
908.491	7930.14
908.804	7916.81
909.117	7845.63
909.43	7803.37
909.743	7767.89
910.056	7715.69
910.368	7695.35
910.681	7657.38
910.994	7675.69
911.307	7629.36
911.619	7493.55
911.932	7574.67
912.244	7520.21
912.557	7499.87
912.869	7458.29
913.181	7336.71
913.494	7393.89
913.806	7329.48
914.118	7296.71
914.43	7268.02
914.742	7331.06
915.054	7231.63
915.366	7266.89
915.678	7158.64
915.99	7122.26
916.302	7115.48
916.613	7090.62
916.925	7096.49
917.236	7094.01
917.548	7021.02
917.859	7026.89
918.171	6986.44
918.482	6920.23
918.794	6893.11
919.105	6861.02
919.416	6843.17
919.727	6818.99
920.038	6776.73
920.349	6811.3
920.66	6726.11
920.971	6663.96
921.282	6694.24
921.593	6611.54
921.903	6586.9
922.214	6572.21
922.525	6559.56
922.835	6544.42
923.146	6486.57
923.456	6466
923.767	6410.18
924.077	6376.06
924.387	6403.41
924.697	6365.44
925.008	6360.92
925.318	6315.72
925.628	6303.07
925.938	6258.55
926.248	6175.84
926.558	6174.71
926.867	6181.26
927.177	6154.6
927.487	6108.5
927.796	6039.8
928.106	6067.14
928.416	6036.64
928.725	6058.33
929.034	6006.13
929.344	6007.48
929.653	5978.11
929.962	5902.4
930.271	5913.47
930.581	5861.95
930.89	5852.69
931.199	5806.58
931.508	5805
931.817	5779.92
932.125	5745.34
932.434	5710.09
932.743	5711.67
933.051	5689.07
933.36	5659.02
933.669	5625.12
933.977	5527.04
934.286	5548.96
934.594	5580.38
934.902	5478.91
935.21	5457.44
935.519	5433.94
935.827	5448.85
936.135	5467.61
936.443	5406.6
936.751	5379.93
937.059	5369.76
937.367	5338.57
937.674	5358.46
937.982	5327.05
938.29	5264
938.597	5257.22
938.905	5170.22
939.213	5168.64
939.52	5144.23
939.827	5197.79
940.135	5110.33
940.442	5114.63
940.749	5102.87
941.056	5037.34
941.363	5028.53
941.67	5033.27
941.977	4976.78
942.284	4976.55
942.591	5002.99
942.898	4917.57
943.205	4923.9
943.511	4885.48
943.818	4868.76
944.125	4847.06
944.431	4830.79
944.738	4827.63
945.044	4812.94
945.35	4785.82
945.657	4705.37
945.963	4737.01
946.269	4707.18
946.575	4722.09
946.881	4681.87
947.187	4679.38
947.493	4624.47
947.799	4577.69
948.105	4565.49
948.41	4588.31
948.716	4563.45
949.022	4538.6
949.327	4526.39
949.633	4473.51
949.938	4488.2
950.244	4467.18
950.549	4397.58
950.854	4398.49
951.16	4392.61
951.465	4409.33
951.77	4370.24
952.075	4349.45
952.38	4339.96
952.685	4312.16
952.99	4263.8
953.294	4268.77
953.599	4286.85
953.904	4199.85
954.209	4177.93
954.513	4174.54
954.818	4158.04
955.122	4160.3
955.426	4125.27
955.731	4113.07
956.035	4065.84
956.339	4053.64
956.643	4079.62
956.948	4058.16
957.252	4064.94
957.556	4020.87
957.86	3989.46
958.163	3988.1
958.467	3925.5
958.771	3937.26
959.075	3950.81
959.378	3892.51
959.682	3872.62
959.985	3855.9
960.289	3869.69
960.592	3825.62
960.896	3833.53
961.199	3838.73
961.502	3789.91
961.805	3781.55
962.108	3712.4
962.411	3744.27
962.714	3720.99
963.017	3774.55
963.32	3668.11
963.623	3659.07
963.926	3656.36
964.228	3646.87
964.531	3636.47
964.833	3621.56
965.136	3578.17
965.438	3586.08
965.741	3627.21
966.043	3551.95
966.345	3539.3
966.648	3504.5
966.95	3463.14
967.252	3478.74
967.554	3510.15
967.856	3445.06
968.158	3431.28
968.46	3438.96
968.761	3414.78
969.063	3410.04
969.365	3397.83
969.666	3372.75
969.968	3381.34
970.269	3316.03
970.571	3313.54
970.872	3308.35
971.174	3292.98
971.475	3279.42
971.776	3260.89
972.077	3248.46
972.378	3265.18
972.679	3254.11
972.98	3214.11
973.281	3226.31
973.582	3161.68
973.883	3171.85
974.183	3152.64
974.484	3135.24
974.785	3151.97
975.085	3160.33
975.386	3119.88
975.686	3114.9
975.986	3084.17
976.287	3056.15
976.587	3043.27
976.887	3041.69
977.187	3005.98
977.487	3027
977.787	2977.96
978.087	2974.12
978.387	2940.45
978.687	2971.86
978.987	2948.35
979.286	2936.83
979.586	2890.73
979.885	2906.1
980.185	2902.71
980.484	2878.75
980.784	2904.74
981.083	2830.39
981.382	2838.75
981.682	2854.12
981.981	2809.83
982.28	2795.36
982.579	2756.27
982.878	2803.95
983.177	2783.39
983.475	2758.3
983.774	2755.14
984.073	2699.1
984.372	2728.02
984.67	2662.26
984.969	2701.58
985.267	2695.71
985.566	2656.16
985.864	2629.49
986.162	2629.27
986.461	2627.01
986.759	2618.42
987.057	2595.82
987.355	2625.43
987.653	2591.08
987.951	2562.83
988.249	2558.53
988.547	2546.56
988.844	2518.76
989.142	2490.97
989.44	2541.81
989.737	2526.22
990.035	2498.65
990.332	2512.89
990.63	2482.83
990.927	2437.86
991.224	2436.28
991.521	2417.75
991.819	2406.45
992.116	2439.89
992.413	2373.91
992.71	2332.55
993.006	2373.45
993.303	2393.79
993.6	2365.55
993.897	2356.73
994.193	2324.19
994.49	2310.86
994.787	2282.84
995.083	2293.91
995.379	2317.41
995.676	2263.17
995.972	2274.47
996.268	2268.15
996.565	2233.57
996.861	2234.02
997.157	2244.87
997.453	2192.22
997.749	2220.24
998.044	2195.15
998.34	2183.63
998.636	2198.32
998.932	2131.88
999.227	2145.21
999.523	2113.8
999.818	2094.37
1000.114	2119.68
1000.409	2095.27
1000.704	2113.35
1001	2070.86
1001.295	2078.32
1001.59	2063.63
1001.885	2061.15
1002.18	2054.82
1002.475	2024.31
1002.77	2003.52
1003.065	2004.65
1003.359	2016.85
1003.654	1976.18
1003.949	1962.62
1004.243	1963.52
1004.538	1938.44
1004.832	1943.86
1005.127	1937.31
1005.421	1910.87
1005.715	1896.86
1006.009	1906.8
1006.304	1900.92
1006.598	1863.19
1006.892	1890.08
1007.186	1862.51
1007.48	1828.61
1007.773	1822.96
1008.067	1791.1
1008.361	1817.99
1008.655	1811.89
1008.948	1812.79
1009.242	1800.36
1009.535	1770.76
1009.829	1758.78
1010.122	1768.27
1010.415	1763.53
1010.708	1750.42
1011.001	1756.97
1011.295	1734.38
1011.588	1691.21
1011.881	1695.28
1012.173	1679.46
1012.466	1681.5
1012.759	1662.29
1013.052	1648.5
1013.344	1660.48
1013.637	1617.99
1013.93	1636.75
1014.222	1645.34
1014.514	1605.79
1014.807	1588.39
1015.099	1569.41
1015.391	1631.1
1015.683	1598.56
1015.976	1561.5
1016.268	1567.15
1016.56	1527.15
1016.851	1534.83
1017.143	1521.95
1017.435	1492.35
1017.727	1499.81
1018.018	1514.95
1018.31	1486.25
1018.602	1486.25
1018.893	1486.25
1019.185	1475.17
1019.476	1441.05
1019.767	1469.52
1020.058	1429.98
1020.35	1414.61
1020.641	1439.69
1020.932	1399.69
1021.223	1384.33
1021.514	1394.27
1021.804	1375.29
1022.095	1395.85
1022.386	1352.01
1022.677	1351.56
1022.967	1349.53
1023.258	1359.47
1023.548	1308.85
1023.839	1330.54
1024.129	1326.7
1024.419	1288.29
1024.709	1292.35
1025	1262.75
1025.29	1275.63
1025.58	1292.8
1025.87	1269.98
1026.16	1230.21
1026.449	1256.42
1026.739	1248.06
1027.029	1257.78
1027.319	1204.9
1027.608	1208.97
1027.898	1221.85
1028.187	1194.5
1028.477	1197.44
1028.766	1196.54
1029.055	1178.46
1029.344	1148.18
1029.634	1151.34
1029.923	1140.49
1030.212	1130.32
1030.501	1141.4
1030.79	1125.58
1031.078	1107.05
1031.367	1097.56
1031.656	1114.5
1031.945	1119.48
1032.233	1086.93
1032.522	1074.96
1032.81	1090.78
1033.099	1082.19
1033.387	1060.27
1033.675	1065.69
1033.963	1029.31
1034.251	1041.96
1034.54	1030.89
1034.828	1066.82
1035.116	1030.44
1035.403	994.96
1035.691	999.71
1035.979	1013.26
1036.267	995.64
1036.554	980.04
1036.842	954.06
1037.129	991.12
1037.417	966.03
1037.704	963.1
1037.992	963.77
1038.279	969.65
1038.566	969.2
1038.853	969.2
1039.14	969.2
