Data from hue_110_FLMS001491_00083.txt Node
Date: Tue Feb 07 17:01:56 GMT 2017
User: dcchb
Spectrometer: FLMS00149
Trigger mode: 0
Integration Time (sec): 2.000000E-2
Scans to average: 10
Electric dark correction enabled: true
Nonlinearity correction enabled: false
Boxcar width: 0
XAxis mode: Wavelengths
Number of Pixels in Spectrum: 2048
>>>>>Begin Spectral Data<<<<<
341.393	11.2
341.776	11.2
342.16	11.2
342.543	-78.06
342.927	-64.5
343.31	-68.35
343.693	-60.44
344.077	-79.42
344.46	-57.05
344.843	-72.41
345.226	-46.88
345.61	-31.51
345.993	-15.69
346.376	-8.01
346.759	10.07
347.142	23.18
347.525	53.23
347.908	59.11
348.291	94.81
348.674	93.23
349.057	106.11
349.44	135.26
349.823	130.07
350.206	126.9
350.588	180.91
350.971	220.01
351.354	203.96
351.737	260.01
352.119	226.11
352.502	265.88
352.884	256.39
353.267	281.02
353.65	281.7
354.032	290.51
354.414	295.49
354.797	298.88
355.179	315.6
355.562	307.01
355.944	311.31
356.326	334.36
356.709	347.91
357.091	338.88
357.473	342.27
357.855	339.78
358.238	358.76
358.62	345.88
359.002	335.49
359.384	344.07
359.766	319.89
360.148	321.02
360.53	342.94
360.912	321.93
361.294	327.8
361.676	348.37
362.057	321.47
362.439	332.1
362.821	344.07
363.203	329.61
363.584	306.79
363.966	310.85
364.348	316.28
364.729	285.54
365.111	306.79
365.493	339.1
365.874	324.86
366.256	311.98
366.637	334.58
367.019	323.28
367.4	294.13
367.781	323.51
368.163	295.49
368.544	295.26
368.925	313.11
369.306	306.33
369.688	310.18
370.069	310.63
370.45	316.05
370.831	316.28
371.212	321.25
371.593	301.59
371.974	295.26
372.355	311.31
372.736	330.29
373.117	313.79
373.498	314.7
373.879	310.85
374.26	290.74
374.641	297.29
375.021	327.8
375.402	318.54
375.783	317.18
376.163	326.22
376.544	344.3
376.925	325.77
377.305	316.05
377.686	340.46
378.066	333.23
378.447	342.04
378.827	330.29
379.208	333.45
379.588	321.7
379.968	331.87
380.349	335.26
380.729	329.16
381.109	337.07
381.489	341.36
381.87	318.08
382.25	334.13
382.63	332.32
383.01	344.75
383.39	345.2
383.77	345.65
384.15	349.5
384.53	318.99
384.91	357.18
385.29	365.77
385.67	351.98
386.049	335.71
386.429	352.89
386.809	360.12
387.189	343.39
387.568	355.6
387.948	356.73
388.328	357.86
388.707	348.14
389.087	353.34
389.466	379.55
389.846	365.99
390.225	345.2
390.605	351.98
390.984	358.08
391.363	365.77
391.743	361.93
392.122	373.68
392.501	347.01
392.881	374.81
393.26	354.24
393.639	361.25
394.018	384.3
394.397	373.68
394.776	368.25
395.155	380.23
395.534	387.91
395.913	392.43
396.292	396.73
396.671	387.01
397.05	377.74
397.429	396.73
397.808	382.49
398.186	383.17
398.565	376.61
398.944	382.94
399.323	379.55
399.701	396.73
400.08	392.89
400.458	399.89
400.837	407.12
401.215	406.22
401.594	381.13
401.972	403.05
402.351	409.61
402.729	391.98
403.107	398.99
403.486	405.09
403.864	432.43
404.242	412.55
404.62	396.73
404.999	423.62
405.377	419.78
405.755	412.77
406.133	413.22
406.511	416.39
406.889	419.78
407.267	439.44
407.645	437.18
408.023	444.18
408.401	432.21
408.779	434.92
409.156	443.51
409.534	459.1
409.912	426.56
410.29	436.73
410.667	470.4
411.045	468.82
411.422	445.31
411.8	467.46
412.178	464.07
412.555	483.28
412.933	476.72
413.31	465.43
413.687	485.54
414.065	478.53
414.442	467.46
414.819	496.61
415.197	492.09
415.574	507.68
415.951	495.03
416.328	459.32
416.705	496.39
417.082	481.47
417.46	514.24
417.837	511.98
418.214	506.1
418.591	514.92
418.967	498.19
419.344	515.59
419.721	518.53
420.098	525.99
420.475	536.38
420.852	524.41
421.228	538.19
421.605	528.47
421.982	524.86
422.358	536.16
422.735	566.21
423.111	542.71
423.488	545.65
423.864	551.98
424.241	550.4
424.617	564.86
424.994	540.68
425.37	569.15
425.746	563.05
426.123	588.81
426.499	572.99
426.875	570.73
427.251	587.46
427.627	589.94
428.003	597.63
428.379	570.28
428.756	611.64
429.132	633.33
429.507	611.18
429.883	614.57
430.259	626.1
430.635	629.94
431.011	634.91
431.387	632.65
431.763	640.56
432.138	659.32
432.514	654.12
432.89	648.47
433.265	672.2
433.641	649.38
434.016	671.75
434.392	699.54
434.767	709.49
435.143	677.17
435.518	690.73
435.894	692.31
436.269	735.25
436.644	742.25
437.02	728.24
437.395	733.67
437.77	734.8
438.145	751.07
438.52	735.93
438.895	750.62
439.271	752.2
439.646	769.6
440.021	773.67
440.395	784.29
440.77	769.15
441.145	787.68
441.52	791.29
441.895	784.51
442.27	798.07
442.645	794
443.019	795.13
443.394	811.86
443.769	809.82
444.143	815.47
444.518	833.33
444.892	821.8
445.267	831.52
445.641	844.62
446.016	831.52
446.39	841.01
446.764	852.08
447.139	857.51
447.513	876.71
447.887	858.64
448.262	876.49
448.636	890.95
449.01	890.95
449.384	879.2
449.758	899.31
450.132	899.09
450.506	910.39
450.88	913.1
451.254	894.34
451.628	946.77
452.002	938.41
452.376	961.91
452.75	964.85
453.123	956.26
453.497	969.82
453.871	994.45
454.244	982.02
454.618	1000.78
454.992	982.93
455.365	1026.77
455.739	1050.95
456.112	1050.27
456.486	1068.12
456.859	1083.26
457.232	1084.17
457.606	1089.36
457.979	1077.39
458.352	1108.8
458.725	1133.2
459.099	1155.12
459.472	1173.2
459.845	1152.87
460.218	1166.65
460.591	1220.21
460.964	1195.58
461.337	1217.04
461.71	1263.6
462.083	1227.44
462.456	1255.24
462.829	1269.47
463.201	1287.1
463.574	1305.4
463.947	1312.63
464.32	1350.6
464.692	1381.11
465.065	1374.33
465.438	1386.31
465.81	1408.9
466.183	1438.28
466.555	1470.6
466.928	1471.73
467.3	1489.35
467.672	1514.89
468.045	1538.39
468.417	1559.63
468.789	1599.18
469.161	1607.09
469.534	1644.15
469.906	1680.99
470.278	1689.35
470.65	1705.62
471.022	1742.91
471.394	1789.91
471.766	1807.99
472.138	1833.07
472.51	1912.17
472.882	1927.53
473.253	1960.53
473.625	2006.85
473.997	2050.02
474.369	2069
474.74	2107.87
475.112	2162.33
475.484	2205.27
475.855	2282.1
476.227	2341.53
476.598	2408.43
476.97	2457.24
477.341	2517.12
477.713	2571.81
478.084	2596.67
478.455	2721.86
478.827	2747.17
479.198	2857.91
479.569	2921.41
479.94	3045.24
480.311	3095.41
480.682	3142.42
481.053	3308.29
481.424	3368.63
481.795	3410.43
482.166	3527.72
482.537	3605.91
482.908	3728.62
483.279	3794.15
483.65	3897.2
484.021	4015.16
484.391	4167.48
484.762	4234.37
485.133	4295.38
485.503	4421.03
485.874	4576.96
486.244	4648.82
486.615	4809.04
486.985	4864.18
487.356	5066.66
487.726	5154.57
488.097	5374.22
488.467	5350.72
488.837	5596.36
489.207	5672.29
489.578	5839.75
489.948	5977.82
490.318	6123.58
490.688	6132.4
491.058	6314.54
491.428	6495.1
491.798	6609.44
492.168	6780.06
492.538	6923.33
492.908	7029.55
493.278	7206.72
493.648	7307.51
494.017	7402.42
494.387	7584.11
494.757	7816.64
495.126	7855.51
495.496	7913.37
495.866	8015.51
496.235	8293.02
496.605	8320.13
496.974	8471.54
497.344	8592.67
497.713	8691.42
498.082	8843.74
498.452	8917.63
498.821	9067.69
499.19	9090.96
499.559	9213.44
499.928	9374.57
500.298	9463.83
500.667	9618.18
501.036	9656.6
501.405	9730.04
501.774	9818.17
502.143	9968.23
502.512	10011.62
502.88	10148.79
503.249	10207.54
503.618	10313.75
503.987	10384.03
504.356	10461.32
504.724	10511.94
505.093	10623.12
505.462	10639.85
505.83	10802.33
506.199	10854.3
506.567	11016.33
506.936	10990.8
507.304	11155.09
507.672	11248.42
508.041	11314.18
508.409	11348.53
508.777	11561.63
509.145	11558.69
509.514	11559.6
509.882	11728.86
510.25	11670.55
510.618	11687.05
510.986	11754.62
511.354	11947.16
511.722	12049.3
512.09	12083.2
512.458	12070.09
512.826	12162.75
513.193	12266.92
513.561	12282.29
513.929	12316.87
514.297	12363.87
514.664	12457.65
515.032	12530.42
515.4	12565.45
515.767	12583.98
516.135	12682.51
516.502	12588.72
516.869	12729.28
517.237	12788.04
517.604	12858.55
517.972	12870.3
518.339	12992.1
518.706	12902.39
519.073	12972.44
519.44	13020.8
519.808	13121.82
520.175	13048.37
520.542	13249.95
520.909	13230.97
521.276	13229.84
521.643	13259.67
522.009	13398.19
522.376	13370.4
522.743	13406.78
523.11	13490.17
523.477	13517.51
523.843	13686.77
524.21	13656.04
524.577	13634.34
524.943	13671.86
525.31	13677.73
525.676	13775.58
526.043	13865.53
526.409	13907.33
526.776	13963.15
527.142	13962.7
527.508	14035.24
527.874	13962.47
528.241	13980.32
528.607	14008.8
528.973	14033.88
529.339	13981
529.705	14085.86
530.071	14108.68
530.437	14225.29
530.803	14119.76
531.169	14129.7
531.535	14163.14
531.901	14069.59
532.267	14119.08
532.632	14217.38
532.998	14072.53
533.364	14217.61
533.73	14107.1
534.095	14257.61
534.461	14209.47
534.826	14176.03
535.192	14200.43
535.557	14205.86
535.923	14103.03
536.288	14162.47
536.653	14139.19
537.019	14015.58
537.384	14119.3
537.749	14126.99
538.114	13987.33
538.479	13956.14
538.845	13963.6
539.21	14040.21
539.575	13933.55
539.94	13884.51
540.305	13976.48
540.67	13814.45
541.034	13823.72
541.399	13907.11
541.764	13738.07
542.129	13854.45
542.494	13738.52
542.858	13812.42
543.223	13761.35
543.587	13769.71
543.952	13635.25
544.316	13672.99
544.681	13628.92
545.045	13670.5
545.41	13623.05
545.774	13551.41
546.138	13548.47
546.503	13503.5
546.867	13376.27
547.231	13526.1
547.595	13492.65
547.959	13502.14
548.324	13401.81
548.688	13381.24
549.052	13310.29
549.416	13345.99
549.779	13231.42
550.143	13243.62
550.507	13277.52
550.871	13272.77
551.235	13185.32
551.599	13212.89
551.962	13199.78
552.326	13135.83
552.689	13168.82
553.053	13118.88
553.417	13041.82
553.78	13203.17
554.143	13049.73
554.507	13035.94
554.87	13014.7
555.234	13136.28
555.597	12958.43
555.96	13028.26
556.323	13040.24
556.686	12907.58
557.05	13072.1
557.413	12983.06
557.776	13017.86
558.139	13046.79
558.502	12921.14
558.865	12900.8
559.228	13015.38
559.59	12920.92
559.953	13040.01
560.316	13063.96
560.679	13031.42
561.041	12986
561.404	13091.76
561.767	13072.78
562.129	13055.15
562.492	13086.79
562.854	13073.23
563.217	12985.77
563.579	13054.02
563.941	13160.46
564.304	13016.06
564.666	13082.04
565.028	13119.78
565.39	13112.32
565.753	13168.59
566.115	13164.98
566.477	13189.84
566.839	13151.42
567.201	13272.32
567.563	13249.72
567.925	13232.32
568.287	13201.36
568.648	13246.11
569.01	13329.72
569.372	13295.82
569.734	13233.45
570.095	13238.65
570.457	13329.04
570.819	13385.09
571.18	13325.2
571.542	13396.16
571.903	13366.56
572.265	13464.63
572.626	13388.7
572.987	13489.49
573.349	13411.75
573.71	13453.56
574.071	13445.2
574.432	13482.03
574.794	13534.23
575.155	13541.24
575.516	13415.59
575.877	13571.3
576.238	13551.86
576.599	13602.03
576.96	13520
577.32	13462.82
577.681	13532.88
578.042	13510.51
578.403	13516.83
578.763	13630.73
579.124	13520
579.485	13562.93
579.845	13610.16
580.206	13584.18
580.566	13557.51
580.927	13510.28
581.287	13649.94
581.648	13573.33
582.008	13648.13
582.368	13620.33
582.728	13614.91
583.089	13575.59
583.449	13476.83
583.809	13504.86
584.169	13542.14
584.529	13498.76
584.889	13580.11
585.249	13501.24
585.609	13414.92
585.969	13605.65
586.329	13383.96
586.688	13456.27
587.048	13440.23
587.408	13455.59
587.768	13362.26
588.127	13423.5
588.487	13397.74
588.846	13456.95
589.206	13391.64
589.565	13444.29
589.925	13435.71
590.284	13366.33
590.643	13353.45
591.003	13349.15
591.362	13440.45
591.721	13356.84
592.08	13394.58
592.44	13416.05
592.799	13415.14
593.158	13293.56
593.517	13342.83
593.876	13402.94
594.235	13281.81
594.593	13312.09
594.952	13321.36
595.311	13257.41
595.67	13387.8
596.029	13400.9
596.387	13329.49
596.746	13393
597.104	13260.12
597.463	13265.32
597.822	13389.15
598.18	13213.34
598.538	13304.64
598.897	13262.38
599.255	13256.28
599.613	13410.17
599.972	13309.83
600.33	13310.06
600.688	13234.13
601.046	13345.09
601.404	13340.79
601.762	13316.84
602.12	13400.9
602.478	13382.37
602.836	13355.93
603.194	13219.21
603.552	13271.42
603.91	13203.85
604.268	13279.1
604.625	13277.74
604.983	13332.43
605.341	13188.03
605.698	13269.61
606.056	13290.85
606.413	13375.14
606.771	13327.91
607.128	13353
607.485	13337.86
607.843	13335.82
608.2	13393.22
608.557	13388.93
608.914	13300.57
609.272	13429.38
609.629	13458.76
609.986	13402.94
610.343	13393.67
610.7	13436.84
611.057	13420.79
611.414	13331.53
611.771	13411.07
612.127	13537.17
612.484	13466.89
612.841	13505.53
613.198	13421.92
613.554	13487.68
613.911	13583.95
614.267	13503.95
614.624	13542.82
614.98	13574.69
615.337	13584.63
615.693	13590.96
616.05	13589.83
616.406	13630.5
616.762	13635.47
617.118	13597.51
617.475	13691.74
617.831	13694.46
618.187	13659.43
618.543	13703.5
618.899	13741.01
619.255	13740.56
619.611	13659.43
619.967	13741.01
620.323	13780.78
620.678	13709.6
621.034	13715.92
621.39	13763.38
621.746	13684.51
622.101	13807.45
622.457	13664.4
622.812	13735.59
623.168	13844.06
623.523	13791.18
623.879	13751.4
624.234	13651.07
624.589	13769.03
624.945	13717.28
625.3	13736.49
625.655	13757.73
626.01	13790.05
626.365	13701.91
626.72	13624.18
627.075	13726.55
627.43	13665.08
627.785	13656.27
628.14	13709.6
628.495	13762.48
628.85	13694.91
629.205	13649.71
629.559	13641.12
629.914	13652.42
630.269	13625.98
630.623	13667.11
630.978	13521.13
631.332	13653.33
631.687	13637.28
632.041	13525.65
632.396	13627.34
632.75	13514.57
633.104	13516.61
633.459	13513.44
633.813	13604.29
634.167	13543.05
634.521	13519.55
634.875	13510.96
635.229	13578.75
635.583	13386.44
635.937	13484.74
636.291	13426.44
636.645	13452.2
636.999	13367.69
637.352	13399.77
637.706	13318.2
638.06	13381.24
638.413	13334.24
638.767	13237.07
639.121	13280
639.474	13240.46
639.828	13291.08
640.181	13284.98
640.534	13298.53
640.888	13218.76
641.241	13198.88
641.594	13181.02
641.947	13258.31
642.301	13253.79
642.654	13191.42
643.007	13159.1
643.36	13161.14
643.713	13228.71
644.066	13275.26
644.419	13146.67
644.771	13086.79
645.124	12947.58
645.477	12980.35
645.83	12848.15
646.182	12778.1
646.535	12752.11
646.888	12809.28
647.24	12690.64
647.593	12729.06
647.945	12684.09
648.298	12654.03
648.65	12678.21
649.002	12605.67
649.355	12726.57
649.707	12694.26
650.059	12740.36
650.411	12835.95
650.763	12892.22
651.115	12959.33
651.467	12928.37
651.819	12944.42
652.171	12994.59
652.523	12967.02
652.875	12977.86
653.227	12929.05
653.578	13041.14
653.93	12930.41
654.282	12905.55
654.633	12915.04
654.985	12948.71
655.337	13000.92
655.688	12957.53
656.039	13009.5
656.391	12852.44
656.742	12930.18
657.094	13072.55
657.445	13022.84
657.796	13018.99
658.147	12972.44
658.498	12953.46
658.849	12967.7
659.2	12975.38
659.551	13002.95
659.902	12995.04
660.253	12972.22
660.604	13068.26
660.955	12957.98
661.306	12984.19
661.656	12974.7
662.007	12948.04
662.358	12995.49
662.708	13064.42
663.059	13021.25
663.409	12844.54
663.76	13046.34
664.11	13040.46
664.461	13028.26
664.811	13032.78
665.161	13079.11
665.511	12951.88
665.862	13007.47
666.212	13051.31
666.562	13070.29
666.912	13043.63
667.262	13044.08
667.612	13121.36
667.962	13135.15
668.312	13089.27
668.662	13145.54
669.011	13042.72
669.361	13083.62
669.711	13038.88
670.06	12987.36
670.41	13003.85
670.76	12991.88
671.109	13027.13
671.459	12990.07
671.808	13011.08
672.157	13049.5
672.507	12859.45
672.856	12952.78
673.205	12942.61
673.554	12953.01
673.904	12881.82
674.253	13028.49
674.602	12981.48
674.951	12781.26
675.3	12672.34
675.649	12866.46
675.998	12808.38
676.346	12835.27
676.695	12917.53
677.044	12764.76
677.393	12756.4
677.741	12850.64
678.09	12745.33
678.438	12655.16
678.787	12787.14
679.135	12701.04
679.484	12673.47
679.832	12727.25
680.181	12591.43
680.529	12764.09
680.877	12674.82
681.225	12670.98
681.573	12686.35
681.922	12656.97
682.27	12534.03
682.618	12528.84
682.966	12520.48
683.314	12572.68
683.661	12538.55
684.009	12371.1
684.357	12432.79
684.705	12343.98
685.053	12408.16
685.4	12340.14
685.748	12303.98
686.095	12276.41
686.443	12275.74
686.79	12210.43
687.138	12257.66
687.485	12287.04
687.832	12219.69
688.18	12256.3
688.527	12064.44
688.874	12124.1
689.221	12087.04
689.568	12050.21
689.915	11988.06
690.262	11896.99
690.609	11862.87
690.956	11931.34
691.303	11844.11
691.65	11872.58
691.997	11769.54
692.344	11696.32
692.69	11712.81
693.037	11725.92
693.383	11558.02
693.73	11658.35
694.077	11528.19
694.423	11522.08
694.769	11496.55
695.116	11399.6
695.462	11452.26
695.808	11406.83
696.155	11410.22
696.501	11315.31
696.847	11256.1
697.193	11190.57
697.539	11207.97
697.885	11138.59
698.231	11098.82
698.577	11054.07
698.923	11043.9
699.269	10959.61
699.614	10921.87
699.96	10904.7
700.306	10882.33
700.651	10818.15
700.997	10770.47
701.342	10760.75
701.688	10789.67
702.033	10732.73
702.379	10690.02
702.724	10684.37
703.069	10634.65
703.415	10584.03
703.76	10529.34
704.105	10504.26
704.45	10480.98
704.795	10401.21
705.14	10355.34
705.485	10434.2
705.83	10324.38
706.175	10369.35
706.52	10275.79
706.865	10205.51
707.209	10278.05
707.554	10147.66
707.899	10180.65
708.243	10128.45
708.588	10036.02
708.932	10028.34
709.277	10055.46
709.621	10040.32
709.966	9969.81
710.31	9980.43
710.654	9918.51
710.998	9875.35
711.342	9880.55
711.687	9900.66
712.031	9810.49
712.375	9850.04
712.719	9797.16
713.063	9788.57
713.407	9771.17
713.75	9767.1
714.094	9775.46
714.438	9700.66
714.782	9724.17
715.125	9684.17
715.469	9659.53
715.812	9714.22
716.156	9594
716.499	9550.16
716.843	9617.28
717.186	9484.85
717.53	9519.65
717.873	9532.08
718.216	9545.86
718.559	9515.81
718.902	9449.37
719.246	9459.54
719.589	9449.14
719.932	9422.48
720.275	9369.82
720.617	9380.9
720.96	9379.99
721.303	9381.35
721.646	9361.24
721.989	9303.84
722.331	9332.31
722.674	9329.6
723.016	9327.34
723.359	9285.76
723.701	9307.68
724.044	9256.83
724.386	9256.15
724.729	9281.92
725.071	9242.14
725.413	9240.79
725.755	9241.92
726.097	9127.34
726.439	9184.52
726.782	9152.88
727.124	9237.17
727.465	9212.77
727.807	9119.66
728.149	9189.94
728.491	9163.73
728.833	9115.59
729.175	9129.15
729.516	9179.32
729.858	9119.21
730.199	9149.72
730.541	9121.7
730.882	9113.56
731.224	9099.77
731.565	9016.39
731.906	9121.02
732.248	9113.11
732.589	9013.45
732.93	9095.03
733.271	9044.18
733.612	9093.67
733.953	9022.94
734.294	9115.37
734.635	9031.75
734.976	9102.94
735.317	9109.27
735.658	9098.87
735.999	9124.18
736.339	9078.31
736.68	9050.51
737.021	9111.53
737.361	9113.11
737.702	9149.94
738.042	9067.23
738.383	9086.22
738.723	9143.62
739.063	9169.15
739.404	9172.09
739.744	9189.72
740.084	9164.41
740.424	9159.43
740.764	9126.44
741.104	9195.14
741.444	9223.61
741.784	9125.54
742.124	9236.04
742.464	9293.89
742.804	9243.95
743.143	9272.88
743.483	9269.04
743.823	9288.24
744.162	9263.16
744.502	9369.82
744.841	9392.87
745.181	9478.3
745.52	9378.41
745.86	9453.21
746.199	9528.01
746.538	9508.35
746.877	9598.52
747.216	9672.64
747.556	9564.4
747.895	9787.89
748.234	9743.6
748.573	9787.89
748.911	9858.85
749.25	9926.65
749.589	9888.91
749.928	10019.52
750.267	10144.49
750.605	10158.73
750.944	10192.85
751.283	10309.91
751.621	10418.16
751.96	10414.77
752.298	10470.13
752.636	10628.55
752.975	10720.75
753.313	10725.04
753.651	10944.47
753.989	10978.6
754.327	11093.85
754.666	11252.71
755.004	11361.64
755.342	11479.6
755.679	11577.68
756.017	11657.9
756.355	11870.55
756.693	11882.75
757.031	12111.22
757.368	12184.44
757.706	12334.72
758.044	12509.18
758.381	12658.1
758.719	12721.6
759.056	12972.89
759.394	13110.74
759.731	13200.91
760.068	13279.55
760.405	13494.01
760.743	13635.93
761.08	13798.63
761.417	13948.46
761.754	14113.2
762.091	14351.39
762.428	14436.58
762.765	14559.52
763.102	14669.57
763.438	14762.9
763.775	14942.56
764.112	15080.86
764.449	15238.14
764.785	15411.93
765.122	15467.29
765.458	15583.22
765.795	15784.12
766.131	15934.17
766.467	16026.37
766.804	16135.07
767.14	16289.19
767.476	16475.4
767.812	16495.51
768.148	16603.76
768.485	16712.23
768.821	16746.13
769.157	16944.31
769.492	17039.23
769.828	17137.76
770.164	17113.12
770.5	17276.51
770.836	17351.54
771.171	17469.72
771.507	17589.72
771.842	17545.65
772.178	17652.77
772.513	17778.64
772.849	17773.45
773.184	17826.78
773.519	17964.85
773.855	17915.36
774.19	17977.73
774.525	18061.35
774.86	18106.54
775.195	18135.47
775.53	18203.04
775.865	18203.04
776.2	18148.58
776.535	18176.15
776.87	18249.36
777.205	18302.24
777.539	18264.73
777.874	18330.49
778.209	18309.7
778.543	18410.04
778.878	18333.2
779.212	18425.63
779.547	18344.5
779.881	18401.45
780.215	18394.22
780.55	18479.64
780.884	18366.65
781.218	18368.46
781.552	18429.02
781.886	18359.64
782.22	18335.01
782.554	18412.75
782.888	18267.9
783.222	18280.55
783.556	18269.03
783.889	18188.35
784.223	18130.5
784.557	18195.35
784.89	18282.13
785.224	18141.8
785.557	18196.03
785.891	18115.13
786.224	18166.88
786.558	18154.45
786.891	18010.5
787.224	18020.44
787.557	18012.53
787.891	17965.76
788.224	17946.77
788.557	18017.73
788.89	17943.61
789.223	18035.13
789.556	17916.04
789.888	17860
790.221	17781.81
790.554	17688.02
790.887	17728.02
791.219	17638.53
791.552	17620.91
791.884	17660.23
792.217	17616.16
792.549	17559.89
792.882	17419.56
793.214	17467.92
793.546	17509.05
793.879	17286.9
794.211	17257.75
794.543	17346.11
794.875	17277.41
795.207	17303.17
795.539	17196.96
795.871	17237.41
796.203	17008.49
796.535	17006.91
796.867	17067.7
797.198	16951.55
797.53	16934.6
797.862	16805.33
798.193	16874.26
798.525	16704.32
798.856	16870.87
799.188	16740.48
799.519	16562.63
799.85	16575.06
800.182	16592.46
800.513	16514.5
800.844	16396.31
801.175	16581.16
801.506	16523.08
801.837	16391.79
802.168	16342.3
802.499	16382.3
802.83	16227.05
803.161	16220.04
803.491	16342.75
803.822	16252.13
804.153	16149.53
804.483	16071.12
804.814	16027.28
805.145	16122.42
805.475	15904.79
805.805	15974.17
806.136	16010.1
806.466	16036.77
806.796	15862.08
807.126	15773.5
807.457	15827.73
807.787	15761.75
808.117	15798.81
808.447	15652.14
808.777	15632.71
809.107	15562.2
809.436	15561.07
809.766	15561.53
810.096	15508.65
810.426	15533.05
810.755	15422.32
811.085	15384.36
811.414	15469.55
811.744	15283.79
812.073	15303.91
812.403	15283.34
812.732	15190.69
813.061	15181.87
813.39	15125.38
813.719	15078.15
814.049	15154.53
814.378	15122.67
814.707	14963.12
815.036	15021.65
815.365	15033.4
815.693	14780.98
816.022	14839.28
816.351	14828.89
816.68	14695.56
817.008	14757.48
817.337	14738.95
817.665	14666.41
817.994	14700.76
818.322	14671.83
818.651	14603.81
818.979	14489.92
819.307	14678.16
819.636	14558.84
819.964	14557.94
820.292	14603.13
820.62	14554.55
820.948	14449.92
821.276	14492.18
821.604	14465.74
821.932	14492.63
822.259	14452.18
822.587	14428.9
822.915	14490.59
823.243	14444.72
823.57	14437.94
823.898	14469.8
824.225	14472.06
824.553	14447.66
824.88	14480.42
825.207	14468.22
825.535	14428.9
825.862	14460.99
826.189	14397.26
826.516	14504.15
826.843	14486.75
827.17	14569.46
827.497	14603.13
827.824	14462.35
828.151	14532.17
828.478	14449.24
828.805	14462.35
829.131	14497.6
829.458	14475.9
829.785	14403.14
830.111	14530.14
830.438	14525.17
830.764	14427.32
831.09	14490.14
831.417	14442.01
831.743	14508.9
832.069	14497.6
832.395	14369.69
832.722	14373.31
833.048	14389.81
833.374	14379.86
833.7	14294.21
834.026	14369.92
834.351	14373.08
834.677	14371.73
835.003	14426.87
835.329	14319.52
835.654	14333.54
835.98	14237.49
836.306	14342.12
836.631	14195.91
836.956	14235.23
837.282	14304.84
837.607	14131.28
837.932	14197.49
838.258	14205.63
838.583	14162.92
838.908	14084.05
839.233	14142.35
839.558	14077.5
839.883	13973.09
840.208	13928.12
840.533	13908.24
840.858	13965.86
841.182	13927.44
841.507	13894.45
841.832	13871.17
842.156	13825.75
842.481	13799.31
842.805	13788.92
843.13	13749.37
843.454	13782.36
843.778	13735.13
844.103	13690.16
844.427	13633.89
844.751	13617.4
845.075	13592.76
845.399	13602.71
845.723	13531.07
846.047	13559.54
846.371	13431.19
846.695	13446.1
847.019	13257.86
847.343	13230.97
847.666	13173.34
847.99	13089.5
848.313	13100.57
848.637	13019.67
848.96	12999.33
849.284	12994.14
849.607	12918.43
849.931	12791.66
850.254	12842.28
850.577	12686.12
850.9	12642.05
851.223	12655.16
851.546	12492.68
851.869	12512.57
852.192	12453.81
852.515	12379.91
852.838	12353.7
853.161	12367.03
853.483	12228.28
853.806	12301.72
854.129	12284.78
854.451	12215.85
854.774	12103.54
855.096	12112.13
855.419	12024.44
855.741	12032.81
856.063	12043.43
856.385	11925.46
856.708	11918.91
857.03	11829.19
857.352	11901.28
857.674	11869.19
857.996	11759.37
858.318	11710.55
858.64	11726.37
858.961	11640.72
859.283	11677.33
859.605	11593.72
859.926	11533.61
860.248	11525.7
860.57	11462.2
860.891	11538.81
861.212	11396.89
861.534	11400.73
861.855	11417
862.176	11330
862.498	11399.38
862.819	11419.26
863.14	11257.68
863.461	11332.26
863.782	11304.24
864.103	11301.98
864.424	11233.96
864.745	11228.31
865.065	11205.03
865.386	11093.62
865.707	11146.5
866.027	11134.07
866.348	11104.24
866.668	11089.78
866.989	11047.07
867.309	10941.08
867.63	11028.54
867.95	11044.13
868.27	10975.66
868.59	10983.34
868.91	10927.52
869.23	10905.15
869.55	10948.99
869.87	10954.87
870.19	10898.37
870.51	10905.83
870.83	10856.11
871.15	10798.49
871.469	10769.34
871.789	10820.18
872.109	10799.62
872.428	10675.78
872.748	10756.91
873.067	10629.45
873.386	10737.25
873.706	10675.33
874.025	10607.08
874.344	10718.49
874.663	10653.63
874.982	10590.36
875.301	10613.86
875.62	10528.66
875.939	10577.48
876.258	10528.66
876.577	10496.57
876.896	10486.86
877.214	10478.04
877.533	10527.99
877.852	10420.87
878.17	10425.16
878.489	10454.09
878.807	10413.19
879.125	10355.79
879.444	10403.47
879.762	10342.45
880.08	10376.13
880.398	10320.76
880.716	10315.11
881.034	10248.67
881.352	10325.51
881.67	10198.28
881.988	10191.95
882.306	10182.68
882.624	10168.22
882.941	10119.86
883.259	10100.88
883.577	10073.08
883.894	10111.27
884.212	10124.61
884.529	10015.91
884.846	10004.38
885.164	9993.08
885.481	9993.76
885.798	10040.09
886.115	9883.94
886.432	9865.63
886.75	9909.7
887.067	9827.67
887.383	9848.91
887.7	9878.51
888.017	9834.44
888.334	9773.66
888.651	9705.86
888.967	9680.55
889.284	9662.7
889.6	9683.26
889.917	9589.25
890.233	9611.17
890.55	9562.14
890.866	9564.17
891.182	9601.91
891.498	9487.11
891.815	9447.34
892.131	9457.51
892.447	9383.84
892.763	9368.02
893.079	9363.72
893.395	9333.44
893.71	9304.52
894.026	9257.51
894.342	9249.6
894.657	9117.18
894.973	9176.83
895.289	9129.6
895.604	9135.71
895.92	9078.98
896.235	9023.39
896.55	9017.29
896.865	8923.28
897.181	8960.34
897.496	8991.98
897.811	8895.94
898.126	8863.85
898.441	8811.19
898.756	8787.47
899.071	8751.76
899.386	8766.68
899.7	8624.76
900.015	8582.27
900.33	8594.48
900.644	8593.12
900.959	8549.05
901.273	8614.36
901.588	8535.27
901.902	8484.65
902.216	8465.67
902.531	8449.62
902.845	8432.67
903.159	8296.86
903.473	8304.54
903.787	8258.22
904.101	8263.19
904.415	8208.72
904.729	8186.8
905.042	8161.95
905.356	8139.12
905.67	8112.91
905.984	8147.26
906.297	8038.11
906.611	8024.77
906.924	8018.9
907.237	7947.04
907.551	7935.74
907.864	7923.31
908.177	7904.1
908.491	7910.88
908.804	7759.7
909.117	7801.05
909.43	7695.07
909.743	7714.73
910.056	7637.67
910.368	7580.04
910.681	7585.92
910.994	7578.46
911.307	7564.67
911.619	7487.84
911.932	7543.43
912.244	7427.28
912.557	7394.06
912.869	7375.98
913.181	7410.78
913.494	7318.35
913.806	7279.48
914.118	7263.89
914.43	7207.17
914.742	7189.77
915.054	7199.94
915.366	7166.04
915.678	7109.54
915.99	7081.97
916.302	7024.8
916.613	7022.54
916.925	6985.48
917.236	6929.89
917.548	6965.82
917.859	7009.21
918.171	6855.54
918.482	6863.68
918.794	6826.84
919.105	6837.01
919.416	6774.41
919.727	6760.4
920.038	6733.28
920.349	6717.01
920.66	6715.66
920.971	6676.11
921.282	6643.57
921.593	6605.83
921.903	6599.5
922.214	6573.97
922.525	6517.7
922.835	6498.94
923.146	6496.91
923.456	6397.92
923.767	6383.91
924.077	6314.99
924.387	6361.32
924.697	6322.45
925.008	6314.76
925.318	6263.47
925.628	6242.9
925.938	6239.06
926.248	6176.46
926.558	6131.49
926.867	6121.77
927.177	6150.02
927.487	6087.65
927.796	6070.7
928.106	6021.44
928.416	5969.24
928.725	6027.31
929.034	5946.64
929.344	5966.07
929.653	5963.13
929.962	5887.66
930.271	5858.05
930.581	5839.3
930.89	5751.16
931.199	5801.1
931.508	5828.67
931.817	5762.01
932.125	5767.89
932.434	5717.49
932.743	5622.35
933.051	5679.75
933.36	5604.73
933.669	5590.71
933.977	5604.27
934.286	5614.44
934.594	5538.06
934.902	5512.52
935.21	5501.9
935.519	5513.2
935.827	5484.5
936.135	5458.97
936.443	5419.65
936.751	5422.13
937.059	5369.03
937.367	5316.15
937.674	5333.77
937.982	5306.65
938.29	5279.76
938.597	5278.18
938.905	5236.37
939.213	5197.73
939.52	5180.56
939.827	5136.72
940.135	5127.45
940.442	5115.02
940.749	5083.38
941.056	5077.28
941.363	5004.52
941.67	4996.61
941.977	5026.44
942.284	5000.22
942.591	4996.15
942.898	4919.32
943.205	4862.37
943.511	4858.3
943.818	4875.93
944.125	4860.56
944.431	4860.79
944.738	4793.22
945.044	4766.78
945.35	4805.88
945.657	4735.14
945.963	4715.26
946.269	4695.6
946.575	4731.53
946.881	4658.31
947.187	4618.31
947.493	4649.95
947.799	4625.09
948.105	4594.13
948.41	4543.74
948.716	4524.08
949.022	4516.39
949.327	4522.04
949.633	4480.91
949.938	4491.76
950.244	4451.54
950.549	4464.64
950.854	4405.44
951.16	4426.9
951.465	4395.04
951.77	4387.58
952.075	4326.12
952.38	4341.48
952.685	4306.45
952.99	4263.07
953.294	4256.74
953.599	4244.99
953.904	4187.59
954.209	4239.79
954.513	4211.77
954.818	4147.14
955.122	4165.44
955.426	4172.45
955.731	4098.55
956.035	4132
956.339	4095.61
956.643	4107.82
956.948	4053.35
957.252	4047.93
957.556	4053.81
957.86	3992.56
958.163	4004.54
958.467	3955.96
958.771	4021.72
959.075	3930.65
959.378	3931.1
959.682	3913.92
959.985	3913.92
960.289	3852.68
960.592	3830.08
960.896	3839.8
961.199	3804.09
961.502	3780.59
961.805	3790.08
962.108	3779.91
962.411	3757.54
962.714	3751.89
963.017	3719.8
963.32	3701.05
963.623	3693.59
963.926	3675.28
964.228	3628.73
964.531	3619.24
964.833	3654.72
965.136	3570.88
965.438	3526.59
965.741	3551.9
966.043	3548.96
966.345	3513.48
966.648	3578.79
966.95	3571.78
967.252	3510.77
967.554	3431.9
967.856	3489.53
968.158	3440.26
968.46	3450.88
968.761	3424.9
969.063	3392.58
969.365	3413.14
969.666	3400.26
969.968	3360.04
970.269	3356.88
970.571	3334.5
970.872	3307.61
971.174	3319.59
971.475	3315.52
971.776	3307.16
972.077	3250.21
972.378	3246.37
972.679	3253.15
972.98	3247.05
973.281	3228.29
973.582	3217.44
973.883	3176.54
974.183	3191.91
974.484	3166.6
974.785	3138.12
975.085	3142.64
975.386	3144
975.686	3121.63
975.986	3099.03
976.287	3067.84
976.587	3044.11
976.887	3033.95
977.187	3044.34
977.487	3045.47
977.787	3026.71
978.087	2993.95
978.387	2992.14
978.687	2975.19
978.987	2955.53
979.286	2961.63
979.586	2945.59
979.885	2894.51
980.185	2938.35
980.484	2856.1
980.784	2865.81
981.083	2882.54
981.382	2875.98
981.682	2843.44
981.981	2820.39
982.28	2811.13
982.579	2793.05
982.878	2766.38
983.177	2785.36
983.475	2762.09
983.774	2707.4
984.073	2725.48
984.372	2724.12
984.67	2716.67
984.969	2715.08
985.267	2688.87
985.566	2652.26
985.864	2645.71
986.162	2654.75
986.461	2652.71
986.759	2624.92
987.057	2617.01
987.355	2592.38
987.653	2586.05
987.951	2594.86
988.249	2590.57
988.547	2545.82
988.844	2540.85
989.142	2584.24
989.44	2521.42
989.737	2551.47
990.035	2474.86
990.332	2458.59
990.63	2478.93
990.927	2445.26
991.224	2445.03
991.521	2459.72
991.819	2425.37
992.116	2410.23
992.413	2406.62
992.71	2373.62
993.006	2395.54
993.303	2370.23
993.6	2344.7
993.897	2338.82
994.193	2367.97
994.49	2332.72
994.787	2306.96
995.083	2306.51
995.379	2283.68
995.676	2264.93
995.972	2304.7
996.268	2271.48
996.565	2270.35
996.861	2242.78
997.157	2216.79
997.453	2229.9
997.749	2215.21
998.044	2220.41
998.34	2180.41
998.636	2196.23
998.932	2140.86
999.227	2167.53
999.523	2134.99
999.818	2133.63
1000.114	2121.65
1000.409	2119.62
1000.704	2081.88
1001	2073.52
1001.295	2060.41
1001.59	2065.61
1001.885	2046.4
1002.18	2034.42
1002.475	1984.71
1002.77	2002.79
1003.065	2020.86
1003.359	1972.5
1003.654	1964.82
1003.949	1967.31
1004.243	2002.79
1004.538	1968.89
1004.832	1949.23
1005.127	1922.79
1005.421	1911.04
1005.715	1884.15
1006.009	1898.16
1006.304	1916.46
1006.598	1877.82
1006.892	1855.45
1007.186	1874.65
1007.48	1822.68
1007.773	1847.76
1008.067	1833.3
1008.361	1811.6
1008.655	1814.99
1008.948	1792.62
1009.242	1785.62
1009.535	1736.58
1009.829	1757.82
1010.122	1738.84
1010.415	1737.26
1010.708	1737.93
1011.001	1748.33
1011.295	1707.2
1011.588	1696.81
1011.881	1674.66
1012.173	1704.94
1012.466	1672.63
1012.759	1678.73
1013.052	1671.95
1013.344	1654.55
1013.637	1650.48
1013.93	1625.85
1014.222	1629.01
1014.514	1618.84
1014.807	1612.97
1015.099	1568.22
1015.391	1568.9
1015.683	1599.41
1015.976	1575.9
1016.268	1567.09
1016.56	1547.43
1016.851	1563.7
1017.143	1539.52
1017.435	1503.36
1017.727	1491.84
1018.018	1492.07
1018.31	1497.04
1018.602	1492.97
1018.893	1454.33
1019.185	1453.2
1019.476	1479.86
1019.767	1457.72
1020.058	1449.35
1020.35	1403.93
1020.641	1427.21
1020.932	1408.9
1021.223	1379.3
1021.514	1377.04
1021.804	1377.49
1022.095	1377.72
1022.386	1381.79
1022.677	1344.27
1022.967	1318.51
1023.258	1355.12
1023.548	1286.87
1023.839	1326.87
1024.129	1300.88
1024.419	1308.12
1024.709	1320.32
1025	1284.39
1025.29	1265.4
1025.58	1260.66
1025.87	1263.82
1026.16	1229.7
1026.449	1274.44
1026.739	1238.06
1027.029	1248.23
1027.319	1197.61
1027.608	1208.46
1027.898	1210.49
1028.187	1224.28
1028.477	1176.82
1028.766	1169.59
1029.055	1168.23
1029.344	1165.29
1029.634	1155.35
1029.923	1133.66
1030.212	1135.69
1030.501	1144.05
1030.79	1133.66
1031.078	1130.27
1031.367	1133.43
1031.656	1110.38
1031.945	1092.98
1032.233	1113.54
1032.522	1077.16
1032.81	1102.25
1033.099	1107.44
1033.387	1081.23
1033.675	1073.09
1033.963	1052.98
1034.251	1030.38
1034.54	1026.99
1034.828	1012.53
1035.116	1023.15
1035.403	1034.22
1035.691	1019.08
1035.979	1012.3
1036.267	991.51
1036.554	984.28
1036.842	968.69
1037.129	977.73
1037.417	979.54
1037.704	975.24
1037.992	957.62
1038.279	944.51
1038.566	956.03
1038.853	956.03
1039.14	956.03
