Data from hue_160_FLMS001491_00037.txt Node
Date: Tue Feb 07 16:51:06 GMT 2017
User: dcchb
Spectrometer: FLMS00149
Trigger mode: 0
Integration Time (sec): 2.000000E-2
Scans to average: 10
Electric dark correction enabled: true
Nonlinearity correction enabled: false
Boxcar width: 0
XAxis mode: Wavelengths
Number of Pixels in Spectrum: 2048
>>>>>Begin Spectral Data<<<<<
341.393	-9.22
341.776	-9.22
342.16	-9.22
342.543	-73.18
342.927	-63.91
343.31	-61.65
343.693	-65.94
344.077	-64.14
344.46	-57.13
344.843	-50.13
345.226	-51.26
345.61	-37.47
345.993	-10.58
346.376	-1.31
346.759	8.63
347.142	17.44
347.525	63.09
347.908	57.67
348.291	56.54
348.674	88.85
349.057	107.38
349.44	130.66
349.823	143.09
350.206	169.53
350.588	181.96
350.971	221.73
351.354	240.71
351.737	212.24
352.119	254.05
352.502	258.34
352.884	254.05
353.267	282.97
353.65	280.49
354.032	308.06
354.414	312.58
354.797	283.2
355.179	318.23
355.562	315.06
355.944	313.48
356.326	330.66
356.709	346.02
357.091	323.2
357.473	334.5
357.855	328.17
358.238	334.5
358.62	350.99
359.002	336.98
359.384	340.37
359.766	332.91
360.148	358.45
360.53	358.23
360.912	329.07
361.294	306.7
361.676	327.27
362.057	308.28
362.439	314.84
362.821	322.07
363.203	341.28
363.584	318.9
363.966	344.67
364.348	328.62
364.729	320.26
365.111	306.7
365.493	303.09
365.874	314.84
366.256	323.88
366.637	325.91
367.019	324.78
367.4	306.7
367.781	319.13
368.163	293.37
368.544	306.25
368.925	309.41
369.306	288.17
369.688	324.33
370.069	297.66
370.45	300.15
370.831	335.85
371.212	318
371.593	300.15
371.974	315.06
372.355	310.09
372.736	337.66
373.117	309.19
373.498	298.79
373.879	316.19
374.26	315.06
374.641	308.73
375.021	313.93
375.402	315.06
375.783	300.6
376.163	317.32
376.544	318
376.925	306.02
377.305	326.14
377.686	298.11
378.066	337.21
378.447	335.85
378.827	330.2
379.208	328.4
379.588	327.27
379.968	306.47
380.349	312.35
380.729	306.7
381.109	335.4
381.489	327.27
381.87	331.33
382.25	344.67
382.63	339.02
383.01	343.54
383.39	320.49
383.77	344.89
384.15	325.01
384.53	338.79
384.91	336.53
385.29	330.88
385.67	353.25
386.049	322.29
386.429	344.89
386.809	343.76
387.189	343.54
387.568	335.63
387.948	317.77
388.328	342.41
388.707	347.83
389.087	350.09
389.466	365.23
389.846	366.13
390.225	378.11
390.605	346.02
390.984	343.99
391.363	357.55
391.743	360.03
392.122	340.37
392.501	355.29
392.881	353.71
393.26	385.34
393.639	368.85
394.018	350.77
394.397	370.88
394.776	372.46
395.155	374.27
395.534	366.13
395.913	384.44
396.292	371.33
396.671	369.07
397.05	379.24
397.429	374.04
397.808	383.99
398.186	389.41
398.565	381.95
398.944	389.86
399.323	374.72
399.701	389.41
400.08	372.91
400.458	384.67
400.837	395.96
401.215	370.2
401.594	383.99
401.972	404.1
402.351	407.49
402.729	381.95
403.107	378.79
403.486	400.94
403.864	395.29
404.242	400.71
404.62	398.45
404.999	412.01
405.377	408.39
405.755	403.2
406.133	414.95
406.511	420.14
406.889	434.61
407.267	437.09
407.645	412.46
408.023	436.87
408.401	399.81
408.779	426.25
409.156	431.44
409.534	418.56
409.912	416.98
410.29	450.65
410.667	407.49
411.045	434.61
411.422	458.79
411.8	447.71
412.178	443.19
412.555	463.53
412.933	434.61
413.31	448.84
413.687	462.4
414.065	482.06
414.442	465.34
414.819	475.06
415.197	460.82
415.574	480.03
415.951	454.27
416.328	484.55
416.705	493.36
417.082	466.7
417.46	473.25
417.837	489.3
418.214	490.65
418.591	487.04
418.967	496.98
419.344	513.93
419.721	502.63
420.098	517.99
420.475	514.83
420.852	510.09
421.228	507.15
421.605	516.86
421.982	518.67
422.358	542.4
422.735	544.89
423.111	537.88
423.488	516.19
423.864	557.09
424.241	556.41
424.617	554.83
424.994	553.93
425.37	556.64
425.746	554.15
426.123	555.51
426.499	584.43
426.875	576.07
427.251	547.37
427.627	575.17
428.003	593.25
428.379	587.82
428.756	589.41
429.132	592.8
429.507	593.93
429.883	607.71
430.259	605.68
430.635	610.65
431.011	615.62
431.387	637.54
431.763	620.14
432.138	640.48
432.514	668.05
432.89	649.74
433.265	650.87
433.641	634.38
434.016	656.52
434.392	699.01
434.767	688.16
435.143	712.11
435.518	682.51
435.894	698.1
436.269	699.68
436.644	706.24
437.02	702.62
437.395	688.39
437.77	722.06
438.145	740.59
438.52	728.84
438.895	759.34
439.271	748.27
439.646	746.46
440.021	757.08
440.395	773.36
440.77	767.71
441.145	772.68
441.52	804.54
441.895	782.17
442.27	789.63
442.645	812
443.019	789.17
443.394	811.77
443.769	812.45
444.143	819.46
444.518	796.18
444.892	807.03
445.267	824.43
445.641	842.96
446.016	837.08
446.39	880.92
446.764	844.09
447.139	866.23
447.513	860.13
447.887	853.35
448.262	842.51
448.636	861.71
449.01	878.66
449.384	902.84
449.758	906.23
450.132	907.59
450.506	900.58
450.88	927.7
451.254	904.65
451.628	939.23
452.002	919.79
452.376	953.24
452.75	960.7
453.123	955.95
453.497	968.15
453.871	958.89
454.244	1014.48
454.618	1009.73
454.992	1017.19
455.365	1019.45
455.739	1043.63
456.112	1056.06
456.486	1053.35
456.859	1086.34
457.232	1081.6
457.606	1079.11
457.979	1108.94
458.352	1110.07
458.725	1143.52
459.099	1128.83
459.472	1128.37
459.845	1151.88
460.218	1194.81
460.591	1189.39
460.964	1185.32
461.337	1216.28
461.71	1229.39
462.083	1290.4
462.456	1249.95
462.829	1254.7
463.201	1281.82
463.574	1317.07
463.947	1319.33
464.32	1341.48
464.692	1357.29
465.065	1365.2
465.438	1386.45
465.81	1414.24
466.183	1433.68
466.555	1472.09
466.928	1477.29
467.3	1477.07
467.672	1492.21
468.045	1543.28
468.417	1538.53
468.789	1577.4
469.161	1606.78
469.534	1615.14
469.906	1682.94
470.278	1702.37
470.65	1713.22
471.022	1719.77
471.394	1820.56
471.766	1804.97
472.138	1838.64
472.51	1899.65
472.882	1896.94
473.253	1927.9
473.625	1978.52
473.997	2053.32
474.369	2106.43
474.74	2105.52
475.112	2143.94
475.484	2246.31
475.855	2273.65
476.227	2296.48
476.598	2376.93
476.97	2408.34
477.341	2486.98
477.713	2549.35
478.084	2599.07
478.455	2651.95
478.827	2737.15
479.198	2859.85
479.569	2890.59
479.94	2988.89
480.311	3007.87
480.682	3141.2
481.053	3190.69
481.424	3249.9
481.795	3333.97
482.166	3438.6
482.537	3541.19
482.908	3621.19
483.279	3702.32
483.65	3790.9
484.021	3906.83
484.391	4004.68
484.762	4061.86
485.133	4151.35
485.503	4277.67
485.874	4361.74
486.244	4478.12
486.615	4597.89
486.985	4724.66
487.356	4836.98
487.726	4926.01
488.097	5072.45
488.467	5149.96
488.837	5295.5
489.207	5430.18
489.578	5576.62
489.948	5694.13
490.318	5828.82
490.688	5874.46
491.058	6019.09
491.428	6166.43
491.798	6265.41
492.168	6403.94
492.538	6472.19
492.908	6640.55
493.278	6796.25
493.648	6826.08
494.017	6924.83
494.387	7068.78
494.757	7095.68
495.126	7360.75
495.496	7334.54
495.866	7446.63
496.235	7630.8
496.605	7699.5
496.974	7774.98
497.344	7945.82
497.713	8034.63
498.082	8141.3
498.452	8214.06
498.821	8293.61
499.19	8393.04
499.559	8540.38
499.928	8584.68
500.298	8635.52
500.667	8812.69
501.036	8817.44
501.405	8921.84
501.774	8896.08
502.143	9039.35
502.512	9168.16
502.88	9262.85
503.249	9254.26
503.618	9369.29
503.987	9399.34
504.356	9511.88
504.724	9626.23
505.093	9589.62
505.462	9665.78
505.83	9716.17
506.199	9790.75
506.567	9891.08
506.936	9953.23
507.304	9985.77
507.672	10042.72
508.041	10129.95
508.409	10147.8
508.777	10257.17
509.145	10302.14
509.514	10316.83
509.882	10374.23
510.25	10430.5
510.618	10523.16
510.986	10564.96
511.354	10586.2
511.722	10708.01
512.09	10711.17
512.458	10730.61
512.826	10809.02
513.193	10827.78
513.561	10815.35
513.929	10917.27
514.297	10950.26
514.664	10971.28
515.032	11057.15
515.4	11082.01
515.767	11051.73
516.135	11107.55
516.502	11044.05
516.869	11219.86
517.237	11195.23
517.604	11179.41
517.972	11277.03
518.339	11329.01
518.706	11290.82
519.073	11271.16
519.44	11352.74
519.808	11382.34
520.175	11327.43
520.542	11360.42
520.909	11510.93
521.276	11418.5
521.643	11559.29
522.009	11547.99
522.376	11573.98
522.743	11602.9
523.11	11657.81
523.477	11699.85
523.843	11653.97
524.21	11740.07
524.577	11845.61
524.943	11808.55
525.31	11827.53
525.676	11846.74
526.043	11858.04
526.409	11827.08
526.776	11975.09
527.142	11988.88
527.508	11914.08
527.874	11965.15
528.241	11916.34
528.607	11950.01
528.973	12011.25
529.339	11927.19
529.705	11987.07
530.071	12028.65
530.437	12024.58
530.803	11975.55
531.169	12007.41
531.535	12014.87
531.901	11956.79
532.267	11890.8
532.632	11928.09
532.998	11894.87
533.364	11924.93
533.73	11942.55
534.095	11998.6
534.461	11924.7
534.826	11897.13
535.192	11865.27
535.557	11863.01
535.923	11826.17
536.288	11849
536.653	11806.51
537.019	11825.72
537.384	11761.54
537.749	11752.05
538.114	11682.22
538.479	11716.12
538.845	11721.54
539.21	11613.75
539.575	11559.74
539.94	11555.22
540.305	11528.33
540.67	11471.38
541.034	11503.92
541.399	11527.65
541.764	11398.61
542.129	11391.61
542.494	11365.85
542.858	11353.64
543.223	11284.27
543.587	11354.09
543.952	11253.98
544.316	11210.6
544.681	11204.72
545.045	11181.22
545.41	11208.56
545.774	11077.94
546.138	11057.6
546.503	11085.63
546.867	10940.09
547.231	11036.36
547.595	10962.01
547.959	10929.02
548.324	10952.97
548.688	10894.45
549.052	10862.36
549.416	10867.78
549.779	10795.69
550.143	10776.93
550.507	10787.56
550.871	10746.65
551.235	10693.32
551.599	10725.64
551.962	10647.22
552.326	10597.73
552.689	10645.86
553.053	10558.41
553.417	10508.01
553.78	10626.43
554.143	10579.43
554.507	10563.83
554.87	10546.21
555.234	10514.12
555.597	10476.83
555.96	10453.78
556.323	10487.22
556.686	10405.42
557.05	10430.28
557.413	10387.79
557.776	10372.88
558.139	10427.79
558.502	10342.14
558.865	10334.01
559.228	10364.06
559.59	10335.59
559.953	10368.13
560.316	10400.45
560.679	10388.7
561.041	10423.05
561.404	10409.94
561.767	10391.18
562.129	10355.7
562.492	10464.63
562.854	10337.62
563.217	10340.34
563.579	10374.68
563.941	10446.55
564.304	10401.35
564.666	10386.66
565.028	10465.76
565.39	10471.63
565.753	10368.13
566.115	10494
566.477	10412.88
566.839	10472.08
567.201	10516.83
567.563	10478.18
567.925	10488.58
568.287	10553.66
568.648	10452.87
569.01	10524.74
569.372	10556.15
569.734	10499.88
570.095	10540.78
570.457	10602.7
570.819	10523.38
571.18	10571.52
571.542	10571.06
571.903	10567
572.265	10641.12
572.626	10660.33
572.987	10634.57
573.349	10669.37
573.71	10632.08
574.071	10635.02
574.432	10660.1
574.794	10689.93
575.155	10670.27
575.516	10620.55
575.877	10649.03
576.238	10603.83
576.599	10676.37
576.96	10707.56
577.32	10655.36
577.681	10736.48
578.042	10673.89
578.403	10655.58
578.763	10765.41
579.124	10638.86
579.485	10783.94
579.845	10726.77
580.206	10714.34
580.566	10694.68
580.927	10670.72
581.287	10742.13
581.648	10667.56
582.008	10766.31
582.368	10691.51
582.728	10674.56
583.089	10663.72
583.449	10657.62
583.809	10699.2
584.169	10737.39
584.529	10625.98
584.889	10712.3
585.249	10698.07
585.609	10604.96
585.969	10684.73
586.329	10639.54
586.688	10650.16
587.048	10565.87
587.408	10518.64
587.768	10586.2
588.127	10547.56
588.487	10518.86
588.846	10688.57
589.206	10568.58
589.565	10564.28
589.925	10568.58
590.284	10557.05
590.643	10561.8
591.003	10574.68
591.362	10570.16
591.721	10460.11
592.08	10528.58
592.44	10506.88
592.799	10557.05
593.158	10427.34
593.517	10481.35
593.876	10510.05
594.235	10482.25
594.593	10538.52
594.952	10508.69
595.311	10470.95
595.67	10456.49
596.029	10526.55
596.387	10569.48
596.746	10535.13
597.104	10406.77
597.463	10448.81
597.822	10540.56
598.18	10448.36
598.538	10432.08
598.897	10494.46
599.255	10407.9
599.613	10539.43
599.972	10456.26
600.33	10471.63
600.688	10441.58
601.046	10387.57
601.404	10488.13
601.762	10411.07
602.12	10462.37
602.478	10475.02
602.836	10493.78
603.194	10421.46
603.552	10454.23
603.91	10381.46
604.268	10380.79
604.625	10389.83
604.983	10463.5
605.341	10348.24
605.698	10440.9
606.056	10427.79
606.413	10480.22
606.771	10503.72
607.128	10577.17
607.485	10357.51
607.843	10447
608.2	10501.91
608.557	10489.03
608.914	10509.14
609.272	10469.15
609.629	10508.01
609.986	10539.2
610.343	10454
610.7	10538.97
611.057	10587.11
611.414	10548.01
611.771	10515.7
612.127	10623.94
612.484	10489.94
612.841	10587.56
613.198	10567.45
613.554	10558.86
613.911	10611.74
614.267	10600.44
614.624	10628.01
614.98	10632.31
615.337	10659.42
615.693	10609.25
616.05	10637.28
616.406	10694
616.762	10601.12
617.118	10657.62
617.475	10733.32
617.831	10736.71
618.187	10729.93
618.543	10708.69
618.899	10745.52
619.255	10775.35
619.611	10714.56
619.967	10739.87
620.323	10790.95
620.678	10734.68
621.034	10788.46
621.39	10705.52
621.746	10666.65
622.101	10828.23
622.457	10710.72
622.812	10742.58
623.168	10762.02
623.523	10743.49
623.879	10804.28
624.234	10690.16
624.589	10739.2
624.945	10750.95
625.3	10717.95
625.655	10663.26
626.01	10772.64
626.365	10773.77
626.72	10748.46
627.075	10725.86
627.43	10741
627.785	10752.98
628.14	10752.53
628.495	10726.77
628.85	10677.05
629.205	10599.09
629.559	10688.8
629.914	10652.87
630.269	10679.76
630.623	10653.77
630.978	10634.11
631.332	10635.92
631.687	10759.31
632.041	10591.85
632.396	10638.18
632.75	10591.85
633.104	10598.86
633.459	10551.18
633.813	10496.94
634.167	10572.65
634.521	10518.41
634.875	10603.38
635.229	10516.15
635.583	10541.23
635.937	10475.25
636.291	10540.56
636.645	10484.29
636.999	10409.49
637.352	10484.74
637.706	10386.44
638.06	10447.45
638.413	10428.47
638.767	10418.07
639.121	10400.22
639.474	10349.83
639.828	10341.24
640.181	10411.52
640.534	10376.04
640.888	10317.29
641.241	10282.48
641.594	10242.03
641.947	10303.5
642.301	10305.53
642.654	10286.1
643.007	10381.69
643.36	10289.72
643.713	10270.73
644.066	10265.99
644.419	10164.75
644.771	10181.7
645.124	10127.01
645.477	10114.8
645.83	9983.51
646.182	10023.06
646.535	9997.52
646.888	10011.3
647.24	9973.57
647.593	10062.15
647.945	10018.31
648.298	9916.17
648.65	9950.06
649.002	9896.51
649.355	9934.92
649.707	9929.05
650.059	9980.34
650.411	10077.74
650.763	10105.09
651.115	10181.92
651.467	10149.38
651.819	10109.16
652.171	10145.99
652.523	10167.91
652.875	10108.48
653.227	10133.34
653.578	10269.38
653.93	10134.92
654.282	10075.48
654.633	10098.99
654.985	10174.92
655.337	10134.47
655.688	10099.44
656.039	10209.49
656.391	10109.61
656.742	10139.21
657.094	10114.35
657.445	10124.75
657.796	10182.6
658.147	10121.36
658.498	10155.03
658.849	10055.37
659.2	10170.4
659.551	10128.59
659.902	10181.7
660.253	10145.31
660.604	10145.99
660.955	10124.97
661.306	10149.61
661.656	10199.32
662.007	10123.17
662.358	10120.45
662.708	10161.81
663.059	10145.09
663.409	10158.42
663.76	10216.04
664.11	10138.98
664.461	10188.25
664.811	10165.42
665.161	10183.5
665.511	10141.7
665.862	10115.26
666.212	10196.84
666.562	10171.3
666.912	10156.39
667.262	10165.88
667.612	10174.46
667.962	10246.78
668.312	10192.99
668.662	10205.2
669.011	10183.5
669.361	10112.77
669.711	10265.08
670.06	10227.34
670.41	10119.1
670.76	10168.14
671.109	10239.32
671.459	10137.18
671.808	10132.88
672.157	10195.93
672.507	10074.35
672.856	10093.11
673.205	10070.29
673.554	10139.89
673.904	10112.09
674.253	10144.18
674.602	10138.53
674.951	10014.92
675.3	9897.64
675.649	10089.27
675.998	10057.63
676.346	10058.53
676.695	10050.4
677.044	9968.82
677.393	10021.7
677.741	9998.42
678.09	9988.93
678.438	9991.87
678.787	10022.15
679.135	9949.61
679.484	9936.5
679.832	10002.04
680.181	9875.04
680.529	9866
680.877	9873.23
681.225	9852.89
681.573	9927.46
681.922	9803.4
682.27	9807.69
682.618	9824.87
682.966	9805.21
683.314	9729.5
683.661	9772.67
684.009	9691.99
684.357	9698.77
684.705	9669.17
685.053	9676.85
685.4	9729.5
685.748	9619.9
686.095	9611.09
686.443	9629.39
686.79	9619.22
687.138	9567.93
687.485	9537.19
687.832	9547.36
688.18	9456.97
688.527	9433.01
688.874	9383.3
689.221	9414.48
689.568	9372.68
689.915	9418.1
690.262	9371.55
690.609	9357.54
690.956	9278.44
691.303	9302.62
691.65	9256.52
691.997	9142.4
692.344	9116.19
692.69	9171.55
693.037	9177.65
693.383	9044.78
693.73	9056.3
694.077	9021.95
694.423	9062.18
694.769	8963.2
695.116	8915.97
695.462	8971.56
695.808	8899.47
696.155	8945.12
696.501	8859.02
696.847	8821.51
697.193	8743.99
697.539	8713.03
697.885	8712.58
698.231	8759.36
698.577	8637.56
698.923	8663.09
699.269	8563.21
699.614	8515.98
699.96	8508.97
700.306	8464.9
700.651	8542.64
700.997	8442.76
701.342	8436.43
701.688	8398.69
702.033	8378.81
702.379	8375.42
702.724	8298.81
703.069	8301.52
703.415	8218.13
703.76	8247.74
704.105	8245.25
704.45	8257.23
704.795	8204.57
705.14	8195.08
705.485	8147.17
705.83	8106.95
706.175	8130.9
706.52	8051.58
706.865	8038.7
707.209	8037.35
707.554	7970.45
707.899	7953.51
708.243	7908.53
708.588	7901.98
708.932	7871.47
709.277	7877.12
709.621	7891.59
709.966	7817.69
710.31	7812.72
710.654	7797.35
710.998	7816.33
711.342	7797.8
711.687	7755.54
712.031	7657.92
712.375	7687.75
712.719	7723.23
713.063	7649.78
713.407	7673.96
713.75	7625.6
714.094	7660.63
714.438	7560.52
714.782	7605.72
715.125	7599.62
715.469	7586.96
715.812	7525.72
716.156	7509.22
716.499	7477.13
716.843	7518.26
717.186	7447.98
717.53	7491.82
717.873	7470.81
718.216	7423.35
718.559	7402.79
718.902	7402.33
719.246	7368.66
719.589	7374.09
719.932	7352.84
720.275	7365.5
720.617	7324.14
720.96	7358.72
721.303	7338.61
721.646	7399.17
721.989	7323.69
722.331	7281.21
722.674	7383.35
723.016	7330.7
723.359	7331.38
723.701	7314.65
724.044	7260.42
724.386	7241.66
724.729	7283.69
725.071	7218.61
725.413	7250.47
725.755	7209.57
726.097	7211.15
726.439	7181.1
726.782	7189.46
727.124	7302.68
727.465	7250.7
727.807	7235.11
728.149	7166.18
728.491	7188.1
728.833	7188.78
729.175	7160.08
729.516	7181.55
729.858	7198.95
730.199	7196.69
730.541	7170.25
730.882	7121.66
731.224	7183.58
731.565	7167.54
731.906	7150.81
732.248	7146.75
732.589	7125.05
732.93	7120.08
733.271	7113.08
733.612	7185.62
733.953	7193.3
734.294	7161.21
734.635	7085.28
734.976	7168.22
735.317	7048.44
735.658	7145.17
735.999	7168.44
736.339	7156.69
736.68	7102.91
737.021	7146.75
737.361	7175.22
737.702	7180.87
738.042	7145.62
738.383	7184.03
738.723	7203.02
739.063	7177.71
739.404	7204.6
739.744	7174.77
740.084	7238.27
740.424	7282.56
740.764	7232.62
741.104	7305.61
741.444	7250.47
741.784	7266.97
742.124	7306.52
742.464	7300.87
742.804	7308.55
743.143	7342
743.483	7320.75
743.823	7323.47
744.162	7324.82
744.502	7364.37
744.841	7414.54
745.181	7431.03
745.52	7431.94
745.86	7459.51
746.199	7580.86
746.538	7587.19
746.877	7616.34
747.216	7673.29
747.556	7698.82
747.895	7834.64
748.234	7761.65
748.573	7814.53
748.911	7860.17
749.25	7946.5
749.589	7931.59
749.928	7992.83
750.267	8063.11
750.605	8140.17
750.944	8219.49
751.283	8151.24
751.621	8344.68
751.96	8352.14
752.298	8462.42
752.636	8548.52
752.975	8617.89
753.313	8621.96
753.651	8815.4
753.989	8908.51
754.327	8951.67
754.666	9040.93
755.004	9163.64
755.342	9322.28
755.679	9440.02
756.017	9535.61
756.355	9733.35
756.693	9745.77
757.031	9879.1
757.368	9997.75
757.706	10082.49
758.044	10235.93
758.381	10443.84
758.719	10544.85
759.056	10704.62
759.394	10865.97
759.731	10922.92
760.068	11074.55
760.405	11278.39
760.743	11336.69
761.08	11527.65
761.417	11590.25
761.754	11769
762.091	11979.84
762.428	12100.29
762.765	12293.5
763.102	12380.73
763.438	12538.02
763.775	12702.31
764.112	12902.08
764.449	12999.02
764.785	13179.36
765.122	13266.59
765.458	13445.34
765.795	13582.51
766.131	13718.1
766.467	13889.39
766.804	13980.24
767.14	14117.41
767.476	14257.97
767.812	14299.1
768.148	14465.88
768.485	14597.4
768.821	14666.78
769.157	14826.09
769.492	14917.84
769.828	14998.74
770.164	15143.37
770.5	15158.51
770.836	15421.78
771.171	15383.37
771.507	15490.48
771.842	15531.84
772.178	15702.91
772.513	15749.01
772.849	15756.69
773.184	15858.61
773.519	16060.19
773.855	15952.84
774.19	16098.6
774.525	16026.51
774.86	16184.7
775.195	16233.51
775.53	16299.73
775.865	16313.74
776.2	16323.45
776.535	16310.57
776.87	16491.36
777.205	16393.06
777.539	16473.73
777.874	16523.22
778.209	16546.95
778.543	16498.14
778.878	16461.3
779.212	16687.74
779.547	16572.26
779.881	16681.64
780.215	16707.63
780.55	16778.13
780.884	16629.44
781.218	16629.21
781.552	16767.96
781.886	16712.6
782.22	16751.24
782.554	16610.91
782.888	16542.21
783.222	16572.04
783.556	16636.89
783.889	16718.25
784.223	16572.26
784.557	16545.6
784.89	16739.04
785.224	16625.37
785.557	16547.18
785.891	16597.57
786.224	16558.7
786.558	16511.02
786.891	16537.91
787.224	16531.81
787.557	16488.65
787.891	16441.87
788.224	16499.72
788.557	16495.65
788.89	16502.43
789.223	16525.71
789.556	16399.16
789.888	16277.81
790.221	16352.61
790.554	16205.49
790.887	16295.43
791.219	16272.38
791.552	16244.36
791.884	16174.08
792.217	16189.45
792.549	16188.32
792.882	16004.37
793.214	16030.36
793.546	16059.51
793.879	16005.05
794.211	15862.22
794.543	15857.48
794.875	15909
795.207	15991.26
795.539	15864.03
795.871	15887.76
796.203	15745.62
796.535	15588.11
796.867	15684.38
797.198	15650.7
797.53	15642.57
797.862	15531.61
798.193	15651.16
798.525	15501.78
798.856	15521.89
799.188	15396.93
799.519	15358.06
799.85	15310.37
800.182	15327.77
800.513	15343.82
800.844	15248.91
801.175	15348.57
801.506	15230.83
801.837	15218.17
802.168	15208.46
802.499	15116.71
802.83	15058.4
803.161	15041
803.491	15006.43
803.822	14929.14
804.153	14966.88
804.483	14867.9
804.814	14908.8
805.145	14765.76
805.475	14800.56
805.805	14694.57
806.136	14754.68
806.466	14730.73
806.796	14655.02
807.126	14609.38
807.457	14595.36
807.787	14551.75
808.117	14519.89
808.447	14560.56
808.777	14441.7
809.107	14447.12
809.436	14425.43
809.766	14378.65
810.096	14278.76
810.426	14185.66
810.755	14324.19
811.085	14240.57
811.414	14288.03
811.744	14134.59
812.073	14197.64
812.403	14117.19
812.732	14143.4
813.061	14042.16
813.39	13994.02
813.719	14017.98
814.049	14052.33
814.378	14019.33
814.707	13886.91
815.036	13974.14
815.365	13894.37
815.693	13670.19
816.022	13737.76
816.351	13808.04
816.68	13654.37
817.008	13722.39
817.337	13652.79
817.665	13612.57
817.994	13657.31
818.322	13608.5
818.651	13529.86
818.979	13508.16
819.307	13619.12
819.636	13524.66
819.964	13409.18
820.292	13522.4
820.62	13479.69
820.948	13456.19
821.276	13540.7
821.604	13510.2
821.932	13510.65
822.259	13440.59
822.587	13452.12
822.915	13523.53
823.243	13507.03
823.57	13438.79
823.898	13517.43
824.225	13434.27
824.553	13439.01
824.88	13391.55
825.207	13502.96
825.535	13446.92
825.862	13534.15
826.189	13392.68
826.516	13495.05
826.843	13447.6
827.17	13449.63
827.497	13545
827.824	13481.95
828.151	13529.63
828.478	13500.48
828.805	13413.7
829.131	13457.54
829.458	13449.86
829.785	13414.6
830.111	13446.69
830.438	13549.97
830.764	13485.11
831.09	13492.34
831.417	13400.37
831.743	13473.36
832.069	13475.62
832.395	13443.3
832.722	13401.95
833.048	13422.74
833.374	13432.01
833.7	13345.91
834.026	13405.57
834.351	13351.1
834.677	13354.49
835.003	13333.03
835.329	13368.28
835.654	13314.27
835.98	13248.96
836.306	13267.26
836.631	13277.89
836.956	13260.71
837.282	13293.25
837.607	13274.5
837.932	13246.7
838.258	13241.28
838.583	13126.48
838.908	13145.01
839.233	13167.61
839.558	13043.77
839.883	13009.42
840.208	13062.3
840.533	12993.6
840.858	13037.44
841.182	13039.7
841.507	12926.26
841.832	12896.88
842.156	12939.59
842.481	13013.03
842.805	12968.74
843.13	12843.55
843.454	12750.67
843.778	12769.65
844.103	12730.1
844.427	12750.67
844.751	12728.07
845.075	12664.12
845.399	12581.41
845.723	12587.96
846.047	12561.52
846.371	12475.65
846.695	12531.24
847.019	12437.23
847.343	12406.95
847.666	12259.61
847.99	12280.4
848.313	12175.54
848.637	12171.47
848.96	12121.76
849.284	12158.14
849.607	12084.24
849.931	11942.78
850.254	11900.52
850.577	11845.38
850.9	11827.75
851.223	11708.21
851.546	11696.01
851.869	11597.48
852.192	11685.61
852.515	11566.97
852.838	11504.82
853.161	11546.86
853.483	11492.17
853.806	11402.45
854.129	11315.9
854.451	11360.2
854.774	11274.77
855.096	11215.57
855.419	11237.71
855.741	11245.85
856.063	11188
856.385	11186.87
856.708	11048.34
857.03	11070.94
857.352	11037.04
857.674	11011.05
857.996	10947.78
858.318	10893.09
858.64	10924.27
858.961	10891.28
859.283	10858.06
859.605	10789.14
859.926	10770.83
860.248	10792.53
860.57	10682.93
860.891	10719.08
861.212	10669.59
861.534	10682.25
861.855	10643.6
862.176	10612.64
862.498	10609.03
862.819	10609.03
863.14	10548.92
863.461	10541.46
863.782	10536.71
864.103	10514.12
864.424	10491.74
864.745	10493.1
865.065	10443.38
865.386	10396.83
865.707	10384.4
866.027	10407.45
866.348	10380.56
866.668	10355.02
866.989	10335.36
867.309	10203.16
867.63	10292.2
867.95	10318.64
868.27	10256.5
868.59	10257.17
868.91	10279.09
869.23	10148.93
869.55	10160.68
869.87	10247.23
870.19	10156.61
870.51	10163.62
870.83	10114.13
871.15	10124.97
871.469	10120.45
871.789	10118.42
872.109	10064.64
872.428	9977.18
872.748	10101.25
873.067	10013.11
873.386	10011.98
873.706	9986.67
874.025	9962.04
874.344	9912.78
874.663	9935.15
874.982	9895.83
875.301	9946.45
875.62	9862.16
875.939	9875.71
876.258	9899.9
876.577	9864.42
876.896	9837.3
877.214	9777.41
877.533	9814.7
877.852	9852.66
878.17	9737.64
878.489	9737.41
878.807	9757.75
879.125	9709.84
879.444	9630.52
879.762	9667.58
880.08	9724.98
880.398	9615.16
880.716	9649.28
881.034	9666.68
881.352	9605.89
881.67	9579
881.988	9642.95
882.306	9534.93
882.624	9471.21
882.941	9449.51
883.259	9434.37
883.577	9430.3
883.894	9515.27
884.212	9380.13
884.529	9396.86
884.846	9333.13
885.164	9308.27
885.481	9320.02
885.798	9266.69
886.115	9291.32
886.432	9256.97
886.75	9179.24
887.067	9189.63
887.383	9117.99
887.7	9169.74
888.017	9134.27
888.334	9161.16
888.651	9063.53
888.967	9056.75
889.284	9141.04
889.6	9015.17
889.917	8920.94
890.233	8986.7
890.55	8905.34
890.866	8928.85
891.182	8896.98
891.498	8861.28
891.815	8834.16
892.131	8819.25
892.447	8823.31
892.763	8779.02
893.079	8718.23
893.395	8695.18
893.71	8692.02
894.026	8581.96
894.342	8565.01
894.657	8573.38
894.973	8561.4
895.289	8581.74
895.604	8581.51
895.92	8478.24
896.235	8473.27
896.55	8456.77
896.865	8410.89
897.181	8370.67
897.496	8382.65
897.811	8247.74
898.126	8240.96
898.441	8277.56
898.756	8249.54
899.071	8165.25
899.386	8170.67
899.7	8107.4
900.015	8106.72
900.33	8031.7
900.644	8046.16
900.959	8045.71
901.273	7979.04
901.588	7962.54
901.902	7888.42
902.216	7885.03
902.531	7889.1
902.845	7865.15
903.159	7813.62
903.473	7754.41
903.787	7683.46
904.101	7710.12
904.415	7694.3
904.729	7605.72
905.042	7638.26
905.356	7512.84
905.67	7579.05
905.984	7539.05
906.297	7535.89
906.611	7461.77
906.924	7475.78
907.237	7433.75
907.551	7349.23
907.864	7397.81
908.177	7309
908.491	7309.23
908.804	7292.05
909.117	7194.88
909.43	7233.98
909.743	7177.48
910.056	7171.83
910.368	7151.94
910.681	7068.78
910.994	7066.52
911.307	7053.87
911.619	7021.33
911.932	7048.9
912.244	6906.75
912.557	6937.71
912.869	6854.33
913.181	6860.43
913.494	6895
913.806	6825.63
914.118	6742.46
914.43	6726.19
914.742	6759.86
915.054	6718.96
915.366	6693.43
915.678	6700.88
915.99	6633.31
916.302	6580.43
916.613	6591.73
916.925	6567.55
917.236	6518.97
917.548	6478.74
917.859	6462.25
918.171	6458.63
918.482	6375.92
918.794	6395.35
919.105	6321.01
919.416	6262.93
919.727	6289.82
920.038	6282.14
920.349	6260.44
920.66	6221.12
920.971	6232.19
921.282	6171.41
921.593	6199.43
921.903	6134.12
922.214	6082.82
922.525	6064.74
922.835	6058.87
923.146	6036.95
923.456	6027.23
923.767	6016.38
924.077	6015.25
924.387	5923.5
924.697	5888.7
925.008	5888.93
925.318	5809.83
925.628	5789.27
925.938	5786.78
926.248	5764.86
926.558	5787.23
926.867	5792.88
927.177	5736.61
927.487	5678.54
927.796	5661.59
928.106	5654.58
928.416	5658.2
928.725	5620.69
929.034	5632.89
929.344	5637.41
929.653	5551.31
929.962	5536.39
930.271	5486.9
930.581	5467.47
930.89	5417.3
931.199	5405.78
931.508	5408.04
931.817	5399
932.125	5423.4
932.434	5361.26
932.743	5353.12
933.051	5323.52
933.36	5250.3
933.669	5239.9
933.977	5218.66
934.286	5211.43
934.594	5209.17
934.902	5129.17
935.21	5148.38
935.519	5142.73
935.827	5098.21
936.135	5095.05
936.443	5041.49
936.751	5033.81
937.059	5038.55
937.367	5015.73
937.674	5016.18
937.982	4954.71
938.29	4990.42
938.597	4918.11
938.905	4877.65
939.213	4865.68
939.52	4864.77
939.827	4811.67
940.135	4808.73
940.442	4799.24
940.749	4793.14
941.056	4816.19
941.363	4754.27
941.67	4673.82
941.977	4690.31
942.284	4620.94
942.591	4666.36
942.898	4646.7
943.205	4599.7
943.511	4614.38
943.818	4609.64
944.125	4553.59
944.431	4497.55
944.738	4510.88
945.044	4499.81
945.35	4493.03
945.657	4455.74
945.963	4432.92
946.269	4418.91
946.575	4429.76
946.881	4400.83
947.187	4345.24
947.493	4328.97
947.799	4331
948.105	4333.71
948.41	4273.38
948.716	4233.38
949.022	4247.16
949.327	4244.22
949.633	4221.63
949.938	4240.38
950.244	4208.75
950.549	4131.91
950.854	4121.97
951.16	4119.93
951.465	4123.55
951.77	4069.54
952.075	4079.03
952.38	4076.32
952.685	4063.21
952.99	4019.82
953.294	3999.71
953.599	4003.1
953.904	3957.45
954.209	3967.85
954.513	3971.24
954.818	3934.18
955.122	3899.6
955.426	3886.95
955.731	3893.05
956.035	3859.15
956.339	3866.16
956.643	3851.24
956.948	3783.67
957.252	3783.67
957.556	3793.84
957.86	3723.56
958.163	3778.25
958.467	3707.52
958.771	3699.61
959.075	3661.64
959.378	3695.76
959.682	3684.92
959.985	3666.61
960.289	3634.3
960.592	3617.57
960.896	3615.99
961.199	3582.55
961.502	3559.95
961.805	3588.2
962.108	3512.04
962.411	3506.84
962.714	3494.41
963.017	3499.61
963.32	3503
963.623	3444.92
963.926	3443.79
964.228	3429.56
964.531	3412.83
964.833	3402.89
965.136	3404.25
965.438	3366.28
965.741	3390.24
966.043	3365.83
966.345	3338.03
966.648	3337.36
966.95	3284.48
967.252	3288.09
967.554	3297.58
967.856	3272.05
968.158	3234.08
968.46	3259.84
968.761	3251.03
969.063	3177.13
969.365	3187.98
969.666	3145.04
969.968	3153.18
970.269	3133.75
970.571	3137.36
970.872	3119.73
971.174	3140.3
971.475	3061.43
971.776	3089.23
972.077	3050.81
972.378	3077.48
972.679	3014.2
972.98	3051.04
973.281	3034.99
973.582	3014.65
973.883	3013.52
974.183	2999.74
974.484	2963.35
974.785	2938.04
975.085	2986.86
975.386	2933.98
975.686	2900.31
975.986	2906.63
976.287	2882
976.587	2905.28
976.887	2848.33
977.187	2867.31
977.487	2829.35
977.787	2801.1
978.087	2806.3
978.387	2794.77
978.687	2805.39
978.987	2759.07
979.286	2755.68
979.586	2736.47
979.885	2745.28
980.185	2734.43
980.484	2726.75
980.784	2708.22
981.083	2693.53
981.382	2677.49
981.682	2689.46
981.981	2682.91
982.28	2638.39
982.579	2646.53
982.878	2653.53
983.177	2568.11
983.475	2581.67
983.774	2565.17
984.073	2567.66
984.372	2559.75
984.67	2545.96
984.969	2529.92
985.267	2524.5
985.566	2526.3
985.864	2531.28
986.162	2511.84
986.461	2480.2
986.759	2480.43
987.057	2506.87
987.355	2486.3
987.653	2463.48
987.951	2418.06
988.249	2435.91
988.547	2401.56
988.844	2414.22
989.142	2410.83
989.44	2357.04
989.737	2401.56
990.035	2355.91
990.332	2327.44
990.63	2328.12
990.927	2345.07
991.224	2287.21
991.521	2300.32
991.819	2283.37
992.116	2306.2
992.413	2289.25
992.71	2271.17
993.006	2223.26
993.303	2248.8
993.6	2234.56
993.897	2233.88
994.193	2223.94
994.49	2191.85
994.787	2189.59
995.083	2165.41
995.379	2137.61
995.676	2189.59
995.972	2129.03
996.268	2142.36
996.565	2122.25
996.861	2105.07
997.157	2148.46
997.453	2108.01
997.749	2105.3
998.044	2054
998.34	2045.86
998.636	2069.14
998.932	2051.29
999.227	2014
999.523	2016.49
999.818	2018.75
1000.114	1987.33
1000.409	1980.78
1000.704	2007.67
1001	1959.54
1001.295	1957.96
1001.59	1949.6
1001.885	1947.11
1002.18	1924.51
1002.475	1934.23
1002.77	1911.18
1003.065	1893.33
1003.359	1901.46
1003.654	1883.16
1003.949	1846.1
1004.243	1867.79
1004.538	1860.33
1004.832	1876.83
1005.127	1823.27
1005.421	1809.71
1005.715	1794.12
1006.009	1813.1
1006.304	1788.02
1006.598	1787.11
1006.892	1776.72
1007.186	1770.62
1007.48	1713.22
1007.773	1728.58
1008.067	1749.37
1008.361	1713.67
1008.655	1713.9
1008.948	1704.86
1009.242	1705.08
1009.535	1690.85
1009.829	1660.79
1010.122	1648.36
1010.415	1633.22
1010.708	1634.58
1011.001	1607.46
1011.295	1636.16
1011.588	1624.18
1011.881	1575.59
1012.173	1593.67
1012.466	1582.6
1012.759	1576.05
1013.052	1580.79
1013.344	1555.03
1013.637	1555.03
1013.93	1504.41
1014.222	1549.15
1014.514	1512.77
1014.807	1498.76
1015.099	1524.3
1015.391	1506.67
1015.683	1505.54
1015.976	1487.91
1016.268	1440.23
1016.56	1444.3
1016.851	1458.76
1017.143	1463.51
1017.435	1436.16
1017.727	1410.4
1018.018	1425.99
1018.31	1419.89
1018.602	1420.12
1018.893	1395.71
1019.185	1372.66
1019.476	1393.68
1019.767	1374.92
1020.058	1368.37
1020.35	1350.06
1020.641	1325.21
1020.932	1305.54
1021.223	1327.24
1021.514	1330.18
1021.804	1290.18
1022.095	1294.92
1022.386	1282.04
1022.677	1278.65
1022.967	1283.4
1023.258	1278.43
1023.548	1261.25
1023.839	1270.52
1024.129	1242.04
1024.419	1246.11
1024.709	1222.61
1025	1217.41
1025.29	1212.67
1025.58	1215.6
1025.87	1193.46
1026.16	1203.17
1026.449	1163.18
1026.739	1191.2
1027.029	1141.71
1027.319	1177.86
1027.608	1153.23
1027.898	1145.32
1028.187	1139.45
1028.477	1148.26
1028.766	1111.2
1029.055	1123.4
1029.344	1110.3
1029.634	1113.69
1029.923	1097.19
1030.212	1068.71
1030.501	1046.57
1030.79	1074.59
1031.078	1055.38
1031.367	1047.02
1031.656	1069.39
1031.945	1038.43
1032.233	1035.04
1032.522	1040.47
1032.81	1027.36
1033.099	1040.02
1033.387	1014.7
1033.675	1009.51
1033.963	986.23
1034.251	1002.5
1034.54	998.89
1034.828	972.22
1035.116	1007.25
1035.403	987.81
1035.691	974.93
1035.979	972.9
1036.267	958.21
1036.554	929.74
1036.842	928.15
1037.129	938.77
1037.417	935.39
1037.704	910.3
1037.992	912.33
1038.279	902.84
1038.566	875.73
1038.853	875.73
1039.14	875.73
