Data from hue_70_FLMS001491_11.txt Node
Date: Mon Feb 06 15:20:10 GMT 2017
User: dcchb
Spectrometer: FLMS00149
Trigger mode: 0
Integration Time (sec): 2.000000E-2
Scans to average: 10
Electric dark correction enabled: true
Nonlinearity correction enabled: false
Boxcar width: 0
XAxis mode: Wavelengths
Number of Pixels in Spectrum: 2048
>>>>>Begin Spectral Data<<<<<
341.393	-12.66
341.776	-12.66
342.16	-12.66
342.543	-55.14
342.927	-83.16
343.31	-92.43
343.693	-71.86
344.077	-76.16
344.46	-63.73
344.843	-63.05
345.226	-37.06
345.61	-37.74
345.993	-23.5
346.376	-1.13
346.759	-9.72
347.142	42.26
347.525	66.89
347.908	83.84
348.291	81.81
348.674	80.68
349.057	120.9
349.44	133.1
349.823	153.67
350.206	154.8
350.588	201.35
350.971	205.42
351.354	237.96
351.737	249.48
352.119	241.12
352.502	258.07
352.884	287.45
353.267	285.19
353.65	289.71
354.032	313.21
354.414	288.35
354.797	329.03
355.179	311.63
355.562	314.57
355.944	323.16
356.326	350.05
356.709	329.03
357.091	337.17
357.473	337.84
357.855	307.34
358.238	340.33
358.62	344.17
359.002	331.97
359.384	353.89
359.766	346.43
360.148	337.17
360.53	327.9
360.912	342.59
361.294	326.09
361.676	345.75
362.057	336.04
362.439	327
362.821	331.97
363.203	317.05
363.584	331.74
363.966	305.75
364.348	318.41
364.729	340.1
365.111	310.73
365.493	325.19
365.874	330.16
366.256	314.34
366.637	303.95
367.019	311.63
367.4	297.39
367.781	316.6
368.163	312.99
368.544	313.66
368.925	315.47
369.306	285.19
369.688	326.32
370.069	322.25
370.45	314.12
370.831	331.06
371.212	304.62
371.593	307.11
371.974	323.16
372.355	309.82
372.736	327.45
373.117	308.24
373.498	294
373.879	298.52
374.26	309.37
374.641	296.72
375.021	320.22
375.402	313.89
375.783	319.54
376.163	332.87
376.544	348.24
376.925	335.58
377.305	327.68
377.686	319.54
378.066	302.59
378.447	314.79
378.827	336.49
379.208	323.61
379.588	334.68
379.968	328.58
380.349	313.21
380.729	339.43
381.109	334.68
381.489	330.16
381.87	331.97
382.25	331.06
382.63	344.85
383.01	317.96
383.39	346.88
383.77	327.45
384.15	322.7
384.53	338.75
384.91	320.67
385.29	350.27
385.67	322.25
386.049	340.33
386.429	339.2
386.809	327.22
387.189	330.84
387.568	339.43
387.948	344.17
388.328	355.7
388.707	335.13
389.087	346.66
389.466	365.19
389.846	360.67
390.225	365.19
390.605	340.56
390.984	360.67
391.363	359.09
391.743	348.24
392.122	363.38
392.501	333.1
392.881	336.94
393.26	366.77
393.639	375.36
394.018	351.63
394.397	367
394.776	372.87
395.155	369.03
395.534	363.15
395.913	367.9
396.292	365.64
396.671	364.96
397.05	363.38
397.429	374.68
397.808	359.99
398.186	375.13
398.565	363.15
398.944	385.07
399.323	388.46
399.701	383.72
400.08	406.54
400.458	373.55
400.837	380.55
401.215	365.41
401.594	392.76
401.972	380.55
402.351	397.28
402.729	391.85
403.107	388.24
403.486	380.1
403.864	386.43
404.242	365.41
404.62	401.8
404.999	396.15
405.377	395.24
405.755	408.35
406.133	412.42
406.511	404.28
406.889	402.25
407.267	393.66
407.645	412.19
408.023	381.46
408.401	409.48
408.779	383.49
409.156	418.75
409.534	406.99
409.912	394.57
410.29	414.68
410.667	428.01
411.045	416.03
411.422	388.46
411.8	417.84
412.178	423.72
412.555	444.28
412.933	444.96
413.31	456.94
413.687	444.96
414.065	429.37
414.442	443.15
414.819	449.03
415.197	452.42
415.574	477.73
415.951	446.09
416.328	450.84
416.705	446.77
417.082	455.13
417.46	470.5
417.837	465.98
418.214	463.26
418.591	470.72
418.967	479.54
419.344	470.95
419.721	487.9
420.098	471.85
420.475	475.24
420.852	479.99
421.228	496.48
421.605	484.96
421.982	483.15
422.358	483.15
422.735	483.6
423.111	490.16
423.488	518.63
423.864	497.16
424.241	499.87
424.617	500.33
424.994	535.13
425.37	523.6
425.746	527.44
426.123	526.99
426.499	515.92
426.875	534.68
427.251	496.94
427.627	530.38
428.003	548.46
428.379	540.78
428.756	534.68
429.132	549.59
429.507	548.23
429.883	524.28
430.259	552.98
430.635	582.58
431.011	571.06
431.387	558.18
431.763	551.4
432.138	562.92
432.514	570.83
432.89	570.38
433.265	602.24
433.641	610.15
434.016	597.27
434.392	580.55
434.767	602.7
435.143	595.46
435.518	622.36
435.894	613.54
436.269	632.75
436.644	629.36
437.02	627.78
437.395	626.42
437.77	620.1
438.145	639.76
438.52	635.01
438.895	648.8
439.271	636.82
439.646	658.06
440.021	664.62
440.395	661
440.77	642.92
441.145	675.91
441.52	665.52
441.895	675.01
442.27	671.17
442.645	690.83
443.019	681.11
443.394	695.8
443.769	687.89
444.143	679.53
444.518	700.09
444.892	713.65
445.267	697.83
445.641	695.8
446.016	713.65
446.39	728.12
446.764	732.41
447.139	715.01
447.513	733.54
447.887	733.31
448.262	744.61
448.636	724.05
449.01	731.73
449.384	742.81
449.758	779.87
450.132	746.42
450.506	795.46
450.88	765.4
451.254	752.07
451.628	787.32
452.002	780.09
452.376	795.46
452.75	792.75
453.123	784.84
453.497	791.84
453.871	815.35
454.244	844.5
454.618	848.57
454.992	848.11
455.365	835.46
455.739	832.75
456.112	847.21
456.486	866.87
456.859	863.48
457.232	894.89
457.606	888.79
457.979	890.82
458.352	903.93
458.725	926.53
459.099	932.18
459.472	958.17
459.845	945.74
460.218	943.7
460.591	963.82
460.964	949.81
461.337	957.71
461.71	982.8
462.083	997.71
462.456	995.45
462.829	1001.1
463.201	1025.06
463.574	1037.94
463.947	1043.81
464.32	1072.29
464.692	1086.53
465.065	1096.69
465.438	1112.74
465.81	1116.81
466.183	1157.03
466.555	1150.48
466.928	1167.88
467.3	1204.94
467.672	1210.14
468.045	1221.21
468.417	1233.41
468.789	1262.79
469.161	1262.11
469.534	1314.54
469.906	1297.37
470.278	1349.34
470.65	1350.02
471.022	1366.29
471.394	1403.8
471.766	1418.04
472.138	1447.19
472.51	1475.67
472.882	1529.45
473.253	1583.46
473.625	1602.22
473.997	1655.78
474.369	1656.45
474.74	1677.7
475.112	1743.01
475.484	1794.08
475.855	1808.54
476.227	1844.25
476.598	1912.49
476.97	1940.29
477.341	1996.78
477.713	2010.79
478.084	2075.88
478.455	2173.73
478.827	2201.98
479.198	2264.8
479.569	2300.96
479.94	2427.96
480.311	2441.29
480.682	2543.44
481.053	2641.74
481.424	2709.08
481.795	2749.53
482.166	2832.47
482.537	2876.76
482.908	3017.1
483.279	3078.11
483.65	3165.57
484.021	3288.95
484.391	3375.96
484.762	3454.6
485.133	3510.87
485.503	3596.74
485.874	3803.29
486.244	3908.82
486.615	3966.45
486.985	4073.34
487.356	4231.08
487.726	4282.37
488.097	4438.08
488.467	4515.14
488.837	4625.87
489.207	4765.3
489.578	4872.64
489.948	5032.86
490.318	5092.52
490.688	5207.77
491.058	5393.08
491.428	5528.89
491.798	5649.79
492.168	5856.57
492.538	5950.8
492.908	6025.15
493.278	6237.8
493.648	6304.02
494.017	6534.07
494.387	6595.98
494.757	6727.73
495.126	6877.56
495.496	6955.07
495.866	7061.74
496.235	7219.92
496.605	7390.09
496.974	7533.14
497.344	7636.18
497.713	7790.3
498.082	7958.66
498.452	8042.05
498.821	8222.61
499.19	8273.91
499.559	8417.86
499.928	8558.65
500.298	8714.8
500.667	8792.09
501.036	8896.49
501.405	9041.57
501.774	9143.26
502.143	9268.68
502.512	9333.99
502.88	9533.31
503.249	9603.14
503.618	9669.35
503.987	9769.01
504.356	9983.47
504.724	10064.82
505.093	10121.54
505.462	10304.14
505.83	10341.42
506.199	10524.02
506.567	10659.83
506.936	10710.68
507.304	10874.74
507.672	10919.49
508.041	11058.69
508.409	11158.58
508.777	11302.08
509.145	11430.66
509.514	11445.8
509.882	11639.24
510.25	11590.66
510.618	11766.7
510.986	11828.62
511.354	11999.91
511.722	12119.23
512.09	12197.65
512.458	12146.12
512.826	12334.82
513.193	12540.46
513.561	12484.19
513.929	12676.5
514.297	12837.63
514.664	12801.7
515.032	12914.24
515.4	13026.78
515.767	13107.45
516.135	13230.61
516.502	13128.92
516.869	13445.52
517.237	13445.75
517.604	13487.1
517.972	13669.92
518.339	13697.94
518.706	13740.88
519.073	13837.6
519.44	13906.08
519.808	14007.99
520.175	14020.42
520.542	14210.25
520.909	14271.94
521.276	14209.34
521.643	14522.78
522.009	14495.66
522.376	14640.52
522.743	14650.91
523.11	14843.23
523.477	14929.78
523.843	15031.02
524.21	15121.18
524.577	15290.67
524.943	15399.6
525.31	15331.8
525.676	15442.76
526.043	15630.32
526.409	15615.63
526.776	15850.88
527.142	15828.51
527.508	15925.01
527.874	15991.67
528.241	16029.41
528.607	16113.25
528.973	16364.09
529.339	16259.23
529.705	16376.97
530.071	16415.61
530.437	16444.54
530.803	16548.72
531.169	16670.97
531.535	16608.6
531.901	16691.76
532.267	16724.31
532.632	16731.76
532.998	16839.78
533.364	16878.43
533.73	16990.29
534.095	17070.74
534.461	17056.5
534.826	17117.97
535.192	17148.02
535.557	17216.27
535.923	17232.54
536.288	17325.19
536.653	17434.12
537.019	17163.16
537.384	17314.35
537.749	17361.35
538.114	17381.01
538.479	17379.66
538.845	17474.12
539.21	17431.63
539.575	17501.23
539.94	17422.37
540.305	17616.03
540.67	17545.75
541.034	17517.28
541.399	17606.09
541.764	17651.74
542.129	17644.51
542.494	17656.71
542.858	17776.26
543.223	17747.56
543.587	17794.79
543.952	17785.3
544.316	17824.39
544.681	17732.19
545.045	17756.82
545.41	17840.66
545.774	17814.9
546.138	17876.82
546.503	17976.48
546.867	17868
547.231	17987.55
547.595	18043.59
547.959	17968.79
548.324	18035.91
548.688	17992.75
549.052	18072.07
549.416	18005.63
549.779	17999.07
550.143	18102.57
550.507	18146.64
550.871	18153.65
551.235	18281.33
551.599	18243.59
551.962	18258.28
552.326	18236.13
552.689	18307.32
553.053	18317.03
553.417	18380.31
553.78	18469.8
554.143	18291.5
554.507	18399.06
554.87	18508.89
555.234	18620.3
555.597	18552.28
555.96	18468.89
556.323	18589.57
556.686	18518.38
557.05	18710.47
557.413	18680.41
557.776	18736
558.139	18790.01
558.502	18761.77
558.865	18832.27
559.228	18954.98
559.59	18981.2
559.953	18920.63
560.316	19193.39
560.679	19103.45
561.041	19203.79
561.404	19234.52
561.767	19472.93
562.129	19240.17
562.492	19408.76
562.854	19373.05
563.217	19354.07
563.579	19403.11
563.941	19596.32
564.304	19638.13
564.666	19755.19
565.028	19729.2
565.39	19641.29
565.753	19866.14
566.115	19789.99
566.477	19864.56
566.839	19976.65
567.201	20100.94
567.563	20088.06
567.925	20146.81
568.287	20150.43
568.648	20208.73
569.01	20398.56
569.372	20383.42
569.734	20335.28
570.095	20415.73
570.457	20670.19
570.819	20552
571.18	20664.09
571.542	20603.75
571.903	20666.8
572.265	20741.15
572.626	20703.86
572.987	20711.09
573.349	20815.95
573.71	20934.59
574.071	20959
574.432	21015.27
574.794	21132.55
575.155	21036.51
575.516	21014.14
575.877	21096.39
576.238	21168.71
576.599	21078.99
576.96	21252.1
577.32	21198.54
577.681	21242.61
578.042	21262.49
578.403	21350.85
578.763	21255.94
579.124	21391.98
579.485	21354.69
579.845	21370.06
580.206	21520.79
580.566	21416.39
580.927	21462.26
581.287	21432.66
581.648	21472.43
582.008	21514.46
582.368	21541.35
582.728	21581.58
583.089	21548.36
583.449	21488.7
583.809	21572.99
584.169	21550.17
584.529	21598.98
584.889	21749.03
585.249	21530.51
585.609	21421.13
585.969	21652.99
586.329	21612.77
586.688	21583.16
587.048	21589.04
587.408	21587.68
587.768	21671.75
588.127	21483.5
588.487	21516.27
588.846	21746.55
589.206	21325.77
589.565	21556.27
589.925	21616.61
590.284	21613.89
590.643	21582.26
591.003	21674.23
591.362	21551.07
591.721	21569.83
592.08	21526.44
592.44	21612.31
592.799	21640.56
593.158	21598.08
593.517	21570.05
593.876	21668.58
594.235	21629.49
594.593	21533.9
594.952	21645.53
595.311	21589.94
595.67	21657.06
596.029	21752.2
596.387	21682.37
596.746	21858.41
597.104	21750.16
597.463	21602.6
597.822	21703.84
598.18	21554.69
598.538	21610.28
598.897	21797.84
599.255	21616.83
599.613	21832.19
599.972	21760.11
600.33	21838.07
600.688	21745.87
601.046	21840.33
601.404	21912.64
601.762	21889.82
602.12	21951.51
602.478	21939.08
602.836	22008.23
603.194	21788.81
603.552	21867
603.91	21887.56
604.268	22019.76
604.625	21823.15
604.983	21944.73
605.341	21863.83
605.698	22030.83
606.056	22005.3
606.413	21937.28
606.771	22087.78
607.128	22018.4
607.485	21982.92
607.843	22037.84
608.2	22118.74
608.557	22177.72
608.914	22175.69
609.272	22258.62
609.629	22300.88
609.986	22305.63
610.343	22161.23
610.7	22377.04
611.057	22509.01
611.414	22373.2
611.771	22349.02
612.127	22408.68
612.484	22495
612.841	22544.49
613.198	22524.83
613.554	22427.88
613.911	22628.78
614.267	22574.77
614.624	22732.28
614.98	22720.53
615.337	22754.88
615.693	22660.65
616.05	22767.54
616.406	22829.46
616.762	22841.21
617.118	22745.62
617.475	22776.35
617.831	22915.56
618.187	22824.26
618.543	22918.72
618.899	23082.56
619.255	23040.07
619.611	22912.17
619.967	23068.09
620.323	23170.92
620.678	22981.99
621.034	22926.63
621.39	23012.28
621.746	22981.99
622.101	23340.86
622.457	23071.03
622.812	23094.31
623.168	23291.14
623.523	23138.37
623.879	23249.33
624.234	23121.88
624.589	23287.07
624.945	23211.14
625.3	23327.3
625.655	23205.72
626.01	23306.28
626.365	23257.02
626.72	23221.99
627.075	23201.2
627.43	23211.59
627.785	23174.31
628.14	23248.2
628.495	23236.45
628.85	23229.45
629.205	23200.97
629.559	23332.49
629.914	23070.58
630.269	23163.46
630.623	23206.17
630.978	23089.79
631.332	23138.15
631.687	23267.86
632.041	23086.4
632.396	23213.17
632.75	22975.67
633.104	23098.15
633.459	23033.74
633.813	23075.55
634.167	23099.96
634.521	22943.8
634.875	22991.94
635.229	23022.22
635.583	22937.25
635.937	22954.65
636.291	22941.09
636.645	22866.97
636.999	22816.58
637.352	22921.88
637.706	22785.39
638.06	22981.77
638.413	22800.76
638.767	22777.71
639.121	22774.32
639.474	22708.56
639.828	22715.79
640.181	22838.5
640.534	22638.95
640.888	22648.67
641.241	22609.35
641.594	22655
641.947	22718.27
642.301	22515.79
642.654	22610.7
643.007	22617.03
643.36	22472.63
643.713	22568.45
644.066	22616.35
644.419	22556.24
644.771	22266.08
645.124	22167.1
645.477	22130.04
645.83	22002.13
646.182	21915.13
646.535	21916.49
646.888	21905.19
647.24	21722.59
647.593	21897.96
647.945	21822.48
648.298	21678.75
648.65	21818.18
649.002	21706.32
649.355	21800.56
649.707	21814.34
650.059	21883.49
650.411	22061.57
650.763	22049.36
651.115	22322.58
651.467	22365.97
651.819	22373.2
652.171	22188.57
652.523	22205.74
652.875	22233.77
653.227	22148.34
653.578	22297.04
653.93	22185.18
654.282	22229.02
654.633	22012.53
654.985	22123.49
655.337	22108.12
655.688	22205.29
656.039	22288
656.391	22048.69
656.742	22099.08
657.094	22129.14
657.445	22161.23
657.796	22114.9
658.147	22130.04
658.498	22167.78
658.849	22200.09
659.2	22172.98
659.551	22125.07
659.902	22295.01
660.253	22133.66
660.604	22242.13
660.955	22076.48
661.306	22156.93
661.656	22165.29
662.007	22135.01
662.358	22099.76
662.708	22217.27
663.059	22111.06
663.409	22060.89
663.76	22223.82
664.11	22119.19
664.461	22217.49
664.811	22192.86
665.161	22221.56
665.511	22063.83
665.862	22205.29
666.212	22321.22
666.562	22284.61
666.912	22170.49
667.262	22134.11
667.612	22126.2
667.962	22187.67
668.312	22143.82
668.662	22268.34
669.011	22167.1
669.361	22062.47
669.711	22106.99
670.06	22049.59
670.41	21920.1
670.76	21954
671.109	22123.03
671.459	22050.49
671.808	22002.81
672.157	22087.1
672.507	21960.1
672.856	21997.61
673.205	21966.2
673.554	22085.3
673.904	22006.2
674.253	22050.95
674.602	21876.71
674.951	21615.93
675.3	21559.21
675.649	21828.35
675.998	21878.75
676.346	21904.96
676.695	21867.9
677.044	21747.9
677.393	21797.62
677.741	21817.51
678.09	21712.2
678.438	21770.28
678.787	21862.02
679.135	21713.78
679.484	21631.75
679.832	21714.23
680.181	21641.69
680.529	21646.44
680.877	21568.25
681.225	21573.9
681.573	21628.58
681.922	21485.54
682.27	21492.32
682.618	21437.63
682.966	21436.95
683.314	21337.52
683.661	21306.11
684.009	21255.26
684.357	21269.5
684.705	21176.39
685.053	21136.62
685.4	21125.32
685.748	21096.62
686.095	21046.23
686.443	20926.91
686.79	20929.62
687.138	20972.56
687.485	20917.19
687.832	20882.61
688.18	20849.17
688.527	20730.53
688.874	20619.8
689.221	20818.44
689.568	20672.22
689.915	20624.54
690.262	20617.76
690.609	20543.19
690.956	20408.95
691.303	20387.94
691.65	20244.67
691.997	20331.67
692.344	20172.8
692.69	20091.68
693.037	20093.26
693.383	20036.54
693.73	20088.29
694.077	19901.17
694.423	19908.18
694.769	19872.7
695.116	19772.14
695.462	19733.49
695.808	19610.56
696.155	19689.2
696.501	19498.7
696.847	19508.41
697.193	19300.96
697.539	19462.09
697.885	19215.54
698.231	19269.55
698.577	19203.34
698.923	19170.12
699.269	19077.46
699.614	19022.55
699.96	18921.31
700.306	18955.89
700.651	18840.63
700.997	18799.05
701.342	18801.77
701.688	18694.88
702.033	18608.55
702.379	18593.18
702.724	18537.82
703.069	18579.4
703.415	18318.84
703.76	18295.11
704.105	18358.39
704.45	18230.26
704.795	18230.71
705.14	18074.78
705.485	18171.5
705.83	17982.8
706.175	18051.95
706.52	17930.83
706.865	17868.23
707.209	17831.62
707.554	17777.61
707.899	17854.67
708.243	17703.94
708.588	17749.14
708.932	17570.84
709.277	17604.96
709.621	17611.29
709.966	17444.51
710.31	17517.73
710.654	17350.96
710.998	17422.14
711.342	17365.65
711.687	17233.67
712.031	17300.56
712.375	17197.29
712.719	17157.06
713.063	17177.18
713.407	17180.11
713.75	17111.87
714.094	17077.07
714.438	17148.93
714.782	17057.18
715.125	16835.04
715.469	16864.87
715.812	16842.5
716.156	16791.2
716.499	16792.55
716.843	16769.05
717.186	16648.83
717.53	16742.16
717.873	16750.97
718.216	16595.5
718.559	16646.79
718.902	16436.63
719.246	16437.08
719.589	16540.36
719.932	16377.87
720.275	16389.63
720.617	16487.48
720.96	16406.57
721.303	16398.89
721.646	16408.61
721.989	16247.03
722.331	16356.86
722.674	16239.57
723.016	16393.69
723.359	16319.34
723.701	16266.92
724.044	16217.65
724.386	16081.39
724.729	16213.13
725.071	16079.58
725.413	16160.71
725.755	16190.08
726.097	16063.53
726.439	15875.29
726.782	15977.43
727.124	16054.27
727.465	15981.73
727.807	15922.07
728.149	15956.42
728.491	15932.69
728.833	15933.59
729.175	15897.89
729.516	15838
729.858	15908.96
730.199	15907.15
730.541	15809.3
730.882	15906.25
731.224	15859.47
731.565	15758.68
731.906	15789.42
732.248	15808.17
732.589	15683.66
732.93	15679.59
733.271	15709.19
733.612	15718.91
733.953	15660.61
734.294	15642.07
734.635	15658.8
734.976	15821.96
735.317	15495.19
735.658	15654.73
735.999	15579.7
736.339	15586.03
736.68	15691.79
737.021	15611.79
737.361	15637.55
737.702	15728.85
738.042	15619.02
738.383	15645.01
738.723	15614.96
739.063	15505.81
739.404	15541.74
739.744	15594.17
740.084	15583.09
740.424	15612.47
740.764	15586.26
741.104	15654.05
741.444	15580.83
741.784	15578.8
742.124	15529.76
742.464	15513.49
742.804	15605.69
743.143	15569.08
743.483	15672.13
743.823	15587.16
744.162	15568.63
744.502	15628.74
744.841	15571.79
745.181	15757.1
745.52	15670.77
745.86	15703.54
746.199	15635.97
746.538	15641.62
746.877	15779.02
747.216	15845.23
747.556	15847.94
747.895	15782.64
748.234	15817.44
748.573	15787.83
748.911	15929.3
749.25	15962.07
749.589	15953.7
749.928	16002.07
750.267	15975.17
750.605	16178.33
750.944	16131.78
751.283	16136.3
751.621	16256.52
751.96	16252.45
752.298	16328.84
752.636	16354.15
752.975	16340.14
753.313	16380.13
753.651	16543.52
753.989	16597.08
754.327	16576.97
754.666	16551.2
755.004	16774.7
755.342	16798.88
755.679	16919.78
756.017	16793.46
756.355	16979.44
756.693	17000.46
757.031	17129.72
757.368	17095.82
757.706	17103.05
758.044	17187.57
758.381	17331.3
758.719	17447.22
759.056	17494.46
759.394	17448.81
759.731	17423.5
760.068	17616.49
760.405	17559.99
760.743	17650.16
761.08	17855.58
761.417	17698.52
761.754	17862.58
762.091	17828.46
762.428	17907.55
762.765	17874.11
763.102	17926.31
763.438	17959.75
763.775	17974.22
764.112	18085.85
764.449	18115
764.785	18214.66
765.122	18220.31
765.458	18248.33
765.795	18188.67
766.131	18281.55
766.467	18194.55
766.804	18229.8
767.14	18264.38
767.476	18317.48
767.812	18309.8
768.148	18371.49
768.485	18351.38
768.821	18214.21
769.157	18274.1
769.492	18310.7
769.828	18352.51
770.164	18277.94
770.5	18273.42
770.836	18262.57
771.171	18180.76
771.507	18256.02
771.842	18088.11
772.178	18272.74
772.513	18127.43
772.849	18187.32
773.184	18151.84
773.519	18188.9
773.855	18075.68
774.19	18083.82
774.525	18001.11
774.86	18095.12
775.195	17997.04
775.53	17954.1
775.865	17931.96
776.2	17830.49
776.535	17797.95
776.87	17795.46
777.205	17686.09
777.539	17718.4
777.874	17684.96
778.209	17497.62
778.543	17655.35
778.878	17466.21
779.212	17545.08
779.547	17509.6
779.881	17511.86
780.215	17310.28
780.55	17366.78
780.884	17298.3
781.218	17304.18
781.552	17322.03
781.886	17278.19
782.22	17143.28
782.554	17141.92
782.888	16992.32
783.222	16933.57
783.556	16942.83
783.889	16826.22
784.223	16794.36
784.557	16779.22
784.89	16861.7
785.224	16507.59
785.557	16586.91
785.891	16569.96
786.224	16557.08
786.558	16595.04
786.891	16372
787.224	16382.62
787.557	16446.12
787.891	16283.19
788.224	16277.99
788.557	16241.83
788.89	16153.47
789.223	16200.7
789.556	15984.44
789.888	16072.8
790.221	16014.49
790.554	15932.46
790.887	15921.84
791.219	15821.5
791.552	15779.25
791.884	15750.77
792.217	15794.84
792.549	15606.37
792.882	15436.88
793.214	15475.3
793.546	15465.36
793.879	15324.57
794.211	15319.6
794.543	15347.17
794.875	15323.44
795.207	15296.32
795.539	15239.37
795.871	15112.6
796.203	15129.32
796.535	14979.72
796.867	14903.56
797.198	14944.24
797.53	14912.38
797.862	14815.2
798.193	14883
798.525	14760.52
798.856	14745.15
799.188	14661.31
799.519	14578.83
799.85	14577.7
800.182	14692.5
800.513	14553.52
800.844	14410.24
801.175	14565.04
801.506	14478.72
801.837	14428.1
802.168	14348.55
802.499	14212.51
802.83	14200.76
803.161	14258.61
803.491	14216.12
803.822	14134.77
804.153	14093.64
804.483	14107.2
804.814	14004.83
805.145	13958.96
805.475	14013.64
805.805	13885.51
806.136	13881.89
806.466	13815.23
806.796	13818.17
807.126	13673.76
807.457	13670.83
807.787	13646.42
808.117	13598.29
808.447	13505.41
808.777	13601.45
809.107	13515.12
809.436	13423.15
809.766	13477.39
810.096	13446.65
810.426	13452.53
810.755	13390.61
811.085	13325.07
811.414	13377.05
811.744	13252.31
812.073	13215.47
812.403	13169.6
812.732	13095.02
813.061	13144.74
813.39	12978.19
813.719	13038.53
814.049	13004.63
814.378	12944.29
814.707	12920.34
815.036	12902.49
815.365	12798.53
815.693	12736.16
816.022	12807.35
816.351	12676.05
816.68	12767.35
817.008	12740
817.337	12634.24
817.665	12537.75
817.994	12604.64
818.322	12644.41
818.651	12572.55
818.979	12480.35
819.307	12598.09
819.636	12518.77
819.964	12408.04
820.292	12427.7
820.62	12429.5
820.948	12325.78
821.276	12500.24
821.604	12374.59
821.932	12435.83
822.259	12342.05
822.587	12383.86
822.915	12323.29
823.243	12453.01
823.57	12304.08
823.898	12385.44
824.225	12354.25
824.553	12284.87
824.88	12321.71
825.207	12299.79
825.535	12294.82
825.862	12323.07
826.189	12283.29
826.516	12346.34
826.843	12392.22
827.17	12373.69
827.497	12398.54
827.824	12375.72
828.151	12358.32
828.478	12321.94
828.805	12420.01
829.131	12323.74
829.458	12326.23
829.785	12265.44
830.111	12303.18
830.438	12321.03
830.764	12353.57
831.09	12359.9
831.417	12181.37
831.743	12328.72
832.069	12238.55
832.395	12280.36
832.722	12302.28
833.048	12144.09
833.374	12152
833.7	12151.32
834.026	12174.82
834.351	12213.24
834.677	12254.59
835.003	12158.78
835.329	12163.07
835.654	12202.62
835.98	12133.24
836.306	12152.9
836.631	12074.71
836.956	12182.96
837.282	12113.58
837.607	12046.69
837.932	11954.26
838.258	11963.08
838.583	11993.58
838.908	12007.59
839.233	11989.29
839.558	11931.21
839.883	11862.29
840.208	11890.99
840.533	11909.07
840.858	11884.21
841.182	11877.88
841.507	11838.78
841.832	11733.02
842.156	11747.04
842.481	11821.38
842.805	11781.61
843.13	11635.85
843.454	11650.77
843.778	11632.01
844.103	11650.99
844.427	11537.1
844.751	11591.33
845.075	11504.1
845.399	11487.83
845.723	11358.8
846.047	11439.02
846.371	11403.32
846.695	11323.77
847.019	11270.66
847.343	11137.33
847.666	11149.76
847.99	11089.88
848.313	11112.25
848.637	11016.21
848.96	11033.83
849.284	10991.8
849.607	10911.35
849.931	10869.77
850.254	10753.84
850.577	10715.2
850.9	10701.87
851.223	10602.66
851.546	10547.07
851.869	10540.97
852.192	10634.52
852.515	10455.09
852.838	10475.2
853.161	10440.18
853.483	10380.52
853.806	10415.55
854.129	10392.04
854.451	10312.5
854.774	10234.99
855.096	10226.4
855.419	10192.27
855.741	10121.77
856.063	10072.28
856.385	10106.4
856.708	10038.83
857.03	10018.95
857.352	10053.07
857.674	9992.28
857.996	9998.83
858.318	9889.91
858.64	9913.19
858.961	9963.35
859.283	9840.19
859.605	9719.52
859.926	9810.36
860.248	9750.48
860.57	9710.71
860.891	9778.95
861.212	9723.13
861.534	9618.28
861.855	9671.61
862.176	9708.67
862.498	9669.12
862.819	9637.71
863.14	9661.89
863.461	9543.93
863.782	9508
864.103	9550.71
864.424	9469.81
864.745	9531.73
865.065	9462.35
865.386	9457.6
865.707	9457.15
866.027	9404.95
866.348	9382.58
866.668	9400.88
866.989	9355.69
867.309	9318.63
867.63	9323.6
867.95	9387.78
868.27	9270.26
868.59	9324.95
868.91	9302.81
869.23	9263.71
869.55	9166.31
869.87	9240.21
870.19	9259.87
870.51	9246.08
870.83	9201.79
871.15	9146.2
871.469	9131.74
871.789	9221.9
872.109	9093.55
872.428	9093.32
872.748	9103.26
873.067	9094.22
873.386	9061.23
873.706	9056.49
874.025	9096.48
874.344	9006.32
874.663	9001.57
874.982	8982.14
875.301	9004.73
875.62	8939.2
875.939	8912.08
876.258	8888.81
876.577	8920.22
876.896	8896.04
877.214	8875.7
877.533	8851.74
877.852	8865.08
878.17	8813.78
878.489	8866.89
878.807	8835.93
879.125	8804.29
879.444	8787.34
879.762	8778.07
880.08	8739.21
880.398	8675.7
880.716	8683.61
881.034	8686.55
881.352	8699.43
881.67	8656.95
881.988	8667.57
882.306	8632.09
882.624	8560.45
882.941	8605.2
883.259	8566.1
883.577	8559.1
883.894	8489.72
884.212	8468.25
884.529	8449.5
884.846	8492.43
885.164	8443.85
885.481	8420.57
885.798	8388.93
886.115	8369.72
886.432	8353.45
886.75	8357.07
887.067	8320.01
887.383	8268.48
887.7	8386.45
888.017	8292.21
888.334	8280.91
888.651	8188.94
888.967	8231.87
889.284	8140.58
889.6	8161.14
889.917	8071.88
890.233	8150.97
890.55	8029.39
890.866	8113.68
891.182	8039.56
891.498	8016.06
891.815	7986.91
892.131	7948.04
892.447	7903.3
892.763	7925.44
893.079	7919.11
893.395	7839.34
893.71	7827.14
894.026	7872.56
894.342	7849.51
894.657	7765.45
894.973	7785.56
895.289	7690.19
895.604	7705.79
895.92	7669.85
896.235	7616.52
896.55	7656.3
896.865	7605.45
897.181	7587.37
897.496	7525.23
897.811	7514.83
898.126	7486.81
898.441	7503.08
898.756	7463.31
899.071	7433.02
899.386	7425.79
899.7	7377.66
900.015	7320.71
900.33	7266.7
900.644	7279.81
900.959	7270.54
901.273	7214.73
901.588	7257.21
901.902	7185.35
902.216	7129.3
902.531	7142.19
902.845	7126.37
903.159	7136.76
903.473	7025.35
903.787	7038.91
904.101	7004.11
904.415	6995.3
904.729	6934.51
905.042	6890.67
905.356	6926.6
905.67	6856.99
905.984	6894.96
906.297	6861.97
906.611	6764.12
906.924	6822.87
907.237	6766.6
907.551	6721.18
907.864	6745.81
908.177	6728.64
908.491	6644.57
908.804	6613.61
909.117	6595.31
909.43	6596.44
909.743	6552.14
910.056	6534.07
910.368	6499.26
910.681	6445.93
910.994	6447.74
911.307	6424.24
911.619	6372.94
911.932	6377.01
912.244	6350.34
912.557	6310.79
912.869	6284.13
913.181	6311.92
913.494	6215.43
913.806	6210.91
914.118	6184.92
914.43	6064.7
914.742	6139.5
915.054	6108.54
915.366	6133.62
915.678	6056.79
915.99	6039.84
916.302	6014.76
916.613	6022.67
916.925	5919.84
917.236	5934.08
917.548	5881.65
917.859	5893.4
918.171	5849.11
918.482	5811.82
918.794	5842.11
919.105	5826.74
919.416	5789.23
919.727	5805.05
920.038	5656.57
920.349	5699.51
920.66	5670.59
920.971	5649.79
921.282	5646.41
921.593	5603.24
921.903	5562.57
922.214	5589.91
922.525	5551.72
922.835	5482.57
923.146	5483.92
923.456	5460.2
923.767	5464.72
924.077	5434.43
924.387	5413.87
924.697	5388.33
925.008	5346.07
925.318	5328.67
925.628	5343.14
925.938	5313.31
926.248	5200.54
926.558	5252.52
926.867	5243.7
927.177	5258.62
927.487	5189.47
927.796	5111.96
928.106	5157.38
928.416	5116.93
928.725	5120.09
929.034	5084.39
929.344	5077.61
929.653	5061.34
929.962	5020.43
930.271	5015.46
930.581	4935.92
930.89	4909.25
931.199	4916.93
931.508	4932.53
931.817	4915.58
932.125	4884.84
932.434	4876.03
932.743	4783.15
933.051	4812.98
933.36	4761
933.669	4768.46
933.977	4728.01
934.286	4756.03
934.594	4725.3
934.902	4646.88
935.21	4649.37
935.519	4649.14
935.827	4634.91
936.135	4620.67
936.443	4601.69
936.751	4528.69
937.059	4546.77
937.367	4488.92
937.674	4538.41
937.982	4487.79
938.29	4509.26
938.597	4468.81
938.905	4452.99
939.213	4393.33
939.52	4385.65
939.827	4401.47
940.135	4376.38
940.442	4333.9
940.749	4293.9
941.056	4327.8
941.363	4254.8
941.67	4234.01
941.977	4292.09
942.284	4239.89
942.591	4218.19
942.898	4218.65
943.205	4241.92
943.511	4144.3
943.818	4151.3
944.125	4120.57
944.431	4083.51
944.738	4129.16
945.044	4077.86
945.35	4031.31
945.657	4017.3
945.963	4043.74
946.269	4023.62
946.575	3986.11
946.881	3943.85
947.187	3974.58
947.493	3962.16
947.799	3918.54
948.105	3910.18
948.41	3896.85
948.716	3902.5
949.022	3903.85
949.327	3869.05
949.633	3820.92
949.938	3831.76
950.244	3816.4
950.549	3777.3
950.854	3723.74
951.16	3752.22
951.465	3704.08
951.77	3703.86
952.075	3710.64
952.38	3666.34
952.685	3677.64
952.99	3660.69
953.294	3599.68
953.599	3624.99
953.904	3590.87
954.209	3559.45
954.513	3573.47
954.818	3565.56
955.122	3551.55
955.426	3523.52
955.731	3481.26
956.035	3495.05
956.339	3484.65
956.643	3425.45
956.948	3433.58
957.252	3483.75
957.556	3427.03
957.86	3422.51
958.163	3425.22
958.467	3422.51
958.771	3386.8
959.075	3330.53
959.378	3299.12
959.682	3307.03
959.985	3293.02
960.289	3299.8
960.592	3274.94
960.896	3267.94
961.199	3231.78
961.502	3241.72
961.805	3232.46
962.108	3206.7
962.411	3217.99
962.714	3168.96
963.017	3167.6
963.32	3156.53
963.623	3125.12
963.926	3139.58
964.228	3130.31
964.531	3145.23
964.833	3090.09
965.136	3063.65
965.438	3081.73
965.741	3065.68
966.043	3037.89
966.345	3022.75
966.648	3002.63
966.95	3015.97
967.252	2976.87
967.554	2983.88
967.856	2974.84
968.158	2926.02
968.46	2924.67
968.761	2902.97
969.063	2918.34
969.365	2873.14
969.666	2877.66
969.968	2883.77
970.269	2848.96
970.571	2844.44
970.872	2848.06
971.174	2810.77
971.475	2784.11
971.776	2783.2
972.077	2791.79
972.378	2814.16
972.679	2795.18
972.98	2771.45
973.281	2759.25
973.582	2747.95
973.883	2720.83
974.183	2714.5
974.484	2695.75
974.785	2674.28
975.085	2671.34
975.386	2668.63
975.686	2631.57
975.986	2664.56
976.287	2632.02
976.587	2614.62
976.887	2597.9
977.187	2578.01
977.487	2588.63
977.787	2564
978.087	2585.24
978.387	2511.12
978.687	2557.9
978.987	2512.48
979.286	2501.63
979.586	2500.95
979.885	2484.91
980.185	2507.05
980.484	2461.18
980.784	2467.96
981.083	2428.41
981.382	2406.94
981.682	2437
981.981	2373.04
982.28	2404.91
982.579	2408.3
982.878	2446.26
983.177	2356.1
983.475	2353.38
983.774	2343.89
984.073	2345.25
984.372	2298.47
984.67	2338.24
984.969	2312.26
985.267	2274.29
985.566	2274.52
985.864	2305.7
986.162	2279.94
986.461	2292.14
986.759	2256.44
987.057	2202.2
987.355	2195.65
987.653	2213.05
987.951	2222.54
988.249	2195.65
988.547	2224.12
988.844	2207.4
989.142	2207.85
989.44	2142.99
989.737	2177.8
990.035	2151.81
990.332	2121.53
990.63	2125.37
990.927	2131.47
991.224	2137.8
991.521	2116.78
991.819	2076.78
992.116	2076.56
992.413	2108.42
992.71	2045.14
993.006	2031.81
993.303	2054.86
993.6	2020.06
993.897	2019.38
994.193	2019.61
994.49	2013.73
994.787	2019.61
995.083	2009.89
995.379	1994.07
995.676	2002.43
995.972	1985.94
996.268	1945.71
996.565	1963.11
996.861	1942.1
997.157	1933.28
997.453	1938.71
997.749	1914.3
998.044	1881.31
998.34	1875.88
998.636	1892.83
998.932	1877.46
999.227	1877.69
999.523	1853.74
999.818	1851.25
1000.114	1828.2
1000.409	1815.09
1000.704	1787.3
1001	1808.54
1001.295	1794.3
1001.59	1771.25
1001.885	1761.76
1002.18	1791.82
1002.475	1764.7
1002.77	1774.64
1003.065	1732.61
1003.359	1759.73
1003.654	1732.84
1003.949	1728.54
1004.243	1689.9
1004.538	1712.72
1004.832	1667.98
1005.127	1669.11
1005.421	1694.42
1005.715	1647.64
1006.009	1647.87
1006.304	1650.8
1006.598	1626.62
1006.892	1638.37
1007.186	1610.35
1007.48	1642.89
1007.773	1613.74
1008.067	1578.26
1008.361	1556.57
1008.655	1585.04
1008.948	1569.22
1009.242	1556.12
1009.535	1547.3
1009.829	1554.99
1010.122	1523.58
1010.415	1518.38
1010.708	1502.79
1011.001	1508.66
1011.295	1499.4
1011.588	1486.29
1011.881	1477.93
1012.173	1469.57
1012.466	1492.16
1012.759	1451.26
1013.052	1460.75
1013.344	1461.43
1013.637	1454.43
1013.93	1425.27
1014.222	1420.08
1014.514	1427.08
1014.807	1408.1
1015.099	1393.41
1015.391	1405.84
1015.683	1378.72
1015.976	1382.56
1016.268	1351.38
1016.56	1353.41
1016.851	1344.82
1017.143	1318.84
1017.435	1310.93
1017.727	1319.51
1018.018	1324.26
1018.31	1305.05
1018.602	1302.34
1018.893	1286.52
1019.185	1272.96
1019.476	1260.53
1019.767	1270.25
1020.058	1257.59
1020.35	1240.65
1020.641	1244.26
1020.932	1228.89
1021.223	1226.41
1021.514	1185.28
1021.804	1221.89
1022.095	1205.17
1022.386	1209.69
1022.677	1193.64
1022.967	1204.71
1023.258	1178.27
1023.548	1170.82
1023.839	1157.26
1024.129	1159.97
1024.419	1141.44
1024.709	1126.52
1025	1119.29
1025.29	1132.63
1025.58	1146.86
1025.87	1119.97
1026.16	1099.41
1026.449	1122.91
1026.739	1081.33
1027.029	1087.88
1027.319	1054.44
1027.608	1060.31
1027.898	1073.42
1028.187	1068.9
1028.477	1083.59
1028.766	1045.17
1029.055	1037.71
1029.344	1024.83
1029.634	1008.79
1029.923	1029.58
1030.212	1016.24
1030.501	1009.24
1030.79	985.51
1031.078	976.92
1031.367	982.8
1031.656	1001.1
1031.945	982.35
1032.233	1002.46
1032.522	968.11
1032.81	940.77
1033.099	952.74
1033.387	941.44
1033.675	937.38
1033.963	933.31
1034.251	949.35
1034.54	927.66
1034.828	919.75
1035.116	939.64
1035.403	922.24
1035.691	893.76
1035.979	871.39
1036.267	906.87
1036.554	870.26
1036.842	882.46
1037.129	880.88
1037.417	859.86
1037.704	851.05
1037.992	855.12
1038.279	868.45
1038.566	856.47
1038.853	856.47
1039.14	856.47
