Data from hue_80_FLMS001491_91.txt Node
Date: Mon Feb 06 15:24:04 GMT 2017
User: dcchb
Spectrometer: FLMS00149
Trigger mode: 0
Integration Time (sec): 2.000000E-2
Scans to average: 10
Electric dark correction enabled: true
Nonlinearity correction enabled: false
Boxcar width: 0
XAxis mode: Wavelengths
Number of Pixels in Spectrum: 2048
>>>>>Begin Spectral Data<<<<<
341.393	-14.79
341.776	-14.79
342.16	-14.79
342.543	-51.62
342.927	-39.87
343.31	-62.92
343.693	-53.66
344.077	-66.76
344.46	-63.6
344.843	-64.05
345.226	-66.31
345.61	-9.36
345.993	-33.09
346.376	15.95
346.759	16.17
347.142	2.84
347.525	44.19
347.908	60.24
348.291	86
348.674	98.2
349.057	96.17
349.44	120.12
349.823	138.2
350.206	179.78
350.588	186.34
350.971	182.04
351.354	208.48
351.737	246.67
352.119	240.35
352.502	242.15
352.884	257.97
353.267	273.11
353.65	292.1
354.032	318.31
354.414	316.28
354.797	319.67
355.179	314.92
355.562	315.37
355.944	321.7
356.326	329.38
356.709	304.75
357.091	328.03
357.473	337.52
357.855	340.23
358.238	333
358.62	346.33
359.002	338.88
359.384	338.2
359.766	355.15
360.148	324.41
360.53	323.28
360.912	328.03
361.294	340.01
361.676	352.43
362.057	322.15
362.439	316.73
362.821	339.33
363.203	335.94
363.584	324.41
363.966	342.27
364.348	325.32
364.729	329.16
365.111	323.06
365.493	314.24
365.874	312.89
366.256	315.83
366.637	337.75
367.019	319.44
367.4	307.46
367.781	309.5
368.163	309.5
368.544	325.09
368.925	328.71
369.306	311.08
369.688	322.15
370.069	318.54
370.45	315.6
370.831	306.79
371.212	315.6
371.593	308.59
371.974	323.73
372.355	314.92
372.736	316.28
373.117	322.6
373.498	320.8
373.879	321.7
374.26	313.34
374.641	330.51
375.021	330.06
375.402	328.03
375.783	334.36
376.163	338.42
376.544	335.94
376.925	315.15
377.305	332.55
377.686	321.25
378.066	328.93
378.447	317.63
378.827	322.83
379.208	329.16
379.588	323.06
379.968	330.29
380.349	337.52
380.729	336.62
381.109	319.67
381.489	322.6
381.87	340.46
382.25	326.9
382.63	340.23
383.01	340.23
383.39	343.85
383.77	345.65
384.15	370.51
384.53	331.19
384.91	359.21
385.29	355.15
385.67	332.77
386.049	353.34
386.429	360.12
386.809	336.39
387.189	350.17
387.568	346.56
387.948	364.86
388.328	358.76
388.707	374.13
389.087	349.95
389.466	377.29
389.846	354.47
390.225	370.96
390.605	368.03
390.984	358.54
391.363	374.58
391.743	390.85
392.122	383.39
392.501	366.67
392.881	364.86
393.26	378.42
393.639	354.02
394.018	387.24
394.397	381.59
394.776	369.38
395.155	387.91
395.534	375.71
395.913	377.97
396.292	379.33
396.671	366.22
397.05	391.08
397.429	392.89
397.808	391.08
398.186	398.08
398.565	396.27
398.944	400.79
399.323	392.43
399.701	382.49
400.08	384.07
400.458	400.12
400.837	418.42
401.215	375.48
401.594	409.16
401.972	429.95
402.351	407.57
402.729	415.03
403.107	419.55
403.486	419.33
403.864	398.31
404.242	433.11
404.62	432.21
404.999	429.04
405.377	416.39
405.755	433.11
406.133	425.88
406.511	431.53
406.889	438.31
407.267	435.14
407.645	449.61
408.023	436.95
408.401	449.83
408.779	448.93
409.156	445.54
409.534	469.27
409.912	468.82
410.29	473.56
410.667	476.95
411.045	478.31
411.422	489.15
411.8	471.98
412.178	476.95
412.555	490.96
412.933	480.34
413.31	490.51
413.687	485.99
414.065	492.77
414.442	493.22
414.819	506.1
415.197	512.43
415.574	516.5
415.951	505.42
416.328	495.93
416.705	505.65
417.082	505.65
417.46	508.14
417.837	519.89
418.214	529.38
418.591	505.88
418.967	527.12
419.344	517.63
419.721	519.66
420.098	532.09
420.475	546.55
420.852	568.25
421.228	539.1
421.605	580
421.982	565.08
422.358	560.79
422.735	548.36
423.111	550.85
423.488	590.17
423.864	566.67
424.241	567.12
424.617	575.25
424.994	594.01
425.37	586.55
425.746	623.39
426.123	599.66
426.499	608.25
426.875	584.97
427.251	599.43
427.627	616.61
428.003	630.84
428.379	642.82
428.756	629.26
429.132	632.65
429.507	665.65
429.883	631.07
430.259	646.44
430.635	660
431.011	659.54
431.387	665.19
431.763	687.11
432.138	702.26
432.514	686.21
432.89	678.08
433.265	700.45
433.641	717.85
434.016	697.74
434.392	710.84
434.767	722.82
435.143	715.59
435.518	760.11
435.894	752.88
436.269	735.7
436.644	751.75
437.02	758.53
437.395	762.59
437.77	753.33
438.145	796.49
438.52	771.86
438.895	789.48
439.271	801.01
439.646	801.69
440.021	799.2
440.395	812.54
440.77	802.14
441.145	805.08
441.52	824.06
441.895	834.46
442.27	837.85
442.645	834.46
443.019	819.99
443.394	855.92
443.769	815.47
444.143	848.69
444.518	869.03
444.892	862.25
445.267	873.55
445.641	869.93
446.016	880.33
446.39	875.58
446.764	897.05
447.139	885.08
447.513	904.06
447.887	906.77
448.262	904.28
448.636	926.88
449.01	921.23
449.384	941.12
449.758	944.51
450.132	945.86
450.506	966.66
450.88	941.12
451.254	973.21
451.628	961.91
452.002	979.54
452.376	993.32
452.75	997.16
453.123	1001.46
453.497	1026.54
453.871	1027.44
454.244	1031.06
454.618	1052.98
454.992	1094.79
455.365	1034.45
455.739	1085.3
456.112	1087.33
456.486	1105.41
456.859	1142.92
457.232	1139.08
457.606	1118.06
457.979	1142.24
458.352	1186.31
458.725	1162.36
459.099	1184.05
459.472	1210.26
459.845	1213.43
460.218	1233.99
460.591	1243.71
460.964	1245.29
461.337	1277.61
461.71	1287.1
462.083	1312.18
462.456	1331.84
462.829	1327.32
463.201	1323.93
463.574	1368
463.947	1395.57
464.32	1386.98
464.692	1429.69
465.065	1442.12
465.438	1457.49
465.81	1469.47
466.183	1490.48
466.555	1545.17
466.928	1490.26
467.3	1554.66
467.672	1582.91
468.045	1654.77
468.417	1622.91
468.789	1618.16
469.161	1664.94
469.534	1701.1
469.906	1765.96
470.278	1752.4
470.65	1768.67
471.022	1830.14
471.394	1847.76
471.766	1895.22
472.138	1899.74
472.51	1963.69
472.882	2011.15
473.253	2027.64
473.625	2056.12
473.997	2108.55
474.369	2156.91
474.74	2171.37
475.112	2244.59
475.484	2317.81
475.855	2362.78
476.227	2382.89
476.598	2458.82
476.97	2498.59
477.341	2613.62
477.713	2629.66
478.084	2654.97
478.455	2777.68
478.827	2838.7
479.198	2950.56
479.569	2967.73
479.94	3106.03
480.311	3143.1
480.682	3281.17
481.053	3301.51
481.424	3421.96
481.795	3489.98
482.166	3585.34
482.537	3666.92
482.908	3770.88
483.279	3864.43
483.65	3970.64
484.021	4125.89
484.391	4211.99
484.762	4344.87
485.133	4389.84
485.503	4459.9
485.874	4626.9
486.244	4736.27
486.615	4877.74
486.985	4971.07
487.356	5173.32
487.726	5205.64
488.097	5428.46
488.467	5469.36
488.837	5644.05
489.207	5837.94
489.578	5925.85
489.948	6032.51
490.318	6164.94
490.688	6305.05
491.058	6430.47
491.428	6581.87
491.798	6769.21
492.168	6891.92
492.538	6997.01
492.908	7174.18
493.278	7337.34
493.648	7392.7
494.017	7616.2
494.387	7709.53
494.757	7879.47
495.126	8034.49
495.496	8125.56
495.866	8253.24
496.235	8420.7
496.605	8610.07
496.974	8743.4
497.344	8838.31
497.713	8927.8
498.082	9081.24
498.452	9258.41
498.821	9354.01
499.19	9427.45
499.559	9587.45
499.928	9707.89
500.298	9861.11
500.667	9949.47
501.036	10022.01
501.405	10205.73
501.774	10290.7
502.143	10415.67
502.512	10498.61
502.88	10687.3
503.249	10718.26
503.618	10849.33
503.987	10986.96
504.356	11044.58
504.724	11179.95
505.093	11276.44
505.462	11338.59
505.83	11456.55
506.199	11631.23
506.567	11751.46
506.936	11834.84
507.304	11966.82
507.672	12038.68
508.041	12047.27
508.409	12198.45
508.777	12330.65
509.145	12430.53
509.514	12494.49
509.882	12630.76
510.25	12655.61
510.618	12856.29
510.986	12829.85
511.354	13016.96
511.722	13107.13
512.09	13197.52
512.458	13346.67
512.826	13393.45
513.193	13429.6
513.561	13496.04
513.929	13653.1
514.297	13720.44
514.664	13795.7
515.032	13862.81
515.4	13922.25
515.767	14030.27
516.135	14017.39
516.502	14060.1
516.869	14334.67
517.237	14253.31
517.604	14327.43
517.972	14470.71
518.339	14629.8
518.706	14569.01
519.073	14654.88
519.44	14735.33
519.808	14843.13
520.175	14830.7
520.542	15035.89
520.909	15043.57
521.276	15127.19
521.643	15235.21
522.009	15303
522.376	15347.29
522.743	15370.57
523.11	15580.28
523.477	15653.73
523.843	15746.15
524.21	15888.07
524.577	15954.06
524.943	15905.92
525.31	16026.82
525.676	16166.71
526.043	16157.89
526.409	16210.77
526.776	16441.95
527.142	16367.83
527.508	16356.08
527.874	16466.36
528.241	16505.91
528.607	16561.05
528.973	16664.77
529.339	16689.41
529.705	16829.06
530.071	16889.17
530.437	16875.16
530.803	16949.06
531.169	17055.72
531.535	17027.02
531.901	17103.86
532.267	17039.23
532.632	17178.66
532.998	17227.47
533.364	17113.35
533.73	17171.88
534.095	17350.41
534.461	17307.69
534.826	17318.54
535.192	17400.12
535.557	17477.41
535.923	17398.99
536.288	17438.99
536.653	17487.35
537.019	17380.91
537.384	17368.26
537.749	17404.42
538.114	17432.66
538.479	17435.15
538.845	17452.1
539.21	17501.36
539.575	17396.28
539.94	17413.68
540.305	17541.59
540.67	17435.37
541.034	17467.01
541.399	17535.49
541.764	17507.01
542.129	17547.69
542.494	17503.85
542.858	17513.56
543.223	17455.94
543.587	17678.53
543.952	17537.75
544.316	17465.43
544.681	17420.69
545.045	17471.76
545.41	17605.77
545.774	17575.03
546.138	17524.41
546.503	17511.08
546.867	17401.03
547.231	17663.84
547.595	17404.42
547.959	17554.47
548.324	17535.03
548.688	17502.72
549.052	17530.06
549.416	17512.21
549.779	17542.49
550.143	17517.63
550.507	17571.19
550.871	17528.93
551.235	17504.3
551.599	17603.05
551.962	17503.62
552.326	17580.68
552.689	17603.51
553.053	17516.95
553.417	17467.92
553.78	17723.28
554.143	17605.31
554.507	17673.56
554.87	17606.44
555.234	17744.07
555.597	17676.05
555.96	17569.61
556.323	17702.71
556.686	17720.11
557.05	17770.06
557.413	17680.34
557.776	17721.24
558.139	17847.57
558.502	17831.3
558.865	17734.35
559.228	17824.52
559.59	17821.35
559.953	17781.35
560.316	18013.66
560.679	17953.1
561.041	18022.93
561.404	18039.2
561.767	18158.75
562.129	18038.3
562.492	18179.54
562.854	18080.33
563.217	18075.13
563.579	18189.25
563.941	18212.76
564.304	18324.39
564.666	18378.17
565.028	18282.36
565.39	18402.58
565.753	18427.44
566.115	18488.45
566.477	18564.61
566.839	18534.78
567.201	18645.06
567.563	18579.53
567.925	18705.17
568.287	18743.36
568.648	18663.82
569.01	18837.82
569.372	18922.34
569.734	18839.41
570.095	18854.32
570.457	18941.78
570.819	19006.41
571.18	19005.96
571.542	18966.18
571.903	19041.43
572.265	19089.57
572.626	19105.61
572.987	19033.75
573.349	19102.45
573.71	19200.53
574.071	19146.74
574.432	19264.03
574.794	19386.06
575.155	19265.38
575.516	19244.37
575.877	19292.28
576.238	19474.19
576.599	19341.31
576.96	19439.84
577.32	19527.75
577.681	19448.43
578.042	19524.36
578.403	19475.77
578.763	19498.15
579.124	19451.59
579.485	19506.96
579.845	19601.19
580.206	19464.47
580.566	19480.52
580.927	19529.11
581.287	19564.58
581.648	19428.77
582.008	19586.5
582.368	19558.26
582.728	19493.17
583.089	19491.82
583.449	19513.51
583.809	19506.28
584.169	19602.32
584.529	19506.73
584.889	19604.36
585.249	19442.1
585.609	19390.35
585.969	19571.59
586.329	19479.84
586.688	19444.14
587.048	19421.54
587.408	19485.72
587.768	19452.72
588.127	19371.6
588.487	19457.47
588.846	19530.24
589.206	19360.75
589.565	19339.51
589.925	19450.92
590.284	19436.45
590.643	19444.81
591.003	19412.27
591.362	19510.57
591.721	19433.29
592.08	19465.6
592.44	19427.41
592.799	19416.57
593.158	19340.41
593.517	19413.18
593.876	19452.5
594.235	19379.73
594.593	19391.26
594.952	19344.7
595.311	19317.13
595.67	19510.57
596.029	19523.46
596.387	19451.14
596.746	19416.34
597.104	19323.01
597.463	19362.78
597.822	19412.27
598.18	19332.27
598.538	19262.45
598.897	19439.39
599.255	19328.88
599.613	19539.73
599.972	19440.07
600.33	19421.99
600.688	19389.45
601.046	19526.85
601.404	19607.52
601.762	19504.02
602.12	19514.19
602.478	19556.9
602.836	19583.57
603.194	19468.32
603.552	19448.2
603.91	19407.75
604.268	19471.93
604.625	19414.53
604.983	19499.5
605.341	19402.78
605.698	19493.85
606.056	19496.79
606.413	19496.11
606.771	19690.46
607.128	19596.22
607.485	19569.56
607.843	19489.56
608.2	19738.37
608.557	19619.72
608.914	19573.4
609.272	19693.85
609.629	19700.17
609.986	19741.53
610.343	19727.97
610.7	19785.37
611.057	19826.27
611.414	19757.57
611.771	19832.83
612.127	19832.37
612.484	19886.38
612.841	19789.89
613.198	19793.96
613.554	19749.44
613.911	19920.06
614.267	19983.1
614.624	19901.52
614.98	19886.16
615.337	20026.95
615.693	19959.6
616.05	19860.17
616.406	20106.72
616.762	20002.54
617.118	19990.34
617.475	20021.3
617.831	20059.71
618.187	20128.19
618.543	20207.73
618.899	20271.46
619.255	20199.14
619.611	20137.9
619.967	20239.82
620.323	20256.32
620.678	20241.85
621.034	20161.4
621.39	20208.86
621.746	20214.28
622.101	20383.09
622.457	20154.4
622.812	20245.47
623.168	20362.98
623.523	20287.73
623.879	20205.92
624.234	20180.61
624.589	20211.12
624.945	20251.35
625.3	20246.83
625.655	20275.53
626.01	20264
626.365	20232.14
626.72	20252.02
627.075	20234.17
627.43	20266.94
627.785	20214.74
628.14	20157.11
628.495	20248.18
628.85	20246.15
629.205	20117.56
629.559	20301.06
629.914	20195.08
630.269	20144
630.623	20149.2
630.978	20070.33
631.332	20208.86
631.687	20154.4
632.041	20114.63
632.396	20178.35
632.75	20093.84
633.104	20106.04
633.459	20104.23
633.813	20037.57
634.167	19994.4
634.521	20029.88
634.875	20068.75
635.229	20023.56
635.583	19753.51
635.937	19914.41
636.291	19758.03
636.645	19800.96
636.999	19778.36
637.352	19850.45
637.706	19748.76
638.06	19744.47
638.413	19779.95
638.767	19791.25
639.121	19696.56
639.474	19627.41
639.828	19659.72
640.181	19776.56
640.534	19660.18
640.888	19670.12
641.241	19549.44
641.594	19587.63
641.947	19652.94
642.301	19471.03
642.654	19615.43
643.007	19655.88
643.36	19536.11
643.713	19497.24
644.066	19628.76
644.419	19445.94
644.771	19261.99
645.124	19228.77
645.477	19188.1
645.83	19024.71
646.182	18970.48
646.535	18864.72
646.888	18921.21
647.24	18846.41
647.593	18993.53
647.945	18880.99
648.298	18735.23
648.65	18682.57
649.002	18662.91
649.355	18774.55
649.707	18794.21
650.059	18894.77
650.411	19034.88
650.763	19056.58
651.115	19283.69
651.467	19232.39
651.819	19164.82
652.171	19197.14
652.523	19166.85
652.875	19144.48
653.227	19068.78
653.578	19259.28
653.93	19276.68
654.282	19256.34
654.633	19189.23
654.985	19127.53
655.337	19253.41
655.688	19203.69
656.039	19232.16
656.391	19111.94
656.742	19136.57
657.094	19229.9
657.445	19222.67
657.796	19130.47
658.147	19232.62
658.498	19105.84
658.849	19168.66
659.2	19142.67
659.551	19147.42
659.902	19207.08
660.253	19194.2
660.604	19277.81
660.955	19190.58
661.306	19192.62
661.656	19202.11
662.007	19191.94
662.358	19183.8
662.708	19173.41
663.059	19358.94
663.409	19039.63
663.76	19214.31
664.11	19217.25
664.461	19231.03
664.811	19168.44
665.161	19190.58
665.511	19137.03
665.862	19265.61
666.212	19319.62
666.562	19350.35
666.912	19216.8
667.262	19114.2
667.612	19121.43
667.962	19284.59
668.312	19260.41
668.662	19287.53
669.011	19218.83
669.361	19172.28
669.711	19160.75
670.06	19195.33
670.41	19104.48
670.76	19062.9
671.109	19298.6
671.459	19218.38
671.808	19006.41
672.157	19221.99
672.507	19021.32
672.856	19042.79
673.205	19102.9
673.554	19145.39
673.904	19050.25
674.253	19060.42
674.602	19149
674.951	18798.05
675.3	18724.83
675.649	18990.81
675.998	18961.21
676.346	18906.52
676.695	18979.29
677.044	18883.7
677.393	18869.01
677.741	18837.6
678.09	18888.67
678.438	18822.91
678.787	18911.04
679.135	18749.01
679.484	18738.17
679.832	18758.28
680.181	18589.92
680.529	18726.64
680.877	18659.75
681.225	18573.42
681.573	18745.17
681.922	18535.23
682.27	18474.22
682.618	18483.71
682.966	18493.88
683.314	18557.38
683.661	18500.43
684.009	18346.31
684.357	18404.84
684.705	18295.01
685.053	18226.09
685.4	18214.56
685.748	18160.1
686.095	18095.02
686.443	18133.21
686.79	18054.79
687.138	18104.74
687.485	18128.46
687.832	17956.72
688.18	18065.87
688.527	17977.51
688.874	17899.09
689.221	17835.14
689.568	17744.07
689.915	17669.94
690.262	17714.69
690.609	17638.31
690.956	17691.87
691.303	17543.17
691.65	17429.5
691.997	17422.72
692.344	17304.76
692.69	17364.64
693.037	17289.16
693.383	17203.52
693.73	17211.88
694.077	17112.45
694.423	17055.95
694.769	17009.62
695.116	16936.4
695.462	16968.27
695.808	16817.76
696.155	16898.67
696.501	16760.14
696.847	16776.86
697.193	16543.19
697.539	16631.1
697.885	16513.37
698.231	16457.1
698.577	16444.67
698.923	16432.01
699.269	16246.03
699.614	16258.91
699.96	16178.91
700.306	16150.89
700.651	16146.82
700.997	16057.56
701.342	15982.98
701.688	15928.3
702.033	15852.14
702.379	15939.82
702.724	15805.59
703.069	15808.98
703.415	15575.99
703.76	15632.03
704.105	15676.78
704.45	15545.26
704.795	15452.6
705.14	15339.61
705.485	15452.83
705.83	15332.83
706.175	15275.43
706.52	15327.18
706.865	15272.49
707.209	15233.17
707.554	15144.14
707.899	15216.22
708.243	15103.01
708.588	15038.15
708.932	14910.7
709.277	15008.32
709.621	14918.83
709.966	14800.87
710.31	14836.12
710.654	14717.25
710.998	14721.1
711.342	14775.78
711.687	14661.66
712.031	14681.77
712.375	14606.75
712.719	14504.15
713.063	14478.62
713.407	14553.87
713.75	14464.38
714.094	14474.77
714.438	14368.34
714.782	14396.81
715.125	14290.37
715.469	14310.03
715.812	14272.75
716.156	14279.75
716.499	14215.8
716.843	14265.74
717.186	14141.68
717.53	14177.38
717.873	14159.3
718.216	14179.64
718.559	14074.56
718.902	13996.82
719.246	14058.51
719.589	14006.09
719.932	13953.66
720.275	13994.11
720.617	13889.71
720.96	13871.85
721.303	13935.13
721.646	13955.24
721.989	13871.63
722.331	13906.43
722.674	13813.55
723.016	13793.21
723.359	13839.09
723.701	13851.74
724.044	13742.82
724.386	13672.31
724.729	13794.79
725.071	13747.11
725.413	13680.9
725.755	13673.44
726.097	13583.27
726.439	13613.1
726.782	13603.39
727.124	13679.99
727.465	13622.14
727.807	13646.55
728.149	13581.01
728.491	13527.91
728.833	13587.34
729.175	13491.75
729.516	13561.13
729.858	13527.68
730.199	13596.38
730.541	13472.99
730.882	13433.45
731.224	13531.75
731.565	13404.29
731.906	13460.11
732.248	13495.37
732.589	13470.28
732.93	13414.01
733.271	13411.53
733.612	13398.42
733.953	13503.95
734.294	13439.77
734.635	13387.35
734.976	13402.71
735.317	13384.86
735.658	13383.28
735.999	13370.4
736.339	13256.28
736.68	13368.14
737.021	13429.15
737.361	13386.89
737.702	13424.18
738.042	13419.44
738.383	13402.03
738.723	13430.73
739.063	13336.73
739.404	13376.95
739.744	13492.43
740.084	13430.28
740.424	13409.94
740.764	13526.33
741.104	13545.53
741.444	13437.06
741.784	13358.19
742.124	13472.54
742.464	13425.31
742.804	13504.63
743.143	13481.81
743.483	13525.42
743.823	13469.38
744.162	13578.75
744.502	13576.72
744.841	13599.77
745.181	13679.77
745.52	13610.39
745.86	13773.55
746.199	13644.29
746.538	13730.39
746.877	13913.66
747.216	13815.58
747.556	13894
747.895	13974.45
748.234	13998.4
748.573	13991.62
748.911	13993.88
749.25	14122.69
749.589	14057.38
749.928	14247.89
750.267	14402.46
750.605	14313.65
750.944	14322.24
751.283	14374.89
751.621	14468.22
751.96	14562.68
752.298	14589.35
752.636	14714.54
752.975	14787.31
753.313	14779.17
753.651	15073.4
753.989	15105.04
754.327	15133.29
754.666	15146.4
755.004	15314.07
755.342	15535.76
755.679	15529.89
756.017	15581.64
756.355	15734.85
756.693	15865.47
757.031	15967.39
757.368	16036.77
757.706	16003.77
758.044	16182.75
758.381	16361.05
758.719	16449.86
759.056	16639.69
759.394	16687.15
759.731	16741.16
760.068	16801.49
760.405	16994.03
760.743	16988.16
761.08	17175.72
761.417	17246.23
761.754	17307.02
762.091	17480.57
762.428	17532.55
762.765	17509.95
763.102	17684.41
763.438	17859.54
763.775	17965.98
764.112	17923.05
764.449	18126.88
764.785	18156.94
765.122	18212.08
765.458	18219.99
765.795	18356.03
766.131	18410.04
766.467	18436.25
766.804	18605.51
767.14	18583.82
767.476	18654.1
767.812	18712.86
768.148	18948.1
768.485	18756.24
768.821	18721.89
769.157	18917.82
769.492	18916.47
769.828	19008.67
770.164	19017.03
770.5	18943.81
770.836	19083.69
771.171	19028.33
771.507	19035.11
771.842	19014.09
772.178	19170.92
772.513	19162.79
772.849	19071.26
773.184	19104.03
773.519	19177.93
773.855	19054.77
774.19	19133.18
774.525	19124.82
774.86	19133.64
775.195	19209.34
775.53	19116.91
775.865	19129.12
776.2	19026.97
776.535	18920.31
776.87	19022.68
777.205	18997.82
777.539	18952.62
777.874	19143.8
778.209	18911.72
778.543	18901.78
778.878	18906.75
779.212	18959.63
779.547	18814.32
779.881	18848.67
780.215	18803.02
780.55	18772.97
780.884	18699.07
781.218	18660.2
781.552	18756.02
781.886	18767.77
782.22	18608.23
782.554	18532.75
782.888	18501.56
783.222	18445.74
783.556	18406.2
783.889	18397.38
784.223	18256.6
784.557	18194.22
784.89	18374.56
785.224	18230.16
785.557	18176.15
785.891	18187.45
786.224	18137.28
786.558	18079.65
786.891	18049.6
787.224	17932.08
787.557	17919.88
787.891	17959.2
788.224	17837.4
788.557	17859.09
788.89	17773.9
789.223	17723.5
789.556	17636.27
789.888	17575.26
790.221	17597.4
790.554	17529.84
790.887	17465.88
791.219	17416.39
791.552	17418.2
791.884	17337.98
792.217	17311.54
792.549	17248.26
792.882	17089.4
793.214	17083.97
793.546	17104.08
793.879	17017.31
794.211	16953.35
794.543	16993.13
794.875	17004.2
795.207	16953.81
795.539	16836.07
795.871	16836.07
796.203	16725.11
796.535	16639.69
796.867	16582.74
797.198	16568.96
797.53	16540.71
797.862	16418
798.193	16492.35
798.525	16371
798.856	16310.66
799.188	16206.71
799.519	16200.38
799.85	16050.33
800.182	16105.01
800.513	16104.34
800.844	15929.2
801.175	16075.41
801.506	15956.32
801.837	15882.42
802.168	15910.22
802.499	15800.84
802.83	15811.91
803.161	15663.44
803.491	15719.49
803.822	15618.47
804.153	15667.29
804.483	15529.89
804.814	15541.41
805.145	15532.15
805.475	15364.92
805.805	15373.96
806.136	15435.88
806.466	15381.87
806.796	15284.02
807.126	15220.07
807.457	15099.39
807.787	15185.04
808.117	15107.07
808.447	15052.61
808.777	15133.51
809.107	15028.66
809.436	15058.04
809.766	14962.9
810.096	14942.56
810.426	14931.71
810.755	14952.05
811.085	14810.59
811.414	14810.81
811.744	14708.21
812.073	14698.72
812.403	14708.44
812.732	14626.64
813.061	14629.12
813.39	14515.45
813.719	14503.02
814.049	14588.22
814.378	14566.3
814.707	14385.74
815.036	14428.67
815.365	14402.46
815.693	14234.56
816.022	14204.5
816.351	14262.58
816.68	14099.19
817.008	14143.71
817.337	14031.62
817.665	14007.22
817.994	14029.59
818.322	14019.65
818.651	14022.13
818.979	13968.8
819.307	14048.8
819.636	14047.89
819.964	13856.26
820.292	13926.09
820.62	13868.24
820.948	13836.37
821.276	13882.93
821.604	13833.66
821.932	13856.26
822.259	13857.39
822.587	13847.67
822.915	13767.67
823.243	13868.69
823.57	13761.8
823.898	13779.43
824.225	13723.38
824.553	13750.73
824.88	13801.12
825.207	13801.12
825.535	13791.18
825.862	13747.56
826.189	13836.37
826.516	13798.86
826.843	13856.03
827.17	13728.13
827.497	13885.19
827.824	13815.58
828.151	13913.89
828.478	13768.13
828.805	13838.18
829.131	13769.71
829.458	13744.62
829.785	13744.85
830.111	13747.11
830.438	13803.15
830.764	13859.65
831.09	13739.43
831.417	13701.24
831.743	13785.3
832.069	13726.32
832.395	13766.54
832.722	13814.68
833.048	13698.98
833.374	13694.68
833.7	13687
834.026	13601.13
834.351	13729.26
834.677	13696.94
835.003	13650.62
835.329	13645.42
835.654	13541.47
835.98	13558.64
836.306	13532.43
836.631	13513.44
836.956	13561.58
837.282	13579.43
837.607	13531.75
837.932	13431.64
838.258	13498.53
838.583	13436.84
838.908	13374.46
839.233	13464.18
839.558	13316.61
839.883	13329.95
840.208	13202.72
840.533	13310.06
840.858	13243.39
841.182	13333.79
841.507	13333.34
841.832	13118.88
842.156	13172.89
842.481	13203.17
842.805	13120.23
843.13	13066.68
843.454	13103.96
843.778	13071.42
844.103	12967.7
844.427	12891.99
844.751	12935.15
845.075	12795.04
845.399	12847.25
845.723	12862.16
846.047	12790.07
846.371	12657.42
846.695	12642.51
847.019	12576.29
847.343	12519.8
847.666	12427.14
847.99	12456.52
848.313	12555.73
848.637	12353.93
848.96	12320.03
849.284	12274.15
849.607	12218.56
849.931	12176.08
850.254	12149.41
850.577	12036.65
850.9	11993.48
851.223	11914.84
851.546	11902.19
851.869	11767.28
852.192	11917.55
852.515	11778.8
852.838	11745.13
853.161	11753.94
853.483	11636.88
853.806	11588.97
854.129	11605.7
854.451	11550.78
854.774	11482.54
855.096	11468.75
855.419	11501.97
855.741	11391.47
856.063	11310.11
856.385	11216.56
856.708	11313.95
857.03	11216.78
857.352	11204.35
857.674	11200.06
857.996	11208.87
858.318	11151.92
858.64	11133.62
858.961	11107.41
859.283	11031.7
859.605	10958.03
859.926	10981.99
860.248	10949.9
860.57	10891.59
860.891	10909.44
861.212	10891.59
861.534	10821.31
861.855	10791.48
862.176	10782.67
862.498	10774.53
862.819	10824.93
863.14	10673.29
863.461	10675.78
863.782	10708.77
864.103	10666.29
864.424	10710.81
864.745	10672.39
865.065	10569.57
865.386	10530.47
865.707	10552.17
866.027	10581.77
866.348	10470.81
866.668	10504.94
866.989	10446.63
867.309	10346.07
867.63	10443.24
867.95	10405.5
868.27	10329.35
868.59	10337.71
868.91	10346.07
869.23	10356.46
869.55	10267.2
869.87	10294.09
870.19	10238.95
870.51	10303.81
870.83	10274.21
871.15	10208.9
871.469	10186.75
871.789	10286.18
872.109	10203.7
872.428	10155.79
872.748	10219.52
873.067	10132.29
873.386	10214.1
873.706	10126.64
874.025	10094.78
874.344	10054.55
874.663	10100.43
874.982	10032.41
875.301	10037.83
875.62	10021.78
875.939	9945.4
876.258	9975.46
876.577	9925.29
876.896	9972.29
877.214	9930.26
877.533	9970.94
877.852	9904.05
878.17	9926.42
878.489	9940.66
878.807	9890.26
879.125	9874.44
879.444	9814.78
879.762	9832.86
880.08	9791.06
880.398	9782.92
880.716	9772.3
881.034	9717.84
881.352	9668.57
881.67	9711.51
881.988	9706.99
882.306	9608.46
882.624	9649.59
882.941	9620.89
883.259	9527.56
883.577	9550.84
883.894	9521.01
884.212	9514.45
884.529	9481.91
884.846	9464.74
885.164	9453.21
885.481	9457.51
885.798	9389.03
886.115	9366.66
886.432	9393.1
886.75	9353.55
887.067	9412.53
887.383	9276.04
887.7	9349.94
888.017	9217.96
888.334	9222.48
888.651	9231.75
888.967	9205.31
889.284	9126.21
889.6	9152.88
889.917	9097.97
890.233	9075.14
890.55	9015.71
890.866	9068.36
891.182	9023.62
891.498	8960.12
891.815	8933
892.131	8940.23
892.447	8900.23
892.763	8823.17
893.079	8835.38
893.395	8835.38
893.71	8787.01
894.026	8759.44
894.342	8763.74
894.657	8692.78
894.973	8674.48
895.289	8715.15
895.604	8695.72
895.92	8583.4
896.235	8546.34
896.55	8560.13
896.865	8528.94
897.181	8495.27
897.496	8461.6
897.811	8442.17
898.126	8356.52
898.441	8330.3
898.756	8357.2
899.071	8256.86
899.386	8317.42
899.7	8236.75
900.015	8168.05
900.33	8133.92
900.644	8162.17
900.959	8155.39
901.273	8097.77
901.588	8019.13
901.902	8023.87
902.216	8023.64
902.531	7987.94
902.845	7984.32
903.159	7951.78
903.473	7914.04
903.787	7888.51
904.101	7843.54
904.415	7736.42
904.729	7782.52
905.042	7694.39
905.356	7700.04
905.67	7677.67
905.984	7711.34
906.297	7625.01
906.611	7586.59
906.924	7579.81
907.237	7526.71
907.551	7525.35
907.864	7438.12
908.177	7488.29
908.491	7449.65
908.804	7396.99
909.117	7369.42
909.43	7331.91
909.743	7318.58
910.056	7225.7
910.368	7282.87
910.681	7222.99
910.994	7177.57
911.307	7201.75
911.619	7145.48
911.932	7103.22
912.244	7092.14
912.557	7048.53
912.869	7013.05
913.181	6966.72
913.494	6990
913.806	6949.1
914.118	6862.55
914.43	6890.57
914.742	6908.65
915.054	6779.16
915.366	6788.42
915.678	6791.36
915.99	6745.26
916.302	6724.7
916.613	6693.51
916.925	6631.82
917.236	6604.02
917.548	6654.64
917.859	6598.6
918.171	6566.51
918.482	6515.89
918.794	6451.26
919.105	6472.05
919.416	6457.58
919.727	6447.64
920.038	6400.64
920.349	6341.43
920.66	6319.73
920.971	6316.57
921.282	6305.5
921.593	6258.72
921.903	6229.79
922.214	6198.83
922.525	6182.34
922.835	6140.08
923.146	6100.76
923.456	6128.1
923.767	6065.05
924.077	6110.25
924.387	6008.1
924.697	6006.52
925.008	6032.96
925.318	5993.19
925.628	5951.16
925.938	5901.89
926.248	5881.1
926.558	5826.41
926.867	5802.91
927.177	5802.01
927.487	5746.87
927.796	5766.3
928.106	5699.19
928.416	5723.82
928.725	5678.17
929.034	5636.59
929.344	5635.69
929.653	5625.97
929.962	5565.18
930.271	5584.61
930.581	5566.08
930.89	5488.34
931.199	5409.93
931.508	5512.07
931.817	5457.16
932.125	5436.82
932.434	5488.12
932.743	5378.97
933.051	5328.35
933.36	5347.78
933.669	5318.86
933.977	5309.37
934.286	5246.09
934.594	5204.51
934.902	5198.41
935.21	5190.95
935.519	5209.48
935.827	5182.14
936.135	5138.07
936.443	5079.54
936.751	5088.81
937.059	5073.44
937.367	5057.85
937.674	5037.28
937.982	5025.76
938.29	5025.31
938.597	5028.24
938.905	4955.25
939.213	4940.11
939.52	4917.06
939.827	4926.55
940.135	4840
940.442	4839.77
940.749	4844.75
941.056	4834.8
941.363	4768.82
941.67	4706.67
941.977	4747.12
942.284	4712.32
942.591	4704.64
942.898	4692.43
943.205	4713
943.511	4650.63
943.818	4640.91
944.125	4615.15
944.431	4565.88
944.738	4558.43
945.044	4508.03
945.35	4516.17
945.657	4485.88
945.963	4476.62
946.269	4502.61
946.575	4414.7
946.881	4405.66
947.187	4409.95
947.493	4357.53
947.799	4352.33
948.105	4345.32
948.41	4313.91
948.716	4328.15
949.022	4292.9
949.327	4327.92
949.633	4233.69
949.938	4242.05
950.244	4217.64
950.549	4210.19
950.854	4158.89
951.16	4168.38
951.465	4151.66
951.77	4145.55
952.075	4127.93
952.38	4115.05
952.685	4107.82
952.99	4072.79
953.294	4080.25
953.599	4040.7
953.904	3991.89
954.209	4005.22
954.513	3986.46
954.818	3979.68
955.122	3941.04
955.426	3908.95
955.731	3926.35
956.035	3916.86
956.339	3886.13
956.643	3862.85
956.948	3835.96
957.252	3859.01
957.556	3806.58
957.86	3800.71
958.163	3815.85
958.467	3771.55
958.771	3754.83
959.075	3760.93
959.378	3712.8
959.682	3684.55
959.985	3715.74
960.289	3664.44
960.592	3678.67
960.896	3633.48
961.199	3606.36
961.502	3647.49
961.805	3549.86
962.108	3554.61
962.411	3558.9
962.714	3501.73
963.017	3532.92
963.32	3532.01
963.623	3508.74
963.926	3511
964.228	3466.48
964.531	3435.07
964.833	3444.78
965.136	3400.49
965.438	3404.56
965.741	3382.41
966.043	3356.88
966.345	3354.39
966.648	3345.12
966.95	3338.8
967.252	3325.69
967.554	3307.16
967.856	3302.41
968.158	3234.84
968.46	3271.45
968.761	3243.66
969.063	3264.67
969.365	3228.29
969.666	3201.85
969.968	3148.74
970.269	3155.07
970.571	3172.25
970.872	3148.97
971.174	3127.73
971.475	3113.94
971.776	3111.46
972.077	3111.68
972.378	3111.01
972.679	3096.32
972.98	3059.48
973.281	3079.14
973.582	3043.21
973.883	3050.67
974.183	3027.84
974.484	3033.04
974.785	2959.6
975.085	2955.98
975.386	2975.42
975.686	2952.82
975.986	2938.13
976.287	2878.92
976.587	2896.1
976.887	2880.5
977.187	2883.44
977.487	2868.07
977.787	2825.59
978.087	2842.09
978.387	2798.7
978.687	2828.3
978.987	2820.62
979.286	2797.57
979.586	2788.98
979.885	2792.6
980.185	2739.26
980.484	2729.32
980.784	2718.93
981.083	2734.74
981.382	2760.51
981.682	2702.88
981.981	2696.33
982.28	2684.8
982.579	2679.6
982.878	2661.53
983.177	2638.48
983.475	2639.38
983.774	2616.1
984.073	2604.8
984.372	2600.51
984.67	2602.77
984.969	2559.83
985.267	2578.59
985.566	2583.34
985.864	2566.61
986.162	2542.43
986.461	2494.52
986.759	2459.72
987.057	2473.73
987.355	2488.2
987.653	2437.58
987.951	2438.93
988.249	2438.71
988.547	2445.71
988.844	2446.39
989.142	2413.85
989.44	2376.56
989.737	2388.09
990.035	2361.19
990.332	2401.65
990.63	2375.88
990.927	2395.54
991.224	2327.07
991.521	2335.66
991.819	2299.95
992.116	2325.04
992.413	2268.99
992.71	2273.06
993.006	2252.05
993.303	2265.6
993.6	2264.02
993.897	2246.85
994.193	2278.03
994.49	2192.61
994.787	2191.03
995.083	2201.65
995.379	2196
995.676	2216.57
995.972	2170.01
996.268	2137.47
996.565	2117.81
996.861	2144.48
997.157	2140.64
997.453	2112.16
997.749	2105.38
998.044	2063.35
998.34	2083.01
998.636	2099.73
998.932	2054.08
999.227	2051.82
999.523	2047.3
999.818	2038.72
1000.114	2041.66
1000.409	1988.1
1000.704	1982.67
1001	2010.47
1001.295	1987.19
1001.59	1957.59
1001.885	1974.09
1002.18	1951.49
1002.475	1926.86
1002.77	1946.52
1003.065	1891.83
1003.359	1924.37
1003.654	1896.12
1003.949	1892.73
1004.243	1883.69
1004.538	1870.81
1004.832	1873.75
1005.127	1842.11
1005.421	1853.41
1005.715	1825.16
1006.009	1840.53
1006.304	1802.11
1006.598	1798.27
1006.892	1785.39
1007.186	1797.14
1007.48	1768.22
1007.773	1767.76
1008.067	1754.88
1008.361	1712.85
1008.655	1715.79
1008.948	1719.86
1009.242	1719.86
1009.535	1694.55
1009.829	1715.11
1010.122	1666.3
1010.415	1671.04
1010.708	1653.42
1011.001	1644.83
1011.295	1649.8
1011.588	1631.27
1011.881	1633.76
1012.173	1590.37
1012.466	1613.87
1012.759	1587.2
1013.052	1594.89
1013.344	1587.88
1013.637	1561.22
1013.93	1557.37
1014.222	1531.39
1014.514	1549.69
1014.807	1552.4
1015.099	1515.57
1015.391	1541.56
1015.683	1529.8
1015.976	1514.21
1016.268	1485.06
1016.56	1480.99
1016.851	1477.6
1017.143	1479.64
1017.435	1440.77
1017.727	1444.61
1018.018	1440.99
1018.31	1425.4
1018.602	1418.17
1018.893	1426.76
1019.185	1397.6
1019.476	1375.01
1019.767	1405.06
1020.058	1386.08
1020.35	1366.87
1020.641	1355.12
1020.932	1351.28
1021.223	1346.08
1021.514	1326.65
1021.804	1299.98
1022.095	1324.39
1022.386	1313.99
1022.677	1270.15
1022.967	1287.32
1023.258	1290.49
1023.548	1284.16
1023.839	1291.84
1024.129	1249.81
1024.419	1222.02
1024.709	1275.57
1025	1226.54
1025.29	1231.06
1025.58	1216.59
1025.87	1217.5
1026.16	1203.26
1026.449	1158.74
1026.739	1196.48
1027.029	1168.23
1027.319	1181.56
1027.608	1149.02
1027.898	1154.45
1028.187	1156.03
1028.477	1142.24
1028.766	1160.32
1029.055	1100.21
1029.344	1116.48
1029.634	1124.17
1029.923	1089.82
1030.212	1113.32
1030.501	1048.24
1030.79	1074.22
1031.078	1097.05
1031.367	1064.28
1031.656	1049.59
1031.945	1053.43
1032.233	1044.62
1032.522	1031.74
1032.81	1034.22
1033.099	1041.23
1033.387	1055.69
1033.675	1047.56
1033.963	1007.11
1034.251	1012.3
1034.54	991.97
1034.828	1011.63
1035.116	989.03
1035.403	976.6
1035.691	976.82
1035.979	977.28
1036.267	973.66
1036.554	942.02
1036.842	962.81
1037.129	955.81
1037.417	932.53
1037.704	937.73
1037.992	930.5
1038.279	925.98
1038.566	926.88
1038.853	926.88
1039.14	926.88
