Data from hue_310_FLMS001491_3.txt Node
Date: Mon Feb 06 15:48:22 GMT 2017
User: dcchb
Spectrometer: FLMS00149
Trigger mode: 0
Integration Time (sec): 2.000000E-2
Scans to average: 10
Electric dark correction enabled: true
Nonlinearity correction enabled: false
Boxcar width: 0
XAxis mode: Wavelengths
Number of Pixels in Spectrum: 2048
>>>>>Begin Spectral Data<<<<<
341.393	-11.69
341.776	-11.69
342.16	-11.69
342.543	-55.54
342.927	-72.26
343.31	-89.21
343.693	-61.41
344.077	-57.8
344.46	-63.22
344.843	-52.37
345.226	-51.92
345.61	-31.58
345.993	-29.77
346.376	1.86
346.759	5.93
347.142	33.28
347.525	52.03
347.908	58.81
348.291	76.44
348.674	82.31
349.057	126.61
349.44	116.21
349.823	153.27
350.206	155.98
350.588	205.02
350.971	215.19
351.354	234.4
351.737	233.72
352.119	273.04
352.502	267.17
352.884	283.21
353.267	283.44
353.65	295.64
354.032	285.7
354.414	307.39
354.797	337.67
355.179	347.17
355.562	333.83
355.944	324.57
356.326	343.55
356.709	323.44
357.091	337.22
357.473	353.04
357.855	342.65
358.238	343.55
358.62	351.69
359.002	346.94
359.384	333.61
359.766	352.36
360.148	346.94
360.53	342.19
360.912	332.93
361.294	333.38
361.676	348.97
362.057	334.96
362.439	314.85
362.821	325.47
363.203	326.38
363.584	332.25
363.966	329.31
364.348	332.7
364.729	305.13
365.111	320.5
365.493	306.94
365.874	323.66
366.256	319.37
366.637	321.86
367.019	287.05
367.4	313.95
367.781	317.34
368.163	342.42
368.544	292.93
368.925	325.02
369.306	310.56
369.688	310.1
370.069	334.06
370.45	317.11
370.831	315.08
371.212	320.05
371.593	316.88
371.974	316.21
372.355	324.34
372.736	314.62
373.117	302.42
373.498	346.94
373.879	320.05
374.26	307.85
374.641	315.75
375.021	331.35
375.402	315.53
375.783	315.08
376.163	334.06
376.544	305.81
376.925	318.01
377.305	320.05
377.686	313.04
378.066	320.5
378.447	306.49
378.827	315.3
379.208	341.74
379.588	321.4
379.968	333.83
380.349	331.57
380.729	336.09
381.109	331.8
381.489	343.78
381.87	334.96
382.25	318.24
382.63	340.84
383.01	338.58
383.39	346.26
383.77	353.49
384.15	330.67
384.53	326.83
384.91	360.05
385.29	348.3
385.67	342.65
386.049	348.52
386.429	332.93
386.809	354.85
387.189	367.96
387.568	363.44
387.948	346.26
388.328	368.86
388.707	355.98
389.087	362.31
389.466	353.72
389.846	369.76
390.225	340.16
390.605	358.92
390.984	377.67
391.363	368.86
391.743	370.22
392.122	366.6
392.501	390.78
392.881	373.83
393.26	378.58
393.639	400.5
394.018	382.42
394.397	368.63
394.776	390.1
395.155	394.17
395.534	370.67
395.913	380.84
396.292	372.02
396.671	385.13
397.05	389.88
397.429	392.59
397.808	388.52
398.186	373.15
398.565	412.7
398.944	386.26
399.323	393.49
399.701	395.3
400.08	401.85
400.458	404.34
400.837	418.35
401.215	438.46
401.594	409.31
401.972	414.28
402.351	388.75
402.729	442.98
403.107	422.19
403.486	427.16
403.864	427.84
404.242	437.33
404.62	434.4
404.999	446.15
405.377	435.75
405.755	463.55
406.133	468.07
406.511	482.3
406.889	442.3
407.267	472.36
407.645	470.55
408.023	463.55
408.401	475.75
408.779	466.94
409.156	475.07
409.534	489.54
409.912	487.73
410.29	487.73
410.667	499.93
411.045	506.03
411.422	505.13
411.8	519.36
412.178	512.36
412.555	547.16
412.933	550.1
413.31	530.44
413.687	545.35
414.065	566.6
414.442	581.06
414.819	588.06
415.197	599.36
415.574	597.78
415.951	602.53
416.328	612.47
416.705	605.01
417.082	622.41
417.46	623.99
417.837	638.46
418.214	630.1
418.591	643.66
418.967	659.93
419.344	663.32
419.721	665.58
420.098	682.52
420.475	678
420.852	669.87
421.228	705.12
421.605	712.35
421.982	721.39
422.358	726.14
422.735	731.34
423.111	725.24
423.488	765.01
423.864	775.18
424.241	768.4
424.617	759.81
424.994	778.34
425.37	820.37
425.746	804.33
426.123	818.11
426.499	834.38
426.875	837.77
427.251	837.77
427.627	847.27
428.003	858.56
428.379	866.02
428.756	875.74
429.132	882.52
429.507	895.4
429.883	920.71
430.259	936.53
430.635	951.67
431.011	896.76
431.387	914.16
431.763	965
432.138	963.65
432.514	990.09
432.89	977.88
433.265	1022.4
433.641	1020.14
434.016	1032.57
434.392	1025.57
434.767	1073.93
435.143	1040.93
435.518	1063.76
435.894	1081.84
436.269	1113.25
436.644	1119.35
437.02	1108.28
437.395	1119.12
437.77	1136.75
438.145	1164.55
438.52	1151.89
438.895	1161.83
439.271	1156.18
439.646	1188.95
440.021	1193.92
440.395	1202.28
440.77	1205.9
441.145	1182.62
441.52	1220.36
441.895	1228.72
442.27	1235.28
442.645	1214.94
443.019	1238.44
443.394	1249.52
443.769	1281.15
444.143	1235.96
444.518	1251.1
444.892	1265.11
445.267	1262.17
445.641	1277.76
446.016	1269.4
446.39	1288.84
446.764	1317.31
447.139	1303.75
447.513	1292.45
447.887	1290.42
448.262	1314.82
448.636	1327.48
449.01	1326.8
449.384	1341.94
449.758	1332.45
450.132	1370.64
450.506	1349.4
450.88	1371.32
451.254	1364.31
451.628	1357.53
452.002	1375.16
452.376	1390.53
452.75	1388.27
453.123	1420.36
453.497	1385.78
453.871	1416.97
454.244	1423.97
454.618	1436.85
454.992	1452
455.365	1439.57
455.739	1480.7
456.112	1524.31
456.486	1494.03
456.859	1522.5
457.232	1529.73
457.606	1487.93
457.979	1531.32
458.352	1515.04
458.725	1552.33
459.099	1590.52
459.472	1589.62
459.845	1598.21
460.218	1602.95
460.591	1619
460.964	1624.87
461.337	1631.2
461.71	1668.04
462.083	1644.53
462.456	1680.92
462.829	1658.32
463.201	1701.48
463.574	1678.88
463.947	1729.73
464.32	1733.8
464.692	1757.07
465.065	1752.55
465.438	1765.89
465.81	1753.46
466.183	1812.21
466.555	1823.51
466.928	1800.01
467.3	1826.9
467.672	1862.61
468.045	1881.81
468.417	1880.01
468.789	1905.54
469.161	1929.5
469.534	1935.15
469.906	1938.76
470.278	1972.66
470.65	1979.67
471.022	2000.68
471.394	2059.21
471.766	2030.51
472.138	2033
472.51	2073
472.882	2086.33
473.253	2108.7
473.625	2150.06
473.997	2207
474.369	2173.56
474.74	2211.75
475.112	2226.44
475.484	2221.24
475.855	2287.68
476.227	2264.4
476.598	2330.16
476.97	2291.97
477.341	2367.68
477.713	2381.91
478.084	2385.3
478.455	2438.64
478.827	2463.95
479.198	2504.4
479.569	2511.85
479.94	2539.42
480.311	2572.87
480.682	2603.6
481.053	2632.53
481.424	2647.44
481.795	2671.85
482.166	2713.66
482.537	2732.87
482.908	2789.36
483.279	2786.42
483.65	2837.72
484.021	2868.23
484.391	2863.26
484.762	2894.44
485.133	2920.88
485.503	2944.39
485.874	2986.87
486.244	2991.84
486.615	3052.63
486.985	3075
487.356	3110.71
487.726	3112.74
488.097	3160.2
488.467	3188
488.837	3224.83
489.207	3256.02
489.578	3306.64
489.948	3291.27
490.318	3373.75
490.688	3368.56
491.058	3406.07
491.428	3410.59
491.798	3409.68
492.168	3470.02
492.538	3494.65
492.908	3526.07
493.278	3557.25
493.648	3547.31
494.017	3592.5
494.387	3630.24
494.757	3647.64
495.126	3684.93
495.496	3666.4
495.866	3720.64
496.235	3714.99
496.605	3737.81
496.974	3790.69
497.344	3758.15
497.713	3812.16
498.082	3834.08
498.452	3795.89
498.821	3858.03
499.19	3845.83
499.559	3856.9
499.928	3915.43
500.298	3903
500.667	3874.76
501.036	3921.08
501.405	3942.55
501.774	3986.17
502.143	4000.4
502.512	4019.16
502.88	4041.98
503.249	4030.01
503.618	4045.6
503.987	4082.89
504.356	4081.53
504.724	4042.44
505.093	4107.07
505.462	4080.18
505.83	4122.21
506.199	4174.86
506.567	4225.26
506.936	4136.22
507.304	4221.87
507.672	4251.24
508.041	4230
508.409	4249.21
508.777	4262.77
509.145	4290.34
509.514	4324.69
509.882	4331.02
510.25	4255.54
510.618	4326.5
510.986	4298.02
511.354	4373.05
511.722	4405.59
512.09	4401.52
512.458	4356.1
512.826	4432.03
513.193	4397.45
513.561	4431.13
513.929	4426.83
514.297	4497.57
514.664	4525.14
515.032	4516.55
515.4	4495.76
515.767	4536.21
516.135	4558.35
516.502	4537.56
516.869	4568.3
517.237	4614.85
517.604	4570.78
517.972	4586.6
518.339	4635.41
518.706	4646.26
519.073	4688.75
519.44	4662.08
519.808	4690.55
520.175	4632.7
520.542	4728.29
520.909	4674.51
521.276	4699.14
521.643	4745.24
522.009	4753.6
522.376	4778.46
522.743	4794.51
523.11	4873.37
523.477	4898.91
523.843	4877.89
524.21	4914.05
524.577	4901.4
524.943	4938.23
525.31	4947.72
525.676	4984.11
526.043	4991.34
526.409	4998.12
526.776	5094.61
527.142	5052.58
527.508	5074.27
527.874	5138.9
528.241	5186.81
528.607	5196.08
528.973	5203.31
529.339	5159.24
529.705	5255.74
530.071	5225.23
530.437	5257.55
530.803	5313.36
531.169	5364.89
531.535	5326.24
531.901	5317.66
532.267	5360.82
532.632	5436.98
532.998	5508.84
533.364	5445.11
533.73	5480.59
534.095	5570.31
534.461	5553.13
534.826	5573.02
535.192	5608.27
535.557	5643.07
535.923	5599.01
536.288	5631.55
536.653	5662.96
537.019	5690.53
537.384	5690.75
537.749	5721.94
538.114	5723.07
538.479	5758.32
538.845	5759.68
539.21	5775.27
539.575	5769.4
539.94	5865.89
540.305	5858.89
540.67	5921.26
541.034	5977.75
541.399	5940.47
541.764	5955.83
542.129	6000.8
542.494	6019.33
542.858	6020.46
543.223	6044.19
543.587	6103.85
543.952	6071.99
544.316	6057.52
544.681	6120.12
545.045	6175.04
545.41	6181.14
545.774	6207.12
546.138	6242.6
546.503	6238.31
546.867	6268.59
547.231	6313.79
547.595	6369.83
547.959	6365.09
548.324	6363.73
548.688	6414.35
549.052	6403.73
549.416	6436.72
549.779	6482.82
550.143	6495.25
550.507	6510.39
550.871	6511.52
551.235	6541.35
551.599	6596.04
551.962	6646.21
552.326	6656.83
552.689	6623.16
553.053	6618.19
553.417	6653.21
553.78	6698.41
554.143	6694.34
554.507	6732.76
554.87	6685.53
555.234	6759.88
555.597	6766.88
555.96	6758.97
556.323	6803.72
556.686	6781.12
557.05	6883.27
557.413	6854.34
557.776	6935.69
558.139	6912.19
558.502	6930.04
558.865	6980.89
559.228	7025.86
559.59	6980.89
559.953	7014.11
560.316	7079.87
560.679	7083.71
561.041	7044.84
561.404	7188.57
561.767	7157.16
562.129	7154.44
562.492	7245.52
562.854	7227.21
563.217	7217.04
563.579	7276.93
563.941	7287.77
564.304	7367.09
564.666	7379.07
565.028	7359.86
565.39	7381.11
565.753	7451.16
566.115	7452.06
566.477	7472.18
566.839	7492.29
567.201	7549.01
567.563	7531.84
567.925	7557.15
568.287	7617.71
568.648	7660.19
569.01	7653.64
569.372	7678.27
569.734	7700.87
570.095	7720.31
570.457	7744.03
570.819	7814.09
571.18	7811.15
571.542	7907.42
571.903	7932.96
572.265	7947.87
572.626	8044.59
572.987	8090.01
573.349	8077.13
573.71	8127.07
574.071	8210.91
574.432	8202.1
574.794	8332.49
575.155	8308.76
575.516	8370.91
575.877	8428.54
576.238	8525.03
576.599	8587.85
576.96	8625.59
577.32	8669.21
577.681	8822.88
578.042	8874.63
578.403	8873.27
578.763	9013.38
579.124	9149.65
579.485	9223.54
579.845	9365.69
580.206	9440.03
580.566	9563.87
580.927	9674.15
581.287	9882.73
581.648	9905.56
582.008	10141.48
582.368	10209.28
582.728	10333.57
583.089	10492.21
583.449	10657.18
583.809	10800
584.169	11027.34
584.529	11178.97
584.889	11456.93
585.249	11572.18
585.609	11727.66
585.969	12053.07
586.329	12126.07
586.688	12412.61
587.048	12616
587.408	12873.39
587.768	13136.66
588.127	13311.12
588.487	13533.26
588.846	13923.08
589.206	14024.32
589.565	14441.71
589.925	14686.68
590.284	14904.3
590.643	15271.97
591.003	15558.52
591.362	15826.98
591.721	16144.72
592.08	16441.21
592.44	16679.62
592.799	17076.9
593.158	17334.97
593.517	17562.08
593.876	17993.71
594.235	18176.98
594.593	18559.79
594.952	18933.12
595.311	19032.55
595.67	19383.5
596.029	19824.17
596.387	20129.24
596.746	20497.14
597.104	20803.13
597.463	21060.75
597.822	21377.35
598.18	21735.98
598.538	21981.4
598.897	22394.95
599.255	22489.63
599.613	23144.31
599.972	23156.06
600.33	23583.39
600.688	23751.07
601.046	24286.65
601.404	24616.58
601.762	24880.53
602.12	25210.69
602.478	25539.5
602.836	25775.88
603.194	25910.34
603.552	26326.37
603.91	26594.84
604.268	26910.76
604.625	27098.1
604.983	27397.75
605.341	27517.53
605.698	27968.81
606.056	28259.65
606.413	28529.02
606.771	28711.84
607.128	29118.61
607.485	29226.41
607.843	29618.26
608.2	29879.04
608.557	30163.56
608.914	30308.64
609.272	30621.62
609.629	30787.04
609.986	31277.2
610.343	31253.92
610.7	31610.98
611.057	31764.65
611.414	31920.12
611.771	32134.35
612.127	32382.71
612.484	32689.14
612.841	32914.67
613.198	32914.67
613.554	33154.21
613.911	33520.98
614.267	33681.43
614.624	33770.92
614.98	34038.26
615.337	34348.53
615.693	34440.51
616.05	34604.12
616.406	34893.38
616.762	34858.57
617.118	35086.59
617.475	35224.22
617.831	35324.78
618.187	35474.83
618.543	35626.24
618.899	36056.28
619.255	36007.7
619.611	36297.86
619.967	36438.19
620.323	36587.34
620.678	36613.11
621.034	36697.85
621.39	36787.34
621.746	36823.27
622.101	37374.22
622.457	37051.51
622.812	37360.66
623.168	37394.33
623.523	37544.15
623.879	37864.37
624.234	37579.86
624.589	37811.49
624.945	38010.58
625.3	38105.72
625.655	38124.48
626.01	38208.32
626.365	38298.48
626.72	38309.78
627.075	38390.01
627.43	38446.96
627.785	38455.99
628.14	38718.36
628.495	38653.73
628.85	38695.31
629.205	38731.92
629.559	38888.07
629.914	38940.28
630.269	38915.42
630.623	38827.51
630.978	38787.51
631.332	38901.18
631.687	39175.75
632.041	39071.8
632.396	39226.82
632.75	39033.38
633.104	39116.54
633.459	38924.46
633.813	39126.03
634.167	39146.37
634.521	39172.36
634.875	39301.17
635.229	39136.88
635.583	39067.73
635.937	39126.94
636.291	39159.93
636.645	39185.69
636.999	39087.84
637.352	39225.92
637.706	39077.9
638.06	39219.82
638.413	39147.95
638.767	39083.32
639.121	39196.99
639.474	39087.62
639.828	39027.28
640.181	39197.9
640.534	39145.24
640.888	39093.27
641.241	38913.84
641.594	39114.06
641.947	39265.92
642.301	38991.35
642.654	39170.33
643.007	39094.62
643.36	39009.88
643.713	39060.05
644.066	39206.26
644.419	38925.59
644.771	38816.44
645.124	38417.13
645.477	38320.63
645.83	38165.38
646.182	38028.21
646.535	37887.87
646.888	38036.8
647.24	37918.38
647.593	38076.8
647.945	37927.65
648.298	37787.76
648.65	37806.52
649.002	37675.68
649.355	37874.77
649.707	37897.37
650.059	37905.27
650.411	38359.95
650.763	38464.58
651.115	38953.16
651.467	38717.68
651.819	38760.17
652.171	38654.63
652.523	38629.1
652.875	38572.6
653.227	38448.99
653.578	38604.01
653.93	38601.75
654.282	38507.74
654.633	38325.6
654.985	38512.94
655.337	38584.8
655.688	38441.31
656.039	38526.95
656.391	38302.78
656.742	38285.38
657.094	38295.32
657.445	38550.91
657.796	38386.84
658.147	38378.93
658.498	38288.32
658.849	38405.15
659.2	38349.56
659.551	38299.16
659.902	38328.77
660.253	38165.38
660.604	38471.36
660.955	38299.61
661.306	38314.76
661.656	38222.1
662.007	38256.68
662.358	38299.61
662.708	38303.91
663.059	38270.01
663.409	38014.88
663.76	38329.44
664.11	38227.3
664.461	38261.65
664.811	38316.11
665.161	38322.21
665.511	38210.35
665.862	38313.63
666.212	38275.21
666.562	38231.59
666.912	38259.84
667.262	38230.01
667.612	38230.46
667.962	38265.49
668.312	38224.59
668.662	38410.12
669.011	38238.83
669.361	38178.26
669.711	38337.13
670.06	38082.9
670.41	38042.9
670.76	38065.27
671.109	38179.39
671.459	38206.74
671.808	37979.85
672.157	38078.15
672.507	37848.33
672.856	37902.79
673.205	38021.43
673.554	38070.24
673.904	37811.04
674.253	38164.48
674.602	37969.68
674.951	37371.28
675.3	37210.6
675.649	38032.73
675.998	37867.54
676.346	37891.26
676.695	37903.24
677.044	37725.84
677.393	37774.66
677.741	37999.96
678.09	37735.79
678.438	37746.18
678.787	37820.76
679.135	37644.94
679.484	37494.66
679.832	37678.16
680.181	37352.29
680.529	37561.33
680.877	37337.61
681.225	37506.87
681.573	37622.12
681.922	37244.05
682.27	37274.78
682.618	37276.82
682.966	37039.76
683.314	37228.23
683.661	37174.22
684.009	36966.32
684.357	36996.37
684.705	36912.76
685.053	36870.95
685.4	36930.16
685.748	36663.05
686.095	36613.33
686.443	36697.62
686.79	36536.95
687.138	36545.31
687.485	36523.16
687.832	36387.57
688.18	36449.49
688.527	36200.01
688.874	36306.9
689.221	36168.37
689.568	36116.62
689.915	35963.63
690.262	36081.82
690.609	35864.42
690.956	35813.35
691.303	35713.47
691.65	35624.66
691.997	35543.53
692.344	35416.3
692.69	35295.4
693.037	35485.9
693.383	35075.07
693.73	35206.81
694.077	34936.31
694.423	35012.92
694.769	34825.13
695.116	34767.05
695.462	34672.37
695.808	34602.54
696.155	34661.74
696.501	34402.54
696.847	34471.47
697.193	34261.53
697.539	34301.3
697.885	34071.7
698.231	33987.41
698.577	34075.77
698.923	33918.71
699.269	33863.35
699.614	33633.07
699.96	33692.5
700.306	33592.17
700.651	33625.16
700.997	33457.26
701.342	33350.14
701.688	33321.21
702.033	33195.79
702.379	33187.66
702.724	33080.99
703.069	33108.56
703.415	32649.37
703.76	32754.9
704.105	32801.45
704.45	32780.66
704.795	32534.12
705.14	32462.03
705.485	32522.82
705.83	32275.14
706.175	32295.25
706.52	32288.7
706.865	32240.34
707.209	32199.21
707.554	31963.74
707.899	32170.06
708.243	32055.94
708.588	31778.43
708.932	31678.55
709.277	31655.04
709.621	31622.5
709.966	31404.2
710.31	31459.34
710.654	31322.62
710.998	31272
711.342	31434.94
711.687	31093.25
712.031	30946.81
712.375	30972.12
712.719	30994.95
713.063	30913.82
713.407	30994.95
713.75	30734.16
714.094	30679.93
714.438	30609.42
714.782	30808.51
715.125	30511.8
715.469	30612.36
715.812	30466.15
716.156	30320.16
716.499	30319.94
716.843	30347.28
717.186	30117.23
717.53	30317.9
717.873	30238.36
718.216	30151.35
718.559	30001.3
718.902	29829.33
719.246	29986.39
719.589	29796.11
719.932	29716.79
720.275	29882.43
720.617	29578.04
720.96	29594.53
721.303	29736.68
721.646	29684.02
721.989	29398.61
722.331	29541.65
722.674	29424.82
723.016	29426.4
723.359	29307.99
723.701	29399.51
724.044	29153.64
724.386	29073.64
724.729	29223.24
725.071	29243.81
725.413	29083.59
725.755	29117.71
726.097	28894.44
726.439	28673.65
726.782	28784.84
727.124	28872.97
727.465	28831.39
727.807	28705.74
728.149	28660.77
728.491	28595.24
728.833	28633.2
729.175	28486.31
729.516	28564.05
729.858	28326.77
730.199	28515.69
730.541	28366.09
730.882	28268.69
731.224	28452.64
731.565	28175.81
731.906	28297.39
732.248	28130.84
732.589	28068.25
732.93	27889.94
733.271	27894.24
733.612	28043.16
733.953	27937.85
734.294	27879.32
734.635	27847.69
734.976	27814.47
735.317	27715.49
735.658	27722.49
735.999	27811.98
736.339	27768.14
736.68	27616.05
737.021	27686.56
737.361	27477.3
737.702	27595.26
738.042	27445.21
738.383	27431.43
738.723	27568.82
739.063	27382.39
739.404	27310.3
739.744	27267.14
740.084	27197.53
740.424	27246.57
740.764	27148.04
741.104	27160.7
741.444	26943.53
741.784	26925.9
742.124	27033.24
742.464	26968.84
742.804	26925.68
743.143	26862.18
743.483	26936.07
743.823	26711.9
744.162	26718.68
744.502	26828.5
744.841	26671.22
745.181	26756.87
745.52	26620.37
745.86	26642.29
746.199	26505.8
746.538	26599.13
746.877	26393.94
747.216	26452.92
747.556	26384
747.895	26475.74
748.234	26226.03
748.573	26317.33
748.911	26250.89
749.25	26103.1
749.589	26162.98
749.928	26168.41
750.267	26166.83
750.605	26048.41
750.944	26047.51
751.283	25920.28
751.621	25995.98
751.96	25825.82
752.298	25759.38
752.636	25771.81
752.975	25704.92
753.313	25599.84
753.651	25668.76
753.989	25475.54
754.327	25441.42
754.666	25331.37
755.004	25447.07
755.342	25255.44
755.679	25347.64
756.017	25172.95
756.355	25263.35
756.693	25125.27
757.031	25180.64
757.368	24936.12
757.706	24944.03
758.044	24878.72
758.381	24843.02
758.719	24772.06
759.056	24813.42
759.394	24810.03
759.731	24476.25
760.068	24386.31
760.405	24358.96
760.743	24263.83
761.08	24375.01
761.417	24180.89
761.754	24104.06
762.091	24113.55
762.428	24097.95
762.765	23890.28
763.102	23937.05
763.438	23751.07
763.775	23698.19
764.112	23798.3
764.449	23710.17
764.785	23604.86
765.122	23475.15
765.458	23313.34
765.795	23275.83
766.131	23326.67
766.467	23092.56
766.804	23096.85
767.14	22948.83
767.476	23015.95
767.812	22880.81
768.148	22910.64
768.485	22741.61
768.821	22612.8
769.157	22543.42
769.492	22607.15
769.828	22566.02
770.164	22337.1
770.5	22320.15
770.836	22364.44
771.171	22084.9
771.507	22107.05
771.842	21939.14
772.178	21935.07
772.513	21838.58
772.849	21769.88
773.184	21627.96
773.519	21688.75
773.855	21553.16
774.19	21497.34
774.525	21508.19
774.86	21354.3
775.195	21276.33
775.53	21310.46
775.865	21096.45
776.2	21030.46
776.535	20810.58
776.87	20869.34
777.205	20832.73
777.539	20619.85
777.874	20829.34
778.209	20479.97
778.543	20526.52
778.878	20256.92
779.212	20363.36
779.547	20293.53
779.881	20337.15
780.215	20133.09
780.55	20130.37
780.884	19982.13
781.218	19894
781.552	19900.55
781.886	19945.97
782.22	19712.98
782.554	19716.15
782.888	19493.1
783.222	19450.17
783.556	19353.22
783.889	19203.17
784.223	19172.21
784.557	19132.43
784.89	19141.7
785.224	19068.26
785.557	18911.88
785.891	18894.25
786.224	18871.65
786.558	18869.62
786.891	18727.47
787.224	18652.9
787.557	18493.36
787.891	18580.36
788.224	18509.17
788.557	18418.1
788.89	18471.21
789.223	18405.45
789.556	18160.71
789.888	18182.18
790.221	18017.66
790.554	17981.73
790.887	17945.35
791.219	17913.03
791.552	17951.67
791.884	17894.5
792.217	17781.74
792.549	17787.16
792.882	17566.6
793.214	17402.31
793.546	17501.97
793.879	17352.59
794.211	17255.65
794.543	17314.4
794.875	17250
795.207	17366.61
795.539	17209.55
795.871	17164.12
796.203	16951.7
796.535	16870.35
796.867	16858.6
797.198	16868.99
797.53	16821.31
797.862	16618.83
798.193	16789.22
798.525	16629
798.856	16678.71
799.188	16510.13
799.519	16466.29
799.85	16382.9
800.182	16390.36
800.513	16376.35
800.844	16317.37
801.175	16244.38
801.506	16243.02
801.837	16161.44
802.168	16019.97
802.499	16032.86
802.83	15956.25
803.161	15996.02
803.491	15930.03
803.822	15953.31
804.153	15866.31
804.483	15751.51
804.814	15633.32
805.145	15631.51
805.475	15523.04
805.805	15513.55
806.136	15472.87
806.466	15475.58
806.796	15431.97
807.126	15295.7
807.457	15325.3
807.787	15278.3
808.117	15136.83
808.447	15128.7
808.777	15215.93
809.107	15121.47
809.436	15002.37
809.766	15157.62
810.096	15055.48
810.426	14923.05
810.755	15053.45
811.085	14850.51
811.414	14904.52
811.744	14739.56
812.073	14739.1
812.403	14718.09
812.732	14616.85
813.061	14610.75
813.39	14617.98
813.719	14495.04
814.049	14622.27
814.378	14525.32
814.707	14515.16
815.036	14422.73
815.365	14332.56
815.693	14194.49
816.022	14294.37
816.351	14286.23
816.68	14136.41
817.008	14110.87
817.337	14072.91
817.665	14008.5
817.994	14070.42
818.322	14045.56
818.651	14003.76
818.979	13855.74
819.307	13958.79
819.636	13879.24
819.964	13820.94
820.292	13951.78
820.62	13845.79
820.948	13836.3
821.276	13811.44
821.604	13795.4
821.932	13830.43
822.259	13825
822.587	13755.85
822.915	13785.68
823.243	13730.32
823.57	13759.92
823.898	13703.88
824.225	13762.41
824.553	13679.24
824.88	13675.18
825.207	13734.16
825.535	13669.08
825.862	13749.98
826.189	13623.2
826.516	13759.24
826.843	13679.92
827.17	13695.06
827.497	13765.8
827.824	13790.88
828.151	13690.09
828.478	13665.46
828.805	13735.06
829.131	13586.14
829.458	13631.79
829.785	13619.36
830.111	13575.74
830.438	13612.13
830.764	13686.48
831.09	13641.28
831.417	13564.45
831.743	13632.01
832.069	13663.65
832.395	13624.78
832.722	13726.02
833.048	13535.29
833.374	13624.78
833.7	13502.75
834.026	13561.28
834.351	13577.55
834.677	13546.59
835.003	13533.03
835.329	13528.74
835.654	13492.13
835.98	13488.74
836.306	13459.14
836.631	13415.97
836.956	13530.1
837.282	13378.24
837.607	13353.6
837.932	13308.41
838.258	13336.2
838.583	13309.31
838.908	13228.86
839.233	13288.07
839.558	13173.27
839.883	13168.52
840.208	13173.04
840.533	13148.64
840.858	13168.07
841.182	13133.04
841.507	13119.49
841.832	13012.6
842.156	13045.82
842.481	12894.18
842.805	13020.51
843.13	12899.6
843.454	12921.3
843.778	12822.09
844.103	12937.8
844.427	12776.22
844.751	12899.15
845.075	12742.09
845.399	12704.81
845.723	12680.85
846.047	12655.54
846.371	12538.71
846.695	12571.03
847.019	12462.78
847.343	12390.92
847.666	12295.1
847.99	12203.58
848.313	12286.06
848.637	12208.78
848.96	12171.04
849.284	12138.49
849.607	12082.68
849.931	12019.4
850.254	11991.38
850.577	11903.47
850.9	11756.13
851.223	11830.93
851.546	11752.97
851.869	11788.45
852.192	11751.61
852.515	11631.39
852.838	11594.78
853.161	11590.94
853.483	11393.88
853.806	11481.79
854.129	11462.13
854.451	11383.26
854.774	11413.32
855.096	11333.77
855.419	11301
855.741	11242.25
856.063	11124.74
856.385	11178.75
856.708	11124.28
857.03	11067.56
857.352	11044.51
857.674	11061.69
857.996	11033.21
858.318	10971.97
858.64	11050.61
858.961	10867.34
859.283	10915.25
859.605	10802.48
859.926	10899.88
860.248	10898.53
860.57	10770.17
860.891	10751.41
861.212	10696.27
861.534	10673.9
861.855	10594.35
862.176	10565.2
862.498	10582.83
862.819	10683.84
863.14	10575.82
863.461	10664.41
863.782	10507.8
864.103	10514.81
864.424	10492.44
864.745	10529.72
865.065	10487.46
865.386	10353.46
865.707	10376.96
866.027	10429.16
866.348	10401.82
866.668	10390.29
866.989	10364.08
867.309	10278.2
867.63	10240.01
867.95	10278.88
868.27	10219.67
868.59	10219.45
868.91	10280.24
869.23	10242.05
869.55	10165.44
869.87	10193.23
870.19	10184.87
870.51	10177.64
870.83	10190.75
871.15	10074.82
871.469	10117.98
871.789	10089.51
872.109	10103.07
872.428	10097.19
872.748	10046.8
873.067	10008.38
873.386	10062.16
873.706	10002.28
874.025	9993.01
874.344	9943.07
874.663	9957.08
874.982	9895.62
875.301	9943.07
875.62	9874.83
875.939	9903.52
876.258	9767.26
876.577	9812.91
876.896	9869.85
877.214	9781.27
877.533	9798.22
877.852	9747.37
878.17	9801.61
878.489	9718.67
878.807	9753.02
879.125	9782.62
879.444	9763.87
879.762	9661.05
880.08	9635.28
880.398	9614.49
880.716	9670.08
881.034	9612.91
881.352	9583.76
881.67	9540.6
881.988	9521.84
882.306	9525.68
882.624	9491.33
882.941	9459.47
883.259	9428.06
883.577	9395.06
883.894	9376.76
884.212	9366.59
884.529	9402.97
884.846	9310.55
885.164	9342.64
885.481	9276.2
885.798	9316.2
886.115	9208.85
886.432	9275.29
886.75	9219.02
887.067	9160.95
887.383	9116.88
887.7	9154.62
888.017	9108.74
888.334	9067.84
888.651	9126.37
888.967	9075.75
889.284	8996.66
889.6	9002.76
889.917	8846.38
890.233	8946.71
890.55	8979.26
890.866	8874.85
891.182	8847.28
891.498	8781.52
891.815	8810.9
892.131	8826.04
892.447	8715.08
892.763	8707.85
893.079	8712.6
893.395	8758.7
893.71	8682.31
894.026	8636.67
894.342	8687.06
894.657	8563.67
894.973	8599.83
895.289	8562.77
895.604	8541.53
895.92	8490.23
896.235	8441.19
896.55	8439.38
896.865	8374.75
897.181	8358.93
897.496	8361.87
897.811	8299.5
898.126	8335.66
898.441	8258.6
898.756	8185.38
899.071	8163.01
899.386	8215.43
899.7	8143.57
900.015	8089.79
900.33	8063.8
900.644	8034.87
900.959	8041.88
901.273	7992.84
901.588	7942.67
901.902	7921.88
902.216	7907.19
902.531	7848.44
902.845	7877.14
903.159	7763.47
903.473	7767.08
903.787	7775.45
904.101	7719.63
904.415	7705.39
904.729	7637.6
905.042	7698.61
905.356	7572.06
905.67	7565.73
905.984	7560.99
906.297	7551.72
906.611	7470.82
906.924	7512.18
907.237	7445.96
907.551	7457.71
907.864	7426.75
908.177	7363.93
908.491	7419.07
908.804	7316.25
909.117	7301.79
909.43	7206.42
909.743	7161
910.056	7188.12
910.368	7142.02
910.681	7047.55
910.994	7072.86
911.307	7072.64
911.619	7007.33
911.932	7022.92
912.244	6936.82
912.557	6980.21
912.869	6942.02
913.181	6897.05
913.494	6911.97
913.806	6847.33
914.118	6844.62
914.43	6781.8
914.742	6750.16
915.054	6780.22
915.366	6712.42
915.678	6711.52
915.99	6625.19
916.302	6645.98
916.613	6638.3
916.925	6587.68
917.236	6559.21
917.548	6551.3
917.859	6483.05
918.171	6442.6
918.482	6440.11
918.794	6425.88
919.105	6424.97
919.416	6316.73
919.727	6373.67
920.038	6337.52
920.349	6299.1
920.66	6235.6
920.971	6296.84
921.282	6229.05
921.593	6129.61
921.903	6106.34
922.214	6112.21
922.525	6045.77
922.835	6096.62
923.146	5981.37
923.456	6041.03
923.767	6020.24
924.077	6013.91
924.387	6007.81
924.697	5905.21
925.008	5928.94
925.318	5869.73
925.628	5852.78
925.938	5820.92
926.248	5778.89
926.558	5739.34
926.867	5767.81
927.177	5719.68
927.487	5679.68
927.796	5666.35
928.106	5649.63
928.416	5626.35
928.725	5614.6
929.034	5579.34
929.344	5565.79
929.653	5587.03
929.962	5468.16
930.271	5466.35
930.581	5487.37
930.89	5435.85
931.199	5436.07
931.508	5455.51
931.817	5355.85
932.125	5369.63
932.434	5312.01
932.743	5296.64
933.051	5256.42
933.36	5259.13
933.669	5253.03
933.977	5195.85
934.286	5149.3
934.594	5160.82
934.902	5112.69
935.21	5126.25
935.519	5075.86
935.827	5088.96
936.135	5074.73
936.443	5031.79
936.751	5032.24
937.059	4972.13
937.367	4949.3
937.674	4914.5
937.982	4900.27
938.29	4932.58
938.597	4964.9
938.905	4882.64
939.213	4846.26
939.52	4784.56
939.827	4797.44
940.135	4771
940.442	4744.11
940.749	4760.61
941.056	4742.98
941.363	4702.76
941.67	4699.14
941.977	4664.79
942.284	4614.62
942.591	4634.28
942.898	4623.66
943.205	4612.14
943.511	4560.16
943.818	4590.22
944.125	4550.22
944.431	4491.46
944.738	4471.35
945.044	4448.3
945.35	4467.96
945.657	4394.52
945.963	4384.12
946.269	4369.21
946.575	4392.03
946.881	4342.32
947.187	4391.13
947.493	4281.75
947.799	4307.74
948.105	4259.61
948.41	4234.97
948.716	4209.66
949.022	4241.3
949.327	4205.37
949.633	4170.34
949.938	4224.8
950.244	4190.68
950.549	4152.26
950.854	4086.73
951.16	4101.64
951.465	4079.5
951.77	4049.44
952.075	4054.64
952.38	4032.04
952.685	4020.29
952.99	4008.31
953.294	3958.6
953.599	3982.1
953.904	3964.47
954.209	3943.46
954.513	3933.29
954.818	3886.96
955.122	3891.71
955.426	3849.9
955.731	3826.62
956.035	3799.05
956.339	3788.88
956.643	3822.55
956.948	3788.21
957.252	3765.38
957.556	3768.77
957.86	3732.39
958.163	3740.98
958.467	3721.31
958.771	3714.76
959.075	3697.13
959.378	3660.3
959.682	3663.01
959.985	3652.62
960.289	3602
960.592	3608.55
960.896	3538.27
961.199	3582.79
961.502	3542.34
961.805	3510.25
962.108	3492.62
962.411	3487.2
962.714	3439.51
963.017	3499.17
963.32	3433.64
963.623	3463.47
963.926	3428.21
964.228	3375.79
964.531	3382.79
964.833	3370.36
965.136	3373.08
965.438	3353.64
965.741	3328.33
966.043	3317.03
966.345	3324.49
966.648	3312.29
966.95	3272.74
967.252	3258.05
967.554	3224.38
967.856	3251.27
968.158	3236.81
968.46	3196.81
968.761	3222.34
969.063	3187.32
969.365	3151.39
969.666	3189.35
969.968	3123.36
970.269	3133.53
970.571	3125.85
970.872	3103.7
971.174	3109.35
971.475	3079.3
971.776	3050.37
972.077	3056.47
972.378	3040.88
972.679	3044.04
972.98	2990.49
973.281	2985.51
973.582	3012.86
973.883	2979.87
974.183	2916.82
974.484	2950.26
974.785	2920.66
975.085	2918.4
975.386	2858.74
975.686	2835.46
975.986	2866.2
976.287	2888.57
976.587	2833.65
976.887	2841.34
977.187	2830.94
977.487	2810.15
977.787	2825.52
978.087	2772.41
978.387	2756.59
978.687	2782.36
978.987	2748.91
979.286	2724.96
979.586	2748.01
979.885	2710.72
980.185	2712.75
980.484	2708.01
980.784	2672.08
981.083	2649.25
981.382	2678.4
981.682	2617.16
981.981	2636.15
982.28	2622.59
982.579	2608.58
982.878	2567.67
983.177	2581.68
983.475	2588.91
983.774	2545.75
984.073	2527.45
984.372	2518.86
984.67	2542.14
984.969	2468.92
985.267	2501.01
985.566	2479.99
985.864	2477.73
986.162	2492.65
986.461	2453.55
986.759	2467.79
987.057	2452.2
987.355	2398.86
987.653	2445.87
987.951	2425.53
988.249	2427.34
988.547	2416.72
988.844	2364.97
989.142	2386.43
989.44	2356.38
989.737	2328.36
990.035	2324.74
990.332	2333.33
990.63	2295.14
990.927	2288.36
991.224	2248.58
991.521	2302.14
991.819	2280.45
992.116	2263.27
992.413	2242.48
992.71	2247
993.006	2215.37
993.303	2233.67
993.6	2214.01
993.897	2207.91
994.193	2199.55
994.49	2202.03
994.787	2165.42
995.083	2172.88
995.379	2174.91
995.676	2140.34
995.972	2122.26
996.268	2116.16
996.565	2129.49
996.861	2079.1
997.157	2095.59
997.453	2084.3
997.749	2070.74
998.044	2064.86
998.34	2045.88
998.636	2028.7
998.932	2004.52
999.227	2008.14
999.523	2017.18
999.818	1997.07
1000.114	1982.83
1000.409	1973.56
1000.704	1962.26
1001	1945.09
1001.295	1938.54
1001.59	1937.18
1001.885	1942.6
1002.18	1931.98
1002.475	1920.91
1002.77	1877.07
1003.065	1887.92
1003.359	1902.61
1003.654	1854.7
1003.949	1848.14
1004.243	1827.13
1004.538	1807.92
1004.832	1832.32
1005.127	1811.53
1005.421	1835.26
1005.715	1783.74
1006.009	1762.95
1006.304	1765.66
1006.598	1747.81
1006.892	1745.77
1007.186	1741.03
1007.48	1727.69
1007.773	1712.78
1008.067	1725.43
1008.361	1729.05
1008.655	1736.28
1008.948	1722.95
1009.242	1692.22
1009.535	1676.62
1009.829	1678.88
1010.122	1652.22
1010.415	1639.79
1010.708	1646.11
1011.001	1639.11
1011.295	1658.77
1011.588	1617.42
1011.881	1599.34
1012.173	1590.3
1012.466	1598.88
1012.759	1565.21
1013.052	1555.95
1013.344	1557.98
1013.637	1540.13
1013.93	1545.1
1014.222	1522.73
1014.514	1527.02
1014.807	1497.42
1015.099	1524.99
1015.391	1523.41
1015.683	1500.81
1015.976	1479.79
1016.268	1468.27
1016.56	1457.87
1016.851	1464.2
1017.143	1435.72
1017.435	1409.28
1017.727	1448.61
1018.018	1416.29
1018.31	1428.72
1018.602	1408.61
1018.893	1391.21
1019.185	1392.79
1019.476	1399.34
1019.767	1368.38
1020.058	1376.07
1020.35	1329.29
1020.641	1343.75
1020.932	1337.87
1021.223	1311.89
1021.514	1356.86
1021.804	1322.06
1022.095	1262.62
1022.386	1299.01
1022.677	1264.2
1022.967	1295.39
1023.258	1273.47
1023.548	1268.27
1023.839	1267.59
1024.129	1245.45
1024.419	1234.37
1024.709	1241.15
1025	1228.72
1025.29	1184.88
1025.58	1204.77
1025.87	1188.95
1026.16	1183.08
1026.449	1200.02
1026.739	1169.74
1027.029	1176.75
1027.319	1187.14
1027.608	1143.76
1027.898	1144.43
1028.187	1169.29
1028.477	1135.39
1028.766	1132.23
1029.055	1115.51
1029.344	1117.54
1029.634	1125.22
1029.923	1097.43
1030.212	1076.86
1030.501	1072.57
1030.79	1066.24
1031.078	1070.08
1031.367	1048.62
1031.656	1050.65
1031.945	1075.96
1032.233	1053.14
1032.522	1036.41
1032.81	1007.71
1033.099	1030.76
1033.387	1025.57
1033.675	994.61
1033.963	1002.74
1034.251	1005
1034.54	1007.26
1034.828	1001.39
1035.116	984.44
1035.403	978.11
1035.691	974.72
1035.979	933.59
1036.267	940.6
1036.554	945.12
1036.842	943.08
1037.129	934.27
1037.417	926.59
1037.704	904.44
1037.992	930.43
1038.279	926.13
1038.566	909.86
1038.853	909.86
1039.14	909.86
