Data from hue_270_FLMS001491_00015.txt Node
Date: Tue Feb 07 15:56:50 GMT 2017
User: dcchb
Spectrometer: FLMS00149
Trigger mode: 0
Integration Time (sec): 2.000000E-2
Scans to average: 10
Electric dark correction enabled: true
Nonlinearity correction enabled: false
Boxcar width: 0
XAxis mode: Wavelengths
Number of Pixels in Spectrum: 2048
>>>>>Begin Spectral Data<<<<<
341.393	-17.13
341.776	-17.13
342.16	-17.13
342.543	-53.97
342.927	-78.37
343.31	-68.2
343.693	-76.57
344.077	-58.49
344.46	-46.06
344.843	-55.1
345.226	-30.69
345.61	-31.82
345.993	-33.63
346.376	1.85
346.759	3.88
347.142	31.23
347.525	31.68
347.908	61.28
348.291	59.48
348.674	101.28
349.057	109.87
349.44	151
349.823	135.41
350.206	165.69
350.588	187.83
350.971	194.61
351.354	202.97
351.737	229.87
352.119	234.61
352.502	239.13
352.884	270.32
353.267	281.39
353.65	273.71
354.032	292.69
354.414	283.2
354.797	300.6
355.179	306.47
355.562	300.37
355.944	308.28
356.326	323.2
356.709	333.82
357.091	329.07
357.473	308.51
357.855	333.82
358.238	314.84
358.62	364.55
359.002	335.63
359.384	321.39
359.766	329.3
360.148	338.56
360.53	336.98
360.912	312.8
361.294	320.26
361.676	320.26
362.057	320.71
362.439	308.06
362.821	327.27
363.203	318.45
363.584	311.22
363.966	303.76
364.348	320.49
364.729	305.12
365.111	298.34
365.493	327.27
365.874	311.67
366.256	321.84
366.637	313.48
367.019	297.89
367.4	305.57
367.781	313.48
368.163	306.93
368.544	320.26
368.925	302.63
369.306	318.9
369.688	298.11
370.069	318.23
370.45	289.07
370.831	322.29
371.212	311.67
371.593	300.6
371.974	310.09
372.355	274.39
372.736	306.25
373.117	304.89
373.498	319.58
373.879	309.19
374.26	306.7
374.641	317.32
375.021	326.59
375.402	303.99
375.783	315.06
376.163	309.64
376.544	334.95
376.925	315.29
377.305	298.79
377.686	334.72
378.066	329.53
378.447	311.67
378.827	325.46
379.208	335.63
379.588	313.93
379.968	318.9
380.349	320.94
380.729	351.45
381.109	327.49
381.489	332.91
381.87	329.53
382.25	326.14
382.63	333.59
383.01	328.17
383.39	327.04
383.77	333.14
384.15	332.69
384.53	325.68
384.91	352.35
385.29	346.93
385.67	343.99
386.049	349.64
386.429	321.62
386.809	360.48
387.189	369.98
387.568	325.23
387.948	339.02
388.328	341.95
388.707	349.19
389.087	342.18
389.466	372.01
389.846	353.71
390.225	365.46
390.605	367.49
390.984	352.35
391.363	380.15
391.743	367.94
392.122	360.26
392.501	383.76
392.881	398.68
393.26	392.57
393.639	379.02
394.018	379.92
394.397	365.23
394.776	378.34
395.155	397.55
395.534	401.84
395.913	395.96
396.292	391.67
396.671	386.47
397.05	415.4
397.429	390.09
397.808	372.69
398.186	405.91
398.565	403.87
398.944	413.59
399.323	376.08
399.701	405.23
400.08	416.75
400.458	415.17
400.837	428.51
401.215	409.52
401.594	407.94
401.972	435.06
402.351	429.64
402.729	440.03
403.107	456.3
403.486	438.45
403.864	425.34
404.242	451.1
404.62	428.05
404.999	457.88
405.377	437.54
405.755	452.69
406.133	449.07
406.511	456.98
406.889	476.64
407.267	462.63
407.645	459.24
408.023	472.8
408.401	477.77
408.779	484.32
409.156	486.58
409.534	497.66
409.912	482.74
410.29	501.95
410.667	521.84
411.045	530.65
411.422	528.84
411.8	509.18
412.178	506.92
412.555	560.25
412.933	563.19
413.31	540.59
413.687	580.82
414.065	578.78
414.442	590.08
414.819	587.6
415.197	597.99
415.574	600.7
415.951	600.7
416.328	613.59
416.705	628.05
417.082	610.87
417.46	631.21
417.837	621.49
418.214	636.18
418.591	651.78
418.967	664.66
419.344	677.54
419.721	674.6
420.098	684.32
420.475	699.46
420.852	697.65
421.228	686.35
421.605	731.55
421.982	747.37
422.358	730.64
422.735	753.69
423.111	765.22
423.488	769.97
423.864	786.24
424.241	769.74
424.617	794.37
424.994	793.02
425.37	813.81
425.746	804.54
426.123	821.49
426.499	819.91
426.875	824.2
427.251	851.32
427.627	867.14
428.003	912.33
428.379	896.52
428.756	886.57
429.132	921.15
429.507	920.02
429.883	906.69
430.259	960.02
430.635	960.02
431.011	958.21
431.387	965.67
431.763	1007.93
432.138	997.53
432.514	1006.12
432.89	1045.89
433.265	1048.6
433.641	1045.66
434.016	1064.65
434.392	1108.26
434.767	1118.43
435.143	1147.36
435.518	1120.46
435.894	1145.1
436.269	1150.29
436.644	1191.42
437.02	1228.94
437.395	1202.95
437.77	1229.39
438.145	1233.23
438.52	1247.02
438.895	1274.36
439.271	1284.98
439.646	1320.01
440.021	1356.84
440.395	1336.96
440.77	1343.06
441.145	1363.62
441.52	1346.45
441.895	1397.75
442.27	1384.19
442.645	1381.25
443.019	1424.19
443.394	1449.04
443.769	1453.56
444.143	1425.54
444.518	1449.72
444.892	1461.25
445.267	1495.37
445.641	1478.65
446.016	1524.52
446.39	1542.83
446.764	1531.98
447.139	1529.27
447.513	1541.92
447.887	1550.06
448.262	1579.44
448.636	1536.73
449.01	1562.49
449.384	1612.2
449.758	1606.78
450.132	1613.11
450.506	1601.58
450.88	1639.77
451.254	1640.45
451.628	1691.52
452.002	1677.29
452.376	1664.63
452.75	1703.27
453.123	1736.95
453.497	1720.9
453.871	1727
454.244	1779.43
454.618	1801.58
454.992	1808.36
455.365	1809.03
455.739	1834.12
456.112	1876.15
456.486	1842.25
456.859	1895.81
457.232	1951.4
457.606	1908.01
457.979	1933.1
458.352	1938.97
458.725	1974.45
459.099	1979.65
459.472	2012.42
459.845	2014.45
460.218	2059.2
460.591	2085.19
460.964	2069.59
461.337	2126.09
461.71	2111.85
462.083	2159.31
462.456	2161.34
462.829	2170.61
463.201	2240.89
463.574	2212.19
463.947	2230.04
464.32	2269.81
464.692	2308.91
465.065	2318.4
465.438	2310.72
465.81	2357.72
466.183	2370.83
466.555	2406.08
466.928	2382.8
467.3	2405.85
467.672	2466.19
468.045	2518.17
468.417	2513.87
468.789	2519.75
469.161	2563.59
469.534	2578.51
469.906	2623.7
470.278	2604.95
470.65	2631.39
471.022	2662.57
471.394	2758.61
471.766	2771.72
472.138	2826.41
472.51	2819.86
472.882	2844.71
473.253	2878.38
473.625	2920.42
473.997	2975.33
474.369	2991.15
474.74	3051.71
475.112	3061.88
475.484	3125.61
475.855	3178.72
476.227	3161.77
476.598	3233.4
476.97	3249.45
477.341	3308.2
477.713	3365.83
478.084	3339.16
478.455	3459.16
478.827	3421.87
479.198	3542.1
479.569	3486.96
479.94	3629.55
480.311	3670.23
480.682	3686.95
481.053	3755.65
481.424	3821.41
481.795	3845.59
482.166	3896.44
482.537	3921.52
482.908	3969.43
483.279	4002.42
483.65	4085.13
484.021	4152.25
484.391	4165.36
484.762	4170.1
485.133	4239.25
485.503	4227.28
485.874	4318.57
486.244	4384.33
486.615	4453.71
486.985	4479.02
487.356	4512.47
487.726	4548.85
488.097	4653.71
488.467	4641.95
488.837	4719.69
489.207	4752.01
489.578	4802.85
489.948	4866.36
490.318	4906.35
490.688	4895.51
491.058	4989.74
491.428	5041.94
491.798	5051.21
492.168	5143.64
492.538	5154.94
492.908	5213.92
493.278	5214.59
493.648	5219.79
494.017	5253.92
494.387	5337.76
494.757	5363.07
495.126	5429.05
495.496	5432.44
495.866	5419.79
496.235	5474.93
496.605	5539.56
496.974	5563.29
497.344	5589.27
497.713	5612.1
498.082	5618.65
498.452	5673.34
498.821	5668.59
499.19	5699.78
499.559	5724.64
499.928	5792.21
500.298	5803.51
500.667	5864.29
501.036	5794.24
501.405	5820.91
501.774	5852.32
502.143	5880.34
502.512	5910.62
502.88	5947.91
503.249	5963.95
503.618	6002.82
503.987	5996.04
504.356	5983.39
504.724	6045.99
505.093	6039.88
505.462	6015.25
505.83	6051.18
506.199	6145.64
506.567	6219.99
506.936	6146.32
507.304	6199.88
507.672	6225.64
508.041	6254.57
508.409	6259.09
508.777	6307.22
509.145	6345.86
509.514	6330.5
509.882	6353.1
510.25	6320.55
510.618	6364.85
510.986	6354.45
511.354	6428.8
511.722	6452.75
512.09	6481.45
512.458	6468.57
512.826	6462.02
513.193	6528.68
513.561	6478.74
513.929	6522.13
514.297	6623.15
514.664	6564.84
515.032	6568.23
515.4	6607.78
515.767	6642.81
516.135	6633.77
516.502	6578.4
516.869	6687.1
517.237	6660.21
517.604	6712.63
517.972	6647.33
518.339	6727.55
518.706	6703.59
519.073	6704.5
519.44	6734.1
519.808	6794.21
520.175	6743.82
520.542	6781.78
520.909	6852.07
521.276	6766.19
521.643	6847.55
522.009	6880.31
522.376	6930.93
522.743	6896.81
523.11	6939.97
523.477	6994.66
523.843	6944.72
524.21	7068.33
524.577	7006.86
524.943	6994.66
525.31	7080.31
525.676	7076.47
526.043	7137.03
526.409	7138.84
526.776	7229.23
527.142	7188.33
527.508	7190.59
527.874	7236.24
528.241	7290.25
528.607	7321.21
528.973	7363.46
529.339	7280.08
529.705	7335.22
530.071	7347.87
530.437	7367.31
530.803	7353.97
531.169	7375.67
531.535	7419.96
531.901	7414.08
532.267	7447.53
532.632	7480.07
532.998	7459.51
533.364	7480.3
533.73	7518.94
534.095	7555.1
534.461	7591.48
534.826	7556.45
535.192	7642.55
535.557	7541.76
535.923	7522.78
536.288	7583.8
536.653	7651.82
537.019	7555.32
537.384	7536.34
537.749	7562.78
538.114	7587.41
538.479	7634.19
538.845	7580.63
539.21	7584.25
539.575	7663.34
539.94	7646.39
540.305	7679.39
540.67	7603.46
541.034	7656.11
541.399	7713.06
541.764	7732.72
542.129	7730.69
542.494	7619.28
542.858	7718.71
543.223	7712.61
543.587	7744.47
543.952	7712.16
544.316	7735.43
544.681	7741.99
545.045	7782.44
545.41	7767.97
545.774	7711.03
546.138	7810.01
546.503	7765.49
546.867	7767.3
547.231	7791.93
547.595	7812.94
547.959	7784.92
548.324	7784.47
548.688	7818.37
549.052	7808.88
549.416	7835.09
549.779	7827.18
550.143	7835.32
550.507	7925.03
550.871	7795.09
551.235	7826.73
551.599	7932.04
551.962	7849.55
552.326	7861.76
552.689	7935.43
553.053	7886.61
553.417	7892.26
553.78	7930.91
554.143	7921.64
554.507	7972.94
554.87	7956.22
555.234	8007.97
555.597	7873.73
555.96	8037.8
556.323	7987.85
556.686	7978.59
557.05	8051.36
557.413	8057.23
557.776	8088.64
558.139	8068.3
558.502	8088.42
558.865	8101.52
559.228	8105.59
559.59	8151.92
559.953	8145.14
560.316	8188.53
560.679	8141.07
561.041	8224.01
561.404	8294.74
561.767	8305.36
562.129	8268.53
562.492	8387.84
562.854	8352.37
563.217	8369.99
563.579	8382.87
563.941	8477.79
564.304	8455.64
564.666	8491.12
565.028	8522.3
565.39	8508.97
565.753	8546.94
566.115	8464.23
566.477	8527.73
566.839	8588.07
567.201	8668.06
567.563	8654.96
567.925	8725.91
568.287	8753.94
568.648	8816.99
569.01	8808.62
569.372	8815.63
569.734	8785.12
570.095	8847.04
570.457	8926.36
570.819	8847.72
571.18	8855.18
571.542	9000.03
571.903	8951.9
572.265	8999.81
572.626	8996.19
572.987	9073.48
573.349	9075.51
573.71	9129.97
574.071	9053.59
574.432	9167.48
574.794	9229.63
575.155	9198.44
575.516	9266.01
575.877	9257.2
576.238	9317.31
576.599	9317.54
576.96	9379.23
577.32	9401.6
577.681	9388.5
578.042	9455.16
578.403	9461.94
578.763	9488.83
579.124	9508.49
579.485	9584.42
579.845	9594.14
580.206	9599.34
580.566	9622.16
580.927	9630.07
581.287	9700.8
581.648	9674.36
582.008	9739
582.368	9750.52
582.728	9834.13
583.089	9790.75
583.449	9889.5
583.809	9870.07
584.169	9898.09
584.529	9883.62
584.889	9955.49
585.249	9929.05
585.609	9919.78
585.969	10025.54
586.329	9960.23
586.688	10035.03
587.048	10073.45
587.408	10101.47
587.768	10011.53
588.127	10109.61
588.487	10131.53
588.846	10198.42
589.206	10146.44
589.565	10190.28
589.925	10255.59
590.284	10277.74
590.643	10300.11
591.003	10294.23
591.362	10355.25
591.721	10372.88
592.08	10363.39
592.44	10379.43
592.799	10406.1
593.158	10355.7
593.517	10434.12
593.876	10490.61
594.235	10453.55
594.593	10511.86
594.952	10517.28
595.311	10481.8
595.67	10460.78
596.029	10563.38
596.387	10591.63
596.746	10626.88
597.104	10693.32
597.463	10623.04
597.822	10749.36
598.18	10601.12
598.538	10657.84
598.897	10757.95
599.255	10701
599.613	10820.1
599.972	10754.11
600.33	10790.49
600.688	10875.46
601.046	10785.75
601.404	10873.88
601.762	10871.62
602.12	10840.66
602.478	10901.45
602.836	10902.35
603.194	10837.05
603.552	10908.23
603.91	10898.74
604.268	10916.37
604.625	10899.42
604.983	10919.3
605.341	10909.36
605.698	10990.49
606.056	11014.44
606.413	10968.34
606.771	11042.92
607.128	11007.21
607.485	10975.12
607.843	10941.45
608.2	11009.47
608.557	11100.09
608.914	11031.16
609.272	11095.57
609.629	11162.46
609.986	11112.29
610.343	11065.51
610.7	11140.09
611.057	11181.67
611.414	11216.47
611.771	11176.25
612.127	11239.75
612.484	11216.7
612.841	11250.59
613.198	11253.31
613.554	11222.57
613.911	11275.45
614.267	11292.63
614.624	11267.54
614.98	11306.86
615.337	11333.98
615.693	11332.4
616.05	11364.26
616.406	11350.03
616.762	11345.05
617.118	11331.95
617.475	11308.67
617.831	11279.97
618.187	11406.97
618.543	11345.05
618.899	11432.28
619.255	11367.43
619.611	11345.28
619.967	11496.46
620.323	11440.42
620.678	11473.86
621.034	11391.38
621.39	11412.62
621.746	11428.44
622.101	11501.66
622.457	11465.73
622.812	11433.19
623.168	11461.66
623.523	11460.31
623.879	11522
624.234	11394.32
624.589	11489.91
624.945	11523.58
625.3	11571.04
625.655	11460.53
626.01	11383.7
626.365	11537.14
626.72	11422.11
627.075	11401.55
627.43	11467.09
627.785	11371.49
628.14	11466.63
628.495	11444.04
628.85	11409.23
629.205	11344.6
629.559	11472.96
629.914	11382.34
630.269	11385.73
630.623	11385.28
630.978	11353.19
631.332	11403.13
631.687	11309.8
632.041	11346.64
632.396	11331.04
632.75	11332.4
633.104	11335.34
633.459	11231.39
633.813	11290.82
634.167	11197.49
634.521	11197.94
634.875	11287.66
635.229	11149.58
635.583	11122.91
635.937	11206.53
636.291	11280.2
636.645	11264.6
636.999	11164.95
637.352	11258.05
637.706	11077.94
638.06	11170.82
638.413	11175.34
638.767	11111.84
639.121	11110.94
639.474	10997.27
639.828	11037.27
640.181	11049.02
640.534	11016.7
640.888	11045.18
641.241	10917.04
641.594	10978.28
641.947	10977.83
642.301	10990.94
642.654	11006.31
643.007	10966.08
643.36	10971.05
643.713	10943.26
644.066	10974.22
644.419	10881.34
644.771	10873.88
645.124	10745.97
645.477	10721.57
645.83	10643.38
646.182	10612.64
646.535	10641.57
646.888	10627.79
647.24	10465.3
647.593	10625.3
647.945	10567.9
648.298	10482.48
648.65	10522.03
649.002	10517.28
649.355	10535.81
649.707	10563.83
650.059	10595.24
650.411	10816.48
650.763	10763.15
651.115	10809.7
651.467	10784.17
651.819	10748.69
652.171	10749.36
652.523	10744.84
652.875	10683.15
653.227	10772.41
653.578	10838.18
653.93	10704.39
654.282	10721.12
654.633	10722.7
654.985	10786.65
655.337	10830.04
655.688	10742.58
656.039	10821.45
656.391	10724.96
656.742	10703.94
657.094	10698.97
657.445	10787.33
657.796	10750.27
658.147	10758.18
658.498	10830.49
658.849	10836.14
659.2	10791.85
659.551	10774
659.902	10827.1
660.253	10765.86
660.604	10774.45
660.955	10730.16
661.306	10818.51
661.656	10749.14
662.007	10747.1
662.358	10813.54
662.708	10807.44
663.059	10797.5
663.409	10747.33
663.76	10799.31
664.11	10802.7
664.461	10742.13
664.811	10753.66
665.161	10783.04
665.511	10725.41
665.862	10777.16
666.212	10794.56
666.562	10706.65
666.912	10799.53
667.262	10758.18
667.612	10755.01
667.962	10714.56
668.312	10742.81
668.662	10809.93
669.011	10694.22
669.361	10797.05
669.711	10688.8
670.06	10705.3
670.41	10685.41
670.76	10630.5
671.109	10815.35
671.459	10734.22
671.808	10686.99
672.157	10662.59
672.507	10677.28
672.856	10724.96
673.205	10720.21
673.554	10650.61
673.904	10643.15
674.253	10713.66
674.602	10695.58
674.951	10550.5
675.3	10483.38
675.649	10650.16
675.998	10626.2
676.346	10585.75
676.695	10773.54
677.044	10577.39
677.393	10579.65
677.741	10620.1
678.09	10549.37
678.438	10551.18
678.787	10509.82
679.135	10594.57
679.484	10444.97
679.832	10469.82
680.181	10444.97
680.529	10493.33
680.877	10349.83
681.225	10487.9
681.573	10444.51
681.922	10337.17
682.27	10333.56
682.618	10322.93
682.966	10369.71
683.314	10384.63
683.661	10383.27
684.009	10282.94
684.357	10285.42
684.705	10273.67
685.053	10280.22
685.4	10202.03
685.748	10163.84
686.095	10245.2
686.443	10187.8
686.79	10057.18
687.138	10101.92
687.485	10136.95
687.832	10049.5
688.18	10087.91
688.527	9939.89
688.874	10053.11
689.221	9978.09
689.568	10031.87
689.915	9915.49
690.262	9911.65
690.609	9891.76
690.956	9854.25
691.303	9803.4
691.65	9768.83
691.997	9763.63
692.344	9681.82
692.69	9750.75
693.037	9696.74
693.383	9656.29
693.73	9611.77
694.077	9488.83
694.423	9583.07
694.769	9482.73
695.116	9463.97
695.462	9470.08
695.808	9435.27
696.155	9461.04
696.501	9347.59
696.847	9348.05
697.193	9280.93
697.539	9229.4
697.885	9179.91
698.231	9207.94
698.577	9203.64
698.923	9188.73
699.269	9103.53
699.614	9078
699.96	8995.51
700.306	8999.58
700.651	8962.97
700.997	8928.4
701.342	8911.22
701.688	8848.17
702.033	8858.11
702.379	8833.48
702.724	8781.28
703.069	8826.48
703.415	8672.36
703.76	8693.83
704.105	8678.23
704.45	8600.04
704.795	8645.01
705.14	8574.51
705.485	8562.98
705.83	8540.16
706.175	8533.6
706.52	8497.67
706.865	8505.13
707.209	8417.9
707.554	8464.23
707.899	8473.04
708.243	8403.66
708.588	8354.85
708.932	8324.57
709.277	8360.95
709.621	8298.81
709.966	8313.04
710.31	8285.02
710.654	8160.73
710.998	8245.48
711.342	8224.68
711.687	8158.02
712.031	8162.54
712.375	8103.78
712.719	8140.62
713.063	8109.21
713.407	8114.63
713.75	8084.12
714.094	8103.11
714.438	8033.5
714.782	8049.55
715.125	8026.05
715.469	7941.53
715.812	8005.93
716.156	7955.54
716.499	7930.91
716.843	7910.57
717.186	7896.78
717.53	8019.49
717.873	7897.24
718.216	7927.29
718.559	7824.24
718.902	7841.87
719.246	7866.95
719.589	7802.1
719.932	7757.35
720.275	7803.45
720.617	7763.45
720.96	7779.72
721.303	7787.86
721.646	7766.39
721.989	7713.06
722.331	7738.82
722.674	7734.3
723.016	7714.42
723.359	7699.95
723.701	7694.76
724.044	7696.34
724.386	7701.99
724.729	7640.52
725.071	7717.81
725.413	7662.89
725.755	7689.11
726.097	7624.25
726.439	7580.63
726.782	7603.68
727.124	7630.58
727.465	7606.62
727.807	7628.99
728.149	7609.56
728.491	7563.01
728.833	7647.52
729.175	7632.61
729.516	7543.57
729.858	7620.41
730.199	7556
730.541	7553.29
730.882	7520.3
731.224	7622.21
731.565	7539.28
731.906	7554.87
732.248	7563.69
732.589	7479.39
732.93	7511.94
733.271	7497.47
733.612	7533.4
733.953	7537.47
734.294	7585.83
734.635	7558.26
734.976	7551.26
735.317	7535.66
735.658	7521.88
735.999	7479.85
736.339	7542.44
736.68	7555.1
737.021	7547.41
737.361	7512.16
737.702	7646.62
738.042	7563.01
738.383	7550.8
738.723	7567.53
739.063	7532.95
739.404	7623.12
739.744	7579.73
740.084	7584.25
740.424	7613.85
740.764	7608.66
741.104	7628.99
741.444	7634.42
741.784	7657.47
742.124	7630.12
742.464	7689.11
742.804	7557.81
743.143	7610.92
743.483	7650.01
743.823	7671.71
744.162	7708.09
744.502	7771.36
744.841	7742.66
745.181	7811.59
745.52	7807.97
745.86	7860.4
746.199	7883.68
746.538	7918.7
746.877	7928.87
747.216	8016.55
747.556	8040.73
747.895	8035.76
748.234	8053.16
748.573	8088.42
748.911	8150.11
749.25	8223.1
749.589	8204.35
749.928	8337.45
750.267	8372.48
750.605	8457.9
750.944	8459.71
751.283	8537.22
751.621	8671
751.96	8671.23
752.298	8727.04
752.636	8842.3
752.975	8934.04
753.313	8968.17
753.651	9068.05
753.989	9182.17
754.327	9277.31
754.666	9393.24
755.004	9539.68
755.342	9663.74
755.679	9723.63
756.017	9809.73
756.355	9922.49
756.693	10026.45
757.031	10201.58
757.368	10313.67
757.706	10412.2
758.044	10525.87
758.381	10713.21
758.719	10824.84
759.056	11037.27
759.394	11159.52
759.731	11208.34
760.068	11395
760.405	11501.43
760.743	11710.24
761.08	11891.48
761.417	11993.85
761.754	12140.29
762.091	12281.08
762.428	12469.32
762.765	12469.77
763.102	12755.41
763.438	12899.36
763.775	13006.93
764.112	13185.68
764.449	13326.25
764.785	13508.16
765.122	13551.55
765.458	13663.19
765.795	13794.93
766.131	14009.62
766.467	14128.71
766.804	14315.82
767.14	14430.62
767.476	14517.85
767.812	14557.63
768.148	14871.29
768.485	14878.52
768.821	14989.25
769.157	15185.86
769.492	15236.25
769.828	15383.59
770.164	15321.22
770.5	15575.45
770.836	15687.54
771.171	15718.27
771.507	15933.18
771.842	15913.97
772.178	16057.93
772.513	16135.44
772.849	16271.48
773.184	16344.25
773.519	16388.09
773.855	16411.81
774.19	16538.14
774.525	16525.03
774.86	16649.1
775.195	16697.46
775.53	16746.72
775.865	16728.19
776.2	16800.96
776.535	16730.9
776.87	16860.39
777.205	16919.15
777.539	16937.68
777.874	17036.66
778.209	17007.73
778.543	17016.77
778.878	17005.47
779.212	17112.81
779.547	17105.36
779.881	17202.53
780.215	17088.41
780.55	17320.04
780.884	17156.2
781.218	17174.51
781.552	17242.53
781.886	17173.83
782.22	17141.74
782.554	17211.12
782.888	17071.01
783.222	17058.58
783.556	17113.26
783.889	17125.02
784.223	17061.97
784.557	17082.31
784.89	17211.57
785.224	17155.75
785.557	17101.97
785.891	17149.42
786.224	17096.54
786.558	17113.94
786.891	17047.73
787.224	17002.53
787.557	16910.33
787.891	16913.04
788.224	16972.48
788.557	17042.08
788.89	16999.6
789.223	16952.82
789.556	16873.05
789.888	16902.42
790.221	16938.13
790.554	16773.39
790.887	16865.81
791.219	16706.72
791.552	16732.03
791.884	16790.34
792.217	16614.97
792.549	16650.23
792.882	16574.75
793.214	16573.39
793.546	16608.42
793.879	16605.93
794.211	16383.34
794.543	16459.72
794.875	16442.32
795.207	16504.47
795.539	16407.52
795.871	16459.95
796.203	16286.39
796.535	16243.46
796.867	16362.1
797.198	16162.78
797.53	16191.48
797.862	16070.35
798.193	16184.02
798.525	16076
798.856	16052.73
799.188	16002.33
799.519	15902.9
799.85	15858.16
800.182	15976.57
800.513	15856.35
800.844	15841.66
801.175	15933.63
801.506	15866.52
801.837	15730.7
802.168	15699.06
802.499	15628.11
802.83	15580.42
803.161	15586.07
803.491	15652.29
803.822	15587.88
804.153	15490.48
804.483	15400.99
804.814	15383.14
805.145	15405.51
805.475	15429.69
805.805	15316.48
806.136	15352.41
806.466	15281.45
806.796	15298.17
807.126	15192.64
807.457	15139.08
807.787	15124.62
808.117	15106.76
808.447	14988.57
808.777	15184.05
809.107	14996.03
809.436	15001.68
809.766	15036.26
810.096	14906.09
810.426	14824.96
810.755	14821.12
811.085	14860.89
811.414	14826.09
811.744	14683.95
812.073	14774.34
812.403	14650.5
812.732	14654.8
813.061	14671.07
813.39	14633.56
813.719	14496.84
814.049	14632.65
814.378	14513.33
814.707	14499.1
815.036	14478.31
815.365	14428.59
815.693	14216.62
816.022	14279.21
816.351	14303.85
816.68	14296.62
817.008	14325.99
817.337	14160.57
817.665	14153.79
817.994	14180.91
818.322	14176.84
818.651	14130.52
818.979	14029.73
819.307	14175.71
819.636	13991.31
819.964	13944.76
820.292	14031.54
820.62	14089.39
820.948	13952.44
821.276	14078.32
821.604	13930.98
821.932	13968.49
822.259	14028.37
822.587	13991.76
822.915	13925.55
823.243	13986.79
823.57	13915.61
823.898	13921.94
824.225	13907.25
824.553	13945.44
824.88	13890.75
825.207	13979.34
825.535	13951.31
825.862	13963.74
826.189	13927.13
826.516	14046
826.843	14062.05
827.17	14068.82
827.497	14109.5
827.824	14033.12
828.151	14078.77
828.478	13994.02
828.805	14118.77
829.131	14089.39
829.458	14060.46
829.785	13938.88
830.111	13990.63
830.438	14111.76
830.764	14040.13
831.09	14120.35
831.417	14032.22
831.743	13988.83
832.069	14093.68
832.395	13882.84
832.722	14024.53
833.048	13944.76
833.374	14018.43
833.7	13875.61
834.026	13909.06
834.351	13925.33
834.677	13854.37
835.003	13964.42
835.329	13892.56
835.654	13876.06
835.98	13758.1
836.306	13843.97
836.631	13784.99
836.956	13855.5
837.282	13769.4
837.607	13759.91
837.932	13719
838.258	13716.74
838.583	13708.16
838.908	13586.35
839.233	13659.8
839.558	13594.04
839.883	13632.68
840.208	13566.01
840.533	13634.03
840.858	13607.14
841.182	13554.94
841.507	13517.43
841.832	13482.17
842.156	13390.65
842.481	13399.24
842.805	13380.48
843.13	13380.26
843.454	13337.32
843.778	13243.76
844.103	13243.76
844.427	13232.24
844.751	13173.71
845.075	13159.02
845.399	13218.45
845.723	13003.77
846.047	13029.08
846.371	12871.12
846.695	12970.32
847.019	12861.85
847.343	12820.72
847.666	12780.95
847.99	12690.1
848.313	12811.68
848.637	12615.76
848.96	12585.25
849.284	12611.91
849.607	12512.48
849.931	12457.12
850.254	12439.49
850.577	12290.34
850.9	12155.88
851.223	12146.62
851.546	12168.08
851.869	12106.84
852.192	12148.65
852.515	12060.52
852.838	11985.72
853.161	11967.41
853.483	11940.29
853.806	11882.67
854.129	11843.35
854.451	11835.89
854.774	11726.29
855.096	11761.99
855.419	11715.44
855.741	11628.44
856.063	11616.91
856.385	11542.34
856.708	11562.45
857.03	11536.24
857.352	11550.7
857.674	11476.58
857.996	11383.02
858.318	11337.15
858.64	11377.14
858.961	11270.03
859.283	11345.96
859.605	11178.51
859.926	11209.69
860.248	11192.06
860.57	11187.09
860.891	11161.33
861.212	11148.45
861.534	11112.97
861.855	11020.32
862.176	11025.74
862.498	11045.4
862.819	11055.8
863.14	10929.02
863.461	10924.05
863.782	10968.34
864.103	10969.92
864.424	10942.35
864.745	10965.63
865.065	10858.97
865.386	10831.17
865.707	10838.18
866.027	10766.31
866.348	10841.57
866.668	10803.15
866.989	10740.32
867.309	10697.84
867.63	10757.27
867.95	10692.64
868.27	10656.71
868.59	10606.32
868.91	10680.89
869.23	10611.51
869.55	10539.2
869.87	10636.37
870.19	10520.44
870.51	10601.12
870.83	10570.39
871.15	10485.87
871.469	10555.92
871.789	10552.99
872.109	10503.5
872.428	10460.78
872.748	10519.09
873.067	10408.36
873.386	10483.38
873.706	10472.31
874.025	10396.38
874.344	10391.63
874.663	10385.08
874.982	10305.99
875.301	10251.52
875.62	10327.45
875.939	10283.16
876.258	10311.18
876.577	10220.56
876.896	10256.27
877.214	10136.5
877.533	10233.45
877.852	10134.92
878.17	10238.64
878.489	10230.73
878.807	10118.42
879.125	10131.75
879.444	10088.14
879.762	10102.83
880.08	10010.85
880.398	10029.16
880.716	9973.34
881.034	9985.09
881.352	9957.75
881.67	9923.4
881.988	9870.52
882.306	9927.92
882.624	9867.13
882.941	9810.63
883.259	9798.65
883.577	9794.36
883.894	9791.2
884.212	9811.08
884.529	9821.93
884.846	9783.97
885.164	9715.49
885.481	9644.53
885.798	9675.95
886.115	9690.86
886.432	9612.22
886.75	9629.39
887.067	9602.28
887.383	9568.38
887.7	9559.79
888.017	9543.75
888.334	9439.34
888.651	9517.31
888.967	9422.39
889.284	9413.13
889.6	9355.05
889.917	9364.54
890.233	9396.41
890.55	9296.07
890.866	9283.41
891.182	9276.41
891.498	9199.35
891.815	9186.69
892.131	9172.46
892.447	9168.39
892.763	9109.86
893.079	9100.59
893.395	9026.47
893.71	9043.42
894.026	8975.63
894.342	8940.37
894.657	8931.78
894.973	8898.11
895.289	8895.85
895.604	8836.87
895.92	8797.33
896.235	8784.44
896.55	8757.78
896.865	8728.4
897.181	8708.06
897.496	8682.07
897.811	8658.57
898.126	8604.34
898.441	8570.66
898.756	8608.63
899.071	8494.73
899.386	8534.73
899.7	8420.16
900.015	8416.54
900.33	8323.44
900.644	8308.07
900.959	8315.53
901.273	8297.45
901.588	8261.97
901.902	8183.1
902.216	8214.74
902.531	8174.29
902.845	8158.92
903.159	8105.82
903.473	8064.01
903.787	8034.41
904.101	8024.24
904.415	7988.76
904.729	8019.94
905.042	7967.06
905.356	7906.05
905.67	7829.22
905.984	7888.42
906.297	7795.32
906.611	7724.59
906.924	7722.78
907.237	7703.57
907.551	7722.33
907.864	7638.94
908.177	7689.11
908.491	7605.72
908.804	7540.18
909.117	7502.22
909.43	7540.64
909.743	7385.84
910.056	7469.68
910.368	7444.37
910.681	7441.88
910.994	7344.71
911.307	7322.11
911.619	7231.04
911.932	7259.74
912.244	7221.55
912.557	7179.97
912.869	7132.96
913.181	7101.78
913.494	7127.76
913.806	7119.63
914.118	7075.11
914.43	7034.43
914.742	6979.97
915.054	6918.73
915.366	6946.75
915.678	6898.17
915.99	6890.03
916.302	6832.86
916.613	6790.15
916.925	6761.45
917.236	6770.94
917.548	6694.56
917.859	6758.06
918.171	6686.19
918.482	6616.14
918.794	6603.71
919.105	6633.31
919.416	6559.42
919.727	6556.48
920.038	6525.52
920.349	6507.22
920.66	6493.2
920.971	6476.26
921.282	6421.79
921.593	6357.84
921.903	6389.03
922.214	6339.76
922.525	6318.52
922.835	6330.05
923.146	6230.84
923.456	6229.03
923.767	6192.2
924.077	6182.48
924.387	6211.18
924.697	6116.27
925.008	6105.42
925.318	6082.82
925.628	6114.01
925.938	6096.61
926.248	6017.29
926.558	5972.54
926.867	5994.24
927.177	5933.67
927.487	5885.99
927.796	5887.8
928.106	5925.31
928.416	5836.5
928.725	5853.9
929.034	5754.69
929.344	5794.24
929.653	5767.35
929.962	5689.84
930.271	5659.1
930.581	5696.62
930.89	5634.24
931.199	5615.04
931.508	5547.02
931.817	5583.85
932.125	5552.89
932.434	5517.19
932.743	5448.26
933.051	5463.85
933.36	5450.29
933.669	5426.11
933.977	5448.03
934.286	5425.21
934.594	5481.71
934.902	5344.76
935.21	5336.17
935.519	5290.75
935.827	5311.32
936.135	5253.01
936.443	5229.06
936.751	5218.21
937.059	5195.84
937.367	5220.47
937.674	5157.87
937.982	5119.68
938.29	5090.53
938.597	5134.14
938.905	5052.34
939.213	5038.55
939.52	5014.15
939.827	4995.62
940.135	4978.44
940.442	5052.11
940.749	4952.23
941.056	4953.81
941.363	4893.92
941.67	4930.31
941.977	4822.51
942.284	4881.5
942.591	4856.41
942.898	4814.83
943.205	4797.43
943.511	4728.51
943.818	4734.61
944.125	4679.24
944.431	4740.03
944.738	4711.1
945.044	4671.78
945.35	4689.86
945.657	4632.69
945.963	4586.14
946.269	4590.43
946.575	4566.93
946.881	4570.32
947.187	4479.47
947.493	4508.85
947.799	4508.62
948.105	4479.02
948.41	4476.53
948.716	4415.97
949.022	4386.14
949.327	4381.62
949.633	4357.44
949.938	4370.1
950.244	4354.28
950.549	4289.42
950.854	4297.56
951.16	4260.04
951.465	4222.3
951.77	4258.24
952.075	4200.61
952.38	4193.15
952.685	4220.72
952.99	4143.21
953.294	4141.18
953.599	4171.23
953.904	4088.3
954.209	4070.22
954.513	4081.52
954.818	4051.46
955.122	4027.28
955.426	4042.42
955.731	4002.42
956.035	3954.74
956.339	3932.82
956.643	3946.83
956.948	3936.44
957.252	3934.18
957.556	3917.91
957.86	3866.38
958.163	3863.67
958.467	3848.98
958.771	3833.39
959.075	3853.27
959.378	3787.51
959.682	3800.17
959.985	3782.54
960.289	3736.22
960.592	3754.29
960.896	3708.87
961.199	3691.02
961.502	3716.33
961.805	3670.45
962.108	3662.09
962.411	3617.8
962.714	3621.42
963.017	3605.15
963.32	3631.59
963.623	3604.24
963.926	3581.42
964.228	3515.88
964.531	3573.28
964.833	3521.31
965.136	3507.97
965.438	3507.29
965.741	3509.1
966.043	3464.36
966.345	3493.96
966.648	3422.55
966.95	3400.86
967.252	3407.64
967.554	3388.88
967.856	3399.73
968.158	3317.92
968.46	3347.75
968.761	3321.54
969.063	3313.4
969.365	3322.67
969.666	3315.66
969.968	3273.4
970.269	3254.19
970.571	3291.93
970.872	3202.67
971.174	3257.58
971.475	3206.74
971.776	3153.18
972.077	3220.75
972.378	3184.59
972.679	3175.78
972.98	3144.59
973.281	3129.23
973.582	3114.76
973.883	3095.55
974.183	3075.89
974.484	3085.38
974.785	3080.87
975.085	3060.75
975.386	3001.09
975.686	3027.31
975.986	3003.58
976.287	3009.68
976.587	2949.8
976.887	2966.07
977.187	2946.63
977.487	2957.03
977.787	2920.87
978.087	2888.78
978.387	2893.75
978.687	2919.97
978.987	2867.76
979.286	2839.74
979.586	2859.4
979.885	2824.6
980.185	2785.96
980.484	2810.59
980.784	2775.11
981.083	2769.24
981.382	2755.9
981.682	2760.87
981.981	2763.59
982.28	2747.77
982.579	2706.64
982.878	2722.23
983.177	2659.18
983.475	2693.3
983.774	2653.76
984.073	2642.68
984.372	2666.19
984.67	2635
984.969	2648.11
985.267	2615.57
985.566	2604.04
985.864	2586.42
986.162	2567.66
986.461	2540.31
986.759	2564.04
987.057	2535.12
987.355	2541.67
987.653	2512.07
987.951	2518.39
988.249	2496.02
988.547	2500.09
988.844	2490.82
989.142	2484.95
989.44	2459.86
989.737	2451.05
990.035	2421.9
990.332	2425.52
990.63	2398.4
990.927	2410.37
991.224	2370.38
991.521	2373.77
991.819	2326.76
992.116	2360.88
992.413	2383.03
992.71	2362.47
993.006	2315.91
993.303	2330.15
993.6	2311.85
993.897	2294.22
994.193	2303.71
994.49	2264.39
994.787	2256.71
995.083	2221.68
995.379	2236.37
995.676	2217.61
995.972	2202.02
996.268	2219.19
996.565	2173.77
996.861	2206.99
997.157	2157.05
997.453	2158.4
997.749	2149.59
998.044	2128.12
998.34	2154.11
998.636	2110.27
998.932	2105.07
999.227	2093.55
999.523	2063.49
999.818	2083.6
1000.114	2038.86
1000.409	2057.84
1000.704	2044.06
1001	1977.39
1001.295	1991.85
1001.59	2015.13
1001.885	2009.48
1002.18	1984.85
1002.475	1964.06
1002.77	1939.43
1003.065	1941.23
1003.359	1963.83
1003.654	1928.35
1003.949	1901.01
1004.243	1892.87
1004.538	1901.91
1004.832	1883.61
1005.127	1864.85
1005.421	1876.15
1005.715	1856.26
1006.009	1836.6
1006.304	1831.18
1006.598	1853.55
1006.892	1833.44
1007.186	1796.38
1007.48	1796.61
1007.773	1772.65
1008.067	1767.23
1008.361	1751.41
1008.655	1771.52
1008.948	1775.36
1009.242	1700.34
1009.535	1726.78
1009.829	1697.85
1010.122	1715.48
1010.415	1674.57
1010.708	1676.83
1011.001	1678.42
1011.295	1679.32
1011.588	1675.93
1011.881	1644.29
1012.173	1649.04
1012.466	1623.73
1012.759	1616.95
1013.052	1616.27
1013.344	1600.9
1013.637	1578.31
1013.93	1581.92
1014.222	1587.12
1014.514	1574.01
1014.807	1585.54
1015.099	1543.73
1015.391	1544.41
1015.683	1523.62
1015.976	1538.08
1016.268	1512.54
1016.56	1480.91
1016.851	1494.92
1017.143	1484.98
1017.435	1485.65
1017.727	1469.16
1018.018	1474.81
1018.31	1420.34
1018.602	1405.66
1018.893	1451.08
1019.185	1392.77
1019.476	1405.43
1019.767	1389.16
1020.058	1386.9
1020.35	1386.22
1020.641	1372.89
1020.932	1357.07
1021.223	1348.26
1021.514	1351.87
1021.804	1333.11
1022.095	1320.69
1022.386	1315.49
1022.677	1323.17
1022.967	1320.01
1023.258	1298.31
1023.548	1292.66
1023.839	1287.92
1024.129	1254.25
1024.419	1282.49
1024.709	1236.39
1025	1254.47
1025.29	1237.75
1025.58	1214.93
1025.87	1227.81
1026.16	1209.5
1026.449	1217.19
1026.739	1183.51
1027.029	1195.04
1027.319	1198.2
1027.608	1178.77
1027.898	1156.85
1028.187	1133.57
1028.477	1144.87
1028.766	1149.16
1029.055	1138.09
1029.344	1130.18
1029.634	1093.8
1029.923	1103.06
1030.212	1105.1
1030.501	1100.8
1030.79	1108.49
1031.078	1073.46
1031.367	1073.23
1031.656	1099.67
1031.945	1076.85
1032.233	1033.69
1032.522	1039.34
1032.81	1039.11
1033.099	1055.38
1033.387	1036.4
1033.675	1031.43
1033.963	1014.93
1034.251	1009.51
1034.54	1016.06
1034.828	1018.77
1035.116	999.34
1035.403	993.01
1035.691	964.76
1035.979	986.01
1036.267	982.39
1036.554	981.03
1036.842	951.66
1037.129	992.11
1037.417	983.07
1037.704	942.84
1037.992	946.68
1038.279	934.48
1038.566	921.83
1038.853	921.83
1039.14	921.83
