Data from hue_60_FLMS001491_49.txt Node
Date: Mon Feb 06 15:17:27 GMT 2017
User: dcchb
Spectrometer: FLMS00149
Trigger mode: 0
Integration Time (sec): 2.000000E-2
Scans to average: 10
Electric dark correction enabled: true
Nonlinearity correction enabled: false
Boxcar width: 0
XAxis mode: Wavelengths
Number of Pixels in Spectrum: 2048
>>>>>Begin Spectral Data<<<<<
341.393	-17.08
341.776	-17.08
342.16	-17.08
342.543	-55.49
342.927	-67.24
343.31	-46.91
343.693	-83.74
344.077	-76.74
344.46	-60.92
344.843	-53.69
345.226	-37.87
345.61	-27.7
345.993	-29.73
346.376	-22.05
346.759	18.63
347.142	41.23
347.525	40.32
347.908	61.11
348.291	67.67
348.674	93.2
349.057	117.16
349.44	120.1
349.823	142.24
350.206	151.06
350.588	197.83
350.971	210.71
351.354	211.39
351.737	249.81
352.119	256.14
352.502	261.33
352.884	269.47
353.267	284.16
353.65	283.03
354.032	300.88
354.414	310.15
354.797	310.15
355.179	345.63
355.562	307.89
355.944	327.32
356.326	339.52
356.709	334.33
357.091	310.15
357.473	348.56
357.855	337.72
358.238	330.26
358.62	323.71
359.002	355.8
359.384	349.24
359.766	323.93
360.148	333.2
360.53	333.42
360.912	327.55
361.294	323.48
361.676	321.9
362.057	331.39
362.439	347.89
362.821	347.89
363.203	343.14
363.584	349.02
363.966	317.38
364.348	307.44
364.729	323.93
365.111	317.15
365.493	309.7
365.874	321.9
366.256	297.27
366.637	324.38
367.019	303.82
367.4	306.53
367.781	323.71
368.163	316.7
368.544	316.47
368.925	315.12
369.306	305.63
369.688	305.85
370.069	304.95
370.45	327.55
370.831	312.86
371.212	322.58
371.593	306.98
371.974	297.27
372.355	298.17
372.736	317.38
373.117	320.77
373.498	318.96
373.879	320.99
374.26	313.54
374.641	317.83
375.021	303.59
375.402	327.77
375.783	301.79
376.163	322.12
376.544	337.04
376.925	317.38
377.305	318.28
377.686	351.05
378.066	324.38
378.447	356.93
378.827	323.48
379.208	335.68
379.588	329.13
379.968	331.16
380.349	341.11
380.729	341.33
381.109	342.24
381.489	333.65
381.87	320.09
382.25	326.42
382.63	338.62
383.01	342.91
383.39	325.74
383.77	346.98
384.15	337.94
384.53	353.99
384.91	351.05
385.29	351.95
385.67	325.74
386.049	340.88
386.429	337.49
386.809	357.38
387.189	367.55
387.568	340.88
387.948	340.65
388.328	339.52
388.707	343.59
389.087	369.35
389.466	344.27
389.846	353.76
390.225	346.3
390.605	373.87
390.984	368.45
391.363	366.42
391.743	356.02
392.122	349.24
392.501	358.96
392.881	386.76
393.26	359.41
393.639	367.55
394.018	371.84
394.397	367.77
394.776	381.56
395.155	361.22
395.534	353.99
395.913	370.94
396.292	349.47
396.671	364.38
397.05	369.81
397.429	372.74
397.808	363.71
398.186	365.96
398.565	374.33
398.944	371.39
399.323	373.2
399.701	360.99
400.08	379.98
400.458	374.55
400.837	385.4
401.215	388.34
401.594	398.05
401.972	405.96
402.351	399.64
402.729	391.73
403.107	391.05
403.486	387.66
403.864	397.15
404.242	400.77
404.62	399.18
404.999	391.5
405.377	389.92
405.755	380.43
406.133	400.77
406.511	401.67
406.889	401.22
407.267	410.94
407.645	406.42
408.023	398.51
408.401	415
408.779	406.42
409.156	406.87
409.534	408.45
409.912	420.88
410.29	424.27
410.667	412.29
411.045	424.04
411.422	452.06
411.8	426.98
412.178	441.67
412.555	442.8
412.933	448.22
413.31	430.14
413.687	452.06
414.065	456.81
414.442	455
414.819	462.01
415.197	464.27
415.574	461.78
415.951	444.61
416.328	482.35
416.705	445.74
417.082	468.34
417.46	464.49
417.837	488.9
418.214	471.05
418.591	472.18
418.967	491.16
419.344	481.44
419.721	490.71
420.098	492.97
420.475	484.61
420.852	485.28
421.228	484.61
421.605	492.52
421.982	502.91
422.358	490.93
422.735	508.56
423.111	495
423.488	516.92
423.864	514.89
424.241	511.95
424.617	512.18
424.994	541.33
425.37	506.53
425.746	515.57
426.123	511.05
426.499	511.27
426.875	541.55
427.251	556.47
427.627	541.1
428.003	548.79
428.379	562.34
428.756	543.36
429.132	550.59
429.507	553.53
429.883	560.31
430.259	543.81
430.635	567.77
431.011	579.74
431.387	593.3
431.763	586.52
432.138	562.8
432.514	583.81
432.89	599.63
433.265	581.1
433.641	610.7
434.016	614.55
434.392	597.15
434.767	618.61
435.143	619.97
435.518	600.08
435.894	635.11
436.269	625.62
436.644	640.99
437.02	630.14
437.395	665.39
437.77	628.56
438.145	650.25
438.52	664.94
438.895	658.39
439.271	635.11
439.646	662.91
440.021	666.52
440.395	677.37
440.77	695.22
441.145	684.37
441.52	693.19
441.895	673.3
442.27	674.43
442.645	675.56
443.019	700.87
443.394	693.41
443.769	690.48
444.143	698.61
444.518	697.26
444.892	718.95
445.267	709.23
445.641	713.3
446.016	692.74
446.39	732.96
446.764	727.31
447.139	712.4
447.513	734.77
447.887	746.07
448.262	758.05
448.636	742
449.01	740.64
449.384	763.24
449.758	747.65
450.132	753.75
450.506	774.77
450.88	782
451.254	783.81
451.628	757.59
452.002	767.99
452.376	786.97
452.75	791.72
453.123	810.93
453.497	829.23
453.871	831.04
454.244	833.07
454.618	843.24
454.992	838.49
455.365	827.42
455.739	849.79
456.112	876.23
456.486	864.26
456.859	899.96
457.232	871.49
457.606	862.68
457.979	920.07
458.352	934.31
458.725	929.57
459.099	924.37
459.472	958.94
459.845	952.84
460.218	966.85
460.591	949.68
460.964	991.03
461.337	974.54
461.71	1018.6
462.083	1022.9
462.456	1029.22
462.829	1049.56
463.201	1029.45
463.574	1045.72
463.947	1078.71
464.32	1092.73
464.692	1122.1
465.065	1113.29
465.438	1144.7
465.81	1167.3
466.183	1137.92
466.555	1173.85
466.928	1191.93
467.3	1179.95
467.672	1199.39
468.045	1253.17
468.417	1267.41
468.789	1273.06
469.161	1293.4
469.534	1327.97
469.906	1317.35
470.278	1374.75
470.65	1378.14
471.022	1433.96
471.394	1434.41
471.766	1473.73
472.138	1494.97
472.51	1491.59
472.882	1566.61
473.253	1597.57
473.625	1605.03
473.997	1660.62
474.369	1690.68
474.74	1721.86
475.112	1734.97
475.484	1789.43
475.855	1836.21
476.227	1894.96
476.598	1930.67
476.97	2001.4
477.341	2002.76
477.713	2092.7
478.084	2136.54
478.455	2228.74
478.827	2230.55
479.198	2353.03
479.569	2394.61
479.94	2445.91
480.311	2542.86
480.682	2591.44
481.053	2685.45
481.424	2783.3
481.795	2871.89
482.166	2902.62
482.537	3002.05
482.908	3073.24
483.279	3130.64
483.65	3297.87
484.021	3341.48
484.391	3452.21
484.762	3521.59
485.133	3607.46
485.503	3762.03
485.874	3845.65
486.244	3949.37
486.615	4135.58
486.985	4208.35
487.356	4347.56
487.726	4476.37
488.097	4593.65
488.467	4666.64
488.837	4856.69
489.207	4936.01
489.578	5119.06
489.948	5227.76
490.318	5376.45
490.688	5467.07
491.058	5611.93
491.428	5791.36
491.798	5889.44
492.168	6120.39
492.538	6228.41
492.908	6337.11
493.278	6484.22
493.648	6576.42
494.017	6708.62
494.387	6908.62
494.757	7063.64
495.126	7193.36
495.496	7309.74
495.866	7482.84
496.235	7631.76
496.605	7810.06
496.974	7912.89
497.344	8086.44
497.713	8190.62
498.082	8371.4
498.452	8550.61
498.821	8698.18
499.19	8794.9
499.559	8933.2
499.928	9040.99
500.298	9199.86
500.667	9376.58
501.036	9504.71
501.405	9625.61
501.774	9729.56
502.143	9897.69
502.512	10061.76
502.88	10200.06
503.249	10283.44
503.618	10392.37
503.987	10573.61
504.356	10676.43
504.724	10845.46
505.093	10922.52
505.462	11030.77
505.83	11215.17
506.199	11347.82
506.567	11586.69
506.936	11621.04
507.304	11831.65
507.672	11861.71
508.041	12075.04
508.409	12248.82
508.777	12309.38
509.145	12460.34
509.514	12564.29
509.882	12738.75
510.25	12812.19
510.618	12974.22
510.986	13046.08
511.354	13125.86
511.722	13369.46
512.09	13520.87
512.458	13552.06
512.826	13813.29
513.193	13827.08
513.561	13989.34
513.929	14098.71
514.297	14335.54
514.664	14414.64
515.032	14489.66
515.4	14708.64
515.767	14754.29
516.135	14862.31
516.502	14859.37
516.869	15198.57
517.237	15262.75
517.604	15291.9
517.972	15461.84
518.339	15572.8
518.706	15695.51
519.073	15780.02
519.44	15991.99
519.808	16116.06
520.175	16103.86
520.542	16384.3
520.909	16454.36
521.276	16573.45
521.643	16756.95
522.009	16865.87
522.376	17001.23
522.743	17119.65
523.11	17369.13
523.477	17511.28
523.843	17708.79
524.21	17808.67
524.577	17930.7
524.943	18017.25
525.31	18198.04
525.676	18365.72
526.043	18576.56
526.409	18638.7
526.776	18855.65
527.142	18957.79
527.508	18952.59
527.874	19160.05
528.241	19202.98
528.607	19454.95
528.973	19531.56
529.339	19475.74
529.705	19833.93
530.071	19847.94
530.437	20054.49
530.803	20208.61
531.169	20350.07
531.535	20238.89
531.901	20488.83
532.267	20467.13
532.632	20601.59
532.998	20783.96
533.364	20864.86
533.73	20981.02
534.095	21135.14
534.461	21176.04
534.826	21365.41
535.192	21292.42
535.557	21607.89
535.923	21558.18
536.288	21744.39
536.653	21783.71
537.019	21682.69
537.384	21889.47
537.749	22025.06
538.114	22051.95
538.479	22091.04
538.845	22262.11
539.21	22202
539.575	22289.23
539.94	22380.98
540.305	22520.64
540.67	22481.99
541.034	22662.1
541.399	22719.5
541.764	22786.17
542.129	22850.12
542.494	22826.39
542.858	23044.69
543.223	23090.11
543.587	23287.85
543.952	23236.32
544.316	23335.08
544.681	23339.15
545.045	23485.36
545.41	23571.46
545.774	23679.93
546.138	23617.56
546.503	23699.36
546.867	23742.07
547.231	23954.72
547.595	23963.54
547.959	24121.95
548.324	24157.66
548.688	24090.99
549.052	24290.08
549.416	24314.49
549.779	24396.29
550.143	24365.56
550.507	24603.07
550.871	24661.15
551.235	24661.15
551.599	24841.48
551.962	24851.42
552.326	24921.48
552.689	25068.59
553.053	25036.28
553.417	25209.83
553.78	25526.66
554.143	25462.71
554.507	25581.35
554.87	25669.25
555.234	25899.08
555.597	25783.15
555.96	25788.57
556.323	25971.39
556.686	26056.81
557.05	26166.19
557.413	26251.16
557.776	26377.03
558.139	26471.27
558.502	26592.62
558.865	26713.52
559.228	26858.15
559.59	26896.79
559.953	27010.91
560.316	27321.41
560.679	27219.04
561.041	27418.14
561.404	27485.48
561.767	27670.11
562.129	27644.8
562.492	27948.29
562.854	28071
563.217	27958.46
563.579	28160.04
563.941	28290.43
564.304	28455.4
564.666	28677.08
565.028	28558.22
565.39	28846.35
565.753	28876.85
566.115	29012.67
566.477	29099.22
566.839	29195.49
567.201	29505.76
567.563	29342.6
567.925	29609.72
568.287	29578.08
568.648	29754.34
569.01	29969.03
569.372	30085.18
569.734	29994.34
570.095	30256.25
570.457	30329.7
570.819	30386.64
571.18	30386.64
571.542	30508.45
571.903	30666.19
572.265	30781.89
572.626	30844.03
572.987	30999.28
573.349	31111.6
573.71	31247.64
574.071	31172.39
574.432	31365.38
574.794	31634.07
575.155	31492.6
575.516	31557.01
575.877	31718.36
576.238	31879.03
576.599	31862.31
576.96	31825.25
577.32	31794.52
577.681	32056.66
578.042	32152.25
578.403	32213.94
578.763	32165.13
579.124	32297.33
579.485	32390.89
579.845	32488.96
580.206	32485.35
580.566	32504.78
580.927	32523.54
581.287	32694.61
581.648	32537.1
582.008	32681.27
582.368	32505.23
582.728	32767.6
583.089	32632.69
583.449	32635.62
583.809	32794.04
584.169	32832.68
584.529	32680.6
584.889	32934.15
585.249	32737.32
585.609	32651.9
585.969	32954.03
586.329	32929.85
586.688	32953.81
587.048	32888.27
587.408	32799.01
587.768	32932.34
588.127	32910.87
588.487	32919.01
588.846	33050.76
589.206	32888.27
589.565	33007.37
589.925	33074.48
590.284	32959.68
590.643	33157.65
591.003	33169.62
591.362	33203.07
591.721	33251.88
592.08	33216.63
592.44	33261.82
592.799	33348.83
593.158	33299.56
593.517	33376.62
593.876	33444.19
594.235	33209.17
594.593	33350.18
594.952	33412.78
595.311	33215.72
595.67	33428.15
596.029	33590.18
596.387	33561.48
596.746	33706.33
597.104	33479.9
597.463	33482.38
597.822	33712.43
598.18	33459.11
598.538	33548.37
598.897	33770.74
599.255	33469.73
599.613	34080.78
599.972	33833.79
600.33	34028.58
600.688	33745.43
601.046	33946.55
601.404	34152.87
601.762	34049.83
602.12	34222.93
602.478	34090.73
602.836	34180.67
603.194	34008.92
603.552	34144.96
603.91	34066.32
604.268	34287.56
604.625	34196.49
604.983	34418.63
605.341	34233.32
605.698	34483.03
606.056	34451.17
606.413	34501.79
606.771	34525.74
607.128	34584.27
607.485	34499.08
607.843	34590.15
608.2	34779.98
608.557	34776.59
608.914	34745.17
609.272	34874.66
609.629	35109.91
609.986	35116.69
610.343	34953.98
610.7	35275.78
611.057	35313.29
611.414	35290.47
611.771	35360.53
612.127	35474.19
612.484	35552.61
612.841	35580.86
613.198	35417.92
613.554	35500.63
613.911	35809.78
614.267	35701.31
614.624	35669.9
614.98	35875.54
615.337	35992.37
615.693	35918.02
616.05	35875.77
616.406	36122.09
616.762	35951.7
617.118	35733.62
617.475	35936.56
617.831	36046.16
618.187	36167.06
618.543	36220.62
618.899	36340.84
619.255	36332.93
619.611	36280.95
619.967	36528.86
620.323	36606.59
620.678	36347.39
621.034	36455.41
621.39	36571.79
621.746	36464.45
622.101	36841.16
622.457	36705.35
622.812	36773.6
623.168	36853.82
623.523	36713.71
623.879	36879.81
624.234	36688.85
624.589	36795.29
624.945	36865.8
625.3	36854.05
625.655	36948.73
626.01	36913.48
626.365	36944.44
626.72	36893.59
627.075	36870.09
627.43	36873.93
627.785	36802.3
628.14	36991.89
628.495	36909.86
628.85	36980.14
629.205	36770.66
629.559	37009.3
629.914	36854.05
630.269	36889.75
630.623	36786.02
630.978	36824.44
631.332	36973.36
631.687	37031.44
632.041	36892.24
632.396	36994.15
632.75	36768.4
633.104	36933.59
633.459	36723.43
633.813	36796.65
634.167	36580.38
634.521	36655.86
634.875	36775.18
635.229	36833.03
635.583	36607.5
635.937	36570.66
636.291	36585.58
636.645	36524.11
636.999	36524.11
637.352	36610.66
637.706	36445.69
638.06	36549.42
638.413	36432.14
638.767	36364.11
639.121	36527.5
639.474	36188.53
639.828	36245.47
640.181	36363.89
640.534	36377.45
640.888	36206.38
641.241	36100.39
641.594	36116.44
641.947	36279.14
642.301	36133.16
642.654	36177.9
643.007	36197.57
643.36	36089.55
643.713	36119.6
644.066	36219.49
644.419	36015.65
644.771	35757.35
645.124	35380.19
645.477	35282.56
645.83	35214.99
646.182	35044.6
646.535	34831.95
646.888	35013.64
647.24	34834.44
647.593	35178.61
647.945	35041.89
648.298	34772.52
648.65	34742.01
649.002	34709.24
649.355	34829.24
649.707	34796.47
650.059	34908.33
650.411	35301.77
650.763	35334.09
651.115	35583.12
651.467	35573.85
651.819	35519.39
652.171	35549.67
652.523	35442.56
652.875	35398.04
653.227	35234.43
653.578	35478.04
653.93	35290.7
654.282	35212.73
654.633	35291.15
654.985	35278.72
655.337	35306.29
655.688	35247.76
656.039	35309.9
656.391	34967.77
656.742	35160.3
657.094	35039.86
657.445	35236.46
657.796	35220.19
658.147	35114.43
658.498	35097.26
658.849	35117.82
659.2	35050.93
659.551	34950.14
659.902	35060.87
660.253	35047.99
660.604	35132.51
660.955	34853.65
661.306	35014.09
661.656	34964.38
662.007	35043.25
662.358	35085.5
662.708	34980.2
663.059	34999.86
663.409	34782.91
663.76	35098.84
664.11	34817.71
664.461	35013.64
664.811	34907.43
665.161	34959.86
665.511	34939.52
665.862	35085.73
666.212	34880.54
666.562	34984.72
666.912	34869.92
667.262	34855.45
667.612	34795.57
667.962	34859.07
668.312	34906.53
668.662	34944.94
669.011	34858.84
669.361	34775.23
669.711	34765.96
670.06	34695.23
670.41	34569.59
670.76	34622.92
671.109	34858.62
671.459	34748.34
671.808	34622.47
672.157	34747.43
672.507	34511.51
672.856	34530.49
673.205	34550.15
673.554	34641.22
673.904	34474.45
674.253	34634.67
674.602	34617.27
674.951	34063.16
675.3	33830.4
675.649	34322.81
675.998	34421.34
676.346	34464.5
676.695	34614.56
677.044	34235.36
677.393	34471.51
677.741	34412.75
678.09	34301.57
678.438	34350.61
678.787	34325.3
679.135	34406.65
679.484	34177.73
679.832	34157.84
680.181	33945.87
680.529	34177.05
680.877	33932.09
681.225	33941.81
681.573	34114.91
681.922	34031.75
682.27	33863.16
682.618	33806.67
682.966	33701.13
683.314	33731.87
683.661	33705.65
684.009	33535.49
684.357	33500.01
684.705	33436.28
685.053	33371.2
685.4	33434.47
685.748	33241.94
686.095	33336.4
686.443	33156.52
686.79	33206.23
687.138	33189.51
687.485	33143.86
687.832	33021.83
688.18	32949.51
688.527	32864.09
688.874	33038.33
689.221	32751.1
689.568	32714.04
689.915	32575.97
690.262	32637.43
690.609	32492.58
690.956	32577.55
691.303	32428.85
691.65	32332.58
691.997	32169.2
692.344	32125.36
692.69	32073.15
693.037	32195.86
693.383	31841.07
693.73	31979.82
694.077	31821.64
694.423	31769.21
694.769	31732.6
695.116	31684.69
695.462	31632.26
695.808	31452.83
696.155	31500.74
696.501	31280.41
696.847	31181.2
697.193	31071.37
697.539	31084.03
697.885	30910.25
698.231	30870.25
698.577	30822.57
698.923	30743.47
699.269	30558.39
699.614	30423.93
699.96	30356.59
700.306	30487.43
700.651	30354.1
700.997	30143.04
701.342	30063.72
701.688	30056.26
702.033	30004.28
702.379	30026.43
702.724	29891.29
703.069	29863.72
703.415	29579.89
703.76	29654.01
704.105	29656.95
704.45	29588.93
704.795	29337.63
705.14	29286.33
705.485	29292.21
705.83	29222.38
706.175	29239.33
706.52	29128.82
706.865	29095.38
707.209	28874.37
707.554	28840.92
707.899	28994.14
708.243	28813.13
708.588	28789.17
708.932	28585.79
709.277	28549.4
709.621	28678.67
709.966	28388.73
710.31	28416.98
710.654	28241.16
710.998	28237.1
711.342	28299.92
711.687	28242.75
712.031	28000.27
712.375	27943.77
712.719	28099.25
713.063	27958.01
713.407	27998.01
713.75	27815.41
714.094	27820.61
714.438	27753.04
714.782	27649.32
715.125	27697
715.469	27681.18
715.812	27388.08
716.156	27446.38
716.499	27356.44
716.843	27517.34
717.186	27172.49
717.53	27258.59
717.873	27378.36
718.216	27254.98
718.559	27133.17
718.902	26964.81
719.246	27037.81
719.589	26891.6
719.932	26863.12
720.275	26884.59
720.617	26867.42
720.96	26723.01
721.303	26740.19
721.646	26738.83
721.989	26567.54
722.331	26650.02
722.674	26588.55
723.016	26603.24
723.359	26475.33
723.701	26511.27
724.044	26239.18
724.386	26259.75
724.729	26365.51
725.071	26187.21
725.413	26265.85
725.755	26334.1
726.097	26050.71
726.439	25953.31
726.782	25986.99
727.124	26153.31
727.465	25878.29
727.807	26069.92
728.149	25854.56
728.491	25782.47
728.833	25702.7
729.175	25619.54
729.516	25656.37
729.858	25699.08
730.199	25648.01
730.541	25598.52
730.882	25557.17
731.224	25523.95
731.565	25414.35
731.906	25412.31
732.248	25381.8
732.589	25306.1
732.93	25112.43
733.271	25203.28
733.612	25292.99
733.953	25350.17
734.294	25071.98
734.635	24993.79
734.976	25174.13
735.317	25061.36
735.658	25100.91
735.999	24955.83
736.339	24931.19
736.68	24955.37
737.021	24858.65
737.361	24862.27
737.702	24897.98
738.042	24788.6
738.383	24698.21
738.723	24810.97
739.063	24638.32
739.404	24615.72
739.744	24705.21
740.084	24439.46
740.424	24559.68
740.764	24501.15
741.104	24632.22
741.444	24308.16
741.784	24325.11
742.124	24359.68
742.464	24287.6
742.804	24376.18
743.143	24268.39
743.483	24277.43
743.823	24118.33
744.162	24179.35
744.502	24196.98
744.841	23986.13
745.181	24111.56
745.52	23914.5
745.86	24013.03
746.199	23915.63
746.538	23922.86
746.877	23839.25
747.216	23948.85
747.556	23851.68
747.895	23861.17
748.234	23684.22
748.573	23739.36
748.911	23670.21
749.25	23752.92
749.589	23533.04
749.928	23446.04
750.267	23631.57
750.605	23511.35
750.944	23484.91
751.283	23412.14
751.621	23331.01
751.96	23261.41
752.298	23271.58
752.636	23348.64
752.975	23116.33
753.313	23030.23
753.651	23145.93
753.989	23144.58
754.327	23018.93
754.666	22910.46
755.004	22929.44
755.342	22880.18
755.679	22856.67
756.017	22709.33
756.355	22728.77
756.693	22581.2
757.031	22708.88
757.368	22621.42
757.706	22505.04
758.044	22395.44
758.381	22518.83
758.719	22323.35
759.056	22315.9
759.394	22282.22
759.731	22038.39
760.068	22133.75
760.405	21941.22
760.743	21942.12
761.08	21983.48
761.417	21849.69
761.754	21748.68
762.091	21882.46
762.428	21642.92
762.765	21555.69
763.102	21617.16
763.438	21378.07
763.775	21381.23
764.112	21423.94
764.449	21255.13
764.785	21245.42
765.122	21136.49
765.458	20961.13
765.795	21110.05
766.131	21040
766.467	20917.51
766.804	20854.01
767.14	20787.57
767.476	20723.17
767.812	20621.25
768.148	20693.34
768.485	20447.24
768.821	20381.26
769.157	20404.99
769.492	20396.17
769.828	20238.44
770.164	20066.46
770.5	20110.3
770.836	20119.34
771.171	19967.03
771.507	19954.15
771.842	19836.87
772.178	19777.88
772.513	19713.93
772.849	19676.64
773.184	19558.68
773.519	19518.46
773.855	19451.11
774.19	19322.75
774.525	19334.51
774.86	19327.5
775.195	19314.39
775.53	19156.43
775.865	18992.82
776.2	18880.05
776.535	18824.46
776.87	18853.39
777.205	18663.56
777.539	18681.19
777.874	18661.53
778.209	18508.76
778.543	18457.92
778.878	18331.59
779.212	18214.76
779.547	18231.71
779.881	18268.32
780.215	18142.67
780.55	18118.94
780.884	18003.02
781.218	17927.76
781.552	17953.53
781.886	17892.51
782.22	17734.1
782.554	17685.74
782.888	17559.41
783.222	17572.29
783.556	17466.31
783.889	17440.77
784.223	17221.11
784.557	17246.2
784.89	17289.14
785.224	17202.13
785.557	17088.24
785.891	16994.91
786.224	17023.83
786.558	17029.93
786.891	16850.05
787.224	16831.75
787.557	16771.86
787.891	16798.98
788.224	16692.54
788.557	16753.78
788.89	16625.65
789.223	16582.04
789.556	16390.4
789.888	16426.56
790.221	16298.43
790.554	16195.83
790.887	16251.65
791.219	16182.05
791.552	16072.9
791.884	16026.34
792.217	15993.58
792.549	15924.65
792.882	15797.88
793.214	15755.16
793.546	15719.69
793.879	15581.61
794.211	15571.44
794.543	15645.34
794.875	15530.99
795.207	15628.61
795.539	15488.05
795.871	15464.1
796.203	15327.38
796.535	15210.32
796.867	15196.54
797.198	15134.84
797.53	15205.8
797.862	14945.47
798.193	15035.18
798.525	14960.84
798.856	15030.66
799.188	14757.45
799.519	14770.78
799.85	14759.03
800.182	14779.6
800.513	14759.26
800.844	14583.44
801.175	14622.31
801.506	14539.15
801.837	14554.07
802.168	14480.62
802.499	14513.84
802.83	14397.01
803.161	14340.06
803.491	14333.06
803.822	14291.47
804.153	14265.49
804.483	14169.22
804.814	14053.51
805.145	14115.21
805.475	14086.73
805.805	14010.13
806.136	14035.21
806.466	13981.88
806.796	13934.87
807.126	13899.85
807.457	13800.87
807.787	13863.46
808.117	13680.87
808.447	13617.37
808.777	13738.49
809.107	13653.07
809.436	13571.49
809.766	13563.58
810.096	13480.2
810.426	13482.23
810.755	13492.17
811.085	13447.2
811.414	13363.82
811.744	13359.97
812.073	13307.09
812.403	13229.81
812.732	13187.77
813.061	13172.63
813.39	13131.51
813.719	13106.19
814.049	13181
814.378	13042.69
814.707	13055.8
815.036	12993.66
815.365	12990.27
815.693	12826.43
816.022	12924.28
816.351	12814.45
816.68	12710.95
817.008	12837.28
817.337	12712.31
817.665	12736.26
817.994	12708.92
818.322	12610.39
818.651	12598.19
818.979	12575.81
819.307	12661.46
819.636	12592.54
819.964	12444.07
820.292	12554.12
820.62	12425.76
820.948	12492.2
821.276	12443.84
821.604	12439.77
821.932	12476.38
822.259	12457.85
822.587	12428.25
822.915	12368.36
823.243	12390.06
823.57	12402.48
823.898	12352.54
824.225	12303.73
824.553	12367.68
824.88	12347.8
825.207	12448.59
825.535	12357.06
825.862	12447.91
826.189	12357.06
826.516	12353.67
826.843	12390.96
827.17	12355.25
827.497	12361.58
827.824	12370.85
828.151	12395.93
828.478	12366.33
828.805	12338.31
829.131	12329.27
829.458	12319.32
829.785	12258.53
830.111	12338.76
830.438	12336.95
830.764	12375.37
831.09	12276.39
831.417	12288.59
831.743	12340.57
832.069	12298.76
832.395	12241.81
832.722	12345.31
833.048	12305.54
833.374	12180.8
833.7	12225.54
834.026	12194.13
834.351	12202.26
834.677	12212.89
835.003	12221.47
835.329	12218.53
835.654	12151.42
835.98	12170.17
836.306	12184.86
836.631	12120.01
836.956	12112.1
837.282	12088.37
837.607	12061.7
837.932	12020.35
838.258	12003.85
838.583	12006.56
838.908	11899
839.233	11970.63
839.558	11935.83
839.883	11845.89
840.208	11847.92
840.533	11831.2
840.858	11871.88
841.182	11832.33
841.507	11798.88
841.832	11704.65
842.156	11721.6
842.481	11730.41
842.805	11653.58
843.13	11561.15
843.454	11664.65
843.778	11598.66
844.103	11565.22
844.427	11538.1
844.751	11487.71
845.075	11518.89
845.399	11430.76
845.723	11421.72
846.047	11409.74
846.371	11289.52
846.695	11357.77
847.019	11254.72
847.343	11171.1
847.666	11124.1
847.99	11045.01
848.313	11033.26
848.637	10973.14
848.96	11053.37
849.284	10939.47
849.607	10948.74
849.931	10870.77
850.254	10892.47
850.577	10710.55
850.9	10702.87
851.223	10660.16
851.546	10637.11
851.869	10540.16
852.192	10598.01
852.515	10472.82
852.838	10492.03
853.161	10456.55
853.483	10415.87
853.806	10362.54
854.129	10411.58
854.451	10265.14
854.774	10284.12
855.096	10233.95
855.419	10163.45
855.741	10146.27
856.063	10124.35
856.385	10080.96
856.708	10054.07
857.03	10027.41
857.352	10050
857.674	10023.79
857.996	10000.51
858.318	9918.48
858.64	9869.9
858.961	9868.77
859.283	9755.55
859.605	9787.64
859.926	9796.68
860.248	9664.93
860.57	9713.29
860.891	9826.06
861.212	9713.06
861.534	9590.58
861.855	9625.83
862.176	9646.85
862.498	9616.57
862.819	9600.3
863.14	9648.43
863.461	9547.64
863.782	9448.89
864.103	9476.69
864.424	9519.62
864.745	9442.11
865.065	9423.35
865.386	9384.71
865.707	9375.9
866.027	9430.59
866.348	9416.57
866.668	9375.67
866.989	9313.07
867.309	9247.99
867.63	9296.8
867.95	9283.47
868.27	9209.12
868.59	9240.31
868.91	9242.79
869.23	9257.93
869.55	9202.34
869.87	9204.15
870.19	9217.71
870.51	9217.71
870.83	9203.47
871.15	9069.69
871.469	9184.49
871.789	9198.05
872.109	9158.28
872.428	9050.48
872.748	9134.1
873.067	9036.7
873.386	9044.15
873.706	9035.57
874.025	8993.31
874.344	8976.59
874.663	8975.46
874.982	8971.39
875.301	9002.8
875.62	8933.65
875.939	8877.61
876.258	8897.04
876.577	8848.23
876.896	8804.61
877.214	8794.44
877.533	8819.75
877.852	8817.27
878.17	8768.46
878.489	8845.74
878.807	8783.14
879.125	8752.41
879.444	8743.6
879.762	8745.41
880.08	8762.81
880.398	8692.75
880.716	8662.47
881.034	8675.13
881.352	8664.05
881.67	8641.23
881.988	8674
882.306	8567.56
882.624	8556.48
882.941	8545.64
883.259	8554.45
883.577	8514.23
883.894	8471.97
884.212	8520.55
884.529	8473.1
884.846	8380.9
885.164	8397.39
885.481	8402.82
885.798	8371.18
886.115	8372.53
886.432	8315.36
886.75	8321.01
887.067	8306.32
887.383	8230.62
887.7	8247.34
888.017	8226.78
888.334	8250.5
888.651	8206.89
888.967	8170.05
889.284	8151.52
889.6	8085.54
889.917	8118.3
890.233	8063.62
890.55	8033.56
890.866	8097.97
891.182	8040.11
891.498	8038.76
891.815	8000.11
892.131	7954.47
892.447	7924.64
892.763	7940.46
893.079	7847.12
893.395	7916.05
893.71	7823.62
894.026	7800.8
894.342	7783.17
894.657	7724.64
894.973	7753.57
895.289	7727.81
895.604	7729.39
895.92	7632.21
896.235	7577.3
896.55	7604.19
896.865	7606
897.181	7595.15
897.496	7472.44
897.811	7495.5
898.126	7519.45
898.441	7442.39
898.756	7497.53
899.071	7400.36
899.386	7414.37
899.7	7305.22
900.015	7280.59
900.33	7303.86
900.644	7298.21
900.959	7247.59
901.273	7248.27
901.588	7210.76
901.902	7195.16
902.216	7128.72
902.531	7109.29
902.845	7158.55
903.159	7077.88
903.473	6964.44
903.787	6963.53
904.101	6954.27
904.415	6976.86
904.729	6970.54
905.042	6893.7
905.356	6884.21
905.67	6846.25
905.984	6873.82
906.297	6837.43
906.611	6784.78
906.924	6822.52
907.237	6720.15
907.551	6663.65
907.864	6683.31
908.177	6712.24
908.491	6668.17
908.804	6610.09
909.117	6550.66
909.43	6563.32
909.743	6560.38
910.056	6505.01
910.368	6459.36
910.681	6482.87
910.994	6420.95
911.307	6416.43
911.619	6352.25
911.932	6324
912.244	6305.92
912.557	6317.22
912.869	6287.84
913.181	6248.75
913.494	6257.56
913.806	6212.59
914.118	6136.21
914.43	6122.42
914.742	6180.28
915.054	6073.84
915.366	6070
915.678	6013.5
915.99	6018.25
916.302	5982.31
916.613	5958.81
916.925	5943.45
917.236	5991.35
917.548	5891.24
917.859	5905.93
918.171	5829.1
918.482	5845.37
918.794	5758.37
919.105	5842.88
919.416	5716.33
919.727	5783.9
920.038	5742.09
920.349	5653.74
920.66	5676.56
920.971	5651.02
921.282	5637.01
921.593	5568.99
921.903	5564.7
922.214	5602.66
922.525	5531.25
922.835	5505.49
923.146	5487.86
923.456	5490.58
923.767	5414.42
924.077	5457.13
924.387	5400.41
924.697	5333.74
925.008	5357.25
925.318	5391.82
925.628	5319.06
925.938	5302.33
926.248	5224.14
926.558	5247.19
926.867	5230.7
927.177	5169.45
927.487	5136.46
927.796	5153.64
928.106	5110.02
928.416	5123.13
928.725	5070.7
929.034	5062.11
929.344	5076.35
929.653	4998.39
929.962	5067.08
930.271	4978.5
930.581	4911.38
930.89	4964.49
931.199	4873.87
931.508	4891.95
931.817	4882.68
932.125	4858.73
932.434	4818.73
932.743	4809.69
933.051	4777.83
933.36	4814.89
933.669	4730.6
933.977	4727.21
934.286	4689.24
934.594	4710.26
934.902	4653.31
935.21	4581.45
935.519	4632.52
935.827	4613.31
936.135	4579.19
936.443	4537.38
936.751	4549.13
937.059	4503.26
937.367	4502.81
937.674	4493.54
937.982	4477.5
938.29	4461.45
938.597	4483.6
938.905	4418.74
939.213	4357.95
939.52	4377.61
939.827	4384.16
940.135	4348.69
940.442	4302.36
940.749	4289.25
941.056	4250.38
941.363	4253.55
941.67	4253.32
941.977	4230.72
942.284	4168.12
942.591	4204.96
942.898	4203.38
943.205	4210.38
943.511	4154.57
943.818	4124.28
944.125	4120.89
944.431	4115.7
944.738	4079.54
945.044	4107.79
945.35	4019.88
945.657	4017.62
945.963	3962.93
946.269	3950.5
946.575	4002.48
946.881	3974.01
947.187	3918.41
947.493	3926.32
947.799	3949.15
948.105	3902.82
948.41	3821.24
948.716	3857.4
949.022	3853.56
949.327	3835.03
949.633	3772.43
949.938	3801.81
950.244	3817.63
950.549	3752.32
950.854	3745.99
951.16	3713.45
951.465	3707.12
951.77	3699.44
952.075	3703.96
952.38	3679.1
952.685	3661.7
952.99	3606.56
953.294	3602.94
953.599	3643.62
953.904	3613.11
954.209	3545.09
954.513	3575.15
954.818	3540.12
955.122	3540.12
955.426	3501.48
955.731	3526.33
956.035	3484.08
956.339	3421.03
956.643	3451.53
956.948	3442.04
957.252	3405.89
957.556	3399.56
957.86	3376.06
958.163	3394.81
958.467	3377.19
958.771	3337.41
959.075	3356.85
959.378	3306.45
959.682	3347.58
959.985	3271.2
960.289	3263.74
960.592	3267.13
960.896	3244.76
961.199	3212.44
961.502	3172.67
961.805	3228.49
962.108	3157.08
962.411	3179.9
962.714	3186.46
963.017	3167.93
963.32	3185.33
963.623	3141.26
963.926	3162.73
964.228	3109.62
964.531	3115.95
964.833	3091.77
965.136	3062.84
965.438	3059.68
965.741	3035.95
966.043	3004.09
966.345	3003.64
966.648	2978.33
966.95	2955.73
967.252	2999.79
967.554	2956.18
967.856	2961.6
968.158	2916.63
968.46	2948.27
968.761	2894.26
969.063	2913.92
969.365	2868.72
969.666	2858.78
969.968	2826.24
970.269	2861.94
970.571	2840.93
970.872	2793.92
971.174	2809.06
971.475	2795.51
971.776	2792.12
972.077	2775.39
972.378	2784.88
972.679	2762.06
972.98	2712.34
973.281	2736.98
973.582	2725.9
973.883	2727.48
974.183	2753.92
974.484	2696.53
974.785	2698.33
975.085	2670.54
975.386	2663.53
975.686	2695.17
975.986	2637.77
976.287	2613.14
976.587	2562.74
976.887	2593.93
977.187	2615.4
977.487	2586.47
977.787	2532.46
978.087	2529.07
978.387	2539.69
978.687	2549.86
978.987	2533.14
979.286	2510.54
979.586	2478.45
979.885	2451.11
980.185	2501.73
980.484	2476.64
980.784	2468.96
981.083	2447.94
981.382	2423.31
981.682	2445.91
981.981	2411.79
982.28	2428.96
982.579	2396.19
982.878	2385.35
983.177	2377.89
983.475	2332.69
983.774	2345.8
984.073	2359.58
984.372	2329.53
984.67	2313.71
984.969	2294.5
985.267	2329.76
985.566	2282.07
985.864	2286.37
986.162	2285.69
986.461	2258.8
986.759	2253.37
987.057	2229.19
987.355	2248.85
987.653	2251.79
987.951	2212.47
988.249	2208.85
988.547	2170.89
988.844	2159.36
989.142	2167.27
989.44	2148.97
989.737	2162.75
990.035	2109.65
990.332	2132.7
990.63	2095.64
990.927	2144.68
991.224	2089.54
991.521	2125.69
991.819	2099.25
992.116	2073.26
992.413	2071.91
992.71	2060.38
993.006	2034.17
993.303	2028.52
993.6	2038.46
993.897	2035.3
994.193	2019.71
994.49	2024.9
994.787	1960.5
995.083	1992.36
995.379	1969.54
995.676	1977
995.972	1943.78
996.268	1932.93
996.565	1941.06
996.861	1921.4
997.157	1942.87
997.453	1891.35
997.749	1913.04
998.044	1869.65
998.34	1908.52
998.636	1899.26
998.932	1871.69
999.227	1866.72
999.523	1833.95
999.818	1858.13
1000.114	1834.85
1000.409	1791.01
1000.704	1826.27
1001	1810.67
1001.295	1794.18
1001.59	1767.51
1001.885	1779.71
1002.18	1758.92
1002.475	1755.31
1002.77	1761.86
1003.065	1722.77
1003.359	1708.75
1003.654	1715.31
1003.949	1732.03
1004.243	1719.15
1004.538	1708.53
1004.832	1713.05
1005.127	1690.68
1005.421	1675.31
1005.715	1674.41
1006.009	1670.34
1006.304	1613.16
1006.598	1618.36
1006.892	1624.46
1007.186	1592.6
1007.48	1590.34
1007.773	1607.29
1008.067	1598.25
1008.361	1554.18
1008.655	1550.34
1008.948	1556.67
1009.242	1566.84
1009.535	1551.24
1009.829	1524.58
1010.122	1524.58
1010.415	1520.28
1010.708	1517.8
1011.001	1516.9
1011.295	1490.68
1011.588	1450.46
1011.881	1490
1012.173	1467.4
1012.466	1462.21
1012.759	1461.98
1013.052	1441.87
1013.344	1419.5
1013.637	1448.87
1013.93	1434.19
1014.222	1412.94
1014.514	1407.29
1014.807	1414.75
1015.099	1403.9
1015.391	1371.81
1015.683	1379.95
1015.976	1363.68
1016.268	1329.78
1016.56	1365.26
1016.851	1349.44
1017.143	1319.39
1017.435	1331.59
1017.727	1320.52
1018.018	1324.36
1018.31	1301.08
1018.602	1287.52
1018.893	1268.31
1019.185	1286.39
1019.476	1255.43
1019.767	1259.95
1020.058	1252.04
1020.35	1238.94
1020.641	1258.6
1020.932	1244.81
1021.223	1214.53
1021.514	1221.31
1021.804	1209.78
1022.095	1212.27
1022.386	1197.36
1022.677	1192.84
1022.967	1158.71
1023.258	1166.4
1023.548	1172.95
1023.839	1170.92
1024.129	1175.21
1024.419	1141.31
1024.709	1137.92
1025	1114.65
1025.29	1154.42
1025.58	1109
1025.87	1102.89
1026.16	1086.85
1026.449	1092.95
1026.739	1085.49
1027.029	1073.07
1027.319	1081.2
1027.608	1068.09
1027.898	1054.76
1028.187	1052.95
1028.477	1055.44
1028.766	1050.01
1029.055	1032.16
1029.344	1040.3
1029.634	1010.02
1029.923	1029.22
1030.212	1032.39
1030.501	1016.8
1030.79	1014.76
1031.078	995.78
1031.367	977.25
1031.656	965.95
1031.945	934.76
1032.233	982.67
1032.522	978.38
1032.81	959.4
1033.099	954.88
1033.387	950.81
1033.675	908.55
1033.963	918.27
1034.251	921.88
1034.54	949.9
1034.828	899.51
1035.116	919.17
1035.403	929.34
1035.691	916.46
1035.979	915.56
1036.267	889.34
1036.554	893.86
1036.842	884.6
1037.129	882.79
1037.417	862
1037.704	860.87
1037.992	853.86
1038.279	857.48
1038.566	841.66
1038.853	841.66
1039.14	841.66
