Data from hue_140_FLMS001491_00074.txt Node
Date: Tue Feb 07 16:56:23 GMT 2017
User: dcchb
Spectrometer: FLMS00149
Trigger mode: 0
Integration Time (sec): 2.000000E-2
Scans to average: 10
Electric dark correction enabled: true
Nonlinearity correction enabled: false
Boxcar width: 0
XAxis mode: Wavelengths
Number of Pixels in Spectrum: 2048
>>>>>Begin Spectral Data<<<<<
341.393	-6.33
341.776	-6.33
342.16	-6.33
342.543	-56.72
342.927	-81.81
343.31	-57.17
343.693	-62.6
344.077	-39.32
344.46	-55.37
344.843	-56.04
345.226	-33.9
345.61	-39.55
345.993	-33.22
346.376	-18.76
346.759	7.68
347.142	19.43
347.525	32.09
347.908	63.73
348.291	65.31
348.674	94.23
349.057	113.44
349.44	135.82
349.823	140.79
350.206	174.68
350.588	193.89
350.971	222.37
351.354	228.02
351.737	232.31
352.119	248.81
352.502	261.01
352.884	255.59
353.267	268.47
353.65	303.49
354.032	289.48
354.414	306.88
354.797	308.69
355.179	317.73
355.562	321.35
355.944	326.77
356.326	307.56
356.709	339.43
357.091	330.39
357.473	332.87
357.855	344.17
358.238	341.46
358.62	341.23
359.002	338.52
359.384	352.08
359.766	340.56
360.148	338.75
360.53	343.95
360.912	320.22
361.294	351.18
361.676	330.39
362.057	338.75
362.439	322.03
362.821	336.49
363.203	348.47
363.584	331.29
363.966	331.06
364.348	332.87
364.729	317.73
365.111	317.96
365.493	331.52
365.874	323.83
366.256	316.83
366.637	289.26
367.019	329.03
367.4	310.05
367.781	331.29
368.163	349.82
368.544	304.62
368.925	323.38
369.306	312.99
369.688	315.92
370.069	322.03
370.45	304.85
370.831	312.76
371.212	318.18
371.593	296.49
371.974	311.86
372.355	306.66
372.736	310.5
373.117	324.74
373.498	308.01
373.879	326.09
374.26	325.42
374.641	305.08
375.021	301.91
375.402	316.38
375.783	331.97
376.163	335.13
376.544	324.74
376.925	342.36
377.305	338.97
377.686	331.74
378.066	315.25
378.447	343.27
378.827	343.27
379.208	334.23
379.588	339.43
379.968	342.59
380.349	333.32
380.729	307.34
381.109	339.65
381.489	334.45
381.87	336.94
382.25	320.44
382.63	353.89
383.01	355.7
383.39	343.04
383.77	350.5
384.15	338.52
384.53	359.76
384.91	351.63
385.29	349.6
385.67	326.32
386.049	361.57
386.429	358.18
386.809	341.69
387.189	347.11
387.568	366.77
387.948	361.12
388.328	358.86
388.707	377.62
389.087	369.48
389.466	354.34
389.846	355.7
390.225	380.1
390.605	358.41
390.984	382.59
391.363	381.46
391.743	372.19
392.122	380.55
392.501	385.75
392.881	390.27
393.26	374.23
393.639	393.21
394.018	371.29
394.397	389.82
394.776	381.23
395.155	388.01
395.534	393.89
395.913	397.5
396.292	401.12
396.671	394.79
397.05	406.09
397.429	399.09
397.808	388.92
398.186	397.28
398.565	412.19
398.944	398.41
399.323	390.05
399.701	425.53
400.08	414.45
400.458	413.1
400.837	421.23
401.215	410.61
401.594	409.25
401.972	429.82
402.351	432.31
402.729	410.38
403.107	421.68
403.486	392.53
403.864	393.89
404.242	428.24
404.62	436.37
404.999	429.14
405.377	418.29
405.755	420.78
406.133	448.58
406.511	431.63
406.889	436.82
407.267	431.4
407.645	464.39
408.023	456.03
408.401	437.5
408.779	441.8
409.156	453.77
409.534	429.37
409.912	448.35
410.29	458.07
410.667	472.98
411.045	479.08
411.422	484.73
411.8	471.63
412.178	474.11
412.555	467.33
412.933	487.44
413.31	484.28
413.687	497.39
414.065	504.85
414.442	487.44
414.819	514.79
415.197	469.14
415.574	510.5
415.951	494.45
416.328	518.4
416.705	503.04
417.082	530.38
417.46	521.79
417.837	543.94
418.214	522.92
418.591	554.11
418.967	545.97
419.344	544.84
419.721	552.53
420.098	546.2
420.475	536.71
420.852	541.91
421.228	535.81
421.605	529.7
421.982	560.89
422.358	554.11
422.735	574.67
423.111	572.19
423.488	560.66
423.864	556.14
424.241	555.24
424.617	593.2
424.994	583.49
425.37	604.73
425.746	578.06
426.123	604.73
426.499	612.41
426.875	607.44
427.251	635.46
427.627	598.4
428.003	631.4
428.379	646.76
428.756	640.21
429.132	648.12
429.507	648.34
429.883	654.45
430.259	658.29
430.635	656.71
431.011	674.33
431.387	657.84
431.763	675.69
432.138	696.25
432.514	704.61
432.89	698.06
433.265	709.59
433.641	687.89
434.016	708.68
434.392	713.88
434.767	741
435.143	716.14
435.518	725.63
435.894	746.87
436.269	716.59
436.644	753.65
437.02	764.27
437.395	769.02
437.77	791.84
438.145	802.24
438.52	785.97
438.895	794.56
439.271	786.19
439.646	811.96
440.021	823.71
440.395	801.79
440.77	828
441.145	807.66
441.52	838.4
441.895	839.98
442.27	853.31
442.645	843.37
443.019	865.06
443.394	845.18
443.769	859.41
444.143	823.26
444.518	884.27
444.892	881.56
445.267	860.54
445.641	909.58
446.016	909.35
446.39	903.71
446.764	902.12
447.139	919.07
447.513	912.07
447.887	884.5
448.262	944.16
448.636	924.72
449.01	950.94
449.384	923.82
449.758	948.45
450.132	958.62
450.506	971.95
450.88	954.33
451.254	954.1
451.628	982.35
452.002	991.61
452.376	981.22
452.75	1033.65
453.123	1021.67
453.497	1037.71
453.871	1027.09
454.244	1050.37
454.618	1050.82
454.992	1080.65
455.365	1087.43
455.739	1105.51
456.112	1083.59
456.486	1136.24
456.859	1103.02
457.232	1114.32
457.606	1150.93
457.979	1161.55
458.352	1161.78
458.725	1210.36
459.099	1212.85
459.472	1225.05
459.845	1250.36
460.218	1232.51
460.591	1271.6
460.964	1246.07
461.337	1309.34
461.71	1314.54
462.083	1332.85
462.456	1326.52
462.829	1352.96
463.201	1358.16
463.574	1371.49
463.947	1387.31
464.32	1440.41
464.692	1467.31
465.065	1453.07
465.438	1485.84
465.81	1492.84
466.183	1522.22
466.555	1544.59
466.928	1573.74
467.3	1577.36
467.672	1609.22
468.045	1642.89
468.417	1643.35
468.789	1665.72
469.161	1664.14
469.534	1729.45
469.906	1782.33
470.278	1781.42
470.65	1803.57
471.022	1885.37
471.394	1919.72
471.766	1958.37
472.138	1959.5
472.51	2001.98
472.882	2028.2
473.253	2080.4
473.625	2125.59
473.997	2174.41
474.369	2189.09
474.74	2251.92
475.112	2345.93
475.484	2337.79
475.855	2432.7
476.227	2420.95
476.598	2509.09
476.97	2556.09
477.341	2661.4
477.713	2686.48
478.084	2745.46
478.455	2836.99
478.827	2886.48
479.198	2994.5
479.569	3010.32
479.94	3137.54
480.311	3228.16
480.682	3333.47
481.053	3361.72
481.424	3519.46
481.795	3582.28
482.166	3644.2
482.537	3756.74
482.908	3835.38
483.279	3965.55
483.65	4069.72
484.021	4191.75
484.391	4289.83
484.762	4375.25
485.133	4464.74
485.503	4597.17
485.874	4700.44
486.244	4825.86
486.615	4920.55
486.985	5066.99
487.356	5197.83
487.726	5353.53
488.097	5437.6
488.467	5580.64
488.837	5745.61
489.207	5838.26
489.578	6012.5
489.948	6132.72
490.318	6287.97
490.688	6360.28
491.058	6538.81
491.428	6648.19
491.798	6773.61
492.168	6974.73
492.538	7076.88
492.908	7218.57
493.278	7395.74
493.648	7473.93
494.017	7669.4
494.387	7795.28
494.757	7864.65
495.126	8055.61
495.496	8166.34
495.866	8296.05
496.235	8374.24
496.605	8478.2
496.974	8675.48
497.344	8751.41
497.713	8883.83
498.082	8993.21
498.452	9141.68
498.821	9235.01
499.19	9286.54
499.559	9384.39
499.928	9578.96
500.298	9638.62
500.667	9814.88
501.036	9798.16
501.405	10042.22
501.774	10030.02
502.143	10151.6
502.512	10260.3
502.88	10354.08
503.249	10358.15
503.618	10515.66
503.987	10601.76
504.356	10658.93
504.724	10744.35
505.093	10726.05
505.462	10857.12
505.83	10927.17
506.199	11068.86
506.567	11226.82
506.936	11150.22
507.304	11377.55
507.672	11450.77
508.041	11456.2
508.409	11567.83
508.777	11671.56
509.145	11778.45
509.514	11760.82
509.882	11858.9
510.25	11874.26
510.618	11924.66
510.986	11994.49
511.354	12056.86
511.722	12078.1
512.09	12281.94
512.458	12212.56
512.826	12330.3
513.193	12438.77
513.561	12423.63
513.929	12514.02
514.297	12578.2
514.664	12600.57
515.032	12661.81
515.4	12741.59
515.767	12740.46
516.135	12787.69
516.502	12755.6
516.869	12957.4
517.237	12949.04
517.604	12964.4
517.972	13058.64
518.339	13020
518.706	13047.34
519.073	13137.06
519.44	13170.5
519.808	13186.09
520.175	13140.22
520.542	13279.2
520.909	13255.02
521.276	13294.34
521.643	13392.42
522.009	13393.55
522.376	13406.2
522.743	13457.27
523.11	13600.32
523.477	13643.94
523.843	13681
524.21	13807.09
524.577	13843.48
524.943	13779.75
525.31	13839.41
525.676	13859.75
526.043	13890.93
526.409	13924.38
526.776	13997.37
527.142	13988.78
527.508	14026.07
527.874	14046.41
528.241	14112.85
528.607	14113.98
528.973	14077.82
529.339	14070.82
529.705	14121.66
530.071	14227.87
530.437	14176.35
530.803	14168.22
531.169	14274.43
531.535	14176.12
531.901	14144.03
532.267	14214.32
532.632	14203.47
532.998	14157.37
533.364	14302
533.73	14196.91
534.095	14226.74
534.461	14256.12
534.826	14187.2
535.192	14131.15
535.557	14236.69
535.923	14182.68
536.288	14135.22
536.653	14166.86
537.019	14007.32
537.384	14131.38
537.749	14078.95
538.114	14068.56
538.479	14038.95
538.845	14077.14
539.21	13903.59
539.575	13928.67
539.94	13873.99
540.305	13935.23
540.67	13856.36
541.034	13793.54
541.399	13872.4
541.764	13717.61
542.129	13837.38
542.494	13681.9
542.858	13690.04
543.223	13719.41
543.587	13734.1
543.952	13644.61
544.316	13583.15
544.681	13609.59
545.045	13567.78
545.41	13552.19
545.774	13515.58
546.138	13446.43
546.503	13467.22
546.867	13444.39
547.231	13525.29
547.595	13433.55
547.959	13421.57
548.324	13341.8
548.688	13329.14
549.052	13342.7
549.416	13234.23
549.779	13222.03
550.143	13306.99
550.507	13274.68
550.871	13132.54
551.235	13132.99
551.599	13204.62
551.962	13084.4
552.326	13072.2
552.689	13085.31
553.053	13020
553.417	13057.28
553.78	13175.92
554.143	12975.93
554.507	13038.98
554.87	13000.34
555.234	13027
555.597	12922.6
555.96	12961.92
556.323	12868.59
556.686	12871.75
557.05	12955.59
557.413	12878.08
557.776	12904.75
558.139	12876.27
558.502	12905.88
558.865	12887.12
559.228	12852.77
559.59	12947.23
559.953	12846.22
560.316	13022.48
560.679	12882.15
561.041	12965.53
561.404	12921.47
561.767	13064.06
562.129	12866.1
562.492	13038.3
562.854	13017.96
563.217	12925.99
563.579	13006.66
563.941	13069.26
564.304	13083.95
564.666	13090.28
565.028	13060.67
565.39	13052.09
565.753	13093.22
566.115	13076.72
566.477	13060.45
566.839	13137.96
567.201	13174.57
567.563	13055.02
567.925	13227.67
568.287	13154.91
568.648	13203.49
569.01	13227.45
569.372	13278.75
569.734	13221.8
570.095	13274.91
570.457	13229.03
570.819	13320.1
571.18	13290.05
571.542	13327.33
571.903	13323.94
572.265	13317.62
572.626	13368.46
572.987	13339.08
573.349	13378.18
573.71	13406.2
574.071	13396.26
574.432	13412.08
574.794	13542.47
575.155	13408.46
575.516	13400.55
575.877	13439.65
576.238	13426.54
576.599	13482.13
576.96	13460.44
577.32	13449.82
577.681	13580.66
578.042	13423.15
578.403	13574.11
578.763	13442.81
579.124	13546.76
579.485	13534.11
579.845	13597.38
580.206	13600.77
580.566	13495.92
580.927	13531.4
581.287	13625.18
581.648	13482.58
582.008	13606.87
582.368	13622.92
582.728	13560.77
583.089	13589.47
583.449	13466.76
583.809	13511.96
584.169	13522.13
584.529	13435.13
584.889	13609.36
585.249	13398.07
585.609	13425.86
585.969	13553.09
586.329	13475.58
586.688	13411.4
587.048	13488.01
587.408	13415.69
587.768	13477.84
588.127	13511.96
588.487	13297.73
588.846	13526.2
589.206	13316.49
589.565	13404.39
589.925	13386.99
590.284	13369.37
590.643	13450.72
591.003	13397.61
591.362	13431.51
591.721	13401.46
592.08	13326.43
592.44	13347.22
592.799	13360.55
593.158	13327.56
593.517	13318.97
593.876	13426.99
594.235	13247.11
594.593	13303.38
594.952	13295.24
595.311	13274.23
595.67	13302.02
596.029	13339.99
596.387	13399.65
596.746	13311.97
597.104	13401.23
597.463	13283.49
597.822	13340.44
598.18	13289.82
598.538	13278.29
598.897	13356.48
599.255	13210.5
599.613	13446.2
599.972	13297.28
600.33	13346.09
600.688	13244.4
601.046	13356.48
601.404	13398.52
601.762	13384.28
602.12	13461.57
602.478	13362.81
602.836	13403.49
603.194	13227.45
603.552	13308.8
603.91	13238.3
604.268	13304.06
604.625	13293.89
604.983	13305.41
605.341	13282.14
605.698	13263.61
606.056	13280.55
606.413	13316.26
606.771	13339.76
607.128	13285.07
607.485	13248.47
607.843	13270.84
608.2	13336.37
608.557	13371.85
608.914	13362.13
609.272	13423.6
609.629	13496.59
609.986	13402.13
610.343	13373.43
610.7	13450.49
611.057	13490.94
611.414	13422.02
611.771	13425.64
612.127	13409.36
612.484	13485.52
612.841	13606.42
613.198	13454.56
613.554	13540.66
613.911	13578.63
614.267	13610.94
614.624	13523.26
614.98	13513.09
615.337	13620.66
615.693	13628.57
616.05	13591.06
616.406	13632.86
616.762	13601.68
617.118	13542.92
617.475	13595.35
617.831	13737.94
618.187	13654.56
618.543	13610.72
618.899	13723.03
619.255	13681
619.611	13589.93
619.967	13745.18
620.323	13686.42
620.678	13721.9
621.034	13702.46
621.39	13642.81
621.746	13663.82
622.101	13806.87
622.457	13651.17
622.812	13682.58
623.168	13629.92
623.523	13723.25
623.879	13806.19
624.234	13727.77
624.589	13725.29
624.945	13755.57
625.3	13679.87
625.655	13727.1
626.01	13774.33
626.365	13663.6
626.72	13707.44
627.075	13659.3
627.43	13700.2
627.785	13597.16
628.14	13733.65
628.495	13738.62
628.85	13750.6
629.205	13599.19
629.559	13802.12
629.914	13692.52
630.269	13651.62
630.623	13665.18
630.978	13623.14
631.332	13597.83
631.687	13662.47
632.041	13597.83
632.396	13549.93
632.75	13570.94
633.104	13575.46
633.459	13443.49
633.813	13508.35
634.167	13512.64
634.521	13374.11
634.875	13516.48
635.229	13411.85
635.583	13377.95
635.937	13354.68
636.291	13363.49
636.645	13392.19
636.999	13319.42
637.352	13447.33
637.706	13247.11
638.06	13349.93
638.413	13227.9
638.767	13218.18
639.121	13276.71
639.474	13156.94
639.828	13284.4
640.181	13277.62
640.534	13207.79
640.888	13187.9
641.241	13159.88
641.594	13156.26
641.947	13238.75
642.301	13244.85
642.654	13208.92
643.007	13244.62
643.36	13155.36
643.713	13135.25
644.066	13152.87
644.419	13081.69
644.771	12964.86
645.124	12916.72
645.477	12833.33
645.83	12858.42
646.182	12752.66
646.535	12699.1
646.888	12750.17
647.24	12607.35
647.593	12706.11
647.945	12706.33
648.298	12687.58
648.65	12615.71
649.002	12560.57
649.355	12660.68
649.707	12731.87
650.059	12714.02
650.411	12876.5
650.763	12868.14
651.115	13008.7
651.467	12911.98
651.819	12954.46
652.171	12932.77
652.523	12902.03
652.875	12939.32
653.227	12908.59
653.578	12965.99
653.93	12913.33
654.282	12906.55
654.633	12885.54
654.985	12870.62
655.337	12953.33
655.688	12909.27
656.039	13004.86
656.391	12849.15
656.742	12880.57
657.094	12918.08
657.445	12964.4
657.796	12952.43
658.147	12843.5
658.498	12870.17
658.849	13003.73
659.2	12929.83
659.551	12876.72
659.902	12926.44
660.253	12911.52
660.604	13022.93
660.955	12919.89
661.306	12937.96
661.656	12902.71
662.007	12920.34
662.358	12958.98
662.708	12933.45
663.059	12989.04
663.409	12879.21
663.76	12956.27
664.11	13011.18
664.461	13002.14
664.811	12976.61
665.161	13001.01
665.511	13006.89
665.862	12939.55
666.212	13015.25
666.562	12956.95
666.912	13022.26
667.262	12949.72
667.612	12972.54
667.962	13000.34
668.312	12967.34
668.662	13001.24
669.011	12931.19
669.361	12973.9
669.711	12945.87
670.06	12880.11
670.41	12860
670.76	12873.11
671.109	12850.28
671.459	12989.04
671.808	12869.04
672.157	12898.42
672.507	12845.54
672.856	12798.76
673.205	12876.05
673.554	12890.28
673.904	12873.79
674.253	12945.65
674.602	12833.79
674.951	12624.98
675.3	12622.04
675.649	12739.1
675.998	12827.01
676.346	12819.55
676.695	12768.25
677.044	12688.48
677.393	12740.91
677.741	12723.96
678.09	12726.67
678.438	12611.87
678.787	12756.05
679.135	12696.16
679.484	12660.68
679.832	12649.16
680.181	12607.58
680.529	12543.4
680.877	12542.5
681.225	12556.73
681.573	12690.06
681.922	12563.51
682.27	12528.71
682.618	12462.95
682.966	12410.3
683.314	12485.55
683.661	12334.82
684.009	12306.8
684.357	12311.09
684.705	12311.09
685.053	12282.39
685.4	12260.24
685.748	12168.72
686.095	12265.89
686.443	12131.43
686.79	12156.52
687.138	12118.78
687.485	12172.34
687.832	12071.32
688.18	12128.04
688.527	12051.89
688.874	12080.59
689.221	11949.06
689.568	11984.32
689.915	11948.84
690.262	11874.94
690.609	11903.64
690.956	11799.01
691.303	11890.76
691.65	11772.57
691.997	11773.02
692.344	11764.66
692.69	11709.3
693.037	11583.88
693.383	11514.5
693.73	11641.28
694.077	11469.75
694.423	11469.3
694.769	11445.12
695.116	11359.7
695.462	11390.43
695.808	11301.4
696.155	11405.8
696.501	11236.31
696.847	11279.48
697.193	11131.46
697.539	11199.71
697.885	11078.8
698.231	11077.22
698.577	10993.61
698.923	11010.56
699.269	10933.72
699.614	10903.22
699.96	10877.68
700.306	10838.81
700.651	10812.82
700.997	10759.49
701.342	10671.36
701.688	10704.8
702.033	10706.84
702.379	10673.84
702.724	10553.85
703.069	10630.23
703.415	10531.47
703.76	10480.4
704.105	10494.41
704.45	10451.25
704.795	10402.66
705.14	10348.88
705.485	10371.93
705.83	10360.63
706.175	10306.4
706.52	10224.59
706.865	10191.82
707.209	10173.97
707.554	10179.85
707.899	10107.53
708.243	10103.46
708.588	10073.41
708.932	9975.33
709.277	10007.19
709.621	10023.24
709.966	9970.81
710.31	9946.18
710.654	9850.14
710.998	9880.64
711.342	9817.14
711.687	9903.47
712.031	9815.79
712.375	9742.34
712.719	9762.68
713.063	9750.7
713.407	9766.3
713.75	9712.06
714.094	9696.69
714.438	9650.37
714.782	9652.4
715.125	9598.62
715.469	9693.76
715.812	9634.32
716.156	9526.98
716.499	9523.37
716.843	9557.04
717.186	9448.57
717.53	9531.27
717.873	9508.68
718.216	9526.76
718.559	9464.16
718.902	9427.1
719.246	9416.02
719.589	9394.56
719.932	9367.44
720.275	9409.92
720.617	9421.9
720.96	9341
721.303	9404.27
721.646	9381
721.989	9286.08
722.331	9325.18
722.674	9336.93
723.016	9291.73
723.359	9314.78
723.701	9257.16
724.044	9249.25
724.386	9213.09
724.729	9244.05
725.071	9171.74
725.413	9231.17
725.755	9181
726.097	9179.87
726.439	9141
726.782	9210.38
727.124	9194.11
727.465	9182.81
727.807	9186.2
728.149	9139.19
728.491	9051.51
728.833	9183.49
729.175	9152.75
729.516	9116.14
729.858	9143.04
730.199	9028.01
730.541	9117.5
730.882	9027.79
731.224	9081.34
731.565	9060.33
731.906	9112.3
732.248	9105.07
732.589	8993.66
732.93	9019.2
733.271	9019.42
733.612	9025.07
733.953	9108.91
734.294	9077.5
734.635	9026.66
734.976	9028.46
735.317	9066.43
735.658	9046.09
735.999	9014
736.339	9110.95
736.68	9111.4
737.021	9062.13
737.361	8994.11
737.702	9043.15
738.042	9018.29
738.383	9023.72
738.723	9101.46
739.063	9037.05
739.404	9073.89
739.744	9104.85
740.084	9118.86
740.424	9145.3
740.764	9141.45
741.104	9208.8
741.444	9117.5
741.784	9093.09
742.124	9187.56
742.464	9149.36
742.804	9218.74
743.143	9181.91
743.483	9226.65
743.823	9248.12
744.162	9256.25
744.502	9270.26
744.841	9273.88
745.181	9374.44
745.52	9338.29
745.86	9410.83
746.199	9441.33
746.538	9493.08
746.877	9536.7
747.216	9600.65
747.556	9592.74
747.895	9664.15
748.234	9590.93
748.573	9699.86
748.911	9738.95
749.25	9793.41
749.589	9867.54
749.928	10013.3
750.267	10010.81
750.605	10108.66
750.944	10111.15
751.283	10206.06
751.621	10232.5
751.96	10307.53
752.298	10428.88
752.636	10539.38
752.975	10530.8
753.313	10691.92
753.651	10842.88
753.989	10864.35
754.327	11045.59
754.666	11006.72
755.004	11221.4
755.342	11358.57
755.679	11490.32
756.017	11604.89
756.355	11769.63
756.693	11791.1
757.031	12056.41
757.368	12052.79
757.706	12220.92
758.044	12325.55
758.381	12528.94
758.719	12605.09
759.056	12737.07
759.394	12947.91
759.731	13121.69
760.068	13220.67
760.405	13248.69
760.743	13462.47
761.08	13715.35
761.417	13812.74
761.754	13937.26
762.091	14251.83
762.428	14343.8
762.765	14393.29
763.102	14676
763.438	14760.29
763.775	14911.7
764.112	15059.49
764.449	15281.63
764.785	15390.33
765.122	15415.87
765.458	15674.16
765.795	15813.82
766.131	15971.78
766.467	16122.97
766.804	16180.14
767.14	16335.62
767.476	16486.12
767.812	16624.65
768.148	16774.93
768.485	16759.33
768.821	16788.94
769.157	17112.32
769.492	17172.66
769.828	17371.52
770.164	17291.07
770.5	17476.6
770.836	17538.52
771.171	17646.32
771.507	17751.85
771.842	17728.35
772.178	17904.84
772.513	17969.25
772.849	18026.64
773.184	18068.45
773.519	18249.24
773.855	18211.27
774.19	18290.59
774.525	18346.86
774.86	18424.83
775.195	18630.47
775.53	18529.46
775.865	18548.66
776.2	18448.78
776.535	18497.14
776.87	18594.31
777.205	18646.97
777.539	18600.64
777.874	18892.16
778.209	18790.47
778.543	18651.94
778.878	18664.59
779.212	18725.16
779.547	18758.6
779.881	18875.66
780.215	18839.05
780.55	18941.2
780.884	18807.19
781.218	18881.31
781.552	18841.99
781.886	18786.62
782.22	18761.99
782.554	18810.58
782.888	18709.34
783.222	18670.02
783.556	18584.14
783.889	18673.86
784.223	18651.49
784.557	18594.77
784.89	18785.72
785.224	18630.7
785.557	18534.65
785.891	18604.71
786.224	18634.99
786.558	18653.07
786.891	18469.8
787.224	18453.98
787.557	18499.17
787.891	18460.31
788.224	18535.11
788.557	18528.78
788.89	18454.66
789.223	18463.24
789.556	18434.54
789.888	18449.23
790.221	18303.02
790.554	18243.59
790.887	18333.3
791.219	18126.98
791.552	18193.19
791.884	18089.47
792.217	18177.15
792.549	18149.81
792.882	18044.05
793.214	17947.1
793.546	17961.11
793.879	17889.93
794.211	17830.04
794.543	17937.16
794.875	17848.57
795.207	17920.66
795.539	17768.57
795.871	17796.14
796.203	17625.3
796.535	17531.52
796.867	17575.13
797.198	17470.5
797.53	17547.11
797.862	17399.77
798.193	17476.15
798.525	17297.17
798.856	17355.48
799.188	17225.31
799.519	17167.23
799.85	17041.13
800.182	17094.69
800.513	17155.03
800.844	16997.07
801.175	17116.61
801.506	17073.22
801.837	16977.41
802.168	16954.58
802.499	16898.54
802.83	16814.7
803.161	16766.79
803.491	16775.6
803.822	16725.44
804.153	16698.54
804.483	16642.27
804.814	16520.24
805.145	16571.09
805.475	16515.27
805.805	16513.69
806.136	16439.12
806.466	16415.16
806.796	16353.02
807.126	16287.03
807.457	16316.63
807.787	16283.64
808.117	16211.55
808.447	16153.7
808.777	16170.65
809.107	16117.09
809.436	16040.26
809.766	16054.27
810.096	16010.2
810.426	16021.73
810.755	16066.7
811.085	15896.53
811.414	15927.94
811.744	15753.03
812.073	15824.89
812.403	15745.35
812.732	15742.64
813.061	15740.15
813.39	15646.82
813.719	15620.38
814.049	15624.45
814.378	15551.68
814.707	15554.17
815.036	15587.39
815.365	15463.32
815.693	15436.43
816.022	15401.4
816.351	15311.46
816.68	15282.99
817.008	15396.66
817.337	15134.52
817.665	15143.33
817.994	15311.69
818.322	15257.9
818.651	15123.67
818.979	15084.12
819.307	15072.15
819.636	15071.47
819.964	14995.54
820.292	15057.68
820.62	14964.8
820.948	14923.45
821.276	15062.43
821.604	14974.97
821.932	15041.86
822.259	15025.37
822.587	14963.67
822.915	14937.01
823.243	15017.01
823.57	14854.07
823.898	14977.23
824.225	14959.61
824.553	14867.41
824.88	14980.62
825.207	14915.99
825.535	14990.57
825.862	15077.12
826.189	14905.82
826.516	15023.56
826.843	15045.93
827.17	15025.37
827.497	15014.07
827.824	14986.95
828.151	15115.53
828.478	14951.92
828.805	15097.91
829.131	14995.99
829.458	14981.08
829.785	14950.34
830.111	15071.47
830.438	15103.78
830.764	14946.5
831.09	14987.4
831.417	14831.93
831.743	15024.24
832.069	14960.96
832.395	14864.24
832.722	15033.73
833.048	14852.49
833.374	14871.47
833.7	14926.39
834.026	14877.57
834.351	14894.52
834.677	14885.71
835.003	14932.49
835.329	14854.75
835.654	14793.28
835.98	14762.55
836.306	14785.15
836.631	14778.82
836.956	14787.41
837.282	14716.22
837.607	14739.05
837.932	14734.08
838.258	14704.02
838.583	14592.61
838.908	14551.71
839.233	14571.82
839.558	14603.91
839.883	14533.63
840.208	14487.98
840.533	14567.98
840.858	14499.96
841.182	14508.55
841.507	14459.05
841.832	14365.05
842.156	14364.37
842.481	14333.86
842.805	14301.09
843.13	14289.57
843.454	14268.33
843.778	14163.47
844.103	14130.48
844.427	14224.26
844.751	14137.26
845.075	14059.97
845.399	14074.43
845.723	13993.08
846.047	13963.47
846.371	13883.93
846.695	13866.53
847.019	13729.58
847.343	13742.46
847.666	13606.87
847.99	13631.28
848.313	13572.07
848.637	13596.25
848.96	13496.59
849.284	13474.22
849.607	13296.15
849.931	13323.04
850.254	13291.4
850.577	13182.25
850.9	13112.42
851.223	13112.2
851.546	13084.85
851.869	12951.75
852.192	13058.41
852.515	12883.73
852.838	12860.45
853.161	12802.38
853.483	12757.63
853.806	12701.36
854.129	12682.6
854.451	12645.77
854.774	12566.9
855.096	12498.65
855.419	12446.9
855.741	12444.87
856.063	12408.49
856.385	12349.05
856.708	12323.07
857.03	12329.39
857.352	12301.6
857.674	12286
857.996	12226.8
858.318	12138.89
858.64	12128.49
858.961	12040.36
859.283	11961.49
859.605	11963.3
859.926	12021.15
860.248	11963.08
860.57	11885.11
860.891	11920.36
861.212	11754.49
861.534	11833.81
861.855	11817.99
862.176	11750.88
862.498	11872.91
862.819	11744.55
863.14	11663.87
863.461	11688.73
863.782	11687.83
864.103	11712.46
864.424	11664.1
864.745	11720.6
865.065	11577.32
865.386	11520.38
865.707	11485.8
866.027	11436.08
866.348	11528.28
866.668	11539.58
866.989	11495.74
867.309	11439.7
867.63	11453.48
867.95	11388.85
868.27	11309.53
868.59	11399.93
868.91	11365.12
869.23	11265.47
869.55	11244.9
869.87	11292.81
870.19	11239.03
870.51	11262.98
870.83	11272.02
871.15	11248.52
871.469	11141.4
871.789	11195.19
872.109	11151.57
872.428	11153.38
872.748	11084.91
873.067	11194.28
873.386	11159.93
873.706	11051.23
874.025	11015.53
874.344	11015.53
874.663	10957.45
874.982	10991.8
875.301	11070.22
875.62	10982.76
875.939	10948.86
876.258	10938.47
876.577	10984.8
876.896	10853.73
877.214	10813.28
877.533	10874.06
877.852	10917
878.17	10841.97
878.489	10790.45
878.807	10770.11
879.125	10815.53
879.444	10757.68
879.762	10769.66
880.08	10727.4
880.398	10712.94
880.716	10738.25
881.034	10706.61
881.352	10641.08
881.67	10634.75
881.988	10598.59
882.306	10606.95
882.624	10568.99
882.941	10498.93
883.259	10480.63
883.577	10440.86
883.894	10420.97
884.212	10424.81
884.529	10384.13
884.846	10369.22
885.164	10369.9
885.481	10258.49
885.798	10285.61
886.115	10332.84
886.432	10212.16
886.75	10187.53
887.067	10175.78
887.383	10267.98
887.7	10238.37
888.017	10115.21
888.334	10129.23
888.651	10093.97
888.967	10108.89
889.284	10003.8
889.6	10010.13
889.917	9862.34
890.233	9954.09
890.55	9906.63
890.866	9959.06
891.182	9899.85
891.498	9780.53
891.815	9815.34
892.131	9783.7
892.447	9694.89
892.763	9743.25
893.079	9647.43
893.395	9635.45
893.71	9595
894.026	9588.9
894.342	9607.43
894.657	9425.29
894.973	9540.77
895.289	9457.15
895.604	9457.83
895.92	9371.73
896.235	9374.22
896.55	9362.47
896.865	9305.07
897.181	9304.39
897.496	9246.54
897.811	9192.3
898.126	9174.22
898.441	9140.32
898.756	9086.09
899.071	9076.15
899.386	9124.73
899.7	9015.81
900.015	8967
900.33	8875.25
900.644	8941.01
900.959	8859.43
901.273	8843.84
901.588	8807.9
901.902	8778.98
902.216	8774.01
902.531	8762.93
902.845	8663.95
903.159	8646.55
903.473	8650.39
903.787	8620.34
904.101	8546.67
904.415	8527.23
904.729	8500.12
905.042	8453.79
905.356	8435.71
905.67	8361.14
905.984	8354.81
906.297	8291.76
906.611	8267.81
906.924	8360.46
907.237	8278.88
907.551	8219.44
907.864	8225.09
908.177	8208.15
908.491	8136.28
908.804	8086.79
909.117	7980.81
909.43	7993.46
909.743	7998.89
910.056	7997.76
910.368	7909.17
910.681	7820.36
910.994	7871.66
911.307	7792.34
911.619	7795.73
911.932	7779.68
912.244	7675.73
912.557	7688.84
912.869	7652
913.181	7612
913.494	7615.17
913.806	7481.84
914.118	7503.98
914.43	7472.57
914.742	7488.16
915.054	7408.17
915.366	7456.75
915.678	7454.49
915.99	7336.53
916.302	7291.79
916.613	7258.11
916.925	7270.32
917.236	7227.38
917.548	7177.89
917.859	7212.69
918.171	7192.13
918.482	7114.84
918.794	7045.24
919.105	7016.54
919.416	6976.09
919.727	7021.28
920.038	6941.06
920.349	6896.77
920.66	6924.11
920.971	6818.13
921.282	6917.33
921.593	6841.18
921.903	6768.86
922.214	6775.19
922.525	6786.26
922.835	6678.24
923.146	6730.44
923.456	6662.88
923.767	6653.38
924.077	6634.4
924.387	6545.82
924.697	6492.94
925.008	6512.6
925.318	6461.75
925.628	6511.02
925.938	6510.11
926.248	6378.36
926.558	6456.1
926.867	6377.01
927.177	6279.61
927.487	6359.38
927.796	6269.89
928.106	6248.42
928.416	6255.65
928.725	6173.62
929.034	6199.61
929.344	6188.76
929.653	6120.07
929.962	6108.99
930.271	6068.32
930.581	6082.78
930.89	6007.98
931.199	5965.27
931.508	6050.69
931.817	5972.72
932.125	5913.29
932.434	5932.73
932.743	5916.68
933.051	5851.15
933.36	5830.81
933.669	5802.79
933.977	5818.6
934.286	5745.16
934.594	5755.55
934.902	5714.43
935.21	5671.72
935.519	5636.24
935.827	5680.08
936.135	5633.52
936.443	5544.26
936.751	5551.49
937.059	5582.23
937.367	5524.83
937.674	5495.9
937.982	5476.24
938.29	5489.35
938.597	5442.34
938.905	5378.62
939.213	5389.01
939.52	5348.33
939.827	5389.24
940.135	5298.39
940.442	5276.47
940.749	5286.41
941.056	5231.05
941.363	5258.62
941.67	5189.47
941.977	5203.03
942.284	5183.82
942.591	5131.39
942.898	5116.25
943.205	5092.75
943.511	5102.24
943.818	5068.34
944.125	5044.61
944.431	5007.55
944.738	5046.2
945.044	4949.02
945.35	4947.21
945.657	4916.71
945.963	4929.36
946.269	4861.57
946.575	4883.04
946.881	4821.12
947.187	4810.49
947.493	4801.23
947.799	4811.4
948.105	4766.88
948.41	4708.58
948.716	4775.69
949.022	4699.09
949.327	4662.93
949.633	4629.26
949.938	4615.02
950.244	4617.28
950.549	4573.67
950.854	4550.84
951.16	4538.19
951.465	4537.06
951.77	4520.56
952.075	4499.77
952.38	4446.89
952.685	4472.65
952.99	4439.21
953.294	4474.91
953.599	4437.85
953.904	4413.22
954.209	4362.6
954.513	4328.93
954.818	4297.29
955.122	4325.54
955.426	4277.63
955.731	4260
956.035	4267.68
956.339	4220.68
956.643	4191.3
956.948	4198.08
957.252	4183.17
957.556	4157.4
957.86	4148.82
958.163	4155.14
958.467	4118.99
958.771	4104.07
959.075	4085.77
959.378	4076.95
959.682	4031.31
959.985	4015.94
960.289	4005.54
960.592	4015.26
960.896	4015.26
961.199	3939.11
961.502	3892.33
961.805	3974.81
962.108	3946.56
962.411	3880.12
962.714	3869.05
963.017	3864.53
963.32	3887.58
963.623	3862.27
963.926	3797.19
964.228	3841.03
964.531	3754.25
964.833	3733.91
965.136	3725.78
965.438	3754.7
965.741	3702.05
966.043	3720.81
966.345	3676.51
966.648	3631.09
966.95	3676.97
967.252	3608.04
967.554	3611.2
967.856	3614.14
968.158	3548.61
968.46	3563.3
968.761	3584.09
969.063	3547.25
969.365	3518.33
969.666	3512.68
969.968	3458.89
970.269	3427.48
970.571	3469.06
970.872	3476.29
971.174	3389.52
971.475	3421.6
971.776	3418.89
972.077	3375.5
972.378	3395.16
972.679	3384.54
972.98	3323.98
973.281	3311.33
973.582	3345.67
973.883	3304.32
974.183	3274.72
974.484	3297.31
974.785	3284.89
975.085	3238.56
975.386	3255.06
975.686	3211.44
975.986	3216.19
976.287	3206.02
976.587	3155.62
976.887	3151.33
977.187	3107.71
977.487	3163.76
977.787	3112.46
978.087	3120.14
978.387	3099.81
978.687	3079.47
978.987	3069.3
979.286	3030.65
979.586	3035.63
979.885	2997.44
980.185	3026.59
980.484	2993.37
980.784	2953.82
981.083	2959.24
981.382	2958.34
981.682	2943.43
981.981	2894.84
982.28	2907.49
982.579	2877.21
982.878	2911.11
983.177	2878.12
983.475	2845.57
983.774	2801.28
984.073	2828.63
984.372	2810.55
984.67	2775.97
984.969	2820.72
985.267	2784.33
985.566	2747.95
985.864	2761.28
986.162	2740.94
986.461	2730.55
986.759	2705.69
987.057	2705.47
987.355	2698.69
987.653	2687.16
987.951	2686.48
988.249	2653.72
988.547	2631.8
988.844	2614.17
989.142	2598.8
989.44	2619.37
989.737	2601.74
990.035	2589.54
990.332	2592.25
990.63	2565.36
990.927	2548.63
991.224	2531.23
991.521	2535.07
991.819	2525.36
992.116	2520.84
992.413	2481.74
992.71	2473.38
993.006	2473.16
993.303	2429.54
993.6	2455.08
993.897	2478.58
994.193	2434.06
994.49	2392.93
994.787	2384.12
995.083	2376.89
995.379	2366.27
995.676	2382.31
995.972	2357.9
996.268	2353.38
996.565	2315.87
996.861	2322.88
997.157	2324.46
997.453	2288.3
997.749	2313.39
998.044	2269.54
998.34	2269.32
998.636	2258.25
998.932	2276.32
999.227	2237.46
999.523	2222.77
999.818	2220.51
1000.114	2176.21
1000.409	2169.66
1000.704	2155.65
1001	2120.17
1001.295	2110.9
1001.59	2137.8
1001.885	2170.56
1002.18	2078.82
1002.475	2086.05
1002.77	2093.96
1003.065	2073.84
1003.359	2077.69
1003.654	2053.96
1003.949	2075.2
1004.243	2066.61
1004.538	2001.3
1004.832	1999.72
1005.127	2012.83
1005.421	1965.82
1005.715	1988.65
1006.009	1977.35
1006.304	1966.95
1006.598	1922.66
1006.892	1927.63
1007.186	1903.68
1007.48	1867.75
1007.773	1903
1008.067	1888.76
1008.361	1859.84
1008.655	1888.09
1008.948	1880.18
1009.242	1856.22
1009.535	1850.12
1009.829	1818.26
1010.122	1811.48
1010.415	1794.08
1010.708	1787.52
1011.001	1783.46
1011.295	1782.78
1011.588	1758.82
1011.881	1773.51
1012.173	1756.79
1012.466	1744.59
1012.759	1754.98
1013.052	1727.19
1013.344	1689.22
1013.637	1700.52
1013.93	1715.66
1014.222	1691.25
1014.514	1667.07
1014.807	1651.93
1015.099	1659.84
1015.391	1601.54
1015.683	1637.7
1015.976	1621.88
1016.268	1594.31
1016.56	1614.19
1016.851	1555.89
1017.143	1551.82
1017.435	1546.85
1017.727	1554.99
1018.018	1536.23
1018.31	1539.62
1018.602	1503.69
1018.893	1528.55
1019.185	1543.69
1019.476	1488.77
1019.767	1506.4
1020.058	1468.44
1020.35	1469.34
1020.641	1434.54
1020.932	1433.41
1021.223	1463.24
1021.514	1460.3
1021.804	1409
1022.095	1420.53
1022.386	1397.25
1022.677	1391.38
1022.967	1378.27
1023.258	1377.36
1023.548	1340.76
1023.839	1374.65
1024.129	1357.03
1024.419	1315.22
1024.709	1314.54
1025	1313.86
1025.29	1316.8
1025.58	1303.24
1025.87	1282.45
1026.16	1277.93
1026.449	1291.27
1026.739	1303.24
1027.029	1273.86
1027.319	1275.9
1027.608	1244.26
1027.898	1235.45
1028.187	1205.17
1028.477	1216.69
1028.766	1227.09
1029.055	1201.55
1029.344	1220.76
1029.634	1206.52
1029.923	1181.66
1030.212	1176.24
1030.501	1155.45
1030.79	1142.12
1031.078	1160.42
1031.367	1152.51
1031.656	1148.44
1031.945	1108.9
1032.233	1130.82
1032.522	1107.99
1032.81	1107.32
1033.099	1109.35
1033.387	1127.43
1033.675	1084.04
1033.963	1077.49
1034.251	1097.6
1034.54	1033.65
1034.828	1063.7
1035.116	1031.84
1035.403	1049.24
1035.691	1042.46
1035.979	1011.5
1036.267	1016.7
1036.554	1009.69
1036.842	999.97
1037.129	1006.98
1037.417	1023.48
1037.704	995.68
1037.992	999.97
1038.279	975.12
1038.566	988.67
1038.853	988.67
1039.14	988.67
