Data from hue_210_FLMS001491_00054.txt Node
Date: Tue Feb 07 16:41:23 GMT 2017
User: dcchb
Spectrometer: FLMS00149
Trigger mode: 0
Integration Time (sec): 2.000000E-2
Scans to average: 10
Electric dark correction enabled: true
Nonlinearity correction enabled: false
Boxcar width: 0
XAxis mode: Wavelengths
Number of Pixels in Spectrum: 2048
>>>>>Begin Spectral Data<<<<<
341.393	-22.08
341.776	-22.08
342.16	-22.08
342.543	-66.82
342.927	-64.11
343.31	-78.8
343.693	-72.24
344.077	-78.57
344.46	-52.13
344.843	-46.48
345.226	-48.29
345.61	-38.35
345.993	-32.24
346.376	-5.35
346.759	26.06
347.142	36.68
347.525	52.5
347.908	57.92
348.291	67.41
348.674	94.31
349.057	117.58
349.44	123.23
349.823	126.39
350.206	149.9
350.588	198.48
350.971	214.08
351.354	204.36
351.737	223.57
352.119	240.29
352.502	268.31
352.884	285.94
353.267	294.07
353.65	305.37
354.032	303.79
354.414	292.49
354.797	311.25
355.179	301.98
355.562	341.3
355.944	309.44
356.326	320.97
356.709	320.74
357.091	342.21
357.473	327.52
357.855	335.43
358.238	327.97
358.62	331.81
359.002	346.73
359.384	322.55
359.766	347.18
360.148	333.17
360.53	319.38
360.912	349.44
361.294	333.4
361.676	320.74
362.057	313.51
362.439	333.17
362.821	342.66
363.203	333.85
363.584	313.06
363.966	314.41
364.348	303.11
364.729	299.5
365.111	322.32
365.493	315.99
365.874	321.42
366.256	304.24
366.637	287.97
367.019	308.31
367.4	306.73
367.781	319.84
368.163	326.16
368.544	318.48
368.925	302.66
369.306	308.54
369.688	313.73
370.069	294.53
370.45	306.5
370.831	315.54
371.212	314.19
371.593	331.14
371.974	311.47
372.355	315.09
372.736	332.04
373.117	325.26
373.498	317.35
373.879	297.01
374.26	306.5
374.641	315.77
375.021	290.91
375.402	288.65
375.783	309.22
376.163	315.09
376.544	322.32
376.925	338.82
377.305	328.88
377.686	318.93
378.066	311.02
378.447	331.59
378.827	321.87
379.208	317.58
379.588	327.75
379.968	327.29
380.349	312.6
380.729	315.77
381.109	332.04
381.489	337.69
381.87	327.07
382.25	320.06
382.63	342.21
383.01	346.28
383.39	336.33
383.77	335.88
384.15	344.02
384.53	320.97
384.91	347.18
385.29	327.29
385.67	330.01
386.049	338.59
386.429	329.1
386.809	347.86
387.189	340.4
387.568	330.46
387.948	339.5
388.328	344.69
388.707	332.49
389.087	341.3
389.466	346.73
389.846	343.56
390.225	329.78
390.605	360.74
390.984	355.09
391.363	341.3
391.743	341.98
392.122	348.31
392.501	354.64
392.881	365.48
393.26	346.95
393.639	384.47
394.018	365.48
394.397	358.25
394.776	392.15
395.155	363.9
395.534	374.52
395.913	376.33
396.292	371.59
396.671	376.11
397.05	391.92
397.429	378.14
397.808	384.69
398.186	361.64
398.565	405.48
398.944	388.53
399.323	377.91
399.701	400.51
400.08	391.47
400.458	401.19
400.837	399.16
401.215	376.78
401.594	396.67
401.972	388.53
402.351	395.31
402.729	390.34
403.107	419.72
403.486	410.46
403.864	438.7
404.242	407.97
404.62	430.57
404.999	424.92
405.377	447.06
405.755	440.74
406.133	442.32
406.511	419.72
406.889	449.32
407.267	446.61
407.645	444.13
408.023	481.19
408.401	458.36
408.779	465.14
409.156	487.52
409.534	475.99
409.912	517.8
410.29	508.08
410.667	532.26
411.045	538.59
411.422	530.45
411.8	536.55
412.178	552.15
412.555	548.53
412.933	569.55
413.31	567.29
413.687	576.33
414.065	565.93
414.442	599.38
414.819	583.56
415.197	624.01
415.574	609.32
415.951	608.64
416.328	629.21
416.705	605.93
417.082	651.8
417.46	659.26
417.837	669.66
418.214	665.36
418.591	666.72
418.967	675.31
419.344	714.85
419.721	676.66
420.098	695.65
420.475	739.71
420.852	730.67
421.228	751.92
421.605	740.39
421.982	760.28
422.358	788.98
422.735	793.95
423.111	804.8
423.488	824.91
423.864	828.75
424.241	838.01
424.617	863.32
424.994	887.73
425.37	900.84
425.746	902.19
426.123	920.5
426.499	909.2
426.875	956.88
427.251	955.07
427.627	975.86
428.003	987.39
428.379	993.72
428.756	997.33
429.132	1010.21
429.507	1050.44
429.883	1053.15
430.259	1048.18
430.635	1066.94
431.011	1065.81
431.387	1111.45
431.763	1107.84
432.138	1106.71
432.514	1135.41
432.89	1142.41
433.265	1197.33
433.641	1185.35
434.016	1196.65
434.392	1244.33
434.767	1256.99
435.143	1266.25
435.518	1292.69
435.894	1315.29
436.269	1384.89
436.644	1358.68
437.02	1358.23
437.395	1412.91
437.77	1437.77
438.145	1418.79
438.52	1480.48
438.895	1490.65
439.271	1533.36
439.646	1535.17
440.021	1589.63
440.395	1593.7
440.77	1588.5
441.145	1618.56
441.52	1633.02
441.895	1646.58
442.27	1655.85
442.645	1691.1
443.019	1736.52
443.394	1693.36
443.769	1739.46
444.143	1764.77
444.518	1789.4
444.892	1782.85
445.267	1802.74
445.641	1821.27
446.016	1839.8
446.39	1853.81
446.764	1869.85
447.139	1861.94
447.513	1892
447.887	1886.35
448.262	1873.69
448.636	1918.66
449.01	1957.31
449.384	1948.27
449.758	1979
450.132	1986.01
450.506	2023.52
450.88	2033.46
451.254	2010.64
451.628	2059.9
452.002	2091.54
452.376	2094.48
452.75	2138.77
453.123	2135.83
453.497	2203.18
453.871	2176.28
454.244	2211.76
454.618	2243.85
454.992	2254.47
455.365	2274.59
455.739	2301.93
456.112	2312.78
456.486	2321.59
456.859	2368.14
457.232	2407.92
457.606	2393.45
457.979	2432.55
458.352	2516.16
458.725	2517.07
459.099	2533.79
459.472	2564.07
459.845	2568.59
460.218	2632.32
460.591	2670.73
460.964	2651.75
461.337	2695.82
461.71	2744.41
462.083	2775.82
462.456	2765.42
462.829	2811.97
463.201	2839.54
463.574	2865.76
463.947	2868.7
464.32	2935.81
464.692	2939.88
465.065	2991.63
465.438	3034.12
465.81	3102.14
466.183	3078.41
466.555	3171.06
466.928	3172.42
467.3	3176.26
467.672	3220.55
468.045	3285.18
468.417	3310.49
468.789	3311.4
469.161	3313.66
469.534	3416.03
469.906	3441.11
470.278	3524.5
470.65	3507.1
471.022	3574.21
471.394	3684.72
471.766	3690.14
472.138	3701.22
472.51	3810.37
472.882	3861.89
473.253	3897.6
473.625	3940.31
473.997	3968.55
474.369	4048.55
474.74	4073.86
475.112	4101.21
475.484	4158.15
475.855	4236.8
476.227	4293.29
476.598	4363.57
476.97	4399.73
477.341	4488.31
477.713	4548.2
478.084	4545.26
478.455	4679.27
478.827	4679.27
479.198	4826.61
479.569	4864.58
479.94	4969.21
480.311	5035.64
480.682	5085.36
481.053	5161.74
481.424	5251.01
481.795	5289.88
482.166	5399.93
482.537	5397.22
482.908	5516.76
483.279	5537.55
483.65	5669.07
484.021	5733.25
484.391	5712.24
484.762	5833.59
485.133	5852.12
485.503	5948.84
485.874	6047.82
486.244	6086.46
486.615	6247.14
486.985	6284.88
487.356	6393.12
487.726	6387.93
488.097	6547.24
488.467	6492.1
488.837	6657.52
489.207	6670.86
489.578	6845.54
489.948	6855.03
490.318	6916.72
490.688	6936.84
491.058	7015.71
491.428	7119.88
491.798	7246.43
492.168	7259.77
492.538	7318.75
492.908	7379.99
493.278	7420.67
493.648	7434
494.017	7536.82
494.387	7515.81
494.757	7611.85
495.126	7749.92
495.496	7674.45
495.866	7762.13
496.235	7800.54
496.605	7851.39
496.974	7870.15
497.344	7904.95
497.713	7968.9
498.082	8014.55
498.452	8160.99
498.821	8145.17
499.19	8171.61
499.559	8146.75
499.928	8196.69
500.298	8231.04
500.667	8292.06
501.036	8240.76
501.405	8277.14
501.774	8303.36
502.143	8375.22
502.512	8400.75
502.88	8455.89
503.249	8448.66
503.618	8486.85
503.987	8518.26
504.356	8542.44
504.724	8539.06
505.093	8594.42
505.462	8565.95
505.83	8599.84
506.199	8671.93
506.567	8715.32
506.936	8667.19
507.304	8802.55
507.672	8740.18
508.041	8748.99
508.409	8795.32
508.777	8897.46
509.145	8896.56
509.514	8866.05
509.882	8901.76
510.25	8868.99
510.618	8865.83
510.986	8899.27
511.354	9017.69
511.722	8972.49
512.09	9048.19
512.458	8981.98
512.826	9062.88
513.193	9041.64
513.561	9027.4
513.929	9062.88
514.297	9116.67
514.664	9089.1
515.032	9105.59
515.4	9180.17
515.767	9208.19
516.135	9234.86
516.502	9146.27
516.869	9252.93
517.237	9193.05
517.604	9102.66
517.972	9213.39
518.339	9226.72
518.706	9196.21
519.073	9187.63
519.44	9228.98
519.808	9244.35
520.175	9240.51
520.542	9260.62
520.909	9333.38
521.276	9247.29
521.643	9301.52
522.009	9324.8
522.376	9308.53
522.743	9290.67
523.11	9362.08
523.477	9401.41
523.843	9417.68
524.21	9435.08
524.577	9329.77
524.943	9369.09
525.31	9405.02
525.676	9448.41
526.043	9464.68
526.409	9473.27
526.776	9459.03
527.142	9434.62
527.508	9466.26
527.874	9487.73
528.241	9439.14
528.607	9409.77
528.973	9445.02
529.339	9497
529.705	9493.61
530.071	9444.57
530.437	9426.26
530.803	9452.25
531.169	9464.23
531.535	9390.56
531.901	9387.17
532.267	9409.54
532.632	9316.89
532.998	9314.63
533.364	9339.94
533.73	9326.38
534.095	9285.25
534.461	9320.28
534.826	9253.61
535.192	9284.8
535.557	9280.28
535.923	9200.73
536.288	9159.83
536.653	9200.96
537.019	9047.97
537.384	9068.53
537.749	9140.17
538.114	9011.13
538.479	9039.38
538.845	9031.7
539.21	8925.49
539.575	8938.82
539.94	8892.72
540.305	8903.57
540.67	8837.13
541.034	8888.88
541.399	8809.56
541.764	8766.62
542.129	8780.63
542.494	8726.62
542.858	8734.08
543.223	8759.39
543.587	8701.31
543.952	8638.26
544.316	8574.76
544.681	8586.06
545.045	8525.27
545.41	8524.37
545.774	8456.8
546.138	8432.39
546.503	8365.5
546.867	8339.06
547.231	8392.17
547.595	8278.27
547.959	8359.62
548.324	8221.32
548.688	8173.64
549.052	8211.38
549.416	8162.34
549.779	8168.22
550.143	8127.31
550.507	8097.03
550.871	8107.2
551.235	8024.49
551.599	8016.81
551.962	7999.63
552.326	7895
552.689	7993.31
553.053	7855.46
553.417	7837.15
553.78	7907.43
554.143	7819.98
554.507	7800.54
554.87	7791.5
555.234	7828.34
555.597	7698.17
555.96	7671.28
556.323	7731.62
556.686	7683.03
557.05	7674.67
557.413	7610.27
557.776	7617.27
558.139	7546.76
558.502	7607.55
558.865	7583.37
559.228	7602.13
559.59	7613.88
559.953	7530.95
560.316	7583.15
560.679	7497.5
561.041	7583.83
561.404	7568.01
561.767	7518.74
562.129	7457.5
562.492	7541.79
562.854	7525.75
563.217	7489.59
563.579	7468.35
563.941	7513.77
564.304	7456.82
564.666	7530.72
565.028	7491.85
565.39	7441.68
565.753	7510.38
566.115	7484.39
566.477	7466.31
566.839	7483.94
567.201	7597.61
567.563	7476.71
567.925	7504.28
568.287	7465.86
568.648	7530.27
569.01	7516.03
569.372	7516.71
569.734	7536.82
570.095	7531.62
570.457	7498.86
570.819	7494.56
571.18	7513.32
571.542	7558.74
571.903	7507.67
572.265	7587.22
572.626	7546.31
572.987	7605.75
573.349	7498.63
573.71	7516.48
574.071	7590.83
574.432	7597.16
574.794	7616.14
575.155	7593.09
575.516	7514.68
575.877	7594.22
576.238	7598.06
576.599	7579.98
576.96	7612.75
577.32	7589.48
577.681	7617.95
578.042	7684.39
578.403	7598.51
578.763	7632.41
579.124	7598.06
579.485	7672.64
579.845	7727.55
580.206	7673.99
580.566	7726.42
580.927	7698.63
581.287	7652.07
581.648	7677.38
582.008	7734.78
582.368	7716.7
582.728	7796.48
583.089	7716.7
583.449	7705.63
583.809	7732.3
584.169	7762.8
584.529	7724.61
584.889	7820.66
585.249	7728.91
585.609	7744.73
585.969	7724.61
586.329	7785.4
586.688	7785.4
587.048	7805.74
587.408	7774.1
587.768	7786.53
588.127	7820.2
588.487	7773.65
588.846	7831.96
589.206	7812.75
589.565	7810.49
589.925	7835.12
590.284	7831.96
590.643	7888.22
591.003	7874.89
591.362	7827.66
591.721	7907.43
592.08	7875.34
592.44	7896.13
592.799	7836.25
593.158	7855.01
593.517	7868.34
593.876	7857.94
594.235	7859.98
594.593	7820.66
594.952	7907.21
595.311	7857.27
595.67	7888.68
596.029	7908.79
596.387	7908.79
596.746	7940.2
597.104	7883.71
597.463	7939.75
597.822	7913.31
598.18	7826.76
598.538	7846.87
598.897	7898.85
599.255	7831.28
599.613	7957.83
599.972	7830.15
600.33	7821.33
600.688	7902.69
601.046	7897.94
601.404	7947.88
601.762	7918.73
602.12	7953.99
602.478	7949.24
602.836	7885.29
603.194	7923.25
603.552	7917.6
603.91	7885.06
604.268	7843.71
604.625	7939.52
604.983	7912.63
605.341	7890.94
605.698	7922.57
606.056	7944.95
606.413	7927.09
606.771	7988.34
607.128	7980.65
607.485	7937.04
607.843	7949.01
608.2	8003.7
608.557	7963.93
608.914	7985.17
609.272	7990.59
609.629	7961.44
609.986	7995.11
610.343	7951.73
610.7	8029.92
611.057	7994.66
611.414	7989.24
611.771	8015.68
612.127	8015.91
612.484	8031.95
612.841	8029.01
613.198	8004.38
613.554	8087.09
613.911	8026.53
614.267	8070.59
614.624	8031.95
614.98	8049.8
615.337	8091.84
615.693	8082.34
616.05	8066.07
616.406	8064.04
616.762	8079.63
617.118	8072.4
617.475	8147.65
617.831	8068.79
618.187	8082.34
618.543	8103.36
618.899	8146.52
619.255	8174.09
619.611	8086.19
619.967	8165.96
620.323	8202.79
620.678	8134.55
621.034	8136.35
621.39	8140.2
621.746	8120.08
622.101	8168.9
622.457	8125.28
622.812	8137.71
623.168	8162.34
623.523	8130.93
623.879	8184.49
624.234	8159.86
624.589	8136.58
624.945	8163.7
625.3	8123.02
625.655	8210.7
626.01	8139.29
626.365	8169.12
626.72	8144.26
627.075	8187.2
627.43	8155.11
627.785	8109.91
628.14	8142.68
628.495	8140.2
628.85	8120.99
629.205	8130.93
629.559	8091.38
629.914	8127.99
630.269	8159.18
630.623	8102.68
630.978	8120.99
631.332	8083.93
631.687	8115.11
632.041	8030.59
632.396	8054.55
632.75	8030.82
633.104	8032.4
633.459	7992.85
633.813	7996.02
634.167	7972.52
634.521	7980.2
634.875	8038.05
635.229	7978.39
635.583	7911.95
635.937	7969.13
636.291	7931.84
636.645	7981.33
636.999	7949.01
637.352	7934.1
637.706	7890.48
638.06	7925.29
638.413	7919.18
638.767	7893.2
639.121	7905.4
639.474	7805.97
639.828	7860.43
640.181	7866.76
640.534	7915.79
640.888	7830.15
641.241	7855.23
641.594	7818.4
641.947	7818.17
642.301	7794.44
642.654	7903.82
643.007	7848.68
643.36	7834.67
643.713	7793.31
644.066	7871.28
644.419	7828.57
644.771	7743.6
645.124	7720.32
645.477	7700.89
645.83	7638.74
646.182	7577.95
646.535	7530.49
646.888	7567.1
647.24	7537.5
647.593	7552.87
647.945	7522.13
648.298	7488.91
648.65	7531.4
649.002	7462.02
649.355	7539.31
649.707	7514.9
650.059	7612.98
650.411	7659.3
650.763	7633.77
651.115	7778.62
651.467	7671.73
651.819	7684.16
652.171	7648.23
652.523	7621.79
652.875	7661.11
653.227	7631.51
653.578	7694.11
653.93	7698.63
654.282	7650.26
654.633	7684.84
654.985	7745.86
655.337	7676.25
655.688	7693.88
656.039	7691.17
656.391	7670.83
656.742	7718.96
657.094	7687.55
657.445	7765.29
657.796	7719.42
658.147	7712.41
658.498	7663.37
658.849	7746.31
659.2	7758.51
659.551	7769.81
659.902	7738.17
660.253	7748.57
660.604	7728.91
660.955	7728.91
661.306	7732.07
661.656	7724.84
662.007	7784.72
662.358	7757.61
662.708	7777.95
663.059	7750.83
663.409	7750.6
663.76	7831.96
664.11	7806.65
664.461	7800.54
664.811	7817.49
665.161	7796.25
665.511	7779.98
665.862	7756.02
666.212	7843.48
666.562	7782.92
666.912	7775.91
667.262	7759.87
667.612	7791.28
667.962	7798.06
668.312	7813.2
668.662	7792.86
669.011	7740.88
669.361	7768.23
669.711	7789.7
670.06	7791.5
670.41	7805.52
670.76	7739.3
671.109	7764.39
671.459	7756.7
671.808	7743.6
672.157	7796.48
672.507	7708.12
672.856	7708.57
673.205	7768.91
673.554	7762.35
673.904	7743.14
674.253	7840.77
674.602	7698.63
674.951	7676.03
675.3	7600.77
675.649	7724.39
675.998	7636.71
676.346	7720.55
676.695	7716.93
677.044	7626.08
677.393	7685.07
677.741	7697.72
678.09	7646.88
678.438	7615.69
678.787	7643.03
679.135	7653.88
679.484	7624.28
679.832	7666.99
680.181	7541.12
680.529	7555.58
680.877	7542.7
681.225	7536.37
681.573	7615.69
681.922	7529.59
682.27	7466.77
682.618	7516.71
682.966	7543.15
683.314	7508.35
683.661	7414.79
684.009	7380.44
684.357	7415.92
684.705	7386.54
685.053	7443.04
685.4	7381.57
685.748	7318.97
686.095	7335.92
686.443	7341.12
686.79	7298.41
687.138	7330.27
687.485	7288.24
687.832	7305.19
688.18	7277.85
688.527	7176.61
688.874	7161.92
689.221	7148.13
689.568	7124.18
689.915	7149.94
690.262	7129.6
690.609	7077.62
690.956	7026.55
691.303	7023.61
691.65	7026.55
691.997	7023.61
692.344	7008.25
692.69	6964.86
693.037	6952.88
693.383	6914.24
693.73	6922.6
694.077	6861.36
694.423	6855.03
694.769	6861.81
695.116	6865.2
695.462	6780.68
695.808	6723.28
696.155	6767.12
696.501	6689.39
696.847	6660.01
697.193	6633.34
697.539	6615.94
697.885	6617.52
698.231	6620.69
698.577	6571.88
698.923	6522.84
699.269	6553.8
699.614	6483.06
699.96	6464.76
700.306	6448.26
700.651	6408.94
700.997	6371.65
701.342	6405.33
701.688	6323.97
702.033	6304.31
702.379	6295.5
702.724	6262.05
703.069	6329.85
703.415	6224.99
703.76	6184.54
704.105	6175.95
704.45	6192.22
704.795	6141.6
705.14	6126.01
705.485	6090.08
705.83	6096.41
706.175	6132.34
706.52	6001.27
706.865	6006.92
707.209	6019.35
707.554	6009.86
707.899	5976.86
708.243	5981.16
708.588	5982.51
708.932	5893.93
709.277	5934.15
709.621	5926.02
709.966	5858.22
710.31	5894.83
710.654	5816.41
710.998	5832.01
711.342	5815.06
711.687	5787.94
712.031	5762.18
712.375	5769.18
712.719	5761.73
713.063	5785.91
713.407	5766.47
713.75	5723.54
714.094	5751.33
714.438	5742.52
714.782	5685.57
715.125	5640.83
715.469	5669.07
715.812	5688.51
716.156	5644.67
716.499	5669.53
716.843	5578
717.186	5648.96
717.53	5587.95
717.873	5615.52
718.216	5625.23
718.559	5586.14
718.902	5559.25
719.246	5524.22
719.589	5556.99
719.932	5551.11
720.275	5540.49
720.617	5537.1
720.96	5554.95
721.303	5521.73
721.646	5561.05
721.989	5530.55
722.331	5517.44
722.674	5478.34
723.016	5511.79
723.359	5481.96
723.701	5481.96
724.044	5495.75
724.386	5460.27
724.729	5477.89
725.071	5474.28
725.413	5469.98
725.755	5502.75
726.097	5432.92
726.439	5403.32
726.782	5445.35
727.124	5456.2
727.465	5423.43
727.807	5479.47
728.149	5460.49
728.491	5416.88
728.833	5440.83
729.175	5465.01
729.516	5419.82
729.858	5427.72
730.199	5500.72
730.541	5446.26
730.882	5450.77
731.224	5413.49
731.565	5427.72
731.906	5452.81
732.248	5441.06
732.589	5435.41
732.93	5369.87
733.271	5376.43
733.612	5454.84
733.953	5437.22
734.294	5447.84
734.635	5453.49
734.976	5435.86
735.317	5392.02
735.658	5462.53
735.999	5437.67
736.339	5459.36
736.68	5460.49
737.021	5532.13
737.361	5481.28
737.702	5451.45
738.042	5444
738.383	5500.26
738.723	5501.62
739.063	5512.92
739.404	5503.2
739.744	5538.68
740.084	5529.64
740.424	5573.71
740.764	5535.52
741.104	5568.06
741.444	5562.64
741.784	5576.2
742.124	5623.65
742.464	5662.52
742.804	5609.87
743.143	5656.65
743.483	5685.57
743.823	5666.59
744.162	5683.09
744.502	5777.77
744.841	5745.46
745.181	5860.93
745.52	5840.14
745.86	5841.5
746.199	5866.81
746.538	5970.54
746.877	6034.26
747.216	6024.09
747.556	6031.78
747.895	6109.06
748.234	6124.43
748.573	6192.68
748.911	6208.27
749.25	6308.38
749.589	6295.72
749.928	6393.8
750.267	6464.99
750.605	6569.62
750.944	6570.97
751.283	6616.85
751.621	6743.4
751.96	6857.97
752.298	6904.3
752.636	6962.6
752.975	7073.1
753.313	7128.92
753.651	7290.05
753.989	7308.8
754.327	7447.11
754.666	7557.61
755.004	7708.34
755.342	7819.98
755.679	7949.47
756.017	8020.42
756.355	8264.26
756.693	8319.63
757.031	8461.09
757.368	8596.45
757.706	8769.11
758.044	8882.77
758.381	9004.81
758.719	9199.6
759.056	9329.09
759.394	9461.29
759.731	9556.2
760.068	9693.15
760.405	9939.02
760.743	10053.37
761.08	10292.68
761.417	10412.9
761.754	10593.92
762.091	10757.98
762.428	10909.84
762.765	11048.59
763.102	11321.58
763.438	11412.65
763.775	11571.07
764.112	11771.74
764.449	11825.97
764.785	12068.23
765.122	12172.41
765.458	12336.7
765.795	12393.87
766.131	12639.29
766.467	12735.55
766.804	12894.42
767.14	13044.93
767.476	13235.88
767.812	13304.81
768.148	13509.55
768.485	13512.94
768.821	13737.56
769.157	13840.38
769.492	13990.21
769.828	14067.5
770.164	14116.54
770.5	14302.75
770.836	14462.52
771.171	14512.01
771.507	14625.45
771.842	14693.02
772.178	14796.74
772.513	14966.91
772.849	15062.5
773.184	15092.1
773.519	15232.44
773.855	15191.99
774.19	15387.24
774.525	15451.42
774.86	15519.89
775.195	15599.43
775.53	15603.5
775.865	15657.29
776.2	15650.73
776.535	15701.58
776.87	15807.34
777.205	15805.53
777.539	15776.6
777.874	15933.66
778.209	15895.47
778.543	15993.1
778.878	15960.55
779.212	16022.93
779.547	16025.19
779.881	16202.58
780.215	16129.36
780.55	16191.74
780.884	16185.86
781.218	16238.74
781.552	16212.3
781.886	16191.28
782.22	16198.97
782.554	16259.08
782.888	16172.3
783.222	16111.06
783.556	16152.41
783.889	16164.84
784.223	16030.61
784.557	16067.9
784.89	16239.87
785.224	16131.17
785.557	16031.97
785.891	16187.44
786.224	16190.38
786.558	16231.73
786.891	16039.2
787.224	16065.64
787.557	16056.15
787.891	16037.62
788.224	16102.02
788.557	16097.05
788.89	16140.66
789.223	16069.03
789.556	16019.76
789.888	15993.77
790.221	16070.83
790.554	15855.92
790.887	15918.07
791.219	15863.16
791.552	15773.89
791.884	15726.44
792.217	15730.5
792.549	15759.2
792.882	15654.35
793.214	15628.36
793.546	15769.83
793.879	15651.41
794.211	15493.22
794.543	15678.98
794.875	15624.52
795.207	15656.61
795.539	15503.84
795.871	15586.1
796.203	15448.03
796.535	15447.57
796.867	15405.09
797.198	15354.47
797.53	15401.47
797.862	15364.64
798.193	15358.76
798.525	15147.69
798.856	15259.78
799.188	15082.84
799.519	15043.29
799.85	14997.19
800.182	15080.35
800.513	15049.39
800.844	14827.25
801.175	15048.26
801.506	15017.75
801.837	14925.55
802.168	14951.54
802.499	14819.57
802.83	14833.13
803.161	14763.75
803.491	14759.46
803.822	14761.72
804.153	14672.68
804.483	14681.04
804.814	14624.09
805.145	14546.58
805.475	14621.16
805.805	14477.88
806.136	14569.41
806.466	14481.05
806.796	14436.53
807.126	14348.85
807.457	14389.75
807.787	14391.1
808.117	14342.07
808.447	14312.24
808.777	14316.76
809.107	14289.41
809.436	14278.34
809.766	14188.17
810.096	14124.44
810.426	14140.26
810.755	14174.84
811.085	14146.37
811.414	14123.09
811.744	14006.93
812.073	13982.08
812.403	13962.87
812.732	13973.04
813.061	13869.08
813.39	13815.75
813.719	13819.14
814.049	13900.72
814.378	13792.48
814.707	13771.69
815.036	13785.47
815.365	13754.06
815.693	13545.93
816.022	13641.75
816.351	13589.77
816.68	13589.09
817.008	13558.58
817.337	13442.2
817.665	13412.15
817.994	13416.67
818.322	13461.86
818.651	13385.26
818.979	13416.67
819.307	13465.93
819.636	13354.3
819.964	13348.65
820.292	13325.6
820.62	13389.1
820.948	13250.34
821.276	13381.64
821.604	13348.87
821.932	13346.84
822.259	13281.76
822.587	13321.08
822.915	13251.25
823.243	13415.54
823.57	13294.64
823.898	13338.93
824.225	13255.09
824.553	13285.6
824.88	13236.33
825.207	13371.7
825.535	13345.26
825.862	13402.2
826.189	13321.98
826.516	13388.42
826.843	13356.56
827.17	13341.64
827.497	13268.87
827.824	13329.21
828.151	13374.18
828.478	13315.2
828.805	13354.97
829.131	13333.96
829.458	13252.83
829.785	13236.78
830.111	13322.21
830.438	13337.35
830.764	13391.36
831.09	13340.06
831.417	13299.38
831.743	13367.18
832.069	13211.7
832.395	13275.43
832.722	13259.16
833.048	13309.78
833.374	13308.87
833.7	13225.94
834.026	13220.74
834.351	13322.21
834.677	13199.27
835.003	13231.36
835.329	13230.68
835.654	13151.82
835.98	13177.8
836.306	13266.39
836.631	13112.27
836.956	13197.92
837.282	13156.11
837.607	13029.11
837.932	13106.39
838.258	13016.23
838.583	13058.94
838.908	12967.87
839.233	12969.9
839.558	13006.51
839.883	12857.81
840.208	12912.95
840.533	12920.18
840.858	12853.52
841.182	12921.09
841.507	12897.36
841.832	12835.67
842.156	12806.51
842.481	12805.16
842.805	12710.47
843.13	12688.1
843.454	12674.77
843.778	12723.35
844.103	12688.1
844.427	12625.95
844.751	12587.54
845.075	12529.91
845.399	12503.24
845.723	12498.05
846.047	12433.64
846.371	12381.21
846.695	12404.94
847.019	12240.2
847.343	12241.78
847.666	12148.68
847.99	12148
848.313	12104.84
848.637	12070.26
848.96	12025.07
849.284	11975.35
849.607	11816.48
849.931	11879.31
850.254	11749.14
850.577	11720.44
850.9	11681.12
851.223	11623.95
851.546	11656.04
851.869	11536.94
852.192	11591.86
852.515	11463.27
852.838	11414.23
853.161	11427.79
853.483	11398.41
853.806	11363.61
854.129	11263.73
854.451	11285.65
854.774	11196.39
855.096	11149.83
855.419	11092.43
855.741	11157.74
856.063	11037.75
856.385	11064.19
856.708	10957.97
857.03	11012.21
857.352	11026.67
857.674	10983.28
857.996	10835.49
858.318	10823.06
858.64	10907.81
858.961	10799.56
859.283	10723.63
859.605	10681.82
859.926	10731.54
860.248	10666.23
860.57	10705.78
860.891	10637.76
861.212	10614.71
861.534	10641.6
861.855	10607.02
862.176	10528.83
862.498	10521.38
862.819	10450.42
863.14	10477.76
863.461	10437.31
863.782	10428.05
864.103	10406.12
864.424	10337.65
864.745	10383.75
865.065	10382.85
865.386	10360.48
865.707	10367.48
866.027	10285.9
866.348	10322.74
866.668	10245.45
866.989	10285
867.309	10178.11
867.63	10204.77
867.95	10158
868.27	10163.65
868.59	10096.3
868.91	10104.89
869.23	10088.17
869.55	10079.58
869.87	10123.65
870.19	10015.4
870.51	10080.48
870.83	10087.94
871.15	10053.59
871.469	10037.77
871.789	9976.08
872.109	10028.73
872.428	9947.38
872.748	10006.81
873.067	10051.33
873.386	9959.58
873.706	9956.64
874.025	9849.53
874.344	9834.61
874.663	9850.43
874.982	9802.98
875.301	9843.2
875.62	9780.83
875.939	9749.42
876.258	9749.64
876.577	9771.34
876.896	9774.73
877.214	9715.75
877.533	9733.83
877.852	9713.04
878.17	9689.76
878.489	9717.33
878.807	9681.17
879.125	9617.67
879.444	9662.87
879.762	9609.54
880.08	9634.85
880.398	9572.93
880.716	9556.2
881.034	9559.14
881.352	9552.81
881.67	9498.35
881.988	9490.67
882.306	9492.93
882.624	9464.91
882.941	9396.89
883.259	9439.14
883.577	9341.52
883.894	9317.57
884.212	9382.2
884.529	9399.82
884.846	9259.94
885.164	9288.41
885.481	9236.89
885.798	9226.04
886.115	9127.06
886.432	9122.09
886.75	9082.32
887.067	9087.52
887.383	9080.74
887.7	9129.1
888.017	9025.37
888.334	9070.57
888.651	8984.92
888.967	9039.83
889.284	8967.97
889.6	8995.31
889.917	8932.72
890.233	8890.91
890.55	8857.46
890.866	8855.43
891.182	8809.56
891.498	8805.94
891.815	8704.93
892.131	8738.37
892.447	8710.8
892.763	8664.93
893.079	8664.02
893.395	8606.62
893.71	8643.23
894.026	8620.86
894.342	8551.26
894.657	8539.51
894.973	8467.19
895.289	8458.61
895.604	8473.75
895.92	8327.76
896.235	8422.67
896.55	8366.63
896.865	8362.11
897.181	8354.2
897.496	8276.24
897.811	8298.38
898.126	8230.59
898.441	8226.97
898.756	8137.48
899.071	8116.92
899.386	8121.89
899.7	8094.32
900.015	7983.59
900.33	7959.18
900.644	7986.53
900.959	7971.39
901.273	7906.3
901.588	7892.74
901.902	7853.2
902.216	7817.94
902.531	7848.45
902.845	7773.43
903.159	7783.82
903.473	7726.65
903.787	7702.69
904.101	7651.85
904.415	7662.02
904.729	7627.21
905.042	7566.43
905.356	7562.58
905.67	7517.39
905.984	7489.14
906.297	7453.43
906.611	7464.73
906.924	7451.85
907.237	7397.16
907.551	7349.48
907.864	7290.05
908.177	7278.3
908.491	7315.58
908.804	7213.44
909.117	7223.38
909.43	7130.05
909.743	7116.27
910.056	7181.35
910.368	7090.96
910.681	7021.81
910.994	7044.18
911.307	7014.8
911.619	6956.05
911.932	7000.79
912.244	6936.61
912.557	6904.07
912.869	6886.9
913.181	6807.12
913.494	6785.43
913.806	6758.76
914.118	6721.7
914.43	6677.64
914.742	6722.38
915.054	6691.19
915.366	6629.27
915.678	6605.09
915.99	6577.52
916.302	6519.22
916.613	6546.57
916.925	6495.49
917.236	6523.29
917.548	6446.23
917.859	6449.62
918.171	6432.44
918.482	6374.59
918.794	6303.86
919.105	6340.92
919.416	6279
919.727	6298.89
920.038	6233.58
920.349	6193.81
920.66	6201.04
920.971	6186.8
921.282	6140.93
921.593	6092.11
921.903	6116.97
922.214	6052.11
922.525	6045.11
922.835	6003.53
923.146	5981.38
923.456	5982.74
923.767	5915.4
924.077	5957.2
924.387	5922.4
924.697	5857.54
925.008	5892.12
925.318	5850.76
925.628	5835.85
925.938	5823.19
926.248	5779.81
926.558	5756.53
926.867	5724.67
927.177	5771.22
927.487	5659.13
927.796	5637.44
928.106	5603.31
928.416	5620.94
928.725	5570.55
929.034	5511.79
929.344	5520.15
929.653	5518.8
929.962	5535.29
930.271	5459.14
930.581	5416.65
930.89	5451.68
931.199	5414.17
931.508	5361.96
931.817	5378.69
932.125	5360.83
932.434	5307.28
932.743	5234.28
933.051	5240.84
933.36	5255.07
933.669	5228.18
933.977	5184.79
934.286	5187.73
934.594	5177.11
934.902	5136.66
935.21	5053.05
935.519	5083.1
935.827	5064.8
936.135	5052.37
936.443	4991.13
936.751	4993.61
937.059	5032.48
937.367	4949.77
937.674	4974.18
937.982	4947.29
938.29	4888.3
938.597	4911.13
938.905	4897.79
939.213	4801.07
939.52	4819.83
939.827	4815.76
940.135	4787.74
940.442	4770.11
940.749	4749.1
941.056	4748.19
941.363	4711.13
941.67	4691.02
941.977	4670.46
942.284	4629.78
942.591	4637.91
942.898	4582.1
943.205	4632.72
943.511	4576.67
943.818	4576.45
944.125	4511.14
944.431	4503.68
944.738	4538.26
945.044	4480.63
945.35	4441.99
945.657	4398.15
945.963	4430.91
946.269	4363.57
946.575	4338.04
946.881	4365.15
947.187	4368.09
947.493	4336.68
947.799	4317.25
948.105	4272.5
948.41	4247.64
948.716	4309.34
949.022	4227.98
949.327	4251.71
949.633	4178.49
949.938	4168.1
950.244	4175.78
950.549	4152.28
950.854	4088.32
951.16	4094.43
951.465	4068.66
951.77	4050.13
952.075	4046.07
952.38	4017.37
952.685	4035.44
952.99	3980.98
953.294	3982.56
953.599	3950.7
953.904	3933.75
954.209	3903.47
954.513	3898.95
954.818	3929.46
955.122	3903.02
955.426	3868.9
955.731	3891.49
956.035	3825.73
956.339	3777.15
956.643	3835.45
956.948	3783.7
957.252	3784.15
957.556	3748.67
957.86	3691.05
958.163	3731.27
958.467	3730.59
958.771	3691.5
959.075	3719.29
959.378	3645.17
959.682	3672.06
959.985	3597.94
960.289	3592.29
960.592	3610.37
960.896	3578.51
961.199	3561.11
961.502	3564.72
961.805	3559.98
962.108	3497.38
962.411	3522.01
962.714	3469.13
963.017	3472.3
963.32	3484.05
963.623	3431.62
963.926	3463.48
964.228	3433.88
964.531	3415.8
964.833	3408.12
965.136	3357.5
965.438	3338.06
965.741	3332.41
966.043	3370.6
966.345	3327.21
966.648	3292.64
966.95	3311.85
967.252	3308.46
967.554	3257.61
967.856	3249.93
968.158	3214.68
968.46	3239.08
968.761	3201.12
969.063	3191.85
969.365	3222.36
969.666	3154.34
969.968	3146.43
970.269	3120.67
970.571	3174.22
970.872	3141
971.174	3086.77
971.475	3067.56
971.776	3045.19
972.077	3069.59
972.378	3028.24
972.679	3022.14
972.98	3018.07
973.281	3003.61
973.582	2982.37
973.883	2972.2
974.183	2943.72
974.484	2966.55
974.785	2920.67
975.085	2934.91
975.386	2925.42
975.686	2878.64
975.986	2938.98
976.287	2912.08
976.587	2841.13
976.887	2853.55
977.187	2852.65
977.487	2809.26
977.787	2804.29
978.087	2802.03
978.387	2796.16
978.687	2776.72
978.987	2772.2
979.286	2777.62
979.586	2747.34
979.885	2759.32
980.185	2706.21
980.484	2744.41
980.784	2689.72
981.083	2714.8
981.382	2670.96
981.682	2625.54
981.981	2649.27
982.28	2646.1
982.579	2617.18
982.878	2641.36
983.177	2625.31
983.475	2599.55
983.774	2551.42
984.073	2555.94
984.372	2548.93
984.67	2535.82
984.969	2523.62
985.267	2518.2
985.566	2507.35
985.864	2520.46
986.162	2501.02
986.461	2472.32
986.759	2465.77
987.057	2452.44
987.355	2483.4
987.653	2409.72
987.951	2426.22
988.249	2423.74
988.547	2411.98
988.844	2386.67
989.142	2378.31
989.44	2353.46
989.737	2368.6
990.035	2344.19
990.332	2315.26
990.63	2351.65
990.927	2325.21
991.224	2308.26
991.521	2281.14
991.819	2287.69
992.116	2261.48
992.413	2252.44
992.71	2203.63
993.006	2230.97
993.303	2212.67
993.6	2206.57
993.897	2198.88
994.193	2164.76
994.49	2165.21
994.787	2161.14
995.083	2176.51
995.379	2174.93
995.676	2117.98
995.972	2135.61
996.268	2118.66
996.565	2129.28
996.861	2103.07
997.157	2077.76
997.453	2110.98
997.749	2071.88
998.044	2043.18
998.34	2072.11
998.636	2042.05
998.932	1998.66
999.227	1987.59
999.523	2015.84
999.818	2000.7
1000.114	1967.02
1000.409	1960.92
1000.704	1959.57
1001	1950.75
1001.295	1949.4
1001.59	1958.21
1001.885	1911.88
1002.18	1924.99
1002.475	1924.99
1002.77	1892.9
1003.065	1888.16
1003.359	1883.18
1003.654	1899.68
1003.949	1863.52
1004.243	1835.73
1004.538	1847.25
1004.832	1835.28
1005.127	1806.35
1005.421	1829.18
1005.715	1790.98
1006.009	1774.26
1006.304	1774.04
1006.598	1767.26
1006.892	1774.49
1007.186	1761.61
1007.48	1741.27
1007.773	1684.55
1008.067	1743.08
1008.361	1708.27
1008.655	1722.74
1008.948	1676.86
1009.242	1681.61
1009.535	1661.04
1009.829	1662.4
1010.122	1648.16
1010.415	1619.01
1010.708	1630.54
1011.001	1635.51
1011.295	1608.16
1011.588	1621.5
1011.881	1601.61
1012.173	1578.11
1012.466	1563.65
1012.759	1580.82
1013.052	1567.49
1013.344	1529.97
1013.637	1553.48
1013.93	1531.33
1014.222	1523.87
1014.514	1519.8
1014.807	1527.94
1015.099	1506.02
1015.391	1514.61
1015.683	1483.2
1015.976	1466.25
1016.268	1466.02
1016.56	1466.47
1016.851	1450.2
1017.143	1437.77
1017.435	1392.8
1017.727	1412.24
1018.018	1430.32
1018.31	1403.65
1018.602	1382.18
1018.893	1371.56
1019.185	1371.56
1019.476	1386.7
1019.767	1365.46
1020.058	1335.63
1020.35	1334.05
1020.641	1334.72
1020.932	1317.55
1021.223	1316.65
1021.514	1303.09
1021.804	1284.1
1022.095	1293.82
1022.386	1265.8
1022.677	1302.64
1022.967	1235.52
1023.258	1255.18
1023.548	1272.35
1023.839	1240.49
1024.129	1253.6
1024.419	1248.4
1024.709	1232.35
1025	1201.85
1025.29	1200.27
1025.58	1195.29
1025.87	1186.71
1026.16	1180.6
1026.449	1171.57
1026.739	1181.96
1027.029	1164.56
1027.319	1163.66
1027.608	1136.31
1027.898	1132.92
1028.187	1171.34
1028.477	1133.6
1028.766	1111.91
1029.055	1114.39
1029.344	1103.09
1029.634	1133.15
1029.923	1105.8
1030.212	1077.33
1030.501	1096.54
1030.79	1066.48
1031.078	1040.72
1031.367	1059.48
1031.656	1050.44
1031.945	1033.04
1032.233	1037.78
1032.522	1043.66
1032.81	1039.59
1033.099	1052.7
1033.387	1025.13
1033.675	983.55
1033.963	993.26
1034.251	981.51
1034.54	956.66
1034.828	981.97
1035.116	983.1
1035.403	989.65
1035.691	951.91
1035.979	970.21
1036.267	952.59
1036.554	958.92
1036.842	939.48
1037.129	940.84
1037.417	966.15
1037.704	946.26
1037.992	934.28
1038.279	889.76
1038.566	905.13
1038.853	905.13
1039.14	905.13
