Data from hue_120_FLMS001491_00016.txt Node
Date: Tue Feb 07 16:59:00 GMT 2017
User: dcchb
Spectrometer: FLMS00149
Trigger mode: 0
Integration Time (sec): 2.000000E-2
Scans to average: 10
Electric dark correction enabled: true
Nonlinearity correction enabled: false
Boxcar width: 0
XAxis mode: Wavelengths
Number of Pixels in Spectrum: 2048
>>>>>Begin Spectral Data<<<<<
341.393	-35.76
341.776	-35.76
342.16	-35.76
342.543	-53.84
342.927	-59.49
343.31	-70.34
343.693	-64.69
344.077	-57
344.46	-64.91
344.843	-44.8
345.226	-20.62
345.61	-25.59
345.993	-33.05
346.376	-5.71
346.759	10.34
347.142	30.23
347.525	14.86
347.908	45.14
348.291	67.29
348.674	94.63
349.057	124.23
349.44	109.09
349.823	139.37
350.206	151.13
350.588	179.37
350.971	200.62
351.354	225.47
351.737	225.25
352.119	244.46
352.502	279.03
352.884	275.64
353.267	257.11
353.65	280.39
354.032	288.75
354.414	312.25
354.797	300.95
355.179	312.03
355.562	310.44
355.944	321.97
356.326	304.12
356.709	328.97
357.091	325.13
357.473	351.57
357.855	328.3
358.238	322.65
358.62	322.42
359.002	320.16
359.384	339.14
359.766	352.7
360.148	344.12
360.53	342.08
360.912	326.94
361.294	332.82
361.676	336.66
362.057	309.54
362.439	332.59
362.821	320.84
363.203	318.81
363.584	336.88
363.966	320.39
364.348	318.81
364.729	316.55
365.111	329.88
365.493	329.88
365.874	310.9
366.256	312.03
366.637	287.17
367.019	326.94
367.4	327.62
367.781	326.49
368.163	324
368.544	324
368.925	319.26
369.306	304.12
369.688	310.9
370.069	288.75
370.45	317
370.831	315.19
371.212	308.64
371.593	316.09
371.974	326.04
372.355	328.97
372.736	338.01
373.117	316.77
373.498	305.92
373.879	293.5
374.26	319.71
374.641	338.69
375.021	300.73
375.402	331.01
375.783	318.81
376.163	323.1
376.544	325.58
376.925	333.95
377.305	331.23
377.686	341.63
378.066	328.52
378.447	337.34
378.827	323.32
379.208	320.61
379.588	331.23
379.968	328.97
380.349	319.48
380.729	336.66
381.109	342.31
381.489	331.46
381.87	336.21
382.25	365.81
382.63	351.35
383.01	355.41
383.39	335.3
383.77	347.96
384.15	331.69
384.53	339.14
384.91	341.18
385.29	359.03
385.67	345.25
386.049	356.32
386.429	369.2
386.809	376.2
387.189	392.02
387.568	360.84
387.948	359.48
388.328	386.6
388.707	372.59
389.087	376.43
389.466	359.03
389.846	353.61
390.225	399.48
390.605	356.54
390.984	368.3
391.363	394.28
391.743	380.72
392.122	364
392.501	376.2
392.881	368.97
393.26	390.44
393.639	380.72
394.018	389.31
394.397	380.72
394.776	393.38
395.155	416.43
395.534	388.63
395.913	384.34
396.292	392.7
396.671	407.62
397.05	398.58
397.429	397
397.808	417.11
398.186	390.89
398.565	419.82
398.944	399.71
399.323	405.13
399.701	395.19
400.08	406.94
400.458	404.23
400.837	436.54
401.215	413.49
401.594	420.5
401.972	448.29
402.351	413.49
402.729	427.28
403.107	432.93
403.486	452.36
403.864	423.66
404.242	434.73
404.62	434.06
404.999	441.97
405.377	439.03
405.755	444.45
406.133	438.8
406.511	449.2
406.889	452.14
407.267	459.37
407.645	456.2
408.023	467.95
408.401	443.32
408.779	448.29
409.156	484.68
409.534	486.48
409.912	485.81
410.29	469.99
410.667	484
411.045	488.97
411.422	483.09
411.8	498.46
412.178	509.76
412.555	488.52
412.933	502.3
413.31	530.33
413.687	515.41
414.065	512.02
414.442	496.2
414.819	528.07
415.197	526.03
415.574	522.19
415.951	538.01
416.328	536.88
416.705	518.57
417.082	532.58
417.46	549.99
417.837	558.8
418.214	561.28
418.591	558.8
418.967	534.84
419.344	563.54
419.721	559.02
420.098	558.57
420.475	569.42
420.852	592.02
421.228	582.3
421.605	601.28
421.982	571.91
422.358	598.57
422.735	589.98
423.111	599.7
423.488	601.51
423.864	605.8
424.241	625.92
424.617	607.39
424.994	615.52
425.37	619.14
425.746	628.63
426.123	632.24
426.499	654.62
426.875	634.73
427.251	635.86
427.627	663.43
428.003	665.01
428.379	669.98
428.756	690.09
429.132	669.3
429.507	685.35
429.883	683.09
430.259	675.41
430.635	709.53
431.011	694.61
431.387	690.77
431.763	707.95
432.138	720.38
432.514	721.73
432.89	731.22
433.265	732.81
433.641	742.07
434.016	753.37
434.392	793.59
434.767	757.21
435.143	769.87
435.518	813.48
435.894	780.26
436.269	789.08
436.644	808.28
437.02	827.94
437.395	816.42
437.77	822.97
438.145	809.19
438.52	840.37
438.895	860.26
439.271	868.85
439.646	870.88
440.021	851.22
440.395	879.92
440.77	861.62
441.145	895.51
441.52	883.76
441.895	919.69
442.27	903.87
442.645	900.03
443.019	903.2
443.394	914.5
443.769	948.17
444.143	911.56
444.518	936.64
444.892	927.15
445.267	952.91
445.641	966.92
446.016	974.16
446.39	942.97
446.764	973.03
447.139	989.97
447.513	971.67
447.887	994.95
448.262	998.34
448.636	984.1
449.01	1020.71
449.384	1023.65
449.758	1030.2
450.132	1013.02
450.506	1046.92
450.88	1053.48
451.254	1045.57
451.628	1065
452.002	1097.09
452.376	1109.74
452.75	1112.68
453.123	1107.94
453.497	1118.33
453.871	1107.71
454.244	1155.62
454.618	1169.18
454.992	1144.55
455.365	1165.56
455.739	1207.82
456.112	1211.89
456.486	1205.56
456.859	1215.5
457.232	1233.36
457.606	1268.61
457.979	1292.11
458.352	1293.47
458.725	1297.31
459.099	1314.03
459.472	1327.82
459.845	1374.37
460.218	1356.52
460.591	1378.89
460.964	1365.56
461.337	1393.81
461.71	1446.23
462.083	1435.84
462.456	1464.09
462.829	1449.17
463.201	1496.18
463.574	1501.82
463.947	1553.12
464.32	1546.12
464.692	1580.69
465.065	1590.86
465.438	1591.09
465.81	1644.87
466.183	1644.42
466.555	1734.14
466.928	1718.09
467.3	1702.72
467.672	1753.12
468.045	1795.83
468.417	1819.1
468.789	1833.12
469.161	1868.59
469.534	1899.78
469.906	1919.89
470.278	1994.69
470.65	1991.98
471.022	2029.95
471.394	2075.14
471.766	2127.12
472.138	2163.5
472.51	2230.62
472.882	2231.98
473.253	2255.93
473.625	2325.98
473.997	2381.8
474.369	2439.88
474.74	2500.89
475.112	2533.21
475.484	2596.03
475.855	2649.82
476.227	2677.84
476.598	2772.53
476.97	2797.16
477.341	2910.15
477.713	2989.47
478.084	3028.11
478.455	3143.36
478.827	3167.32
479.198	3301.33
479.569	3338.61
479.94	3503.13
480.311	3507.42
480.682	3622.9
481.053	3770.69
481.424	3815.66
481.795	3941.53
482.166	3977.92
482.537	4104.69
482.908	4254.75
483.279	4343.33
483.65	4451.13
484.021	4566.83
484.391	4694.06
484.762	4819.93
485.133	4902.41
485.503	5025.35
485.874	5174.04
486.244	5278.9
486.615	5408.61
486.985	5560.7
487.356	5681.83
487.726	5799.57
488.097	5968.6
488.467	6016.06
488.837	6211.31
489.207	6393
489.578	6563.84
489.948	6625.31
490.318	6799.54
490.688	6871.85
491.058	7103.03
491.428	7218.51
491.798	7357.72
492.168	7492.4
492.538	7646.75
492.908	7828.89
493.278	7995.44
493.648	8044.48
494.017	8261.2
494.387	8410.57
494.757	8556.1
495.126	8617.8
495.496	8765.14
495.866	8853.5
496.235	9023.66
496.605	9142.98
496.974	9238.12
497.344	9446.47
497.713	9550.43
498.082	9594.72
498.452	9791.1
498.821	9912.68
499.19	9987.93
499.559	10127.13
499.928	10305.21
500.298	10354.7
500.667	10469.95
501.036	10508.82
501.405	10657.29
501.774	10672.66
502.143	10798.98
502.512	10969.37
502.88	11051.86
503.249	11139.54
503.618	11197.16
503.987	11373.2
504.356	11429.25
504.724	11544.05
505.093	11564.84
505.462	11623.82
505.83	11753.53
506.199	11812.51
506.567	12001.21
506.936	12085.28
507.304	12109
507.672	12208.21
508.041	12181.09
508.409	12320.75
508.777	12367.75
509.145	12551.7
509.514	12446.4
509.882	12657.46
510.25	12679.38
510.618	12762.32
510.986	12844.8
511.354	12880.73
511.722	13107.85
512.09	13073.95
512.458	13078.92
512.826	13236.43
513.193	13289.54
513.561	13242.76
513.929	13333.15
514.297	13406.6
514.664	13487.95
515.032	13523.66
515.4	13569.3
515.767	13628.06
516.135	13646.14
516.502	13601.17
516.869	13859.47
517.237	13949.86
517.604	13839.58
517.972	13944.89
518.339	14023.76
518.706	13969.29
519.073	13978.11
519.44	14043.19
519.808	14144.43
520.175	14152.34
520.542	14242.05
520.909	14320.24
521.276	14329.51
521.643	14467.59
522.009	14394.14
522.376	14457.42
522.743	14525.89
523.11	14602.27
523.477	14687.92
523.843	14716.84
524.21	14762.95
524.577	14789.39
524.943	14913.9
525.31	14850.17
525.676	14997.74
526.043	15037.74
526.409	15049.72
526.776	15124.52
527.142	15136.04
527.508	15124.97
527.874	15224.63
528.241	15181.24
528.607	15164.74
528.973	15201.8
529.339	15199.54
529.705	15294.91
530.071	15426.2
530.437	15326.55
530.803	15324.29
531.169	15349.37
531.535	15299.88
531.901	15346.21
532.267	15353.44
532.632	15423.04
532.998	15335.59
533.364	15430.95
533.73	15400.67
534.095	15415.58
534.461	15435.7
534.826	15365.64
535.192	15465.53
535.557	15533.77
535.923	15397.28
536.288	15378.52
536.653	15421.91
537.019	15357.96
537.384	15282.48
537.749	15348.24
538.114	15273.89
538.479	15289.48
538.845	15300.33
539.21	15146.21
539.575	15212.2
539.94	15172.65
540.305	15204.52
540.67	15131.52
541.034	15129.72
541.399	15121.58
541.764	15095.82
542.129	15081.58
542.494	15093.11
542.858	15072.32
543.223	14998.19
543.587	15091.07
543.952	14982.6
544.316	14966.1
544.681	14879.33
545.045	14972.21
545.41	14900.12
545.774	14896.73
546.138	14830.74
546.503	14846.33
546.867	14721.82
547.231	14809.72
547.595	14683.4
547.959	14730.18
548.324	14644.08
548.688	14731.99
549.052	14640.91
549.416	14648.37
549.779	14571.76
550.143	14590.52
550.507	14583.06
550.871	14586.68
551.235	14499.22
551.599	14523.63
551.962	14479.79
552.326	14546.45
552.689	14549.39
553.053	14373.35
553.417	14371.99
553.78	14514.59
554.143	14369.74
554.507	14409.51
554.87	14389.17
555.234	14481.14
555.597	14354.14
555.96	14316.63
556.323	14368.15
556.686	14285.44
557.05	14367.25
557.413	14298.55
557.776	14337.42
558.139	14316.18
558.502	14378.55
558.865	14251.32
559.228	14324.54
559.59	14338.78
559.953	14316.63
560.316	14441.37
560.679	14414.93
561.041	14430.98
561.404	14441.6
561.767	14456.51
562.129	14364.31
562.492	14538.32
562.854	14392.11
563.217	14449.51
563.579	14430.98
563.941	14445.89
564.304	14468.72
564.666	14513.01
565.028	14477.75
565.39	14461.03
565.753	14541.93
566.115	14581.26
566.477	14613.8
566.839	14665.09
567.201	14696.73
567.563	14611.08
567.925	14741.93
568.287	14581.48
568.648	14638.43
569.01	14736.28
569.372	14756.84
569.734	14758.88
570.095	14854.47
570.457	14858.31
570.819	14828.25
571.18	14760.01
571.542	14918.2
571.903	14885.43
572.265	14923.62
572.626	14974.69
572.987	14891.98
573.349	14950.51
573.71	14924.75
574.071	15007.91
574.432	14988.93
574.794	15101.69
575.155	15023.5
575.516	14960
575.877	15055.82
576.238	15093.33
576.599	15073.67
576.96	15093.11
577.32	15074.8
577.681	15121.13
578.042	15106.66
578.403	15080.9
578.763	15222.37
579.124	15118.64
579.485	15157.29
579.845	15127
580.206	15204.06
580.566	15023.73
580.927	15082.71
581.287	15230.5
581.648	15093.56
582.008	15165.42
582.368	15136.27
582.728	15017.63
583.089	15122.03
583.449	15110.05
583.809	15138.75
584.169	15106.66
584.529	15000.45
584.889	15139.21
585.249	15057.17
585.609	14961.81
585.969	15048.14
586.329	14950.74
586.688	15025.09
587.048	15026.67
587.408	14969.49
587.768	14972.66
588.127	14921.59
588.487	14925.43
588.846	15040
589.206	14910.51
589.565	14874.81
589.925	14987.12
590.284	14937.18
590.643	14950.51
591.003	14982.15
591.362	14963.62
591.721	14955.48
592.08	14943.28
592.44	15003.16
592.799	14958.19
593.158	14917.29
593.517	14931.75
593.876	14932.21
594.235	14879.33
594.593	14856.95
594.952	14876.61
595.311	14821.02
595.67	14850.17
596.029	14934.47
596.387	14940.79
596.746	15012.43
597.104	14792.55
597.463	14842.94
597.822	14954.13
598.18	14841.59
598.538	14833.23
598.897	14946.9
599.255	14782.15
599.613	14875.94
599.972	14860.12
600.33	14837.29
600.688	14798.65
601.046	14887.01
601.404	14892.66
601.762	14861.7
602.12	14856.05
602.478	14900.12
602.836	14944.64
603.194	14897.18
603.552	14861.02
603.91	14911.64
604.268	14904.86
604.625	14809.95
604.983	14887.69
605.341	14782.61
605.698	14873.22
606.056	14883.39
606.413	14858.08
606.771	14883.17
607.128	14957.97
607.485	14863.51
607.843	14927.46
608.2	14936.5
608.557	15011.53
608.914	14929.04
609.272	15015.82
609.629	15029.83
609.986	15063.28
610.343	14951.19
610.7	15043.84
611.057	15035.48
611.414	15058.3
611.771	15025.99
612.127	15107.79
612.484	15065.31
612.841	15125.87
613.198	15072.32
613.554	15056.72
613.911	15159.09
614.267	15151.64
614.624	15133.1
614.98	15137.62
615.337	15144.4
615.693	15181.01
616.05	15111.64
616.406	15269.37
616.762	15247.23
617.118	15128.36
617.475	15154.57
617.831	15189.15
618.187	15308.92
618.543	15242.93
618.899	15362.48
619.255	15302.59
619.611	15331.74
619.967	15369.48
620.323	15431.18
620.678	15338.75
621.034	15299.2
621.39	15309.82
621.746	15233.22
622.101	15391.86
622.457	15262.37
622.812	15341.69
623.168	15424.17
623.523	15399.76
623.879	15355.7
624.234	15245.42
624.589	15347.11
624.945	15340.11
625.3	15368.58
625.655	15312.31
626.01	15341.69
626.365	15358.86
626.72	15366.09
627.075	15318.41
627.43	15305.53
627.785	15267.11
628.14	15286.55
628.495	15319.54
628.85	15231.86
629.205	15226.44
629.559	15283.84
629.914	15333.33
630.269	15197.28
630.623	15278.19
630.978	15248.13
631.332	15249.26
631.687	15269.6
632.041	15146.44
632.396	15230.5
632.75	15192.09
633.104	15182.6
633.459	15142.6
633.813	15087.23
634.167	15054.24
634.521	15074.8
634.875	15094.01
635.229	15076.16
635.583	15003.39
635.937	15011.75
636.291	15036.84
636.645	14936.5
636.999	14959.1
637.352	14936.5
637.706	14858.08
638.06	14893.34
638.413	14863.06
638.767	14896.95
639.121	14899.44
639.474	14784.64
639.828	14831.64
640.181	14833.68
640.534	14794.81
640.888	14794.13
641.241	14667.81
641.594	14821.7
641.947	14799.55
642.301	14720.91
642.654	14747.13
643.007	14686.79
643.36	14697.86
643.713	14656.28
644.066	14668.48
644.419	14653.12
644.771	14626.68
645.124	14481.37
645.477	14364.54
645.83	14323.86
646.182	14220.36
646.535	14176.75
646.888	14187.82
647.24	14173.36
647.593	14187.37
647.945	14197.31
648.298	14098.33
648.65	14214.26
649.002	14071.89
649.355	14183.75
649.707	14125.22
650.059	14187.82
650.411	14385.55
650.763	14380.81
651.115	14519.79
651.467	14435.27
651.819	14453.57
652.171	14446.12
652.523	14424.65
652.875	14408.15
653.227	14338.32
653.578	14521.14
653.93	14518.21
654.282	14483.86
654.633	14358.89
654.985	14395.5
655.337	14426
655.688	14485.44
656.039	14523.86
656.391	14359.11
656.742	14446.34
657.094	14423.97
657.445	14465.55
657.796	14470.3
658.147	14429.17
658.498	14406.12
658.849	14501.03
659.2	14531.09
659.551	14320.92
659.902	14447.02
660.253	14511.43
660.604	14533.12
660.955	14426.91
661.306	14492.44
661.656	14455.83
662.007	14486.34
662.358	14417.64
662.708	14560.24
663.059	14471.88
663.409	14400.47
663.76	14567.7
664.11	14522.5
664.461	14514.14
664.811	14460.58
665.161	14457.64
665.511	14527.02
665.862	14472.56
666.212	14525.89
666.562	14513.01
666.912	14425.55
667.262	14453.57
667.612	14464.87
667.962	14500.13
668.312	14442.73
668.662	14576.96
669.011	14481.37
669.361	14439.79
669.711	14475.72
670.06	14392.56
670.41	14418.1
670.76	14373.8
671.109	14477.75
671.459	14407.02
671.808	14387.36
672.157	14407.47
672.507	14351.66
672.856	14444.08
673.205	14475.72
673.554	14507.81
673.904	14399.11
674.253	14431.2
674.602	14404.54
674.951	14181.27
675.3	14106.47
675.649	14325.89
675.998	14283.41
676.346	14282.96
676.695	14285.9
677.044	14187.82
677.393	14275.27
677.741	14263.75
678.09	14199.34
678.438	14145.79
678.787	14161.15
679.135	14286.35
679.484	14132
679.832	14172.45
680.181	13969.07
680.529	14181.94
680.877	14005
681.225	14002.06
681.573	14134.94
681.922	13979.91
682.27	13945.57
682.618	13981.5
682.966	13922.97
683.314	13915.96
683.661	13780.37
684.009	13758.45
684.357	13728.17
684.705	13788.73
685.053	13796.64
685.4	13726.59
685.748	13654.05
686.095	13628.29
686.443	13606.37
686.79	13617.44
687.138	13633.26
687.485	13556.65
687.832	13510.55
688.18	13490.44
688.527	13396.88
688.874	13421.06
689.221	13398.46
689.568	13383.32
689.915	13291.8
690.262	13276.2
690.609	13331.12
690.956	13159.6
691.303	13226.26
691.65	13172.48
691.997	13132.93
692.344	13016.78
692.69	13012.71
693.037	12989.66
693.383	12858.36
693.73	12856.78
694.077	12848.42
694.423	12815.88
694.769	12823.56
695.116	12738.59
695.462	12664.24
695.808	12625.6
696.155	12656.11
696.501	12646.39
696.847	12585.6
697.193	12455.66
697.539	12464.7
697.885	12405.27
698.231	12360.97
698.577	12339.73
698.923	12326.63
699.269	12233.75
699.614	12201.2
699.96	12149.45
700.306	12127.31
700.651	12031.27
700.997	12025.16
701.342	12016.35
701.688	11932.06
702.033	11857.26
702.379	11961.44
702.724	11836.47
703.069	11857.03
703.415	11722.57
703.76	11740.43
704.105	11641.9
704.45	11621.56
704.795	11518.06
705.14	11484.84
705.485	11509.25
705.83	11469.7
706.175	11454.78
706.52	11426.08
706.865	11336.37
707.209	11343.15
707.554	11270.61
707.899	11306.99
708.243	11322.58
708.588	11207.33
708.932	11154.68
709.277	11139.31
709.621	11124.4
709.966	11006.89
710.31	11053.89
710.654	11018.64
710.998	11001.46
711.342	11055.7
711.687	10958.3
712.031	10904.29
712.375	10937.96
712.719	10887.57
713.063	10930.05
713.407	10873.33
713.75	10862.71
714.094	10839.88
714.438	10750.4
714.782	10836.72
715.125	10687.12
715.469	10726.89
715.812	10648.03
716.156	10619.33
716.499	10618.42
716.843	10695.48
717.186	10551.3
717.53	10645.99
717.873	10617.07
718.216	10528.48
718.559	10548.37
718.902	10498.2
719.246	10542.27
719.589	10494.58
719.932	10389.95
720.275	10425.66
720.617	10442.61
720.96	10381.14
721.303	10449.84
721.646	10429.27
721.989	10379.33
722.331	10425.21
722.674	10323.29
723.016	10355.83
723.359	10369.16
723.701	10337.3
724.044	10317.86
724.386	10236.51
724.729	10369.16
725.071	10230.63
725.413	10254.82
725.755	10362.83
726.097	10227.92
726.439	10112.67
726.782	10208.26
727.124	10148.83
727.465	10173.91
727.807	10178.66
728.149	10149.28
728.491	10151.32
728.833	10173.01
729.175	10156.29
729.516	10106.34
729.858	10177.53
730.199	10195.61
730.541	10057.08
730.882	10058.44
731.224	10132.11
731.565	10098.21
731.906	10062.73
732.248	10135.95
732.589	10009.62
732.93	10075.84
733.271	10062.5
733.612	10061.6
733.953	10061.83
734.294	10023.63
734.635	9992.45
734.976	10099.34
735.317	10036.52
735.658	10038.1
735.999	10001.94
736.339	10024.31
736.68	10095.27
737.021	10078.1
737.361	10049.85
737.702	10108.15
738.042	10089.17
738.383	10066.35
738.723	10046.46
739.063	10048.49
739.404	10066.35
739.744	10120.13
740.084	10049.85
740.424	10110.41
740.764	10054.59
741.104	10145.21
741.444	10067.48
741.784	10113.12
742.124	10166.46
742.464	10121.71
742.804	10124.65
743.143	10146.57
743.483	10149.06
743.823	10232.44
744.162	10160.35
744.502	10247.58
744.841	10297.75
745.181	10362.83
745.52	10440.57
745.86	10384.53
746.199	10446.45
746.538	10429.05
746.877	10569.61
747.216	10626.1
747.556	10648.25
747.895	10622.72
748.234	10643.28
748.573	10636.5
748.911	10785.2
749.25	10826.1
749.589	10887.79
749.928	11003.5
750.267	11037.17
750.605	11089.37
750.944	11117.17
751.283	11095.47
751.621	11310.15
751.96	11355.13
752.298	11405.52
752.636	11549.02
752.975	11586.08
753.313	11671.05
753.651	11841.44
753.989	11854.32
754.327	12007.54
754.666	12056.8
755.004	12248.21
755.342	12305.83
755.679	12513.96
756.017	12504.93
756.355	12780.85
756.693	12899.27
757.031	12986.72
757.368	13122.31
757.706	13288.18
758.044	13363.66
758.381	13564.56
758.719	13638
759.056	13914.38
759.394	13945.11
759.731	14133.81
760.068	14195.5
760.405	14375.16
760.743	14555.72
761.08	14698.77
761.417	14831.42
761.754	15004.97
762.091	15273.89
762.428	15320.44
762.765	15405.19
763.102	15732.64
763.438	15826.42
763.775	15886.53
764.112	16129.46
764.449	16290.59
764.785	16379.4
765.122	16460.75
765.458	16649
765.795	16820.52
766.131	16960.4
766.467	17107.06
766.804	17227.51
767.14	17388.86
767.476	17571.46
767.812	17621.85
768.148	17788.63
768.485	17798.12
768.821	17867.27
769.157	18040.6
769.492	18141.61
769.828	18444.2
770.164	18293.02
770.5	18491.21
770.836	18446.24
771.171	18499.34
771.507	18734.37
771.842	18733.46
772.178	18850.75
772.513	19017.3
772.849	19076.5
773.184	19072.89
773.519	19181.59
773.855	19168.48
774.19	19342.49
774.525	19270.85
774.86	19390.85
775.195	19349.27
775.53	19541.8
775.865	19482.6
776.2	19480.11
776.535	19440.11
776.87	19466.1
777.205	19541.8
777.539	19463.61
777.874	19658.41
778.209	19546.77
778.543	19631.29
778.878	19608.92
779.212	19690.95
779.547	19535.48
779.881	19681.69
780.215	19601.69
780.55	19789.93
780.884	19643.95
781.218	19685.53
781.552	19745.64
781.886	19745.64
782.22	19657.28
782.554	19687.56
782.888	19535.48
783.222	19481.92
783.556	19636.72
783.889	19547.45
784.223	19448.25
784.557	19505.19
784.89	19503.16
785.224	19474.01
785.557	19375.25
785.891	19431.75
786.224	19337.97
786.558	19424.52
786.891	19228.82
787.224	19238.31
787.557	19252.09
787.891	19307.91
788.224	19251.64
788.557	19158.99
788.89	19194.92
789.223	19261.81
789.556	19050.52
789.888	19056.84
790.221	19024.98
790.554	18960.8
790.887	18967.81
791.219	18877.41
791.552	18879.67
791.884	18722.62
792.217	18730.75
792.549	18840.58
792.882	18725.1
793.214	18657.98
793.546	18645.78
793.879	18580.25
794.211	18463.64
794.543	18527.59
794.875	18460.7
795.207	18485.79
795.539	18377.99
795.871	18333.92
796.203	18239.46
796.535	18190.43
796.867	18160.82
797.198	18178.67
797.53	18189.3
797.862	18152.46
798.193	18131.44
798.525	18006.48
798.856	18017.77
799.188	17833.37
799.519	17827.05
799.85	17709.08
800.182	17812.58
800.513	17850.77
800.844	17676.77
801.175	17669.31
801.506	17665.47
801.837	17562.65
802.168	17475.87
802.499	17559.26
802.83	17424.57
803.161	17517.45
803.491	17425.02
803.822	17389.32
804.153	17296.21
804.483	17249.89
804.814	17282.43
805.145	17158.14
805.475	17144.13
805.805	17066.39
806.136	17139.83
806.466	17077.23
806.796	17048.99
807.126	16891.25
807.457	16943.23
807.787	16904.58
808.117	16779.39
808.447	16747.53
808.777	16883.12
809.107	16726.96
809.436	16640.86
809.766	16649
810.096	16646.51
810.426	16571.26
810.755	16460.08
811.085	16517.48
811.414	16423.69
811.744	16401.09
812.073	16345.05
812.403	16357.25
812.732	16300.08
813.061	16297.37
813.39	16202.68
813.719	16232.74
814.049	16169.24
814.378	16160.87
814.707	16131.72
815.036	16155.22
815.365	16045.4
815.693	15929.92
816.022	15940.54
816.351	15924.5
816.68	15740.55
817.008	15933.99
817.337	15701.68
817.665	15716.59
817.994	15725.63
818.322	15764.27
818.651	15571.74
818.979	15563.15
819.307	15688.8
819.636	15559.76
819.964	15557.73
820.292	15633.66
820.62	15612.64
820.948	15541.68
821.276	15562.7
821.604	15546.88
821.932	15545.98
822.259	15533.55
822.587	15525.64
822.915	15545.52
823.243	15604.5
823.57	15504.39
823.898	15623.49
824.225	15388.69
824.553	15501.46
824.88	15543.94
825.207	15510.5
825.535	15506.65
825.862	15543.72
826.189	15423.49
826.516	15521.34
826.843	15588.46
827.17	15529.03
827.497	15487.9
827.824	15514.56
828.151	15552.3
828.478	15524.51
828.805	15600.21
829.131	15495.36
829.458	15431.63
829.785	15482.93
830.111	15440.89
830.438	15527.22
830.764	15548.46
831.09	15475.02
831.417	15508.46
831.743	15496.26
832.069	15491.51
832.395	15475.02
832.722	15497.16
833.048	15485.41
833.374	15433.44
833.7	15392.31
834.026	15369.48
834.351	15448.8
834.677	15380.33
835.003	15337.62
835.329	15352.99
835.654	15331.52
835.98	15305.08
836.306	15310.28
836.631	15226.44
836.956	15349.37
837.282	15370.16
837.607	15254.01
837.932	15177.85
838.258	15256.27
838.583	15240.45
838.908	15101.24
839.233	15142.82
839.558	15110.05
839.883	15006.55
840.208	14918.2
840.533	14928.82
840.858	14964.97
841.182	15001.36
841.507	14955.93
841.832	14827.35
842.156	14861.25
842.481	14798.2
842.805	14788.71
843.13	14781.02
843.454	14757.75
843.778	14736.05
844.103	14675.72
844.427	14656.51
844.751	14623.74
845.075	14582.38
845.399	14563.63
845.723	14429.85
846.047	14489.73
846.371	14346.23
846.695	14353.69
847.019	14225.33
847.343	14209.74
847.666	14065.56
847.99	14079.12
848.313	13967.03
848.637	13947.15
848.96	13963.19
849.284	13906.92
849.607	13835.96
849.931	13699.24
850.254	13689.3
850.577	13649.08
850.9	13524.33
851.223	13496.99
851.546	13440.95
851.869	13398.24
852.192	13412.25
852.515	13243.21
852.838	13274.17
853.161	13308.07
853.483	13193.72
853.806	13157.79
854.129	13128.64
854.451	13097.9
854.774	13018.58
855.096	13046.61
855.419	12947.4
855.741	12873.28
856.063	12882.54
856.385	12798.7
856.708	12745.37
857.03	12752.15
857.352	12754.18
857.674	12689.1
857.996	12620.18
858.318	12543.57
858.64	12548.54
858.961	12548.77
859.283	12414.31
859.605	12450.46
859.926	12404.82
860.248	12417.47
860.57	12323.01
860.891	12359.62
861.212	12243.24
861.534	12283.46
861.855	12248.21
862.176	12224.93
862.498	12164.6
862.819	12215.44
863.14	12095.9
863.461	12030.36
863.782	12086.41
864.103	12069.46
864.424	12053.19
864.745	11975.45
865.065	11922.79
865.386	11948.1
865.707	11908.33
866.027	11928.67
866.348	11910.59
866.668	11865.39
866.989	11808.22
867.309	11748.34
867.63	11742.91
867.95	11731.16
868.27	11689.35
868.59	11786.98
868.91	11677.15
869.23	11730.03
869.55	11632.18
869.87	11777.49
870.19	11719.18
870.51	11708.56
870.83	11627.89
871.15	11567.77
871.469	11568.68
871.789	11615.23
872.109	11545.18
872.428	11534.33
872.748	11478.74
873.067	11491.62
873.386	11531.84
873.706	11471.28
874.025	11452.07
874.344	11340.66
874.663	11374.11
874.982	11392.86
875.301	11343.6
875.62	11354.45
875.939	11217.95
876.258	11271.06
876.577	11331.85
876.896	11213.66
877.214	11310.83
877.533	11232.19
877.852	11229.03
878.17	11199.65
878.489	11245.98
878.807	11191.06
879.125	11183.38
879.444	11173.89
879.762	11168.01
880.08	11188.58
880.398	11010.05
880.716	11002.82
881.034	11004.17
881.352	11041.46
881.67	10970.95
881.988	10973.67
882.306	10961.69
882.624	10914.68
882.941	10899.54
883.259	10798.98
883.577	10800.56
883.894	10757.4
884.212	10810.96
884.529	10803.05
884.846	10815.48
885.164	10692.54
885.481	10626.78
885.798	10661.36
886.115	10610.74
886.432	10572.09
886.75	10603.05
887.067	10583.85
887.383	10574.81
887.7	10514.7
888.017	10518.99
888.334	10494.81
888.651	10405.77
888.967	10429.73
889.284	10409.84
889.6	10321.25
889.917	10269.96
890.233	10281.26
890.55	10220.01
890.866	10231.76
891.182	10171.2
891.498	10228.6
891.815	10134.14
892.131	10066.12
892.447	10017.31
892.763	10014.6
893.079	9998.32
893.395	9949.06
893.71	9924.65
894.026	9935.28
894.342	9864.99
894.657	9862.96
894.973	9862.96
895.289	9781.38
895.604	9808.95
895.92	9668.16
896.235	9690.99
896.55	9673.36
896.865	9620.26
897.181	9558.34
897.496	9576.64
897.811	9552.01
898.126	9505
898.441	9476.3
898.756	9483.08
899.071	9390.21
899.386	9395.18
899.7	9297.55
900.015	9285.58
900.33	9192.92
900.644	9196.54
900.959	9158.8
901.273	9075.86
901.588	9119.48
901.902	9098.46
902.216	8993.61
902.531	9077.44
902.845	9001.29
903.159	8992.25
903.473	8884.68
903.787	8762.65
904.101	8805.36
904.415	8846.72
904.729	8773.5
905.042	8734.63
905.356	8704.35
905.67	8734.4
905.984	8721.52
906.297	8575.31
906.611	8618.7
906.924	8561.3
907.237	8498.93
907.551	8469.1
907.864	8456.44
908.177	8442.21
908.491	8382.77
908.804	8293.28
909.117	8274.98
909.43	8316.11
909.743	8288.09
910.056	8219.84
910.368	8182.1
910.681	8179.16
910.994	8188.43
911.307	8103.23
911.619	8029.11
911.932	8055.1
912.244	7946.4
912.557	7968.32
912.869	7852.39
913.181	7905.05
913.494	7881.32
913.806	7838.61
914.118	7833.41
914.43	7741.66
914.742	7719.06
915.054	7648.78
915.366	7724.49
915.678	7615.56
915.99	7543.25
916.302	7545.73
916.613	7535.79
916.925	7491.27
917.236	7448.11
917.548	7412.18
917.859	7401.56
918.171	7362.69
918.482	7351.16
918.794	7282.46
919.105	7334.89
919.416	7248.34
919.727	7210.38
920.038	7258.74
920.349	7119.08
920.66	7130.38
920.971	7162.02
921.282	7098.51
921.593	7075.69
921.903	6973.55
922.214	7006.76
922.525	6987.78
922.835	6924.73
923.146	6875.47
923.456	6936.03
923.767	6870.72
924.077	6853.1
924.387	6850.16
924.697	6747.56
925.008	6728.81
925.318	6726.55
925.628	6641.35
925.938	6669.82
926.248	6630.05
926.558	6658.07
926.867	6602.48
927.177	6558.42
927.487	6532.65
927.796	6489.72
928.106	6480
928.416	6440.45
928.725	6383.5
929.034	6349.61
929.344	6383.28
929.653	6307.57
929.962	6262.6
930.271	6302.83
930.581	6213.34
930.89	6244.98
931.199	6194.13
931.508	6177.63
931.817	6213.57
932.125	6118.88
932.434	6124.08
932.743	6042.04
933.051	6012.67
933.36	6016.06
933.669	5980.8
933.977	6008.6
934.286	5907.81
934.594	5934.93
934.902	5892.44
935.21	5842.5
935.519	5894.93
935.827	5835.04
936.135	5807.47
936.443	5772
936.751	5741.04
937.059	5676.63
937.367	5727.02
937.674	5724.09
937.982	5694.94
938.29	5603.41
938.597	5627.59
938.905	5526.35
939.213	5582.4
939.52	5465.79
939.827	5509.86
940.135	5528.84
940.442	5481.61
940.749	5437.09
941.056	5432.8
941.363	5358.67
941.67	5372.46
941.977	5286.81
942.284	5286.36
942.591	5292.91
942.898	5235.74
943.205	5277.54
943.511	5248.17
943.818	5233.03
944.125	5190.09
944.431	5195.06
944.738	5135.4
945.044	5132.24
945.35	5092.46
945.657	5078.68
945.963	5028.74
946.269	5018.57
946.575	5004.33
946.881	4971.34
947.187	4994.61
947.493	4941.28
947.799	4939.7
948.105	4963.88
948.41	4924.11
948.716	4879.36
949.022	4839.59
949.327	4823.32
949.633	4807.05
949.938	4790.1
950.244	4823.32
950.549	4749.2
950.854	4692.48
951.16	4699.25
951.465	4673.72
951.77	4686.83
952.075	4619.48
952.38	4628.3
952.685	4614.96
952.99	4604.34
953.294	4572.7
953.599	4518.24
953.904	4481.63
954.209	4512.14
954.513	4481.63
954.818	4419.26
955.122	4436.89
955.426	4413.61
955.731	4403.44
956.035	4356.89
956.339	4375.87
956.643	4382.43
956.948	4335.65
957.252	4307.63
957.556	4304.01
957.86	4279.38
958.163	4238.02
958.467	4215.2
958.771	4244.58
959.075	4188.53
959.378	4168.87
959.682	4198.93
959.985	4150.79
960.289	4108.76
960.592	4140.63
960.896	4061.76
961.199	4104.24
961.502	4084.81
961.805	4031.25
962.108	4027.18
962.411	4024.7
962.714	3951.93
963.017	3981.53
963.32	3931.82
963.623	3919.84
963.926	3934.76
964.228	3887.98
964.531	3866.28
964.833	3887.75
965.136	3855.44
965.438	3836.68
965.741	3809.79
966.043	3815.21
966.345	3749
966.648	3768.21
966.95	3748.09
967.252	3736.34
967.554	3715.1
967.856	3696.12
968.158	3664.25
968.46	3662.9
968.761	3670.13
969.063	3631.49
969.365	3633.07
969.666	3597.14
969.968	3591.94
970.269	3539.74
970.571	3550.36
970.872	3529.79
971.174	3505.16
971.475	3513.52
971.776	3511.72
972.077	3483.47
972.378	3526.4
972.679	3461.1
972.98	3445.28
973.281	3434.43
973.582	3430.14
973.883	3416.8
974.183	3393.98
974.484	3377.03
974.785	3341.1
975.085	3369.57
975.386	3372.74
975.686	3323.47
975.986	3271.72
976.287	3285.05
976.587	3274.21
976.887	3280.08
977.187	3239.86
977.487	3233.08
977.787	3219.97
978.087	3204.15
978.387	3207.54
978.687	3188.56
978.987	3162.57
979.286	3141.1
979.586	3116.47
979.885	3103.36
980.185	3108.79
980.484	3047.55
980.784	3055
981.083	3060.43
981.382	3062.69
981.682	3055.23
981.981	3035.57
982.28	2995.12
982.579	2982.69
982.878	2993.76
983.177	2944.95
983.475	2956.02
983.774	2913.31
984.073	2928.68
984.372	2916.93
984.67	2892.52
984.969	2850.26
985.267	2887.78
985.566	2877.16
985.864	2820.66
986.162	2843.03
986.461	2826.54
986.759	2767.1
987.057	2799.19
987.355	2740.66
987.653	2746.54
987.951	2727.78
988.249	2770.27
988.547	2704.05
988.844	2712.87
989.142	2674.9
989.44	2710.15
989.737	2649.82
990.035	2643.04
990.332	2648.91
990.63	2624.96
990.927	2628.8
991.224	2601.01
991.521	2610.27
991.819	2580.44
992.116	2572.98
992.413	2566.88
992.71	2573.44
993.006	2577.5
993.303	2520.33
993.6	2514.23
993.897	2506.54
994.193	2520.33
994.49	2474
994.787	2462.03
995.083	2436.49
995.379	2460.44
995.676	2438.3
995.972	2432.2
996.268	2397.39
996.565	2426.32
996.861	2391.97
997.157	2369.15
997.453	2364.4
997.749	2349.71
998.044	2322.37
998.34	2358.75
998.636	2329.83
998.932	2297.74
999.227	2276.72
999.523	2303.61
999.818	2252.09
1000.114	2233.11
1000.409	2227.68
1000.704	2217.74
1001	2228.59
1001.295	2154.69
1001.59	2227.46
1001.885	2192.88
1002.18	2155.14
1002.475	2155.59
1002.77	2144.29
1003.065	2127.12
1003.359	2127.35
1003.654	2109.49
1003.949	2066.78
1004.243	2114.92
1004.538	2090.06
1004.832	2090.06
1005.127	2061.36
1005.421	2012.77
1005.715	2038.08
1006.009	2017.07
1006.304	1981.81
1006.598	1998.31
1006.892	2001.7
1007.186	1995.37
1007.48	1942.04
1007.773	1949.5
1008.067	1953.56
1008.361	1924.41
1008.655	1904.98
1008.948	1899.55
1009.242	1899.78
1009.535	1856.62
1009.829	1827.47
1010.122	1837.64
1010.415	1870.4
1010.708	1842.38
1011.001	1834.92
1011.295	1795.83
1011.588	1811.65
1011.881	1796.05
1012.173	1773.46
1012.466	1785.66
1012.759	1781.82
1013.052	1758.54
1013.344	1765.77
1013.637	1752.67
1013.93	1733.01
1014.222	1731.65
1014.514	1692.33
1014.807	1711.54
1015.099	1681.93
1015.391	1675.61
1015.683	1653.91
1015.976	1655.49
1016.268	1662.05
1016.56	1604.65
1016.851	1636.28
1017.143	1629.73
1017.435	1578.66
1017.727	1599.9
1018.018	1590.86
1018.31	1564.2
1018.602	1569.39
1018.893	1568.04
1019.185	1535.5
1019.476	1553.8
1019.767	1552.9
1020.058	1528.72
1020.35	1498.44
1020.641	1490.75
1020.932	1459.11
1021.223	1490.75
1021.514	1451.2
1021.804	1467.93
1022.095	1457.31
1022.386	1434.26
1022.677	1413.69
1022.967	1449.85
1023.258	1379.12
1023.548	1379.57
1023.839	1386.35
1024.129	1370.53
1024.419	1357.65
1024.709	1373.01
1025	1341.6
1025.29	1323.98
1025.58	1318.1
1025.87	1316.29
1026.16	1324.88
1026.449	1307.93
1026.739	1293.24
1027.029	1273.36
1027.319	1283.98
1027.608	1293.92
1027.898	1260.7
1028.187	1235.39
1028.477	1245.56
1028.766	1223.19
1029.055	1203.08
1029.344	1230.42
1029.634	1243.3
1029.923	1219.57
1030.212	1187.03
1030.501	1204.43
1030.79	1187.93
1031.078	1171.21
1031.367	1161.04
1031.656	1155.39
1031.945	1180.7
1032.233	1164.66
1032.522	1138.9
1032.81	1154.49
1033.099	1124.89
1033.387	1137.54
1033.675	1104.1
1033.963	1102.97
1034.251	1123.53
1034.54	1085.34
1034.828	1097.32
1035.116	1088.28
1035.403	1040.14
1035.691	1048.28
1035.979	1055.06
1036.267	1018.9
1036.554	1069.29
1036.842	1017.77
1037.129	1048.5
1037.417	1037.2
1037.704	1007.37
1037.992	987.94
1038.279	1003.31
1038.566	993.82
1038.853	993.82
1039.14	993.82
