Data from hue_280_FLMS001491_00079.txt Node
Date: Tue Feb 07 15:55:45 GMT 2017
User: dcchb
Spectrometer: FLMS00149
Trigger mode: 0
Integration Time (sec): 2.000000E-2
Scans to average: 10
Electric dark correction enabled: true
Nonlinearity correction enabled: false
Boxcar width: 0
XAxis mode: Wavelengths
Number of Pixels in Spectrum: 2048
>>>>>Begin Spectral Data<<<<<
341.393	-10.32
341.776	-10.32
342.16	-10.32
342.543	-62.53
342.927	-63.88
343.31	-71.79
343.693	-52.36
344.077	-83.77
344.46	-52.58
344.843	-46.71
345.226	-61.62
345.61	-23.21
345.993	-29.53
346.376	-1.74
346.759	13.63
347.142	31.03
347.525	45.49
347.908	49.11
348.291	82.1
348.674	86.85
349.057	115.1
349.44	121.88
349.823	133.63
350.206	158.48
350.588	192.61
350.971	218.82
351.354	226.96
351.737	236.67
352.119	212.49
352.502	231.25
352.884	282.1
353.267	274.87
353.65	307.18
354.032	281.42
354.414	310.8
354.797	319.61
355.179	336.78
355.562	309.89
355.944	311.47
356.326	328.65
356.709	335.2
357.091	342.21
357.473	351.02
357.855	336.11
358.238	344.47
358.62	331.59
359.002	323.68
359.384	339.5
359.766	344.02
360.148	339.5
360.53	325.26
360.912	354.41
361.294	343.56
361.676	328.88
362.057	342.89
362.439	353.06
362.821	305.6
363.203	308.76
363.584	329.1
363.966	332.04
364.348	313.96
364.729	307.63
365.111	322.55
365.493	329.33
365.874	316.45
366.256	287.29
366.637	318.03
367.019	333.4
367.4	320.97
367.781	297.24
368.163	305.6
368.544	322.1
368.925	315.99
369.306	331.59
369.688	323.9
370.069	319.38
370.45	308.31
370.831	332.04
371.212	315.54
371.593	300.63
371.974	314.86
372.355	334.98
372.736	333.17
373.117	328.65
373.498	323.9
373.879	307.18
374.26	331.81
374.641	304.92
375.021	310.8
375.402	299.72
375.783	312.83
376.163	320.29
376.544	325.03
376.925	325.03
377.305	306.96
377.686	319.16
378.066	317.12
378.447	308.76
378.827	341.3
379.208	333.85
379.588	320.97
379.968	334.75
380.349	342.43
380.729	351.47
381.109	337.91
381.489	358.48
381.87	340.85
382.25	355.77
382.63	344.69
383.01	353.73
383.39	347.41
383.77	319.84
384.15	343.56
384.53	337.46
384.91	357.8
385.29	338.82
385.67	341.76
386.049	359.16
386.429	338.14
386.809	351.02
387.189	356.45
387.568	364.13
387.948	365.03
388.328	337.69
388.707	358.25
389.087	345.82
389.466	364.58
389.846	362.09
390.225	358.93
390.605	367.52
390.984	367.07
391.363	360.29
391.743	370.23
392.122	354.64
392.501	368.87
392.881	390.79
393.26	378.14
393.639	379.72
394.018	386.5
394.397	384.47
394.776	387.86
395.155	387.86
395.534	388.53
395.913	397.8
396.292	379.95
396.671	400.06
397.05	403.45
397.429	396.44
397.808	388.31
398.186	410
398.565	385.37
398.944	406.84
399.323	434.18
399.701	424.69
400.08	421.98
400.458	434.41
400.837	431.92
401.215	414.07
401.594	432.83
401.972	414.75
402.351	416.78
402.729	431.47
403.107	453.17
403.486	435.54
403.864	434.18
404.242	449.1
404.62	447.06
404.999	455.2
405.377	468.31
405.755	448.42
406.133	471.24
406.511	456.1
406.889	466.95
407.267	466.27
407.645	476.89
408.023	493.39
408.401	478.25
408.779	500.85
409.156	496.55
409.534	479.61
409.912	498.59
410.29	511.02
410.667	550.79
411.045	512.37
411.422	526.38
411.8	542.88
412.178	539.94
412.555	544.46
412.933	559.6
413.31	568.64
413.687	572.26
414.065	564.8
414.442	582.65
414.819	621.75
415.197	601.86
415.574	594.18
415.951	617.23
416.328	621.98
416.705	612.94
417.082	638.47
417.46	662.43
417.837	641.18
418.214	638.02
418.591	680.96
418.967	655.87
419.344	670.34
419.721	691.8
420.098	665.82
420.475	699.49
420.852	681.41
421.228	695.42
421.605	705.14
421.982	736.32
422.358	755.76
422.735	758.69
423.111	742.2
423.488	750.11
423.864	771.12
424.241	774.51
424.617	768.41
424.994	786.94
425.37	780.39
425.746	814.51
426.123	835.75
426.499	820.61
426.875	847.28
427.251	875.98
427.627	871.91
428.003	873.04
428.379	887.05
428.756	897.22
429.132	911.46
429.507	922.98
429.883	918.01
430.259	950.55
430.635	955.07
431.011	937.9
431.387	990.55
431.763	995.75
432.138	1000.27
432.514	1004.79
432.89	1010.67
433.265	1005.47
433.641	1061.51
434.016	1071
434.392	1072.81
434.767	1077.78
435.143	1086.6
435.518	1116.2
435.894	1107.39
436.269	1124.33
436.644	1130.44
437.02	1190.32
437.395	1192.13
437.77	1199.14
438.145	1214.73
438.52	1211.34
438.895	1237.33
439.271	1255.4
439.646	1274.16
440.021	1284.33
440.395	1289.3
440.77	1292.69
441.145	1269.87
441.52	1319.81
441.895	1308.96
442.27	1362.75
442.645	1362.97
443.019	1360.26
443.394	1367.72
443.769	1369.75
444.143	1392.12
444.518	1400.71
444.892	1399.36
445.267	1410.65
445.641	1411.78
446.016	1380.15
446.39	1421.73
446.764	1449.07
447.139	1431.9
447.513	1416.76
447.887	1446.13
448.262	1457.89
448.636	1448.39
449.01	1503.99
449.384	1463.31
449.758	1463.53
450.132	1492.69
450.506	1522.74
450.88	1506.47
451.254	1550.76
451.628	1573.14
452.002	1572.68
452.376	1553.48
452.75	1579.01
453.123	1591.44
453.497	1629.18
453.871	1586.47
454.244	1609.07
454.618	1652
454.992	1666.92
455.365	1656.98
455.739	1693.36
456.112	1678.22
456.486	1680.48
456.859	1674.38
457.232	1714.15
457.606	1729.97
457.979	1754.15
458.352	1800.93
458.725	1807.48
459.099	1832.11
459.472	1847.71
459.845	1856.74
460.218	1887.03
460.591	1860.59
460.964	1901.26
461.337	1927.7
461.71	1910.53
462.083	1962.05
462.456	1946.01
462.829	1970.64
463.201	1975.84
463.574	1987.14
463.947	1981.94
464.32	2071.65
464.692	2047.25
465.065	2040.02
465.438	2081.82
465.81	2118.43
466.183	2140.13
466.555	2168.38
466.928	2157.3
467.3	2113.01
467.672	2160.47
468.045	2273.68
468.417	2249.5
468.789	2245.89
469.161	2288.37
469.534	2260.12
469.906	2353.46
470.278	2352.1
470.65	2350.29
471.022	2421.02
471.394	2448.82
471.766	2454.02
472.138	2480.23
472.51	2494.69
472.882	2571.98
473.253	2529.27
473.625	2600.68
473.997	2642.71
474.369	2650.85
474.74	2636.84
475.112	2707.57
475.484	2716.61
475.855	2790.05
476.227	2754.8
476.598	2836.38
476.97	2904.63
477.341	2923.38
477.713	2922.48
478.084	2930.39
478.455	3035.7
478.827	3011.52
479.198	3088.8
479.569	3107.56
479.94	3159.76
480.311	3156.82
480.682	3225.75
481.053	3296.93
481.424	3322.02
481.795	3382.13
482.166	3414.67
482.537	3414.44
482.908	3452.86
483.279	3481.11
483.65	3543.48
484.021	3572.63
484.391	3626.64
484.762	3636.36
485.133	3662.8
485.503	3651.27
485.874	3722.46
486.244	3756.58
486.615	3818.28
486.985	3838.39
487.356	3891.95
487.726	3914.77
488.097	4006.07
488.467	3966.07
488.837	4056.91
489.207	4086.29
489.578	4165.84
489.948	4152.05
490.318	4195.21
490.688	4200.64
491.058	4263.91
491.428	4332.39
491.798	4362.44
492.168	4404.7
492.538	4377.13
492.908	4449.67
493.278	4490.35
493.648	4470.46
494.017	4540.52
494.387	4586.62
494.757	4649.44
495.126	4636.33
495.496	4651.7
495.866	4670.68
496.235	4710.68
496.605	4726.5
496.974	4735.77
497.344	4781.41
497.713	4781.19
498.082	4843.33
498.452	4883.33
498.821	4873.39
499.19	4917.91
499.559	4930.11
499.928	4936.21
500.298	4994.29
500.667	5012.14
501.036	4975.98
501.405	5016.89
501.774	4993.39
502.143	5076.32
502.512	5082.65
502.88	5138.69
503.249	5102.99
503.618	5084.46
503.987	5141.86
504.356	5133.95
504.724	5187.73
505.093	5215.53
505.462	5210.33
505.83	5258.92
506.199	5265.24
506.567	5326.94
506.936	5333.49
507.304	5313.6
507.672	5370.32
508.041	5348.4
508.409	5355.18
508.777	5429.98
509.145	5418.91
509.514	5452.36
509.882	5462.07
510.25	5485.35
510.618	5523.54
510.986	5481.96
511.354	5533.26
511.722	5534.16
512.09	5584.33
512.458	5583.2
512.826	5639.7
513.193	5607.83
513.561	5615.97
513.929	5654.16
514.297	5695.51
514.664	5698.23
515.032	5693.71
515.4	5740.26
515.767	5753.82
516.135	5761.5
516.502	5699.58
516.869	5842.4
517.237	5806.25
517.604	5780.48
517.972	5851.89
518.339	5824.78
518.706	5847.6
519.073	5866.81
519.44	5868.16
519.808	5870.65
520.175	5888.73
520.542	6010.76
520.909	5974.6
521.276	5940.03
521.643	5999.91
522.009	6034.04
522.376	6043.53
522.743	6063.41
523.11	6170.76
523.477	6123.07
523.843	6143.86
524.21	6186.8
524.577	6274.93
524.943	6196.29
525.31	6240.13
525.676	6294.37
526.043	6306.57
526.409	6316.51
526.776	6423.86
527.142	6398.32
527.508	6456.17
527.874	6458.43
528.241	6421.14
528.607	6466.34
528.973	6535.72
529.339	6515.61
529.705	6589.05
530.071	6586.11
530.437	6603.51
530.803	6569.84
531.169	6630.86
531.535	6610.74
531.901	6608.48
532.267	6694.13
532.632	6713.79
532.998	6748.14
533.364	6730.06
533.73	6739.55
534.095	6789.27
534.461	6792.43
534.826	6871.3
535.192	6839.44
535.557	6864.3
535.923	6881.25
536.288	6906.1
536.653	6893.9
537.019	6869.27
537.384	6879.66
537.749	6939.55
538.114	6940.91
538.479	6991.53
538.845	7024.07
539.21	6998.98
539.575	7000.79
539.94	6950.85
540.305	7024.74
540.67	7008.93
541.034	7036.04
541.399	7097.74
541.764	7027
542.129	7176.61
542.494	7166.66
542.858	7118.08
543.223	7078.08
543.587	7207.34
543.952	7237.17
544.316	7147.45
544.681	7212.08
545.045	7219.32
545.41	7261.8
545.774	7233.1
546.138	7256.38
546.503	7272.65
546.867	7314.91
547.231	7329.14
547.595	7353.1
547.959	7378.63
548.324	7384.06
548.688	7342.93
549.052	7413.21
549.416	7370.27
549.779	7310.84
550.143	7391.29
550.507	7467.9
550.871	7438.97
551.235	7399.42
551.599	7464.51
551.962	7505.41
552.326	7446.2
552.689	7484.62
553.053	7491.85
553.417	7546.76
553.78	7586.76
554.143	7569.82
554.507	7573.43
554.87	7585.63
555.234	7651.17
555.597	7642.58
555.96	7710.83
556.323	7645.97
556.686	7651.39
557.05	7771.62
557.413	7744.05
557.776	7729.36
558.139	7765.74
558.502	7729.36
558.865	7795.12
559.228	7822.46
559.59	7814.55
559.953	7836.47
560.316	7878.28
560.679	7948.34
561.041	7942.23
561.404	7969.58
561.767	8020.88
562.129	7990.37
562.492	8116.69
562.854	8035.57
563.217	8056.58
563.579	8105.39
563.941	8125.28
564.304	8170.7
564.666	8214.09
565.028	8174.32
565.39	8194.43
565.753	8234.88
566.115	8259.97
566.477	8312.62
566.839	8362.79
567.201	8374.09
567.563	8398.95
567.925	8439.62
568.287	8413.86
568.648	8458.38
569.01	8494.08
569.372	8548.77
569.734	8523.24
570.095	8602.78
570.457	8666.51
570.819	8674.64
571.18	8676.45
571.542	8756.22
571.903	8714.42
572.265	8809.78
572.626	8770.46
572.987	8831.48
573.349	8810.69
573.71	8874.64
574.071	8859.95
574.432	8955.32
574.794	9000.29
575.155	9039.38
575.516	8941.53
575.877	9085.71
576.238	9096.1
576.599	9142.43
576.96	9220.17
577.32	9203.9
577.681	9232.82
578.042	9298.36
578.403	9332.71
578.763	9420.16
579.124	9409.31
579.485	9476.88
579.845	9527.73
580.206	9535.41
580.566	9536.54
580.927	9546.26
581.287	9674.62
581.648	9719.59
582.008	9795.29
582.368	9809.76
582.728	9845.01
583.089	9886.59
583.449	9926.14
583.809	10009.98
584.169	9992.12
584.529	10100.6
584.889	10236.19
585.249	10230.31
585.609	10236.41
585.969	10379.68
586.329	10385.56
586.688	10426.46
587.048	10427.82
587.408	10570.87
587.768	10645.89
588.127	10694.7
588.487	10723.18
588.846	10836.17
589.206	10837.07
589.565	10936.05
589.925	10987.13
590.284	11112.77
590.643	11202.49
591.003	11256.95
591.362	11365.2
591.721	11385.76
592.08	11439.77
592.44	11591.86
592.799	11589.37
593.158	11633.44
593.517	11750.27
593.876	11773.77
594.235	11830.72
594.593	11882.7
594.952	12046.31
595.311	12110.26
595.67	12061.67
596.029	12246.98
596.387	12230.94
596.746	12305.06
597.104	12395.9
597.463	12453.3
597.822	12537.37
598.18	12472.74
598.538	12596.35
598.897	12773.75
599.255	12644.26
599.613	12898.71
599.972	12835.89
600.33	12979.16
600.688	12864.82
601.046	12997.69
601.404	13118.82
601.762	13143.91
602.12	13192.49
602.478	13249.67
602.836	13343.67
603.194	13297.8
603.552	13362.21
603.91	13304.35
604.268	13538.47
604.625	13430.23
604.983	13592.48
605.341	13516.78
605.698	13673.16
606.056	13738.69
606.413	13701.86
606.771	13787.05
607.128	13845.58
607.485	13797.45
607.843	13901.17
608.2	13942.98
608.557	13971.45
608.914	13991.79
609.272	14120.15
609.629	14074.73
609.986	14171.22
610.343	14095.52
610.7	14343.87
611.057	14312.24
611.414	14347.04
611.771	14426.13
612.127	14445.79
612.484	14422.74
612.841	14414.61
613.198	14441.5
613.554	14505.9
613.911	14526.24
614.267	14585
614.624	14635.84
614.98	14613.47
615.337	14659.57
615.693	14649.18
616.05	14715.16
616.406	14805.78
616.762	14757.65
617.118	14807.59
617.475	14776.18
617.831	14732.56
618.187	14866.57
618.543	14869.74
618.899	14987.02
619.255	14936.18
619.611	14937.76
619.967	14926.68
620.323	15052.78
620.678	14985.89
621.034	14990.86
621.39	15025.89
621.746	14977.98
622.101	15262.04
622.457	15043.29
622.812	15110.86
623.168	15185.89
623.523	15155.83
623.879	15186.34
624.234	15040.58
624.589	15116.74
624.945	15084.87
625.3	15109.28
625.655	15056.4
626.01	15243.96
626.365	15136.17
626.72	15153.8
627.075	15237.41
627.43	15126.45
627.785	15170.29
628.14	15221.14
628.495	15208.71
628.85	15227.92
629.205	15181.59
629.559	15225.88
629.914	15137.98
630.269	15192.89
630.623	15110.86
630.978	15150.41
631.332	15271.76
631.687	15175.04
632.041	15121.48
632.396	15155.83
632.75	15147.69
633.104	15227.47
633.459	15110.18
633.813	15064.76
634.167	15111.99
634.521	15093.46
634.875	15060.01
635.229	15047.36
635.583	14953.8
635.937	15077.41
636.291	15015.5
636.645	15000.35
636.999	15087.58
637.352	14969.39
637.706	14998.32
638.06	15029.05
638.413	15056.4
638.767	14950.64
639.121	14918.55
639.474	14817.53
639.828	14859.11
640.181	14948.38
640.534	14923.52
640.888	14875.61
641.241	14848.27
641.594	14776.18
641.947	14796.07
642.301	14855.95
642.654	14872.45
643.007	14737.99
643.36	14751.1
643.713	14752.68
644.066	14842.17
644.419	14697.76
644.771	14599.46
645.124	14488.5
645.477	14524.43
645.83	14382.07
646.182	14359.47
646.535	14240.6
646.888	14328.28
647.24	14290.77
647.593	14275.85
647.945	14340.71
648.298	14219.81
648.65	14255.06
649.002	14251.45
649.355	14254.84
649.707	14249.41
650.059	14398.11
650.411	14513.36
650.763	14579.57
651.115	14728.95
651.467	14626.8
651.819	14636.97
652.171	14656.18
652.523	14577.09
652.875	14584.55
653.227	14521.72
653.578	14672.45
653.93	14652.34
654.282	14585.22
654.633	14565.34
654.985	14629.97
655.337	14718.1
655.688	14578.22
656.039	14732.11
656.391	14625.9
656.742	14709.74
657.094	14636.97
657.445	14674.94
657.796	14663.19
658.147	14676.07
658.498	14641.95
658.849	14616.86
659.2	14660.7
659.551	14631.32
659.902	14623.19
660.253	14651.66
660.604	14702.28
660.955	14652.79
661.306	14727.14
661.656	14650.31
662.007	14697.54
662.358	14680.59
662.708	14710.19
663.059	14660.7
663.409	14679.91
663.76	14689.63
664.11	14804.43
664.461	14719.46
664.811	14648.72
665.161	14722.4
665.511	14767.37
665.862	14688.05
666.212	14738.89
666.562	14717.42
666.912	14737.08
667.262	14679.01
667.612	14780.47
667.962	14853.24
668.312	14801.26
668.662	14679.01
669.011	14784.99
669.361	14713.13
669.711	14645.34
670.06	14670.65
670.41	14715.62
670.76	14672.23
671.109	14709.29
671.459	14645.11
671.808	14682.4
672.157	14712.9
672.507	14641.49
672.856	14593.59
673.205	14631.78
673.554	14602.4
673.904	14690.76
674.253	14723.75
674.602	14582.74
674.951	14392.46
675.3	14282.63
675.649	14538.22
675.998	14497.77
676.346	14521.27
676.695	14631.32
677.044	14414.83
677.393	14334.16
677.741	14425.68
678.09	14459.8
678.438	14438.11
678.787	14414.61
679.135	14415.74
679.484	14294.38
679.832	14436.98
680.181	14328.51
680.529	14332.8
680.877	14368.05
681.225	14249.64
681.573	14331.67
681.922	14207.61
682.27	14149.76
682.618	14235.4
682.966	14137.33
683.314	14188.17
683.661	14140.04
684.009	13978.69
684.357	13993.6
684.705	14026.37
685.053	14009.87
685.4	13988.63
685.748	13949.99
686.095	13932.59
686.443	13886.26
686.79	13837.9
687.138	13936.2
687.485	13880.38
687.832	13793.83
688.18	13758.13
688.527	13717.68
688.874	13668.86
689.221	13655.3
689.568	13538.92
689.915	13543.9
690.262	13614.85
690.609	13486.72
690.956	13487.4
691.303	13443.11
691.65	13374.86
691.997	13301.42
692.344	13251.7
692.69	13318.82
693.037	13273.17
693.383	13191.81
693.73	13141.65
694.077	13028.88
694.423	13096.9
694.769	13037.69
695.116	12967.64
695.462	12951.59
695.808	12892.16
696.155	12866.4
696.501	12840.86
696.847	12784.37
697.193	12648.33
697.539	12776.23
697.885	12599.97
698.231	12572.4
698.577	12533.75
698.923	12542.34
699.269	12437.26
699.614	12391.16
699.96	12326.53
700.306	12361.1
700.651	12291.72
700.997	12251.5
701.342	12188.45
701.688	12124.05
702.033	12106.19
702.379	12116.59
702.724	12076.59
703.069	12099.19
703.415	12005.4
703.76	11919.98
704.105	11938.51
704.45	11964.05
704.795	11826.2
705.14	11739.65
705.485	11738.75
705.83	11676.37
706.175	11699.65
706.52	11732.19
706.865	11632.53
707.209	11610.16
707.554	11595.7
707.899	11538.75
708.243	11489.71
708.588	11443.16
708.932	11364.97
709.277	11381.69
709.621	11377.85
709.966	11261.02
710.31	11278.64
710.654	11220.57
710.998	11251.98
711.342	11211.98
711.687	11191.64
712.031	11124.75
712.375	11130.63
712.719	11060.8
713.063	11046.56
713.407	11106.67
713.75	11070.97
714.094	10946.68
714.438	10992.1
714.782	10971.31
715.125	10961.36
715.469	11002.72
715.812	10866.68
716.156	10817.87
716.499	10875.26
716.843	10836.62
717.186	10809.28
717.53	10877.3
717.873	10858.32
718.216	10880.91
718.559	10701.03
718.902	10748.71
719.246	10684.31
719.589	10708.04
719.932	10630.98
720.275	10680.02
720.617	10703.74
720.96	10608.83
721.303	10600.92
721.646	10617.87
721.989	10534.93
722.331	10671.88
722.674	10559.34
723.016	10593.69
723.359	10557.08
723.701	10645.21
724.044	10493.13
724.386	10519.12
724.729	10482.73
725.071	10466.69
725.413	10472.34
725.755	10492
726.097	10436.63
726.439	10389.85
726.782	10436.18
727.124	10403.41
727.465	10377.65
727.807	10386.24
728.149	10430.08
728.491	10385.56
728.833	10452.9
729.175	10382.4
729.516	10345.11
729.858	10354.83
730.199	10350.53
730.541	10408.16
730.882	10300.59
731.224	10351.66
731.565	10290.42
731.906	10352.11
732.248	10351.44
732.589	10279.12
732.93	10350.08
733.271	10276.86
733.612	10280.48
733.953	10300.36
734.294	10261.95
734.635	10303.98
734.976	10307.37
735.317	10262.85
735.658	10298.78
735.999	10274.6
736.339	10308.05
736.68	10329.29
737.021	10351.44
737.361	10241.84
737.702	10317.09
738.042	10288.16
738.383	10361.15
738.723	10355.5
739.063	10345.11
739.404	10432.56
739.744	10333.36
740.084	10374.71
740.424	10389.85
740.764	10299.23
741.104	10427.14
741.444	10379.68
741.784	10524.31
742.124	10430.3
742.464	10451.32
742.804	10510.3
743.143	10459
743.483	10489.29
743.823	10472.34
744.162	10547.59
744.502	10598.44
744.841	10567.48
745.181	10735.83
745.52	10648.15
745.86	10698.77
746.199	10628.27
746.538	10833.01
746.877	10833.91
747.216	10836.17
747.556	10918.65
747.895	10974.7
748.234	11017.18
748.573	11019.22
748.911	11096.28
749.25	11158.87
749.589	11223.5
749.928	11253.56
750.267	11356.38
750.605	11427.11
750.944	11546.66
751.283	11508.24
751.621	11647.9
751.96	11661.23
752.298	11785.52
752.636	11847.44
752.975	11884.73
753.313	11981.22
753.651	12247.21
753.989	12306.87
754.327	12434.77
754.666	12408.11
755.004	12623.02
755.342	12752.28
755.679	12923.57
756.017	12920.41
756.355	13105.04
756.693	13187.52
757.031	13369.89
757.368	13473.84
757.706	13632.48
758.044	13742.99
758.381	13853.72
758.719	13935.3
759.056	14231.56
759.394	14294.38
759.731	14373.93
760.068	14537.09
760.405	14638.33
760.743	14782.73
761.08	14965.1
761.417	15017.75
761.754	15206.45
762.091	15351.31
762.428	15481.25
762.765	15520.57
763.102	15850.95
763.438	15846.21
763.775	15901.57
764.112	16228.57
764.449	16330.04
764.785	16504.72
765.122	16410.94
765.458	16553.76
765.795	16753.98
766.131	16916.01
766.467	16930.02
766.804	17063.8
767.14	17069.45
767.476	17254.53
767.812	17357.58
768.148	17572.94
768.485	17584.92
768.821	17544.02
769.157	17722.54
769.492	17915.08
769.828	17977
770.164	17888.19
770.5	17958.92
770.836	18051.57
771.171	18137.67
771.507	18153.27
771.842	18072.36
772.178	18320.04
772.513	18285.24
772.849	18366.37
773.184	18433.03
773.519	18406.82
773.855	18456.08
774.19	18495.4
774.525	18546.48
774.86	18597.32
775.195	18638
775.53	18645.68
775.865	18619.92
776.2	18495.86
776.535	18567.49
776.87	18618.79
777.205	18649.3
777.539	18651.78
777.874	18694.49
778.209	18601.39
778.543	18614.04
778.878	18607.26
779.212	18671.9
779.547	18679.81
779.881	18701.27
780.215	18655.85
780.55	18762.29
780.884	18583.31
781.218	18721.84
781.552	18663.31
781.886	18565.68
782.22	18557.32
782.554	18571.33
782.888	18453.82
783.222	18345.58
783.556	18479.58
783.889	18394.84
784.223	18410.43
784.557	18323.2
784.89	18487.72
785.224	18364.79
785.557	18304.45
785.891	18312.36
786.224	18286.37
786.558	18261.96
786.891	18147.39
787.224	18153.94
787.557	18012.7
787.891	18059.26
788.224	18044.12
788.557	18106.04
788.89	18017.45
789.223	18077.11
789.556	17926.15
789.888	17882.99
790.221	17789.89
790.554	17703.11
790.887	17730
791.219	17660.17
791.552	17659.72
791.884	17594.86
792.217	17544.92
792.549	17604.81
792.882	17534.52
793.214	17424.02
793.546	17459.95
793.879	17367.07
794.211	17286.62
794.543	17304.25
794.875	17227.19
795.207	17217.47
795.539	17213.86
795.871	17131.37
796.203	17003.92
796.535	16942.68
796.867	16975.22
797.198	16852.96
797.53	16904.03
797.862	16860.64
798.193	16859.74
798.525	16796.24
798.856	16847.76
799.188	16638.96
799.519	16516.92
799.85	16510.82
800.182	16545.17
800.513	16476.02
800.844	16381.56
801.175	16528.45
801.506	16435.12
801.837	16352.63
802.168	16378.85
802.499	16339.3
802.83	16220.89
803.161	16224.05
803.491	16100.44
803.822	16074.9
804.153	16064.73
804.483	15983.61
804.814	15845.53
805.145	15947.22
805.475	15934.34
805.805	15822.48
806.136	15810.28
806.466	15728.02
806.796	15826.32
807.126	15662.94
807.457	15640.79
807.787	15613.22
808.117	15628.81
808.447	15549.27
808.777	15649.38
809.107	15502.71
809.436	15396.5
809.766	15550.17
810.096	15507.91
810.426	15385.88
810.755	15350.63
811.085	15359.89
811.414	15308.14
811.744	15223.63
812.073	15154.93
812.403	15295.26
812.732	15116.74
813.061	15100.01
813.39	15022.73
813.719	14977.76
814.049	15045.55
814.378	14985.67
814.707	14803.52
815.036	14895.95
815.365	14702.96
815.693	14714.71
816.022	14772.79
816.351	14727.14
816.68	14715.84
817.008	14671.78
817.337	14514.94
817.665	14601.27
817.994	14579.12
818.322	14578.22
818.651	14501.61
818.979	14383.2
819.307	14608.05
819.636	14429.97
819.964	14348.62
820.292	14451.22
820.62	14383.65
820.948	14332.35
821.276	14404.66
821.604	14372.8
821.932	14384.33
822.259	14348.39
822.587	14343.2
822.915	14307.94
823.243	14344.1
823.57	14246.48
823.898	14282.63
824.225	14273.59
824.553	14241.5
824.88	14361.27
825.207	14360.6
825.535	14280.15
825.862	14276.76
826.189	14231.11
826.516	14286.93
826.843	14446.7
827.17	14331.9
827.497	14305.46
827.824	14316.08
828.151	14336.64
828.478	14396.75
828.805	14418.9
829.131	14302.29
829.458	14314.72
829.785	14249.64
830.111	14259.81
830.438	14361.73
830.764	14289.19
831.09	14305.01
831.417	14253.93
831.743	14321.73
832.069	14356.08
832.395	14217.55
832.722	14294.38
833.048	14229.08
833.374	14234.27
833.7	14174.84
834.026	14253.93
834.351	14230.43
834.677	14149.08
835.003	14200.6
835.329	14145.24
835.654	14099.36
835.98	14088.29
836.306	14156.76
836.631	14067.05
836.956	14088.74
837.282	14095.75
837.607	14008.97
837.932	13990.66
838.258	13959.7
838.583	13941.4
838.908	13902.76
839.233	13940.72
839.558	13867.73
839.883	13822.53
840.208	13786.15
840.533	13836.32
840.858	13803.55
841.182	13853.94
841.507	13744.79
841.832	13735.98
842.156	13697.56
842.481	13630.45
842.805	13681.74
843.13	13600.16
843.454	13587.06
843.778	13465.03
844.103	13434.52
844.427	13441.3
844.751	13450.11
845.075	13374.86
845.399	13385.26
845.723	13274.3
846.047	13333.51
846.371	13139.39
846.695	13214.86
847.019	13070.91
847.343	13088.31
847.666	12968.77
847.99	12937.36
848.313	13012.38
848.637	12857.13
848.96	12771.71
849.284	12709.11
849.607	12670.7
849.931	12682
850.254	12586.41
850.577	12541.89
850.9	12481.1
851.223	12386.19
851.546	12370.37
851.869	12312.29
852.192	12442
852.515	12239.52
852.838	12291.95
853.161	12252.4
853.483	12176.7
853.806	12114.1
854.129	12078.17
854.451	11973.77
854.774	11943.26
855.096	11881.79
855.419	11957.5
855.741	11958.4
856.063	11802.25
856.385	11750.95
856.708	11708.24
857.03	11720.44
857.352	11678.86
857.674	11658.75
857.996	11601.57
858.318	11545.76
858.64	11527.45
858.961	11439.32
859.283	11464.63
859.605	11457.4
859.926	11451.29
860.248	11414.46
860.57	11373.56
860.891	11376.49
861.212	11297.85
861.534	11280
861.855	11243.84
862.176	11265.76
862.498	11255.14
862.819	11271.64
863.14	11282.71
863.461	11239.32
863.782	11099.89
864.103	11106.45
864.424	11091.3
864.745	11109.83
865.065	10949.16
865.386	10969.27
865.707	10959.78
866.027	10967.69
866.348	10963.85
866.668	10998.88
866.989	10918.65
867.309	10753.01
867.63	10986.9
867.95	10863.06
868.27	10769.28
868.59	10819.45
868.91	10823.74
869.23	10807.7
869.55	10724.99
869.87	10815.61
870.19	10750.52
870.51	10813.12
870.83	10710.07
871.15	10724.08
871.469	10675.95
871.789	10684.76
872.109	10634.14
872.428	10653.12
872.748	10685.21
873.067	10611.99
873.386	10532
873.706	10577.87
874.025	10436.86
874.344	10476.63
874.663	10544.43
874.982	10476.86
875.301	10488.61
875.62	10446.8
875.939	10415.84
876.258	10450.64
876.577	10441.6
876.896	10350.31
877.214	10367.71
877.533	10362.51
877.852	10341.95
878.17	10407.03
878.489	10280.93
878.807	10247.71
879.125	10314.6
879.444	10270.99
879.762	10193.02
880.08	10265.34
880.398	10212.91
880.716	10228.5
881.034	10175.17
881.352	10139.01
881.67	10190.31
881.988	10192.8
882.306	10095.62
882.624	10073.25
882.941	10037.09
883.259	9948.51
883.577	9924.78
883.894	9916.42
884.212	9961.39
884.529	9954.84
884.846	9899.02
885.164	9896.08
885.481	9850.66
885.798	9894.5
886.115	9822.19
886.432	9739.25
886.75	9793.94
887.067	9696.31
887.383	9608.86
887.7	9672.58
888.017	9678.01
888.334	9755.75
888.651	9575.41
888.967	9593.26
889.284	9558.46
889.6	9528.63
889.917	9425.81
890.233	9420.39
890.55	9427.17
890.866	9485.7
891.182	9412.7
891.498	9329.09
891.815	9325.93
892.131	9238.25
892.447	9243.67
892.763	9220.39
893.079	9233.27
893.395	9191.69
893.71	9164.12
894.026	9139.72
894.342	9105.82
894.657	9077.8
894.973	9074.18
895.289	8971.81
895.604	8995.77
895.92	8907.41
896.235	8860.85
896.55	8907.86
896.865	8846.39
897.181	8837.35
897.496	8887.52
897.811	8760.07
898.126	8781.53
898.441	8724.14
898.756	8687.75
899.071	8625.15
899.386	8631.48
899.7	8551.26
900.015	8509
900.33	8499.51
900.644	8464.03
900.959	8444.37
901.273	8411.37
901.588	8402.34
901.902	8337.7
902.216	8332.05
902.531	8303.58
902.845	8315.11
903.159	8219.52
903.473	8186.07
903.787	8128.44
904.101	8132.06
904.415	8126.18
904.729	8016.36
905.042	8016.58
905.356	7958.73
905.67	8039.86
905.984	7994.66
906.297	7892.52
906.611	7855.01
906.924	7922.35
907.237	7861.78
907.551	7853.65
907.864	7737.49
908.177	7759.64
908.491	7750.83
908.804	7724.84
909.117	7682.58
909.43	7646.42
909.743	7520.1
910.056	7543.6
910.368	7546.31
910.681	7509.7
910.994	7432.64
911.307	7495.01
911.619	7429.71
911.932	7352.65
912.244	7304.29
912.557	7290.95
912.869	7269.94
913.181	7240.56
913.494	7275.13
913.806	7143.61
914.118	7165.31
914.43	7136.83
914.742	7107.91
915.054	7149.04
915.366	7036.27
915.678	7051.41
915.99	7000.11
916.302	7017.51
916.613	6921.24
916.925	6896.61
917.236	6877.18
917.548	6862.04
917.859	6856.84
918.171	6815.71
918.482	6768.48
918.794	6733.68
919.105	6684.87
919.416	6686.22
919.727	6651.42
920.038	6615.72
920.349	6560.58
920.66	6569.84
920.971	6585.21
921.282	6524.42
921.593	6548.82
921.903	6492.33
922.214	6469.05
922.525	6452.56
922.835	6342.95
923.146	6318.1
923.456	6317.87
923.767	6283.07
924.077	6293.24
924.387	6268.15
924.697	6212.56
925.008	6227.03
925.318	6134.37
925.628	6171.21
925.938	6143.64
926.248	6092.79
926.558	6077.42
926.867	6059.35
927.177	6022.74
927.487	6015.28
927.796	5919.46
928.106	5948.16
928.416	5908.16
928.725	5927.6
929.034	5883.31
929.344	5889.41
929.653	5862.52
929.962	5815.74
930.271	5761.5
930.581	5750.88
930.89	5680.15
931.199	5681.5
931.508	5673.37
931.817	5693.48
932.125	5652.13
932.434	5636.53
932.743	5597.66
933.051	5540.04
933.36	5588.17
933.669	5505.01
933.977	5470.89
934.286	5480.6
934.594	5489.64
934.902	5400.38
935.21	5409.42
935.519	5427.95
935.827	5299.82
936.135	5348.63
936.443	5272.93
936.751	5316.99
937.059	5291.91
937.367	5235.41
937.674	5245.36
937.982	5251.68
938.29	5145.25
938.597	5157
938.905	5093.95
939.213	5122.65
939.52	5116.55
939.827	5109.77
940.135	5060.95
940.442	5100.73
940.749	4994.52
941.056	5031.58
941.363	4971.01
941.67	4938.02
941.977	4887.17
942.284	4894.41
942.591	4895.76
942.898	4859.15
943.205	4837.23
943.511	4827.29
943.818	4827.06
944.125	4806.95
944.431	4798.14
944.738	4739.61
945.044	4726.73
945.35	4635.88
945.657	4621.19
945.963	4636.11
946.269	4661.64
946.575	4617.58
946.881	4578.93
947.187	4543.45
947.493	4547.52
947.799	4512.27
948.105	4533.06
948.41	4490.57
948.716	4490.8
949.022	4476.79
949.327	4484.47
949.633	4364.02
949.938	4401.31
950.244	4407.19
950.549	4350.46
950.854	4291.26
951.16	4301.88
951.465	4313.63
951.77	4296
952.075	4245.61
952.38	4219.39
952.685	4271.14
952.99	4203.58
953.294	4179.17
953.599	4165.38
953.904	4107.53
954.209	4136.69
954.513	4094.88
954.818	4043.13
955.122	4073.86
955.426	4053.3
955.731	4089
956.035	4043.81
956.339	4027.08
956.643	4002.9
956.948	3948.67
957.252	3946.86
957.556	3944.83
957.86	3945.5
958.163	3887.43
958.467	3925.84
958.771	3917.71
959.075	3836.81
959.378	3827.09
959.682	3829.8
959.985	3776.47
960.289	3810.37
960.592	3771.27
960.896	3754.32
961.199	3734.44
961.502	3697.15
961.805	3720.88
962.108	3712.74
962.411	3668.67
962.714	3660.09
963.017	3669.8
963.32	3661.9
963.623	3629.81
963.926	3589.13
964.228	3572.86
964.531	3569.47
964.833	3580.99
965.136	3547.32
965.438	3538.06
965.741	3528.34
966.043	3476.14
966.345	3471.62
966.648	3467.55
966.95	3441.56
967.252	3458.96
967.554	3458.74
967.856	3418.51
968.158	3394.56
968.46	3401.34
968.761	3380.09
969.063	3357.95
969.365	3349.14
969.666	3357.5
969.968	3368.34
970.269	3252.64
970.571	3254.67
970.872	3267.1
971.174	3262.81
971.475	3248.57
971.776	3190.95
972.077	3181.46
972.378	3211.74
972.679	3173.77
972.98	3127.9
973.281	3142.13
973.582	3165.64
973.883	3129.25
974.183	3114.11
974.484	3094
974.785	3070.72
975.085	3067.79
975.386	3063.72
975.686	3059.2
975.986	3032.76
976.287	3017.17
976.587	3011.29
976.887	2994.34
977.187	2986.66
977.487	2989.6
977.787	2936.04
978.087	2926.55
978.387	2944.17
978.687	2899.2
978.987	2923.38
979.286	2892.42
979.586	2875.48
979.885	2879.77
980.185	2863.5
980.484	2857.62
980.784	2781.24
981.083	2825.31
981.382	2807.23
981.682	2791.41
981.981	2784.4
982.28	2738.98
982.579	2736.27
982.878	2727.91
983.177	2754.12
983.475	2760.9
983.774	2675.71
984.073	2696.72
984.372	2684.07
984.67	2701.24
984.969	2652.66
985.267	2646.33
985.566	2628.93
985.864	2598.87
986.162	2610.17
986.461	2584.86
986.759	2595.93
987.057	2569.95
987.355	2566.1
987.653	2541.02
987.951	2554.58
988.249	2515.71
988.547	2535.6
988.844	2483.4
989.142	2474.36
989.44	2520.46
989.737	2441.14
990.035	2432.1
990.332	2410.85
990.63	2421.48
990.927	2440.91
991.224	2399.1
991.521	2409.05
991.819	2397.75
992.116	2356.84
992.413	2355.49
992.71	2340.12
993.006	2313.68
993.303	2351.2
993.6	2333.34
993.897	2304.19
994.193	2300.12
994.49	2294.93
994.787	2245.89
995.083	2225.32
995.379	2256.28
995.676	2236.85
995.972	2249.5
996.268	2183.97
996.565	2192.1
996.861	2188.94
997.157	2214.25
997.453	2154.14
997.749	2174.7
998.044	2140.58
998.34	2136.51
998.636	2131.09
998.932	2118.43
999.227	2112.56
999.523	2097.19
999.818	2106.68
1000.114	2071.2
1000.409	2089.73
1000.704	2037.31
1001	2035.95
1001.295	2014.25
1001.59	2043.41
1001.885	2003.63
1002.18	2015.16
1002.475	1939.45
1002.77	1955.95
1003.065	1965.89
1003.359	1958.21
1003.654	1963.63
1003.949	1941.49
1004.243	1965.22
1004.538	1911.21
1004.832	1913.92
1005.127	1927.7
1005.421	1871.43
1005.715	1882.28
1006.009	1835.73
1006.304	1847.48
1006.598	1859
1006.892	1849.51
1007.186	1797.99
1007.48	1801.38
1007.773	1806.8
1008.067	1804.77
1008.361	1776.75
1008.655	1778.78
1008.948	1745.34
1009.242	1725.67
1009.535	1722.74
1009.829	1741.04
1010.122	1715.96
1010.415	1714.15
1010.708	1697.65
1011.001	1661.27
1011.295	1660.82
1011.588	1674.38
1011.881	1649.52
1012.173	1645.45
1012.466	1633.47
1012.759	1654.94
1013.052	1623.53
1013.344	1607.71
1013.637	1587.83
1013.93	1598.67
1014.222	1564.78
1014.514	1580.82
1014.807	1548.05
1015.099	1535.62
1015.391	1567.49
1015.683	1550.54
1015.976	1519.35
1016.268	1523.65
1016.56	1500.6
1016.851	1506.7
1017.143	1499.01
1017.435	1494.49
1017.727	1476.42
1018.018	1462.63
1018.31	1442.07
1018.602	1419.02
1018.893	1436.87
1019.185	1447.04
1019.476	1407.04
1019.767	1398.68
1020.058	1387.15
1020.35	1398.68
1020.641	1366.59
1020.932	1379.47
1021.223	1360.26
1021.514	1374.5
1021.804	1364.1
1022.095	1356.87
1022.386	1306.93
1022.677	1315.52
1022.967	1328.4
1023.258	1290.66
1023.548	1309.41
1023.839	1297.21
1024.129	1259.47
1024.419	1254.27
1024.709	1243.65
1025	1245.01
1025.29	1248.63
1025.58	1228.74
1025.87	1220.38
1026.16	1220.83
1026.449	1197.33
1026.739	1183.77
1027.029	1216.54
1027.319	1191.23
1027.608	1201.62
1027.898	1169.31
1028.187	1174.95
1028.477	1167.05
1028.766	1144.45
1029.055	1148.97
1029.344	1151
1029.634	1140.15
1029.923	1126.82
1030.212	1121.17
1030.501	1122.53
1030.79	1083.66
1031.078	1087.95
1031.367	1094.96
1031.656	1085.24
1031.945	1087.73
1032.233	1049.53
1032.522	1064.9
1032.81	1063.55
1033.099	1047.05
1033.387	1046.37
1033.675	1034.17
1033.963	1053.6
1034.251	1024.22
1034.54	1024.45
1034.828	998.01
1035.116	995.98
1035.403	1005.24
1035.691	1012.47
1035.979	996.2
1036.267	988.29
1036.554	966.6
1036.842	959.37
1037.129	956.88
1037.417	952.36
1037.704	954.4
1037.992	956.88
1038.279	935.19
1038.566	932.48
1038.853	932.48
1039.14	932.48
