Data from hue_28_FLMS001491_00098.txt Node
Date: Tue Feb 07 17:18:04 GMT 2017
User: dcchb
Spectrometer: FLMS00149
Trigger mode: 0
Integration Time (sec): 2.000000E-2
Scans to average: 10
Electric dark correction enabled: true
Nonlinearity correction enabled: false
Boxcar width: 0
XAxis mode: Wavelengths
Number of Pixels in Spectrum: 2048
>>>>>Begin Spectral Data<<<<<
341.393	-24.08
341.776	-24.08
342.16	-24.08
342.543	-75.38
342.927	-57.3
343.31	-70.63
343.693	-86.9
344.077	-70.18
344.46	-70.41
344.843	-54.81
345.226	-44.42
345.61	-27.47
345.993	-24.53
346.376	7.56
346.759	20.21
347.142	31.96
347.525	47.33
347.908	67.67
348.291	78.97
348.674	88.01
349.057	107.67
349.44	119.42
349.823	138.85
350.206	170.04
350.588	187.66
350.971	198.74
351.354	227.21
351.737	245.97
352.119	254.78
352.502	259.75
352.884	256.59
353.267	283.93
353.65	291.62
354.032	306.98
354.414	300.2
354.797	311.96
355.179	322.58
355.562	316.02
355.944	332.75
356.326	326.87
356.709	343.14
357.091	335.46
357.473	338.85
357.855	354.21
358.238	339.75
358.62	342.69
359.002	333.65
359.384	336.59
359.766	357.38
360.148	338.62
360.53	344.04
360.912	332.75
361.294	331.16
361.676	339.75
362.057	343.82
362.439	323.48
362.821	320.54
363.203	329.13
363.584	325.29
363.966	320.99
364.348	322.35
364.729	318.96
365.111	320.54
365.493	317.83
365.874	320.32
366.256	311.28
366.637	309.02
367.019	322.58
367.4	314.89
367.781	321.9
368.163	315.8
368.544	322.8
368.925	316.25
369.306	339.3
369.688	293.2
370.069	319.86
370.45	321.22
370.831	312.86
371.212	317.15
371.593	311.73
371.974	302.92
372.355	326.42
372.736	306.08
373.117	306.08
373.498	318.73
373.879	314.21
374.26	309.7
374.641	309.92
375.021	305.4
375.402	309.7
375.783	324.61
376.163	332.07
376.544	330.94
376.925	337.04
377.305	338.85
377.686	320.54
378.066	317.6
378.447	349.92
378.827	341.33
379.208	331.62
379.588	322.8
379.968	337.27
380.349	320.09
380.729	337.04
381.109	319.41
381.489	306.08
381.87	316.47
382.25	325.51
382.63	339.07
383.01	335.68
383.39	345.63
383.77	325.51
384.15	347.89
384.53	352.18
384.91	364.84
385.29	359.19
385.67	327.32
386.049	349.02
386.429	340.88
386.809	365.51
387.189	330.49
387.568	335.01
387.948	341.78
388.328	356.7
388.707	352.41
389.087	364.16
389.466	328.45
389.846	350.37
390.225	369.13
390.605	358.28
390.984	377.49
391.363	373.2
391.743	366.87
392.122	377.49
392.501	373.87
392.881	382.69
393.26	374.78
393.639	398.73
394.018	363.93
394.397	382.91
394.776	374.1
395.155	368.22
395.534	389.24
395.913	384.72
396.292	369.58
396.671	385.17
397.05	375.46
397.429	389.92
397.808	381.78
398.186	409.81
398.565	383.37
398.944	394.66
399.323	402.35
399.701	384.27
400.08	396.02
400.458	393.76
400.837	382.24
401.215	394.66
401.594	414.1
401.972	405.51
402.351	392.63
402.729	419.07
403.107	398.05
403.486	423.82
403.864	419.07
404.242	416.59
404.62	433.99
404.999	414.55
405.377	420.65
405.755	412.74
406.133	408
406.511	435.34
406.889	421.1
407.267	450.93
407.645	414.78
408.023	426.3
408.401	432.63
408.779	400.09
409.156	422.91
409.534	441.22
409.912	439.86
410.29	449.13
410.667	448.67
411.045	459.75
411.422	470.37
411.8	457.94
412.178	457.04
412.555	464.72
412.933	470.82
413.31	467.88
413.687	480.09
414.065	476.02
414.442	481.67
414.819	468.11
415.197	491.61
415.574	476.92
415.951	488.45
416.328	497.03
416.705	478.96
417.082	488
417.46	504.72
417.837	501.78
418.214	503.14
418.591	532.06
418.967	513.76
419.344	521.22
419.721	522.57
420.098	520.99
420.475	535.23
420.852	527.32
421.228	530.93
421.605	520.31
421.982	518.96
422.358	571.16
422.735	520.99
423.111	527.32
423.488	527.77
423.864	544.04
424.241	534.77
424.617	552.4
424.994	568.45
425.37	546.53
425.746	542.91
426.123	557.6
426.499	586.07
426.875	568.9
427.251	559.41
427.627	590.37
428.003	595.79
428.379	589.91
428.756	607.54
429.132	578.39
429.507	570.03
429.883	623.81
430.259	618.16
430.635	626.07
431.011	610.03
431.387	622.68
431.763	636.47
432.138	646.86
432.514	646.64
432.89	656.58
433.265	654.09
433.641	655
434.016	677.14
434.392	664.49
434.767	675.11
435.143	690.93
435.518	667.65
435.894	674.66
436.269	699.97
436.644	708.1
437.02	696.58
437.395	710.36
437.77	719.18
438.145	707.88
438.52	717.37
438.895	719.18
439.271	720.76
439.646	746.75
440.021	739.06
440.395	776.8
440.77	769.8
441.145	744.26
441.52	781.1
441.895	778.16
442.27	770.02
442.645	791.94
443.019	774.54
443.394	752.85
443.769	790.59
444.143	782.9
444.518	793.3
444.892	783.58
445.267	774.99
445.641	800.08
446.016	820.19
446.39	822.68
446.764	850.47
447.139	821.32
447.513	842.34
447.887	821.77
448.262	818.61
448.636	805.05
449.01	858.83
449.384	841.88
449.758	872.62
450.132	875.78
450.506	862
450.88	858.38
451.254	853.41
451.628	881.88
452.002	894.99
452.376	903.35
452.75	898.38
453.123	902.9
453.497	902.9
453.871	923.92
454.244	956.46
454.618	962.56
454.992	967.98
455.365	946.74
455.739	992.84
456.112	996
456.486	1000.3
456.859	1005.04
457.232	1016.57
457.606	1015.44
457.979	1028.55
458.352	1033.97
458.725	1058.38
459.099	1062.44
459.472	1075.55
459.845	1079.84
460.218	1103.35
460.591	1096.34
460.964	1098.6
461.337	1109.45
461.71	1131.37
462.083	1146.06
462.456	1170.01
462.829	1145.38
463.201	1154.19
463.574	1182.21
463.947	1214.08
464.32	1238.48
464.692	1232.38
465.065	1238.03
465.438	1246.39
465.81	1286.62
466.183	1289.1
466.555	1300.63
466.928	1332.95
467.3	1326.62
467.672	1369.1
468.045	1321.87
468.417	1391.47
468.789	1400.74
469.161	1424.92
469.534	1443
469.906	1452.04
470.278	1440.51
470.65	1492.49
471.022	1525.03
471.394	1512.38
471.766	1552.6
472.138	1574.29
472.51	1602.09
472.882	1624.46
473.253	1642.99
473.625	1701.98
473.997	1705.82
474.369	1722.54
474.74	1741.97
475.112	1809.99
475.484	1804.35
475.855	1846.6
476.227	1894.96
476.598	1899.03
476.97	1944.45
477.341	1990.1
477.713	2014.51
478.084	2059.48
478.455	2139.03
478.827	2148.97
479.198	2206.37
479.569	2213.37
479.94	2259.93
480.311	2296.08
480.682	2319.81
481.053	2427.15
481.424	2485.91
481.795	2505.34
482.166	2494.5
482.537	2574.04
482.908	2648.84
483.279	2741.95
483.65	2779.69
484.021	2807.03
484.391	2842.96
484.762	2898.33
485.133	2911.43
485.503	3018.55
485.874	3037.99
486.244	3111.2
486.615	3166.34
486.985	3212.9
487.356	3313.91
487.726	3324.98
488.097	3390.07
488.467	3437.07
488.837	3508.93
489.207	3516.39
489.578	3613.11
489.948	3683.84
490.318	3704.41
490.688	3773.11
491.058	3831.18
491.428	3942.37
491.798	3969.26
492.168	4042.48
492.538	4059.43
492.908	4110.95
493.278	4198.41
493.648	4208.58
494.017	4295.13
494.387	4362.47
494.757	4418.51
495.126	4430.72
495.496	4444.05
495.866	4532.41
496.235	4584.84
496.605	4587.32
496.974	4651.73
497.344	4709.81
497.713	4758.17
498.082	4797.26
498.452	4863.7
498.821	4898.05
499.19	4928.78
499.559	4958.84
499.928	5025.96
500.298	5018.5
500.667	5080.19
501.036	5084.03
501.405	5209.45
501.774	5179.62
502.143	5218.27
502.512	5251.49
502.88	5324.93
503.249	5324.25
503.618	5393.63
503.987	5424.14
504.356	5478.82
504.724	5444.48
505.093	5505.04
505.462	5533.74
505.83	5585.04
506.199	5543
506.567	5650.8
506.936	5670.23
507.304	5724.24
507.672	5760.17
508.041	5783.45
508.409	5790.91
508.777	5830.68
509.145	5927.85
509.514	5926.5
509.882	5952.03
510.25	5929.89
510.618	6024.8
510.986	6033.16
511.354	6068.87
511.722	6133.5
512.09	6156.1
512.458	6149.09
512.826	6177.34
513.193	6211.91
513.561	6251.46
513.929	6257.56
514.297	6347.05
514.664	6351.12
515.032	6387.05
515.4	6403.09
515.767	6467.27
516.135	6505.01
516.502	6437.22
516.869	6526.93
517.237	6591.34
517.604	6521.96
517.972	6632.01
518.339	6654.61
518.706	6667.27
519.073	6704.78
519.44	6651.45
519.808	6761.73
520.175	6755.18
520.542	6856.64
520.909	6858.68
521.276	6912.23
521.643	6958.79
522.009	6940.71
522.376	6946.81
522.743	7018.9
523.11	7087.14
523.477	7048.95
523.843	7159.68
524.21	7246.91
524.577	7239
524.943	7259.57
525.31	7281.26
525.676	7331.66
526.043	7361.94
526.409	7448.04
526.776	7485.78
527.142	7542.5
527.508	7530.3
527.874	7633.8
528.241	7728.48
528.607	7629.28
528.973	7674.25
529.339	7721.25
529.705	7845.77
530.071	7827.46
530.437	7891.64
530.803	7843.96
531.169	7952.88
531.535	8012.54
531.901	7958.08
532.267	8067.46
532.632	8099.55
532.998	8074.46
533.364	8189.71
533.73	8169.38
534.095	8231.07
534.461	8251.18
534.826	8272.42
535.192	8308.81
535.557	8381.35
535.923	8434.45
536.288	8437.17
536.653	8516.03
537.019	8477.84
537.384	8474.9
537.749	8549.03
538.114	8645.75
538.479	8595.13
538.845	8627.67
539.21	8626.09
539.575	8696.14
539.94	8749.02
540.305	8760.32
540.67	8744.05
541.034	8863.37
541.399	8890.03
541.764	8898.62
542.129	8952.86
542.494	8995.12
542.858	9032.18
543.223	9076.47
543.587	9090.93
543.952	9118.73
544.316	9193.53
544.681	9150.14
545.045	9222.46
545.41	9332.51
545.774	9312.4
546.138	9314.88
546.503	9375.22
546.867	9345.39
547.231	9489.34
547.595	9440.53
547.959	9438.27
548.324	9506.74
548.688	9543.8
549.052	9601.2
549.416	9668.55
549.779	9727.75
550.143	9706.06
550.507	9726.62
550.871	9722.56
551.235	9775.44
551.599	9845.26
551.962	9832.83
552.326	9895.43
552.689	9918.93
553.053	9976.11
553.417	9988.76
553.78	10032.83
554.143	10012.72
554.507	10019.5
554.87	10049.55
555.234	10223.56
555.597	10123.45
555.96	10204.8
556.323	10245.93
556.686	10249.09
557.05	10334.97
557.413	10402.99
557.776	10332.03
558.139	10383.55
558.502	10483.67
558.865	10395.08
559.228	10504.91
559.59	10484.57
559.953	10533.16
560.316	10697.9
560.679	10659.25
561.041	10668.29
561.404	10815.41
561.767	10818.8
562.129	10823.32
562.492	10848.63
562.854	10795.75
563.217	10848.4
563.579	10911.45
563.941	10973.14
564.304	10946.48
564.666	11015.85
565.028	11066.47
565.39	11108.73
565.753	11131.78
566.115	11233.48
566.477	11223.98
566.839	11255.17
567.201	11323.42
567.563	11332.23
567.925	11488.84
568.287	11424.88
568.648	11503.75
569.01	11491.32
569.372	11600.25
569.734	11585.78
570.095	11694.71
570.457	11702.16
570.819	11814.03
571.18	11875.27
571.542	11834.82
571.903	11925.89
572.265	11986.22
572.626	11984.42
572.987	12035.26
573.349	12199.1
573.71	12246.33
574.071	12282.04
574.432	12313.45
574.794	12548.47
575.155	12467.57
575.516	12528.81
575.877	12685.87
576.238	12646.32
576.599	12738.52
576.96	12816.71
577.32	12907.78
577.681	13071.17
578.042	13122.92
578.403	13182.8
578.763	13363.36
579.124	13406.07
579.485	13655.11
579.845	13676.8
580.206	13850.36
580.566	13825.72
580.927	14043.12
581.287	14233.4
581.648	14354.3
582.008	14501.86
582.368	14665.02
582.728	14830.22
583.089	14993.38
583.449	15096.43
583.809	15250.77
584.169	15529.86
584.529	15697.77
584.889	15937.53
585.249	16086.23
585.609	16280.8
585.969	16623.16
586.329	16731.18
586.688	16952.65
587.048	17176.37
587.408	17351.51
587.768	17658.17
588.127	17941.32
588.487	18126.85
588.846	18462.21
589.206	18531.36
589.565	18856.78
589.925	19156.66
590.284	19438.68
590.643	19659.24
591.003	20025.56
591.362	20317.53
591.721	20465.32
592.08	20738.54
592.44	21108.02
592.799	21457.84
593.158	21590.04
593.517	21981.44
593.876	22206.97
594.235	22457.36
594.593	22783
594.952	23144.8
595.311	23402.65
595.67	23791.11
596.029	24159.24
596.387	24476.52
596.746	24803.51
597.104	24915.83
597.463	25186.33
597.822	25588.35
598.18	25737.95
598.538	26017.27
598.897	26521.21
599.255	26575.9
599.613	27167.52
599.972	27322.09
600.33	27739.48
600.688	27882.76
601.046	28203.65
601.404	28477.32
601.762	28831.21
602.12	29116.17
602.478	29334.69
602.836	29621.01
603.194	29759.09
603.552	30018.07
603.91	30149.59
604.268	30496.92
604.625	30770.36
604.983	31073.18
605.341	31270.46
605.698	31678.59
606.056	31982.99
606.413	32173.04
606.771	32501.84
607.128	32597.21
607.485	32880.59
607.843	32947.48
608.2	33358.09
608.557	33715.14
608.914	33640.57
609.272	34048.7
609.629	34304.06
609.986	34592.64
610.343	34491.4
610.7	35076.46
611.057	35049.8
611.414	35310.36
611.771	35495.44
612.127	35772.49
612.484	35990.79
612.841	36159.83
613.198	36220.84
613.554	36368.63
613.911	36729.53
614.267	36885.46
614.624	37023.53
614.98	37155.73
615.337	37489.96
615.693	37532.67
616.05	37564.53
616.406	37917.97
616.762	37931.08
617.118	38192.54
617.475	38131.53
617.831	38529.03
618.187	38444.96
618.543	38659.87
618.899	39073.2
619.255	38994.78
619.611	39056.7
619.967	39185.51
620.323	39486.29
620.678	39399.29
621.034	39511.38
621.39	39569.68
621.746	39702.33
622.101	40169.66
622.457	39829.11
622.812	39940.29
623.168	40085.6
623.523	40178.25
623.879	40409.21
624.234	40164.92
624.589	40421.86
624.945	40713.83
625.3	40857.1
625.655	40866.37
626.01	41022.98
626.365	40990.21
626.72	41010.55
627.075	41070.88
627.43	41034.5
627.785	40996.76
628.14	41239.01
628.495	41186.36
628.85	41298
629.205	41170.77
629.559	41571.66
629.914	41349.29
630.269	41421.83
630.623	41353.81
630.978	41358.56
631.332	41480.82
631.687	41813.01
632.041	41563.98
632.396	41671.77
632.75	41615.28
633.104	41648.5
633.459	41493.02
633.813	41635.16
634.167	41631.77
634.521	41603.52
634.875	41655.05
635.229	41673.13
635.583	41501.15
635.937	41650.53
636.291	41547.48
636.645	41618.21
636.999	41646.91
637.352	41664.77
637.706	41501.15
638.06	41808.04
638.413	41634.71
638.767	41497.09
639.121	41681.49
639.474	41434.04
639.828	41488.95
640.181	41733.01
640.534	41676.52
640.888	41542.06
641.241	41324.89
641.594	41450.76
641.947	41663.64
642.301	41492.12
642.654	41436.75
643.007	41562.62
643.36	41493.92
643.713	41403.76
644.066	41596.29
644.419	41354.49
644.771	41011
645.124	40642.87
645.477	40725.81
645.83	40601.29
646.182	40363.56
646.535	40237.68
646.888	40325.37
647.24	40250.79
647.593	40399.94
647.945	40355.2
648.298	40105.94
648.65	40097.35
649.002	40018.93
649.355	40097.35
649.707	40223.22
650.059	40379.15
650.411	40872.7
650.763	40819.59
651.115	41286.7
651.467	41086.93
651.819	41145.01
652.171	41126.93
652.523	41044.9
652.875	41007.16
653.227	40795.86
653.578	41066.82
653.93	40960.83
654.282	40816.65
654.633	40650.56
654.985	40891.91
655.337	40735.3
655.688	40825.24
656.039	41000.83
656.391	40489.2
656.742	40697.33
657.094	40721.74
657.445	40920.38
657.796	40816.65
658.147	40716.09
658.498	40824.56
658.849	40715.86
659.2	40742.53
659.551	40719.48
659.902	40619.82
660.253	40683.32
660.604	40807.61
660.955	40691.68
661.306	40680.39
661.656	40722.87
662.007	40613.27
662.358	40749.31
662.708	40629.77
663.059	40854.17
663.409	40614.4
663.76	40738.91
664.11	40614.4
664.461	40743.89
664.811	40759.93
665.161	40706.37
665.511	40446.49
665.862	40652.36
666.212	40779.59
666.562	40758.35
666.912	40764.9
667.262	40522.2
667.612	40643.32
667.962	40679.26
668.312	40570.78
668.662	40775.98
669.011	40591.35
669.361	40537.11
669.711	40622.08
670.06	40549.77
670.41	40293.28
670.76	40368.75
671.109	40588.64
671.459	40545.25
671.808	40358.59
672.157	40599.48
672.507	40265.48
672.856	40270.9
673.205	40279.27
673.554	40444.23
673.904	40491.69
674.253	40453.72
674.602	40379.6
674.951	39688.77
675.3	39749.79
675.649	40131.25
675.998	40308.42
676.346	40175.09
676.695	40262.77
677.044	39979.39
677.393	40266.84
677.741	40272.49
678.09	40011.02
678.438	39994.75
678.787	40121.08
679.135	40204.47
679.484	39932.38
679.832	40046.96
680.181	39741.43
680.529	39885.15
680.877	39802.22
681.225	39837.92
681.573	40025.94
681.922	39748.21
682.27	39539.4
682.618	39671.15
682.966	39606.06
683.314	39611.03
683.661	39534.88
684.009	39342.79
684.357	39182.35
684.705	39217.15
685.053	39215.34
685.4	39138.73
685.748	38905.74
686.095	39040.43
686.443	38898.51
686.79	38746.2
687.138	38862.35
687.485	38934.22
687.832	38692.19
688.18	38757.27
688.527	38431.4
688.874	38566.09
689.221	38433.66
689.568	38445.87
689.915	38379.43
690.262	38307.79
690.609	38179.66
690.956	38024.64
691.303	38006.11
691.65	37796.39
691.997	37906.22
692.344	37528.15
692.69	37570.64
693.037	37552.33
693.383	37333.35
693.73	37397.08
694.077	37362.96
694.423	37245.67
694.769	37087.03
695.116	37215.39
695.462	37068.28
695.808	36956.19
696.155	36988.73
696.501	36776.53
696.847	36792.35
697.193	36514.39
697.539	36621.51
697.885	36310.78
698.231	36306.94
698.577	36268.98
698.923	36178.81
699.269	36118.92
699.614	35831.02
699.96	35820.85
700.306	35924.35
700.651	35592.84
700.997	35512.84
701.342	35571.14
701.688	35492.5
702.033	35417.92
702.379	35260.19
702.724	35252.73
703.069	35285.72
703.415	34942.68
703.76	35037.6
704.105	35030.82
704.45	34982
704.795	34739.3
705.14	34655.01
705.485	34457.27
705.83	34472.86
706.175	34454.79
706.52	34379.76
706.865	34298.86
707.209	34206.21
707.554	34069.71
707.899	34158.52
708.243	33930.05
708.588	33941.58
708.932	33685.77
709.277	33610.06
709.621	33719.44
709.966	33493.46
710.31	33572.78
710.654	33338.66
710.998	33432.21
711.342	33317.64
711.687	33200.13
712.031	33157.19
712.375	33106.57
712.719	33065.22
713.063	32987.71
713.407	33040.36
713.75	32942.96
714.094	32924.66
714.438	32715.17
714.782	32747.26
715.125	32556.53
715.469	32705.45
715.812	32500.04
716.156	32414.84
716.499	32382.07
716.843	32443.09
717.186	32184.79
717.53	32354.28
717.873	32285.13
718.216	32235.41
718.559	32115.64
718.902	31827.74
719.246	31892.37
719.589	31747.74
719.932	31691.02
720.275	31662.77
720.617	31706.38
720.96	31618.02
721.303	31508.65
721.646	31594.07
721.989	31391.14
722.331	31459.16
722.674	31432.72
723.016	31449.44
723.359	31316.79
723.701	31405.15
724.044	31189.56
724.386	30910.47
724.729	31264.36
725.071	31116.79
725.413	30985.27
725.755	30955.67
726.097	30885.16
726.439	30771.27
726.782	30862.11
727.124	30916.35
727.465	30696.01
727.807	30726.52
728.149	30564.94
728.491	30483.14
728.833	30629.35
729.175	30523.36
729.516	30467.09
729.858	30385.97
730.199	30397.04
730.541	30295.35
730.882	30233.88
731.224	30354.55
731.565	30124.5
731.906	30277.27
732.248	30117.05
732.589	30087.9
732.93	29973.77
733.271	29969.03
733.612	29977.84
733.953	30004.96
734.294	29764.74
734.635	29913.89
734.976	29793.89
735.317	29682.93
735.658	29658.3
735.999	29645.87
736.339	29635.03
736.68	29717.74
737.021	29569.72
737.361	29373.56
737.702	29570.17
738.042	29480.45
738.383	29364.52
738.723	29460.57
739.063	29283.4
739.404	29381.02
739.744	29289.95
740.084	29208.82
740.424	29190.07
740.764	29125.89
741.104	29201.82
741.444	28918.21
741.784	28918.66
742.124	29016.06
742.464	28949.85
742.804	28854.93
743.143	28772.9
743.483	28880.92
743.823	28591.89
744.162	28635.96
744.502	28819.45
744.841	28486.81
745.181	28632.79
745.52	28526.13
745.86	28651.1
746.199	28467.37
746.538	28486.58
746.877	28488.16
747.216	28569.97
747.556	28268.28
747.895	28454.27
748.234	28199.58
748.573	28304.21
748.911	28167.27
749.25	28270.32
749.589	28080.26
749.928	28106.93
750.267	28028.74
750.605	27922.08
750.944	28017.22
751.283	27944.67
751.621	27906.26
751.96	27748.07
752.298	27807.96
752.636	27720.5
752.975	27702.87
753.313	27521.86
753.651	27673.04
753.989	27452.71
754.327	27470.34
754.666	27304.69
755.004	27435.76
755.342	27288.87
755.679	27398.02
756.017	27180.63
756.355	27370.68
756.693	27124.58
757.031	27173.4
757.368	26922.55
757.706	26996.68
758.044	26859.05
758.381	26991.71
758.719	26869.45
759.056	26896.57
759.394	26750.36
759.731	26549.68
760.068	26512.4
760.405	26346.52
760.743	26413.87
761.08	26450.93
761.417	26215.23
761.754	26227.21
762.091	26116.47
762.428	26042.58
762.765	25911.06
763.102	26093.2
763.438	25808.01
763.775	25674.45
764.112	25650.5
764.449	25649.59
764.785	25562.59
765.122	25453.44
765.458	25391.75
765.795	25420.45
766.131	25279.21
766.467	25131.19
766.804	25084.19
767.14	24808.26
767.476	24911.08
767.812	24842.61
768.148	24787.02
768.485	24690.52
768.821	24546.57
769.157	24442.85
769.492	24404.88
769.828	24458.66
770.164	24237.43
770.5	24203.08
770.836	24168.5
771.171	23995.63
771.507	23872.69
771.842	23745.24
772.178	23808.96
772.513	23800.6
772.849	23728.97
773.184	23504.79
773.519	23648.06
773.855	23371.46
774.19	23359.03
774.525	23226.61
774.86	23255.53
775.195	23199.71
775.53	23122.65
775.865	23004.69
776.2	22808.54
776.535	22688.09
776.87	22719.05
777.205	22627.07
777.539	22534.87
777.874	22432.73
778.209	22220.53
778.543	22282.9
778.878	22200.19
779.212	22118.61
779.547	22032.97
779.881	22109.12
780.215	21734.22
780.55	21938.96
780.884	21797.72
781.218	21670.49
781.552	21792.75
781.886	21563.15
782.22	21443.38
782.554	21455.13
782.888	21207.22
783.222	21043.61
783.556	21066.89
783.889	21055.59
784.223	20913.9
784.557	20813.79
784.89	20794.58
785.224	20655.6
785.557	20566.56
785.891	20480.69
786.224	20444.08
786.558	20435.49
786.891	20227.82
787.224	20228.04
787.557	20200.92
787.891	20171.32
788.224	20126.12
788.557	20075.96
788.89	20059.01
789.223	19990.08
789.556	19825.79
789.888	19729.75
790.221	19656.31
790.554	19565.46
790.887	19558.45
791.219	19476.42
791.552	19431.9
791.884	19279.14
792.217	19336.31
792.549	19205.24
792.882	19110.1
793.214	19041.63
793.546	19070.78
793.879	18890
794.211	18864.01
794.543	18948.3
794.875	18830.79
795.207	18812.71
795.539	18770
795.871	18694.07
796.203	18542.21
796.535	18404.59
796.867	18403.46
797.198	18426.96
797.53	18248.88
797.862	18149.23
798.193	18286.62
798.525	18107.19
798.856	18195.55
799.188	17926.41
799.519	17875.34
799.85	17736.81
800.182	17864.49
800.513	17829.69
800.844	17617.94
801.175	17772.74
801.506	17737.94
801.837	17561.67
802.168	17439.64
802.499	17399.19
802.83	17316.93
803.161	17311.51
803.491	17347.21
803.822	17290.27
804.153	17121
804.483	17016.6
804.814	17019.99
805.145	16938.64
805.475	16973.44
805.805	16811.18
806.136	16849.15
806.466	16897.73
806.796	16848.02
807.126	16594.92
807.457	16567.8
807.787	16681.69
808.117	16524.41
808.447	16525.77
808.777	16467.46
809.107	16426.56
809.436	16382.94
809.766	16372.32
810.096	16311.76
810.426	16224.98
810.755	16274.47
811.085	16169.17
811.414	16096.17
811.744	16138.66
812.073	16058.43
812.403	16119.22
812.732	16005.78
813.061	15951.32
813.39	15938.66
813.719	15820.02
814.049	15970.98
814.378	15851.21
814.707	15727.14
815.036	15744.77
815.365	15581.16
815.693	15526.47
816.022	15556.75
816.351	15456.19
816.68	15413.48
817.008	15410.99
817.337	15341.16
817.665	15250.09
817.994	15316.08
818.322	15220.26
818.651	15153.15
818.979	15092.81
819.307	15211.45
819.636	15148.63
819.964	15029.76
820.292	15056.88
820.62	15060.72
820.948	14925.81
821.276	15104.11
821.604	14982.98
821.932	15029.99
822.259	15036.31
822.587	15008.74
822.915	14920.38
823.243	15022.98
823.57	14870.89
823.898	14926.26
824.225	14891.68
824.553	14968.07
824.88	14942.76
825.207	14941.63
825.535	14919.25
825.862	14954.06
826.189	14804.68
826.516	14968.07
826.843	14832.25
827.17	14937.33
827.497	14980.95
827.824	14900.27
828.151	14982.76
828.478	14892.14
828.805	14974.62
829.131	14874.51
829.458	14842.65
829.785	14847.17
830.111	14898.46
830.438	14899.37
830.764	14860.73
831.09	14922.19
831.417	14768.75
831.743	14924.9
832.069	14862.31
832.395	14801.29
832.722	14900.05
833.048	14785.25
833.374	14786.6
833.7	14703.44
834.026	14762.42
834.351	14714.06
834.677	14660.28
835.003	14710.9
835.329	14729.43
835.654	14660.73
835.98	14600.62
836.306	14631.35
836.631	14552.26
836.956	14576.89
837.282	14610.79
837.607	14568.53
837.932	14486.05
838.258	14494.86
838.583	14537.57
838.908	14398.82
839.233	14429.78
839.558	14366.27
839.883	14374.86
840.208	14295.09
840.533	14366.05
840.858	14274.98
841.182	14290.12
841.507	14246.28
841.832	14238.14
842.156	14123.57
842.481	14142.55
842.805	14165.6
843.13	14143.91
843.454	14021.43
843.778	14020.97
844.103	14033.85
844.427	13992.27
844.751	14005.15
845.075	13876.8
845.399	13867.08
845.723	13811.04
846.047	13864.59
846.371	13652.17
846.695	13655.79
847.019	13514.32
847.343	13484.49
847.666	13346.41
847.99	13484.49
848.313	13425.28
848.637	13362.91
848.96	13374.44
849.284	13241.11
849.607	13149.81
849.931	13119.98
850.254	12972.87
850.577	12962.92
850.9	12904.17
851.223	12822.13
851.546	12813.55
851.869	12740.1
852.192	12736.26
852.515	12621.69
852.838	12508.02
853.161	12645.19
853.483	12573.1
853.806	12500.34
854.129	12452.65
854.451	12385.31
854.774	12384.18
855.096	12320.23
855.419	12316.61
855.741	12276.61
856.063	12292.88
856.385	12212.89
856.708	12141.47
857.03	12065.77
857.352	12010.86
857.674	12059.67
857.996	11965.66
858.318	11906
858.64	11929.05
858.961	11878.66
859.283	11891.31
859.605	11752.33
859.926	11840.92
860.248	11780.35
860.57	11708.04
860.891	11698.77
861.212	11690.64
861.534	11663.3
861.855	11592.11
862.176	11589.85
862.498	11577.65
862.819	11622.84
863.14	11490.19
863.461	11523.19
863.782	11525.22
864.103	11456.29
864.424	11458.33
864.745	11456.97
865.065	11294.04
865.386	11363.87
865.707	11368.39
866.027	11356.41
866.348	11273.25
866.668	11291.55
866.989	11253.36
867.309	11242.52
867.63	11232.8
867.95	11250.65
868.27	11162.52
868.59	11088.17
868.91	11163.65
869.23	11152.35
869.55	11068.51
869.87	11091.33
870.19	11109.19
870.51	11015.18
870.83	11141.5
871.15	11042.07
871.469	11041.84
871.789	10989.64
872.109	10972.92
872.428	10903.32
872.748	10972.01
873.067	10942.64
873.386	10918
873.706	10892.47
874.025	10821.96
874.344	10828.74
874.663	10848.18
874.982	10764.56
875.301	10825.12
875.62	10794.84
875.939	10756.2
876.258	10762.53
876.577	10678.01
876.896	10627.16
877.214	10624.68
877.533	10694.05
877.852	10700.83
878.17	10696.09
878.489	10650.21
878.807	10623.55
879.125	10604.57
879.444	10599.82
879.762	10482.99
880.08	10554.4
880.398	10437.11
880.716	10512.82
881.034	10453.61
881.352	10485.92
881.67	10420.16
881.988	10368.19
882.306	10358.24
882.624	10337.45
882.941	10340.84
883.259	10287.06
883.577	10233.73
883.894	10226.95
884.212	10207.74
884.529	10276.66
884.846	10111.02
885.164	10154.86
885.481	10125.93
885.798	10100.62
886.115	10089.55
886.432	10053.85
886.75	10014.75
887.067	10053.17
887.383	9967.29
887.7	10045.03
888.017	9913.96
888.334	10009.33
888.651	9909.44
888.967	9862.44
889.284	9817.02
889.6	9858.37
889.917	9817.02
890.233	9735.66
890.55	9694.99
890.866	9643.69
891.182	9704.48
891.498	9652.27
891.815	9613.63
892.131	9581.32
892.447	9572.95
892.763	9510.36
893.079	9472.62
893.395	9426.07
893.71	9439.85
894.026	9419.74
894.342	9426.97
894.657	9344.03
894.973	9320.08
895.289	9344.03
895.604	9261.78
895.92	9195.79
896.235	9186.07
896.55	9187.65
896.865	9246.64
897.181	9137.94
897.496	9045.51
897.811	9054.55
898.126	9058.39
898.441	8974.55
898.756	8984.95
899.071	8895.01
899.386	8927.1
899.7	8877.38
900.015	8859.3
900.33	8706.76
900.644	8752.41
900.959	8763.26
901.273	8763.26
901.588	8659.76
901.902	8610.27
902.216	8582.7
902.531	8637.61
902.845	8543.6
903.159	8508.58
903.473	8519.65
903.787	8434.91
904.101	8370.27
904.415	8390.16
904.729	8391.29
905.042	8295.47
905.356	8294.12
905.67	8239.43
905.984	8227.91
906.297	8194.23
906.611	8163.95
906.924	8154.46
907.237	8114.91
907.551	8100.45
907.864	8098.64
908.177	8115.14
908.491	8022.94
908.804	7983.39
909.117	7851.87
909.43	7882.83
909.743	7874.92
910.056	7901.81
910.368	7788.37
910.681	7770.06
910.994	7733.68
911.307	7742.95
911.619	7696.39
911.932	7677.86
912.244	7630.86
912.557	7612.1
912.869	7558.09
913.181	7477.42
913.494	7537.08
913.806	7429.28
914.118	7440.58
914.43	7386.8
914.742	7394.03
915.054	7344.31
915.366	7353.35
915.678	7221.6
915.99	7267.48
916.302	7228.84
916.613	7173.24
916.925	7189.29
917.236	7162.4
917.548	7044.89
917.859	7041.72
918.171	7067.71
918.482	6995.17
918.794	6960.14
919.105	6989.29
919.416	6908.17
919.727	6847.38
920.038	6842.18
920.349	6872.23
920.66	6774.16
920.971	6754.05
921.282	6836.76
921.593	6672.01
921.903	6722.18
922.214	6635.4
922.525	6658.23
922.835	6614.61
923.146	6561.51
923.456	6550.89
923.767	6559.93
924.077	6491.23
924.387	6513.83
924.697	6458.46
925.008	6421.4
925.318	6347.5
925.628	6388.86
925.938	6289.88
926.248	6228.41
926.558	6282.19
926.867	6272.7
927.177	6232.03
927.487	6186.15
927.796	6151.35
928.106	6128.98
928.416	6149.99
928.725	6081.97
929.034	6081.52
929.344	6081.52
929.653	6028.41
929.962	5973.05
930.271	5986.16
930.581	5967.4
930.89	5928.76
931.199	5925.37
931.508	5867.29
931.817	5815.31
932.125	5801.53
932.434	5786.61
932.743	5758.59
933.051	5775.09
933.36	5732.38
933.669	5656.45
933.977	5665.49
934.286	5673.85
934.594	5682.44
934.902	5607.18
935.21	5533.06
935.519	5554.53
935.827	5534.87
936.135	5515.66
936.443	5453.29
936.751	5416.91
937.059	5454.42
937.367	5408.77
937.674	5409.67
937.982	5353.86
938.29	5301.43
938.597	5320.18
938.905	5247.87
939.213	5244.03
939.52	5238.15
939.827	5249.45
940.135	5185.05
940.442	5153.86
940.749	5135.11
941.056	5201.09
941.363	5084.48
941.67	5100.98
941.977	5062.34
942.284	5005.17
942.591	5002.91
942.898	5013.98
943.205	4955.9
943.511	4991.15
943.818	4955.67
944.125	4878.39
944.431	4893.98
944.738	4894.21
945.044	4871.61
945.35	4836.58
945.657	4819.18
945.963	4769.24
946.269	4783.93
946.575	4727.43
946.881	4749.58
947.187	4699.86
947.493	4705.51
947.799	4702.12
948.105	4614.44
948.41	4592.75
948.716	4599.3
949.022	4595.91
949.327	4578.06
949.633	4540.09
949.938	4542.8
950.244	4548.23
950.549	4531.05
950.854	4446.31
951.16	4475.91
951.465	4455.57
951.77	4385.07
952.075	4371.96
952.38	4336.26
952.685	4336.03
952.99	4377.61
953.294	4329.93
953.599	4299.87
953.904	4327.67
954.209	4252.42
954.513	4259.42
954.818	4212.42
955.122	4250.16
955.426	4196.37
955.731	4153.21
956.035	4135.36
956.339	4141.01
956.643	4159.31
956.948	4097.17
957.252	4088.13
957.556	4063.49
957.86	4015.36
958.163	4054.23
958.467	4032.31
958.771	3981.46
959.075	3988.69
959.378	3960.45
959.682	3960.9
959.985	3920.9
960.289	3892.43
960.592	3892.2
960.896	3858.3
961.199	3852.88
961.502	3847.68
961.805	3812.43
962.108	3785.99
962.411	3755.93
962.714	3752.77
963.017	3738.53
963.32	3722.71
963.623	3693.34
963.926	3708.48
964.228	3649.27
964.531	3679.1
964.833	3691.75
965.136	3619.89
965.438	3624.41
965.741	3590.51
966.043	3595.03
966.345	3570.4
966.648	3555.71
966.95	3547.8
967.252	3521.36
967.554	3533.34
967.856	3518.88
968.158	3495.37
968.46	3467.8
968.761	3479.78
969.063	3426.45
969.365	3439.1
969.666	3397.52
969.968	3363.4
970.269	3385.55
970.571	3367.47
970.872	3349.39
971.174	3329.05
971.475	3303.97
971.776	3310.75
972.077	3283.63
972.378	3266.45
972.679	3288.6
972.98	3261.71
973.281	3235.27
973.582	3205.21
973.883	3255.38
974.183	3214.25
974.484	3184.65
974.785	3145.1
975.085	3153.91
975.386	3158.66
975.686	3150.07
975.986	3121.6
976.287	3109.62
976.587	3033.92
976.887	3077.76
977.187	3028.04
977.487	3043.18
977.787	3010.19
978.087	2976.07
978.387	2981.04
978.687	2968.38
978.987	2984.88
979.286	2961.83
979.586	2943.52
979.885	2941.49
980.185	2930.42
980.484	2873.7
980.784	2932.68
981.083	2896.97
981.382	2851.55
981.682	2852.23
981.981	2834.15
982.28	2847.93
982.579	2825.56
982.878	2822.85
983.177	2780.59
983.475	2763.42
983.774	2736.98
984.073	2706.69
984.372	2714.83
984.67	2718.67
984.969	2710.76
985.267	2734.72
985.566	2739.69
985.864	2693.14
986.162	2672.12
986.461	2654.94
986.759	2643.42
987.057	2635.74
987.355	2652.01
987.653	2603.42
987.951	2635.51
988.249	2567.26
988.547	2565.91
988.844	2544.21
989.142	2555.06
989.44	2517.09
989.737	2555.96
990.035	2506.93
990.332	2512.12
990.63	2485.23
990.927	2510.54
991.224	2458.11
991.521	2459.24
991.819	2523.87
992.116	2464.89
992.413	2442.52
992.71	2419.7
993.006	2402.52
993.303	2368.4
993.6	2423.76
993.897	2393.03
994.193	2395.29
994.49	2335.63
994.787	2331.56
995.083	2314.16
995.379	2333.6
995.676	2312.81
995.972	2311.45
996.268	2279.81
996.565	2294.5
996.861	2288.85
997.157	2250.21
997.453	2212.92
997.749	2223.09
998.044	2212.7
998.34	2198.23
998.636	2201.62
998.932	2178.12
999.227	2149.42
999.523	2179.93
999.818	2156.43
1000.114	2135.64
1000.409	2134.73
1000.704	2129.08
1001	2112.59
1001.295	2113.94
1001.59	2096.09
1001.885	2076.2
1002.18	2078.91
1002.475	2046.15
1002.77	2064.68
1003.065	2031.91
1003.359	2029.42
1003.654	2031.46
1003.949	2002.98
1004.243	1957.79
1004.538	1965.7
1004.832	1961.86
1005.127	1941.97
1005.421	1939.71
1005.715	1989.2
1006.009	1940.39
1006.304	1931.8
1006.598	1909.43
1006.892	1907.85
1007.186	1879.15
1007.48	1893.38
1007.773	1843.67
1008.067	1844.12
1008.361	1821.75
1008.655	1838.92
1008.948	1819.94
1009.242	1820.39
1009.535	1797.57
1009.829	1774.06
1010.122	1760.73
1010.415	1789.43
1010.708	1773.39
1011.001	1758.92
1011.295	1747.4
1011.588	1720.73
1011.881	1699.26
1012.173	1720.96
1012.466	1702.88
1012.759	1692.94
1013.052	1687.96
1013.344	1674.63
1013.637	1639.6
1013.93	1663.56
1014.222	1638.02
1014.514	1624.24
1014.807	1587.18
1015.099	1611.13
1015.391	1604.8
1015.683	1591.92
1015.976	1589.44
1016.268	1560.96
1016.56	1574.75
1016.851	1531.36
1017.143	1569.55
1017.435	1540.85
1017.727	1508.31
1018.018	1521.19
1018.31	1520.51
1018.602	1504.01
1018.893	1491.36
1019.185	1487.52
1019.476	1447.74
1019.767	1490.46
1020.058	1428.31
1020.35	1436.9
1020.641	1426.5
1020.932	1426.05
1021.223	1397.12
1021.514	1431.25
1021.804	1393.96
1022.095	1377.92
1022.386	1356.45
1022.677	1356.45
1022.967	1379.95
1023.258	1349.89
1023.548	1304.02
1023.839	1318.93
1024.129	1329.78
1024.419	1327.07
1024.709	1319.84
1025	1288.88
1025.29	1286.39
1025.58	1291.82
1025.87	1250.91
1026.16	1299.5
1026.449	1273.29
1026.739	1261.99
1027.029	1239.16
1027.319	1219.95
1027.608	1248.43
1027.898	1225.15
1028.187	1225.38
1028.477	1212.04
1028.766	1189.9
1029.055	1184.25
1029.344	1193.51
1029.634	1176.79
1029.923	1175.66
1030.212	1162.1
1030.501	1155.1
1030.79	1157.58
1031.078	1097.47
1031.367	1127.53
1031.656	1136.34
1031.945	1116.45
1032.233	1092.95
1032.522	1080.3
1032.81	1077.13
1033.099	1099.5
1033.387	1027.19
1033.675	1070.35
1033.963	1046.4
1034.251	1075.32
1034.54	1043.24
1034.828	1037.13
1035.116	1051.82
1035.403	1027.42
1035.691	1009.34
1035.979	1021.54
1036.267	1022.44
1036.554	1017.7
1036.842	989.9
1037.129	969.11
1037.417	950.58
1037.704	995.78
1037.992	951.03
1038.279	973.63
1038.566	947.19
1038.853	947.19
1039.14	947.19
