Data from hue_260_FLMS001491_00009.txt Node
Date: Tue Feb 07 15:58:30 GMT 2017
User: dcchb
Spectrometer: FLMS00149
Trigger mode: 0
Integration Time (sec): 2.000000E-2
Scans to average: 10
Electric dark correction enabled: true
Nonlinearity correction enabled: false
Boxcar width: 0
XAxis mode: Wavelengths
Number of Pixels in Spectrum: 2048
>>>>>Begin Spectral Data<<<<<
341.393	-1.98
341.776	-1.98
342.16	-1.98
342.543	-68.19
342.927	-69.32
343.31	-61.64
343.693	-78.81
344.077	-51.47
344.46	-60.96
344.843	-76.1
345.226	-48.76
345.61	-22.99
345.993	-5.37
346.376	-2.88
346.759	18.59
347.142	40.06
347.525	43.45
347.908	48.64
348.291	71.24
348.674	86.16
349.057	100.84
349.44	145.14
349.823	132.71
350.206	145.36
350.588	202.31
350.971	203.21
351.354	226.49
351.737	235.53
352.119	243.89
352.502	253.38
352.884	271.01
353.267	252.25
353.65	287.96
354.032	291.12
354.414	291.8
354.797	302.65
355.179	311.01
355.562	305.81
355.944	293.61
356.326	314.85
356.709	317.79
357.091	335.19
357.473	341.97
357.855	350.1
358.238	332.7
358.62	337.45
359.002	338.8
359.384	356.21
359.766	341.52
360.148	335.19
360.53	341.74
360.912	327.96
361.294	337.9
361.676	335.19
362.057	350.1
362.439	315.75
362.821	322.08
363.203	310.78
363.584	331.8
363.966	318.69
364.348	307.85
364.729	308.97
365.111	347.39
365.493	307.39
365.874	295.64
366.256	308.07
366.637	298.13
367.019	306.04
367.4	300.16
367.781	316.43
368.163	292.03
368.544	303.78
368.925	292.48
369.306	308.3
369.688	304.68
370.069	306.72
370.45	300.61
370.831	290.22
371.212	307.85
371.593	297.9
371.974	302.2
372.355	308.52
372.736	308.07
373.117	333.38
373.498	294.06
373.879	298.81
374.26	302.2
374.641	313.27
375.021	304.91
375.402	306.94
375.783	299.03
376.163	318.47
376.544	321.4
376.925	339.48
377.305	301.97
377.686	324.57
378.066	346.26
378.447	331.57
378.827	323.66
379.208	338.13
379.588	325.25
379.968	322.31
380.349	320.73
380.729	305.81
381.109	329.77
381.489	333.16
381.87	360.72
382.25	336.09
382.63	342.19
383.01	346.94
383.39	329.77
383.77	333.38
384.15	331.12
384.53	344.91
384.91	336.32
385.29	354.17
385.67	341.97
386.049	356.66
386.429	346.71
386.809	332.93
387.189	367.5
387.568	342.19
387.948	372.93
388.328	353.04
388.707	348.3
389.087	338.58
389.466	376.77
389.846	361.85
390.225	356.88
390.605	376.09
390.984	369.31
391.363	360.95
391.743	357.56
392.122	369.54
392.501	393.27
392.881	376.32
393.26	384.45
393.639	359.37
394.018	384
394.397	388.29
394.776	371.8
395.155	377.9
395.534	389.65
395.913	366.6
396.292	398.01
396.671	386.04
397.05	374.06
397.429	396.43
397.808	398.01
398.186	391.01
398.565	368.63
398.944	385.81
399.323	408.41
399.701	395.53
400.08	413.15
400.458	416.54
400.837	426.94
401.215	413.38
401.594	439.82
401.972	420.84
402.351	427.16
402.729	442.3
403.107	429.2
403.486	452.7
403.864	433.49
404.242	462.64
404.62	447.73
404.999	432.14
405.377	434.62
405.755	487.05
406.133	453.6
406.511	459.03
406.889	459.48
407.267	475.52
407.645	482.08
408.023	501.96
408.401	475.75
408.779	521.62
409.156	509.65
409.534	501.51
409.912	492.47
410.29	524.11
410.667	524.56
411.045	542.64
411.422	557.1
411.8	539.93
412.178	545.35
412.555	579.48
412.933	565.47
413.31	575.86
413.687	562.75
414.065	594.39
414.442	587.39
414.819	594.84
415.197	620.61
415.574	644.33
415.951	617.89
416.328	646.82
416.705	644.79
417.082	621.28
417.46	651.34
417.837	648.63
418.214	638.91
418.591	664.9
418.967	682.07
419.344	682.98
419.721	724.56
420.098	700.15
420.475	691.11
420.852	736.53
421.228	752.35
421.605	745.57
421.982	758.45
422.358	753.48
422.735	755.97
423.111	780.6
423.488	783.31
423.864	784.22
424.241	797.32
424.617	824.89
424.994	839.81
425.37	851.33
425.746	863.76
426.123	865.34
426.499	866.93
426.875	874.61
427.251	886.36
427.627	908.73
428.003	916.19
428.379	921.16
428.756	972.69
429.132	974.72
429.507	943.99
429.883	942.18
430.259	980.6
430.635	983.76
431.011	1018.79
431.387	1035.06
431.763	1060.37
432.138	1048.84
432.514	1049.97
432.89	1064.44
433.265	1086.13
433.641	1111.67
434.016	1113.25
434.392	1134.26
434.767	1180.82
435.143	1187.37
435.518	1179.01
435.894	1221.04
436.269	1233.47
436.644	1266.92
437.02	1259.46
437.395	1274.83
437.77	1310.98
438.145	1311.43
438.52	1336.07
438.895	1360.92
439.271	1373.35
439.646	1396.86
440.021	1410.87
440.395	1389.62
440.77	1394.82
441.145	1430.08
441.52	1437.08
441.895	1457.87
442.27	1488.83
442.645	1488.6
443.019	1543.97
443.394	1522.73
443.769	1526.8
444.143	1525.44
444.518	1565.67
444.892	1575.38
445.267	1548.04
445.641	1595.72
446.016	1610.18
446.39	1637.98
446.764	1622.84
447.139	1627.81
447.513	1646.57
447.887	1628.26
448.262	1657.19
448.636	1668.26
449.01	1687.47
449.384	1676.62
449.758	1717.07
450.132	1746.68
450.506	1754.13
450.88	1729.28
451.254	1757.52
451.628	1765.43
452.002	1788.26
452.376	1809.73
452.75	1815.15
453.123	1856.05
453.497	1898.31
453.871	1898.09
454.244	1884.3
454.618	1938.08
454.992	1961.13
455.365	1924.98
455.739	1987.8
456.112	2004.98
456.486	2021.7
456.859	2047.01
457.232	2085.88
457.606	2077.29
457.979	2080.91
458.352	2157.74
458.725	2162.94
459.099	2162.71
459.472	2200.22
459.845	2240.9
460.218	2223.95
460.591	2264.18
460.964	2246.33
461.337	2311.86
461.71	2371.52
462.083	2378.53
462.456	2382.59
462.829	2394.57
463.201	2425.53
463.574	2414.46
463.947	2484.96
464.32	2482.7
464.692	2540.55
465.065	2527.9
465.438	2570.38
465.81	2616.94
466.183	2658.52
466.555	2693.32
466.928	2685.41
467.3	2684.28
467.672	2792.3
468.045	2824.61
468.417	2800.21
468.789	2800.21
469.161	2801.34
469.534	2866.65
469.906	2965.63
470.278	2971.5
470.65	2995.01
471.022	3030.49
471.394	3084.72
471.766	3109.35
472.138	3135.34
472.51	3209.69
472.882	3255.56
473.253	3303.47
473.625	3282.68
473.997	3362.68
474.369	3404.26
474.74	3404.26
475.112	3461.89
475.484	3541.21
475.855	3580.53
476.227	3604.93
476.598	3670.24
476.97	3701.43
477.341	3769.67
477.713	3810.58
478.084	3859.84
478.455	3945.49
478.827	3972.38
479.198	4053.06
479.569	4067.97
479.94	4145.94
480.311	4195.65
480.682	4277.68
481.053	4362.65
481.424	4412.14
481.795	4435.42
482.166	4508.41
482.537	4526.04
482.908	4603.78
483.279	4728.29
483.65	4736.2
484.021	4815.75
484.391	4842.19
484.762	4852.13
485.133	4922.64
485.503	4962.41
485.874	5076.76
486.244	5139.58
486.615	5245.57
486.985	5214.38
487.356	5333.02
487.726	5357.2
488.097	5416.86
488.467	5460.48
488.837	5566.92
489.207	5570.31
489.578	5665.9
489.948	5701.15
490.318	5818.43
490.688	5818.66
491.058	5818.89
491.428	5999.67
491.798	5961.48
492.168	6088.94
492.538	6141.82
492.908	6130.29
493.278	6271.76
493.648	6216.84
494.017	6300
494.387	6314.47
494.757	6391.07
495.126	6460.68
495.496	6496.16
495.866	6482.15
496.235	6554.01
496.605	6612.31
496.974	6603.72
497.344	6697.06
497.713	6697.51
498.082	6799.43
498.452	6814.79
498.821	6808.01
499.19	6851.18
499.559	6872.64
499.928	6956.71
500.298	6944.28
500.667	7012.98
501.036	6950.16
501.405	7032.87
501.774	7038.52
502.143	7073.54
502.512	7059.08
502.88	7153.09
503.249	7171.62
503.618	7199.42
503.987	7229.92
504.356	7210.94
504.724	7264.5
505.093	7252.3
505.462	7301.33
505.83	7346.98
506.199	7362.12
506.567	7482.12
506.936	7385.85
507.304	7478.5
507.672	7467.88
508.041	7548.33
508.409	7636.01
508.777	7585.17
509.145	7662.45
509.514	7674.88
509.882	7671.95
510.25	7642.79
510.618	7698.84
510.986	7784.03
511.354	7758.95
511.722	7812.05
512.09	7814.09
512.458	7816.8
512.826	7827.65
513.193	7836.91
513.561	7869.23
513.929	7943.58
514.297	7985.38
514.664	7957.81
515.032	8010.69
515.4	8074.65
515.767	7995.55
516.135	8114.87
516.502	7998.26
516.869	8153.74
517.237	8137.92
517.604	8078.49
517.972	8191.48
518.339	8225.15
518.706	8108.77
519.073	8200.07
519.44	8188.32
519.808	8267.64
520.175	8275.32
520.542	8280.97
520.909	8323.68
521.276	8312.83
521.643	8393.96
522.009	8379.27
522.376	8406.39
522.743	8399.38
523.11	8497.23
523.477	8564.13
523.843	8468.31
524.21	8570.9
524.577	8587.4
524.943	8583.33
525.31	8612.26
525.676	8689.32
526.043	8652.26
526.409	8695.42
526.776	8798.92
527.142	8806.6
527.508	8738.13
527.874	8795.98
528.241	8834.85
528.607	8818.81
528.973	8912.36
529.339	8863.55
529.705	8877.56
530.071	8937.67
530.437	8945.81
530.803	8974.28
531.169	8925.92
531.535	8945.81
531.901	8923.89
532.267	8914.17
532.632	8888.64
532.998	8982.19
533.364	9015.19
533.73	8949.2
534.095	9053.15
534.461	9025.36
534.826	9021.51
535.192	9038.69
535.557	9075.75
535.923	9089.31
536.288	9062.19
536.653	9012.02
537.019	8990.33
537.384	9026.94
537.749	9050.21
538.114	9075.52
538.479	9063.32
538.845	9001.85
539.21	8983.32
539.575	9041.63
539.94	8998.46
540.305	9027.62
540.67	9040.95
541.034	9067.39
541.399	9001.18
541.764	9025.36
542.129	9108.97
542.494	8986.26
542.858	9003.21
543.223	9033.94
543.587	9071.68
543.952	8997.79
544.316	9015.86
544.681	8960.27
545.045	9034.4
545.41	9047.5
545.774	9022.87
546.138	8991.23
546.503	8969.54
546.867	8978.35
547.231	8992.36
547.595	9001.85
547.959	8979.03
548.324	9059.25
548.688	8947.84
549.052	9002.98
549.416	8967.73
549.779	8913.04
550.143	8882.08
550.507	9052.02
550.871	8981.06
551.235	8949.88
551.599	9000.05
551.962	9013.15
552.326	9006.37
552.689	9010.22
553.053	8947.17
553.417	8991.91
553.78	9067.61
554.143	8948.75
554.507	8953.72
554.87	9002.53
555.234	9077.56
555.597	8960.5
555.96	8972.7
556.323	8999.14
556.686	9034.62
557.05	9069.65
557.413	9105.58
557.776	9028.97
558.139	9046.37
558.502	9064
558.865	9105.58
559.228	9152.36
559.59	9081.4
559.953	9099.03
560.316	9201.17
560.679	9209.08
561.041	9182.19
561.404	9231.45
561.767	9237.33
562.129	9232.13
562.492	9259.25
562.854	9259.02
563.217	9266.25
563.579	9222.41
563.941	9290.66
564.304	9369.98
564.666	9394.61
565.028	9377.66
565.39	9436.87
565.753	9358.68
566.115	9425.12
566.477	9385.12
566.839	9455.4
567.201	9479.36
567.563	9559.35
567.925	9478.9
568.287	9567.26
568.648	9570.65
569.01	9634.15
569.372	9666.69
569.734	9680.03
570.095	9681.84
570.457	9780.82
570.819	9713.25
571.18	9744.66
571.542	9735.17
571.903	9769.74
572.265	9871.21
572.626	9820.82
572.987	9870.76
573.349	9944.2
573.71	9902.39
574.071	9943.75
574.432	9955.73
574.794	10069.85
575.155	10012.9
575.516	9935.39
575.877	10037.76
576.238	10104.42
576.599	10103.29
576.96	10126.12
577.32	10159.34
577.681	10100.58
578.042	10182.16
578.403	10195.27
578.763	10162.73
579.124	10225.78
579.485	10263.74
579.845	10303.06
580.206	10295.83
580.566	10351.2
580.927	10330.41
581.287	10348.48
581.648	10334.47
582.008	10331.76
582.368	10393.23
582.728	10418.09
583.089	10426.9
583.449	10471.65
583.809	10412.89
584.169	10508.48
584.529	10514.36
584.889	10547.8
585.249	10550.51
585.609	10571.53
585.969	10573.79
586.329	10514.81
586.688	10630.96
587.048	10621.92
587.408	10579.44
587.768	10561.81
588.127	10656.5
588.487	10634.13
588.846	10691.53
589.206	10616.95
589.565	10661.92
589.925	10739.21
590.284	10705.31
590.643	10677.29
591.003	10767.01
591.362	10745.76
591.721	10775.14
592.08	10785.99
592.44	10831.64
592.799	10816.72
593.158	10798.87
593.517	10834.35
593.876	10805.87
594.235	10838.19
594.593	10866.44
594.952	10874.12
595.311	10846.78
595.67	10927.68
596.029	10905.76
596.387	10903.72
596.746	10983.72
597.104	10938.75
597.463	10943.27
597.822	11015.59
598.18	10947.34
598.538	10981.91
598.897	11059.88
599.255	10964.97
599.613	11064.85
599.972	11065.08
600.33	11018.52
600.688	11019.88
601.046	11057.62
601.404	11080.44
601.762	11089.48
602.12	11086.32
602.478	11025.76
602.836	11094.91
603.194	11028.02
603.552	11068.01
603.91	11058.3
604.268	11089.93
604.625	11050.61
604.983	11136.03
605.341	11081.12
605.698	11136.26
606.056	11106.66
606.413	11117.73
606.771	11217.84
607.128	11187.11
607.485	11082.48
607.843	11065.75
608.2	11203.6
608.557	11251.51
608.914	11133.55
609.272	11264.85
609.629	11320.89
609.986	11346.88
610.343	11281.12
610.7	11385.52
611.057	11347.1
611.414	11330.15
611.771	11370.6
612.127	11401.34
612.484	11358.18
612.841	11366.54
613.198	11387.1
613.554	11331.06
613.911	11439.3
614.267	11379.64
614.624	11390.27
614.98	11421.23
615.337	11475.01
615.693	11460.32
616.05	11406.54
616.406	11502.13
616.762	11512.97
617.118	11396.59
617.475	11469.81
617.831	11485.86
618.187	11502.13
618.543	11453.77
618.899	11576.02
619.255	11538.96
619.611	11487.21
619.967	11522.92
620.323	11521.11
620.678	11470.04
621.034	11470.72
621.39	11500.77
621.746	11550.94
622.101	11669.58
622.457	11513.43
622.812	11562.69
623.168	11622.8
623.523	11592.52
623.879	11648.79
624.234	11578.96
624.589	11614.44
624.945	11595.68
625.3	11615.8
625.655	11544.16
626.01	11565.18
626.365	11623.48
626.72	11584.61
627.075	11577.83
627.43	11515.23
627.785	11560.66
628.14	11595.91
628.495	11591.16
628.85	11557.49
629.205	11479.98
629.559	11530.15
629.914	11558.62
630.269	11502.13
630.623	11429.36
630.978	11442.24
631.332	11415.8
631.687	11492.41
632.041	11447.44
632.396	11485.63
632.75	11400.21
633.104	11406.54
633.459	11345.97
633.813	11326.09
634.167	11302.81
634.521	11336.03
634.875	11315.92
635.229	11247.44
635.583	11187.56
635.937	11272.98
636.291	11305.97
636.645	11323.15
636.999	11185.53
637.352	11286.54
637.706	11221.23
638.06	11284.28
638.413	11267.56
638.767	11171.06
639.121	11242.7
639.474	11072.99
639.828	11136.26
640.181	11180.55
640.534	11162.25
640.888	11071.63
641.241	11139.65
641.594	11092.65
641.947	11098.75
642.301	11027.56
642.654	11069.37
643.007	11153.89
643.36	11090.16
643.713	11020.78
644.066	11112.31
644.419	11079.09
644.771	10929.71
645.124	10806.1
645.477	10843.39
645.83	10721.81
646.182	10711.64
646.535	10667.8
646.888	10657.86
647.24	10658.99
647.593	10703.5
647.945	10630.51
648.298	10609.72
648.65	10578.31
649.002	10620.12
649.355	10679.55
649.707	10631.64
650.059	10679.1
650.411	10835.7
650.763	10823.73
651.115	10901.69
651.467	10902.14
651.819	10848.13
652.171	10896.72
652.523	10762.94
652.875	10849.71
653.227	10790.96
653.578	10884.29
653.93	10820.56
654.282	10770.62
654.633	10835.7
654.985	10776.95
655.337	10816.04
655.688	10834.8
656.039	10838.19
656.391	10788.93
656.742	10848.58
657.094	10812.2
657.445	10860.34
657.796	10841.13
658.147	10802.26
658.498	10870.28
658.849	10866.44
659.2	10826.89
659.551	10823.73
659.902	10818.3
660.253	10852.65
660.604	10879.54
660.955	10856.72
661.306	10875.48
661.656	10818.53
662.007	10815.14
662.358	10811.75
662.708	10810.39
663.059	10811.75
663.409	10781.69
663.76	10823.5
664.11	10819.21
664.461	10785.99
664.811	10760.23
665.161	10828.7
665.511	10815.82
665.862	10854.91
666.212	10834.12
666.562	10958.41
666.912	10801.35
667.262	10822.37
667.612	10851.07
667.962	10864.4
668.312	10853.33
668.662	10959.32
669.011	10827.12
669.361	10849.94
669.711	10814.69
670.06	10810.62
670.41	10711.64
670.76	10769.72
671.109	10778.3
671.459	10819.21
671.808	10754.8
672.157	10770.17
672.507	10677.74
672.856	10739.66
673.205	10732.88
673.554	10771.98
673.904	10655.6
674.253	10760.23
674.602	10782.37
674.951	10609.95
675.3	10476.39
675.649	10674.8
675.998	10673
676.346	10654.47
676.695	10692.43
677.044	10559.1
677.393	10661.92
677.741	10631.42
678.09	10605.88
678.438	10475.04
678.787	10594.81
679.135	10607.69
679.484	10460.8
679.832	10524.07
680.181	10416.51
680.529	10473.23
680.877	10481.81
681.225	10471.42
681.573	10509.61
681.922	10439.33
682.27	10406.11
682.618	10390.29
682.966	10355.04
683.314	10321.59
683.661	10367.92
684.009	10329.73
684.357	10298.99
684.705	10201.37
685.053	10250.41
685.4	10305.32
685.748	10238.21
686.095	10220.58
686.443	10075.27
686.79	10095.61
687.138	10161.82
687.485	10178.09
687.832	10078.89
688.18	10075.5
688.527	10014.03
688.874	10028.04
689.221	9957.08
689.568	9964.54
689.915	9914.6
690.262	9938.33
690.609	9859.91
690.956	9835.28
691.303	9822.4
691.65	9766.58
691.997	9787.82
692.344	9716.19
692.69	9666.92
693.037	9682.97
693.383	9632.12
693.73	9654.49
694.077	9529.75
694.423	9515.96
694.769	9520.26
695.116	9426.02
695.462	9449.3
695.808	9428.51
696.155	9462.41
696.501	9351.45
696.847	9345.35
697.193	9274.16
697.539	9322.75
697.885	9206.82
698.231	9177.89
698.577	9117.78
698.923	9141.74
699.269	9163.88
699.614	9051.57
699.96	9066.48
700.306	9044.56
700.651	8984.23
700.997	9040.72
701.342	8941.97
701.688	8894.74
702.033	8908.75
702.379	8893.38
702.724	8838.92
703.069	8842.99
703.415	8795.76
703.76	8696.1
704.105	8755.76
704.45	8724.8
704.795	8662.2
705.14	8621.07
705.485	8661.3
705.83	8578.36
706.175	8537.91
706.52	8577.46
706.865	8466.27
707.209	8490.45
707.554	8459.27
707.899	8444.13
708.243	8372.27
708.588	8344.7
708.932	8374.07
709.277	8336.11
709.621	8345.6
709.966	8302.89
710.31	8297.92
710.654	8248.2
710.998	8257.47
711.342	8205.49
711.687	8232.61
712.031	8162.55
712.375	8140.86
712.719	8169.33
713.063	8137.92
713.407	8133.85
713.75	8069
714.094	8093.18
714.438	8101.99
714.782	8020.18
715.125	8008.66
715.469	8059.05
715.812	8041.65
716.156	7947.19
716.499	7961.88
716.843	7994.42
717.186	7985.84
717.53	7977.47
717.873	7970.69
718.216	7938.6
718.559	7876.23
718.902	7865.84
719.246	7896.57
719.589	7801.43
719.932	7811.38
720.275	7835.78
720.617	7834.2
720.96	7811.15
721.303	7816.35
721.646	7816.8
721.989	7704.94
722.331	7796.91
722.674	7775.22
723.016	7785.16
723.359	7744.71
723.701	7777.93
724.044	7698.84
724.386	7698.16
724.729	7773.19
725.071	7682.79
725.413	7737.93
725.755	7661.55
726.097	7735.9
726.439	7614.32
726.782	7675.79
727.124	7680.08
727.465	7662.45
727.807	7652.06
728.149	7634.88
728.491	7640.31
728.833	7612.06
729.175	7582.91
729.516	7575
729.858	7590.82
730.199	7612.51
730.541	7595.56
730.882	7595.56
731.224	7622.45
731.565	7528.9
731.906	7593.53
732.248	7598.73
732.589	7500.2
732.93	7541.55
733.271	7583.13
733.612	7536.81
733.953	7609.57
734.294	7546.3
734.635	7504.72
734.976	7514.66
735.317	7477.6
735.658	7485.96
735.999	7455.23
736.339	7484.38
736.68	7547.43
737.021	7519.63
737.361	7479.63
737.702	7533.19
738.042	7522.34
738.383	7490.71
738.723	7536.58
739.063	7528.22
739.404	7484.83
739.744	7492.51
740.084	7574.77
740.424	7586.3
740.764	7547.2
741.104	7551.04
741.444	7524.15
741.784	7519.18
742.124	7607.54
742.464	7594.89
742.804	7654.09
743.143	7659.29
743.483	7631.27
743.823	7668.1
744.162	7679.4
744.502	7643.02
744.841	7702.23
745.181	7793.98
745.52	7721.89
745.86	7767.31
746.199	7779.96
746.538	7782.9
746.877	7858.38
747.216	7946.74
747.556	7977.7
747.895	7932.28
748.234	7972.28
748.573	7942.22
748.911	8038.49
749.25	8130.92
749.589	8143.57
749.928	8222.44
750.267	8320.52
750.605	8294.75
750.944	8372.49
751.283	8427.86
751.621	8505.82
751.96	8532.71
752.298	8568.19
752.636	8733.61
752.975	8791.92
753.313	8801.18
753.651	8912.36
753.989	8918.69
754.327	9052.25
754.666	9141.96
755.004	9270.32
755.342	9329.75
755.679	9409.3
756.017	9525
756.355	9622.4
756.693	9739.91
757.031	9836.86
757.368	9960.47
757.706	10079.57
758.044	10181.71
758.381	10263.74
758.719	10407.69
759.056	10563.39
759.394	10667.57
759.731	10703.73
760.068	10844.07
760.405	10949.6
760.743	11058.52
761.08	11198.18
761.417	11243.83
761.754	11410.6
762.091	11562.69
762.428	11740.76
762.765	11748.9
763.102	11953.41
763.438	12041.55
763.775	12211.03
764.112	12341.65
764.449	12464.81
764.785	12601.76
765.122	12706.84
765.458	12787.52
765.795	12891.92
766.131	13023.89
766.467	13124.91
766.804	13234.28
767.14	13237.67
767.476	13455.07
767.812	13504.33
768.148	13695.97
768.485	13679.02
768.821	13812.12
769.157	13938.22
769.492	14083.08
769.828	14093.92
770.164	14133.7
770.5	14193.36
770.836	14344.31
771.171	14290.53
771.507	14395.61
771.842	14430.19
772.178	14490.75
772.513	14538.88
772.849	14641.48
773.184	14689.84
773.519	14747.47
773.855	14779.55
774.19	14796.73
774.525	14802.83
774.86	14980.68
775.195	15027.68
775.53	14965.54
775.865	14915.14
776.2	14907.24
776.535	14961.92
776.87	15040.11
777.205	15017.29
777.539	15072.43
777.874	15160.79
778.209	15028.81
778.543	15141.81
778.878	15065.65
779.212	15192.88
779.547	15164.4
779.881	15337.96
780.215	15141.58
780.55	15254.12
780.884	15246.44
781.218	15214.35
781.552	15229.71
781.886	15170.96
782.22	15223.16
782.554	15163.05
782.888	14984.52
783.222	15073.56
783.556	15132.54
783.889	15119.66
784.223	15002.83
784.557	15059.77
784.89	15156.04
785.224	14994.01
785.557	14968.02
785.891	15034.01
786.224	14949.04
786.558	15002.15
786.891	14815.49
787.224	14903.39
787.557	14872.21
787.891	14865.88
788.224	14854.58
788.557	14853
788.89	14854.81
789.223	14895.48
789.556	14779.1
789.888	14791.31
790.221	14804.41
790.554	14608.49
790.887	14734.81
791.219	14658.2
791.552	14638.54
791.884	14617.98
792.217	14620.46
792.549	14535.04
792.882	14366.23
793.214	14442.61
793.546	14487.13
793.879	14482.16
794.211	14340.7
794.543	14332.34
794.875	14365.1
795.207	14440.13
795.539	14344.99
795.871	14377.76
796.203	14251.21
796.535	14196.97
796.867	14129.63
797.198	14158.55
797.53	14151.32
797.862	14061.38
798.193	13987.03
798.525	13984.1
798.856	13975.51
799.188	13847.15
799.519	13849.41
799.85	13756.08
800.182	13792.24
800.513	13856.19
800.844	13733.48
801.175	13774.38
801.506	13728.74
801.837	13737.77
802.168	13715.85
802.499	13681.05
802.83	13539.14
803.161	13521.06
803.491	13531.9
803.822	13572.81
804.153	13427.05
804.483	13400.83
804.814	13355.64
805.145	13388.63
805.475	13343.21
805.805	13302.76
806.136	13313.15
806.466	13228.86
806.796	13253.49
807.126	13125.81
807.457	13170.11
807.787	13093.5
808.117	13065.48
808.447	13021.41
808.777	13065.48
809.107	12991.13
809.436	12945.93
809.766	12938.25
810.096	12905.25
810.426	12851.7
810.755	12866.16
811.085	12841.98
811.414	12786.61
811.744	12712.94
812.073	12731.7
812.403	12738.7
812.732	12667.97
813.061	12693.96
813.39	12610.35
813.719	12570.12
814.049	12640.18
814.378	12675.2
814.707	12599.5
815.036	12505.49
815.365	12473.17
815.693	12353.63
816.022	12371.26
816.351	12379.17
816.68	12318.38
817.008	12421.2
817.337	12247.42
817.665	12255.33
817.994	12310.92
818.322	12220.3
818.651	12244.71
818.979	12200.87
819.307	12275.89
819.636	12137.59
819.964	12082.22
820.292	12254.42
820.62	12125.39
820.948	12090.36
821.276	12080.64
821.604	12079.96
821.932	12094.2
822.259	12062.11
822.587	12026.41
822.915	12083.35
823.243	12114.09
823.57	12065.73
823.898	12085.61
824.225	12092.62
824.553	12031.15
824.88	12069.12
825.207	12137.14
825.535	12030.93
825.862	12135.56
826.189	12022.57
826.516	12095.11
826.843	12140.3
827.17	12112.05
827.497	12053.75
827.824	12100.98
828.151	12152.51
828.478	12104.37
828.805	12116.12
829.131	12023.47
829.458	12000.64
829.785	11995
830.111	12050.81
830.438	12108.21
830.764	12100.98
831.09	12066.18
831.417	12002.23
831.743	12073.19
832.069	12103.92
832.395	12032.06
832.722	12111.15
833.048	11966.3
833.374	11991.83
833.7	11973.08
834.026	12018.5
834.351	12007.88
834.677	12009.91
835.003	12001.1
835.329	11928.1
835.654	12006.07
835.98	11884.72
836.306	11904.15
836.631	11841.33
836.956	11945.96
837.282	11882.91
837.607	11851.95
837.932	11828.67
838.258	11862.8
838.583	11862.57
838.908	11745.96
839.233	11734.66
839.558	11753.87
839.883	11698.73
840.208	11731.05
840.533	11664.83
840.858	11651.5
841.182	11693.08
841.507	11596.81
841.832	11589.58
842.156	11557.04
842.481	11577.83
842.805	11535.8
843.13	11438.17
843.454	11562.69
843.778	11392.98
844.103	11373.09
844.427	11432.52
844.751	11372.64
845.075	11363.6
845.399	11341.91
845.723	11242.47
846.047	11307.78
846.371	11145.3
846.695	11212.19
847.019	11102.36
847.343	11145.98
847.666	11060.1
847.99	10960.45
848.313	10960.22
848.637	10913.44
848.96	10842.71
849.284	10791.19
849.607	10718.87
849.931	10706.67
850.254	10696.72
850.577	10663.05
850.9	10561.59
851.223	10601.36
851.546	10554.81
851.869	10363.63
852.192	10470.74
852.515	10414.47
852.838	10351.42
853.161	10337.19
853.483	10322.5
853.806	10271.88
854.129	10263.97
854.451	10156.85
854.774	10129.28
855.096	10171.54
855.419	10148.94
855.741	10097.64
856.063	10069.62
856.385	9976.74
856.708	10018.55
857.03	9965.44
857.352	9956.86
857.674	9880.7
857.996	9857.42
858.318	9781.04
858.64	9787.14
858.961	9736.75
859.283	9746.69
859.605	9643.42
859.926	9762.96
860.248	9651.1
860.57	9642.06
860.891	9670.31
861.212	9594.38
861.534	9570.2
861.855	9450.88
862.176	9548.96
862.498	9552.12
862.819	9526.59
863.14	9501.95
863.461	9450.66
863.782	9481.39
864.103	9399.36
864.424	9492.69
864.745	9475.06
865.065	9364.78
865.386	9422.63
865.707	9402.75
866.027	9395.97
866.348	9270.32
866.668	9330.88
866.989	9253.15
867.309	9272.81
867.63	9270.77
867.95	9286.14
868.27	9150.78
868.59	9223.32
868.91	9195.97
869.23	9148.97
869.55	9107.61
869.87	9179.25
870.19	9114.39
870.51	9145.35
870.83	9148.29
871.15	9109.87
871.469	9083.21
871.789	9125.24
872.109	9065.81
872.428	9017.67
872.748	9066.03
873.067	9026.26
873.386	9004.57
873.706	8960.27
874.025	9009.54
874.344	8939.26
874.663	8964.34
874.982	8920.05
875.301	8976.54
875.62	8933.15
875.939	8859.71
876.258	8876.66
876.577	8844.12
876.896	8806.15
877.214	8782.42
877.533	8823.55
877.852	8747.62
878.17	8777.23
878.489	8797.79
878.807	8694.07
879.125	8754.85
879.444	8752.37
879.762	8708.53
880.08	8742.65
880.398	8727.96
880.716	8706.72
881.034	8624.46
881.352	8721.41
881.67	8647.96
881.988	8607.74
882.306	8580.85
882.624	8556.67
882.941	8495.43
883.259	8510.57
883.577	8516.89
883.894	8482.77
884.212	8499.95
884.529	8485.48
884.846	8475.99
885.164	8419.04
885.481	8398.93
885.798	8420.85
886.115	8277.13
886.432	8358.48
886.75	8295.43
887.067	8348.76
887.383	8226.28
887.7	8305.37
888.017	8231.48
888.334	8203.46
888.651	8216.34
888.967	8156.68
889.284	8194.19
889.6	8138.15
889.917	8016.79
890.233	8144.7
890.55	8025.16
890.866	8090.69
891.182	7985.61
891.498	7973.86
891.815	7971.37
892.131	7895.44
892.447	7902.45
892.763	7877.82
893.079	7848.89
893.395	7830.59
893.71	7851.83
894.026	7775.45
894.342	7821.55
894.657	7742.23
894.973	7713.07
895.289	7699.97
895.604	7651.83
895.92	7610.48
896.235	7600.08
896.55	7623.36
896.865	7597.37
897.181	7562.57
897.496	7530.71
897.811	7519.63
898.126	7463.82
898.441	7422.91
898.756	7418.17
899.071	7356.02
899.386	7340.88
899.7	7298.85
900.015	7329.13
900.33	7263.14
900.644	7184.27
900.959	7255.68
901.273	7176.82
901.588	7093.88
901.902	7151.96
902.216	7101.34
902.531	7077.84
902.845	7007.33
903.159	6994.67
903.473	6994.22
903.787	6971.17
904.101	6932.3
904.415	6947.67
904.729	6859.09
905.042	6887.33
905.356	6823.15
905.67	6802.36
905.984	6804.62
906.297	6793.32
906.611	6758.75
906.924	6763.49
907.237	6714.91
907.551	6690.28
907.864	6610.73
908.177	6658.86
908.491	6625.87
908.804	6558.3
909.117	6580.67
909.43	6556.04
909.743	6507.46
910.056	6479.89
910.368	6464.52
910.681	6450.96
910.994	6367.8
911.307	6407.57
911.619	6345.2
911.932	6354.47
912.244	6257.29
912.557	6260.46
912.869	6237.63
913.181	6174.81
913.494	6232.89
913.806	6175.26
914.118	6143.4
914.43	6080.12
914.742	6097.07
915.054	6121.03
915.366	6055.26
915.678	6017.53
915.99	5994.02
916.302	5978.88
916.613	5915.61
916.925	5967.81
917.236	5900.24
917.548	5873.35
917.859	5846.23
918.171	5885.1
918.482	5788.38
918.794	5779.57
919.105	5779.57
919.416	5766.91
919.727	5676.52
920.038	5747.48
920.349	5652.79
920.66	5632.9
920.971	5643.98
921.282	5613.47
921.593	5623.86
921.903	5474.04
922.214	5499.12
922.525	5519.01
922.835	5466.13
923.146	5464.32
923.456	5415.28
923.767	5399.69
924.077	5393.36
924.387	5356.53
924.697	5350.88
925.008	5320.82
925.318	5298.45
925.628	5309.52
925.938	5239.92
926.248	5225
926.558	5238.34
926.867	5188.17
927.177	5187.04
927.487	5175.29
927.796	5101.39
928.106	5143.42
928.416	5116.76
928.725	5055.74
929.034	5029.08
929.344	5054.84
929.653	5018
929.962	4998.8
930.271	4960.15
930.581	4907.05
930.89	4960.83
931.199	4902.53
931.508	4883.54
931.817	4884.67
932.125	4873.83
932.434	4889.19
932.743	4825.24
933.051	4803.32
933.36	4768.52
933.669	4737.33
933.977	4745.24
934.286	4755.86
934.594	4709.54
934.902	4713.83
935.21	4703.89
935.519	4641.74
935.827	4630.44
936.135	4652.14
936.443	4573.72
936.751	4574.85
937.059	4571.01
937.367	4503.67
937.674	4491.24
937.982	4526.27
938.29	4480.39
938.597	4466.61
938.905	4444.01
939.213	4379.83
939.52	4382.54
939.827	4425.25
940.135	4358.81
940.442	4372.6
940.749	4335.99
941.056	4317.68
941.363	4275.42
941.67	4314.29
941.977	4241.75
942.284	4228.19
942.591	4227.06
942.898	4174.64
943.205	4206.27
943.511	4151.36
943.818	4175.99
944.125	4087.18
944.431	4091.25
944.738	4122.43
945.044	4072.94
945.35	4105.94
945.657	4042.89
945.963	4057.58
946.269	4005.83
946.575	3983
946.881	4028.65
947.187	3976.45
947.493	3950.01
947.799	3952.04
948.105	3916.79
948.41	3912.27
948.716	3914.53
949.022	3870.46
949.327	3875.21
949.633	3834.76
949.938	3816.23
950.244	3837.47
950.549	3802.89
950.854	3776.45
951.16	3726.06
951.465	3731.26
951.77	3685.16
952.075	3704.59
952.38	3697.59
952.685	3692.16
952.99	3639.96
953.294	3659.4
953.599	3640.19
953.904	3610.81
954.209	3590.92
954.513	3579.4
954.818	3544.37
955.122	3502.56
955.426	3540.75
955.731	3522
956.035	3466.63
956.339	3470.02
956.643	3476.58
956.948	3479.51
957.252	3510.7
957.556	3435.9
957.86	3401.32
958.163	3435.22
958.467	3412.4
958.771	3396.8
959.075	3390.93
959.378	3340.76
959.682	3335.11
959.985	3295.56
960.289	3313.87
960.592	3299.63
960.896	3269.35
961.199	3299.18
961.502	3251.5
961.805	3252.17
962.108	3198.84
962.411	3199.29
962.714	3188.9
963.017	3173.08
963.32	3211.05
963.623	3136.92
963.926	3144.83
964.228	3129.01
964.531	3096.47
964.833	3113.19
965.136	3075.68
965.438	3086.53
965.741	3019.64
966.043	3015.34
966.345	3050.6
966.648	3044.5
966.95	2998.62
967.252	2994.55
967.554	2964.05
967.856	2973.76
968.158	2957.04
968.46	2960.88
968.761	2956.81
969.063	2913.2
969.365	2895.8
969.666	2923.82
969.968	2889.47
970.269	2865.07
970.571	2864.84
970.872	2844.05
971.174	2800.66
971.475	2806.76
971.776	2822.13
972.077	2799.53
972.378	2771.06
972.679	2797.5
972.98	2763.15
973.281	2778.74
973.582	2745.75
973.883	2728.57
974.183	2741.23
974.484	2649.03
974.785	2681.12
975.085	2687.9
975.386	2726.54
975.686	2658.52
975.986	2646.77
976.287	2661.23
976.587	2584.62
976.887	2579.88
977.187	2566.09
977.487	2608.58
977.787	2573.77
978.087	2547.56
978.387	2549.37
978.687	2559.76
978.987	2531.06
979.286	2523.61
979.586	2514.57
979.885	2502.14
980.185	2497.39
980.484	2501.46
980.784	2479.09
981.083	2453.78
981.382	2437.96
981.682	2442.48
981.981	2407.45
982.28	2405.42
982.579	2386.43
982.878	2410.61
983.177	2371.75
983.475	2371.52
983.774	2346.89
984.073	2355.25
984.372	2340.11
984.67	2341.69
984.969	2305.08
985.267	2349.83
985.566	2268.7
985.864	2305.98
986.162	2278.41
986.461	2265.31
986.759	2273.44
987.057	2295.14
987.355	2221.02
987.653	2223.05
987.951	2219.43
988.249	2219.21
988.547	2203.61
988.844	2180.79
989.142	2184.86
989.44	2185.31
989.737	2180.56
990.035	2167.68
990.332	2161.81
990.63	2159.77
990.927	2096.5
991.224	2147.12
991.521	2118.87
991.819	2111.87
992.116	2113.67
992.413	2064.18
992.71	2047.01
993.006	2048.14
993.303	2065.09
993.6	2041.13
993.897	2006.78
994.193	2032.77
994.49	1991.19
994.787	1989.16
995.083	1995.48
995.379	1955.49
995.676	1984.19
995.972	1950.97
996.268	1979.44
996.565	1967.46
996.861	1964.75
997.157	1946.22
997.453	1910.74
997.749	1895.37
998.044	1905.77
998.34	1871.19
998.636	1871.19
998.932	1887.46
999.227	1883.62
999.523	1873.45
999.818	1815.15
1000.114	1847.24
1000.409	1849.73
1000.704	1799.11
1001	1817.64
1001.295	1784.87
1001.59	1803.62
1001.885	1769.95
1002.18	1797.52
1002.475	1724.53
1002.77	1737.86
1003.065	1730.63
1003.359	1735.38
1003.654	1748.03
1003.949	1715.94
1004.243	1691.99
1004.538	1672.1
1004.832	1673.01
1005.127	1681.14
1005.421	1663.52
1005.715	1643.18
1006.009	1644.31
1006.304	1658.77
1006.598	1643.18
1006.892	1620.13
1007.186	1598.88
1007.48	1621.48
1007.773	1573.12
1008.067	1611.77
1008.361	1569.96
1008.655	1574.7
1008.948	1571.54
1009.242	1563.41
1009.535	1567.92
1009.829	1546.68
1010.122	1521.6
1010.415	1523.41
1010.708	1514.59
1011.001	1491.54
1011.295	1492.45
1011.588	1506.91
1011.881	1480.24
1012.173	1427.82
1012.466	1477.76
1012.759	1479.57
1013.052	1449.51
1013.344	1455.16
1013.637	1446.12
1013.93	1424.2
1014.222	1426.01
1014.514	1409.51
1014.807	1386.69
1015.099	1375.61
1015.391	1363.64
1015.683	1367.93
1015.976	1400.7
1016.268	1332.45
1016.56	1347.59
1016.851	1350.76
1017.143	1324.77
1017.435	1313.24
1017.727	1324.99
1018.018	1311.21
1018.31	1308.95
1018.602	1300.81
1018.893	1310.08
1019.185	1288.84
1019.476	1254.26
1019.767	1251.55
1020.058	1262.4
1020.35	1260.14
1020.641	1215.17
1020.932	1215.84
1021.223	1218.1
1021.514	1230.98
1021.804	1217.88
1022.095	1160.48
1022.386	1180.82
1022.677	1175.17
1022.967	1191.89
1023.258	1159.57
1023.548	1181.49
1023.839	1184.66
1024.129	1161.16
1024.419	1148.05
1024.709	1127.48
1025	1130.2
1025.29	1131.55
1025.58	1108.5
1025.87	1121.83
1026.16	1086.36
1026.449	1098.56
1026.739	1097.43
1027.029	1087.71
1027.319	1075.73
1027.608	1061.72
1027.898	1053.14
1028.187	1073.7
1028.477	1042.97
1028.766	1034.61
1029.055	1036.64
1029.344	1040.71
1029.634	1012.01
1029.923	1009.3
1030.212	989.41
1030.501	1000.48
1030.79	973.59
1031.078	993.25
1031.367	969.3
1031.656	988.28
1031.945	969.97
1032.233	948.05
1032.522	939.24
1032.81	961.39
1033.099	923.87
1033.387	935.63
1033.675	967.49
1033.963	931.56
1034.251	963.42
1034.54	916.42
1034.828	896.98
1035.116	878.23
1035.403	911.22
1035.691	911.22
1035.979	876.42
1036.267	893.37
1036.554	896.53
1036.842	855.85
1037.129	885
1037.417	891.11
1037.704	847.04
1037.992	863.54
1038.279	856.76
1038.566	860.15
1038.853	860.15
1039.14	860.15
