Data from hue_40_FLMS001491_73.txt Node
Date: Mon Feb 06 15:08:24 GMT 2017
User: dcchb
Spectrometer: FLMS00149
Trigger mode: 0
Integration Time (sec): 2.000000E-2
Scans to average: 10
Electric dark correction enabled: true
Nonlinearity correction enabled: false
Boxcar width: 0
XAxis mode: Wavelengths
Number of Pixels in Spectrum: 2048
>>>>>Begin Spectral Data<<<<<
341.393	-12.41
341.776	-12.41
342.16	-12.41
342.543	-75.46
342.927	-73.66
343.31	-61.68
343.693	-67.78
344.077	-63.26
344.46	-86.76
344.843	-47.67
345.226	-37.95
345.61	-22.58
345.993	-26.43
346.376	-13.09
346.759	23.52
347.142	37.3
347.525	33.23
347.908	66
348.291	68.71
348.674	75.27
349.057	123.17
349.44	135.38
349.823	142.16
350.206	164.76
350.588	194.81
350.971	212.21
351.354	239.56
351.737	227.13
352.119	270.74
352.502	258.54
352.884	271.42
353.267	266.9
353.65	276.17
354.032	296.96
354.414	311.87
354.797	310.51
355.179	323.17
355.562	341.7
355.944	337.41
356.326	337.63
356.709	332.89
357.091	334.02
357.473	350.51
357.855	353.23
358.238	356.16
358.62	341.25
359.002	356.39
359.384	359.33
359.766	330.63
360.148	318.88
360.53	329.72
360.912	367.46
361.294	351.64
361.676	344.64
362.057	330.4
362.439	341.02
362.821	332.89
363.203	325.43
363.584	342.15
363.966	317.29
364.348	323.85
364.729	307.8
365.111	327.92
365.493	349.16
365.874	330.63
366.256	319.1
366.637	313.68
367.019	331.98
367.4	323.62
367.781	326.79
368.163	316.16
368.544	326.79
368.925	314.81
369.306	306.67
369.688	308.48
370.069	325.88
370.45	308.71
370.831	316.16
371.212	292.44
371.593	306.9
371.974	336.95
372.355	319.33
372.736	320.68
373.117	320.01
373.498	303.06
373.879	325.43
374.26	333.34
374.641	314.81
375.021	321.14
375.402	330.4
375.783	325.88
376.163	324.53
376.544	335.82
376.925	317.29
377.305	320.23
377.686	329.95
378.066	328.82
378.447	335.15
378.827	319.78
379.208	371.53
379.588	343.06
379.968	338.08
380.349	323.17
380.729	322.49
381.109	301.7
381.489	332.89
381.87	342.6
382.25	348.71
382.63	332.89
383.01	345.32
383.39	367.69
383.77	359.1
384.15	342.83
384.53	359.55
384.91	345.77
385.29	347.12
385.67	352.32
386.049	360.68
386.429	337.86
386.809	314.58
387.189	334.24
387.568	368.14
387.948	369.04
388.328	343.73
388.707	353.9
389.087	371.3
389.466	360.46
389.846	350.06
390.225	380.8
390.605	391.87
390.984	364.3
391.363	340.8
391.743	375.6
392.122	381.92
392.501	376.28
392.881	371.53
393.26	378.99
393.639	359.1
394.018	378.31
394.397	376.5
394.776	361.81
395.155	368.59
395.534	378.99
395.913	376.5
396.292	364.98
396.671	383.73
397.05	374.47
397.429	370.63
397.808	393.22
398.186	365.43
398.565	386.9
398.944	362.26
399.323	409.72
399.701	365.43
400.08	383.73
400.458	368.37
400.837	387.57
401.215	395.03
401.594	392.55
401.972	379.67
402.351	398.2
402.729	388.48
403.107	397.74
403.486	392.55
403.864	391.64
404.242	402.49
404.62	399.55
404.999	397.97
405.377	426.44
405.755	392.55
406.133	418.53
406.511	413.56
406.889	412.21
407.267	411.53
407.645	426.67
408.023	449.95
408.401	423.73
408.779	409.72
409.156	428.93
409.534	457.86
409.912	436.84
410.29	446.78
410.667	437.52
411.045	453.79
411.422	433.9
411.8	443.62
412.178	448.36
412.555	437.29
412.933	476.16
413.31	453.79
413.687	468.7
414.065	468.93
414.442	461.7
414.819	479.32
415.197	466.67
415.574	479.78
415.951	488.59
416.328	481.58
416.705	464.63
417.082	461.7
417.46	488.81
417.837	515.03
418.214	489.94
418.591	482.04
418.967	482.26
419.344	500.11
419.721	502.83
420.098	499.66
420.475	504.86
420.852	505.54
421.228	524.29
421.605	514.8
421.982	509.61
422.358	529.27
422.735	505.54
423.111	530.85
423.488	498.98
423.864	527.91
424.241	538.98
424.617	527.01
424.994	539.89
425.37	557.51
425.746	547.34
426.123	553.45
426.499	568.36
426.875	542.37
427.251	553.9
427.627	575.59
428.003	596.16
428.379	562.49
428.756	548.47
429.132	594.35
429.507	585.99
429.883	597.06
430.259	614.69
430.635	594.35
431.011	588.25
431.387	598.87
431.763	614.69
432.138	619.43
432.514	612.43
432.89	600.68
433.265	619.88
433.641	621.47
434.016	641.35
434.392	664.86
434.767	659.88
435.143	644.52
435.518	629.15
435.894	658.08
436.269	684.74
436.644	691.52
437.02	673.89
437.395	683.84
437.77	688.36
438.145	684.97
438.52	669.83
438.895	713.89
439.271	702.14
439.646	701.01
440.021	698.75
440.395	730.84
440.77	696.94
441.145	737.17
441.52	707.34
441.895	720
442.27	728.13
442.645	730.62
443.019	727.68
443.394	735.81
443.769	734.01
444.143	748.02
444.518	754.8
444.892	743.05
445.267	772.88
445.641	751.18
446.016	766.1
446.39	797.06
446.764	774.23
447.139	774.91
447.513	796.38
447.887	774.68
448.262	777.62
448.636	786.66
449.01	791.86
449.384	811.29
449.758	811.29
450.132	817.17
450.506	798.19
450.88	829.14
451.254	836.6
451.628	820.78
452.002	840.44
452.376	815.36
452.75	857.39
453.123	855.13
453.497	882.25
453.871	872.31
454.244	893.55
454.618	893.32
454.992	903.04
455.365	910.5
455.739	902.36
456.112	915.24
456.486	936.94
456.859	921.8
457.232	938.29
457.606	962.93
457.979	953.44
458.352	964.06
458.725	982.59
459.099	979.65
459.472	1002.93
459.845	994.34
460.218	1038.63
460.591	1023.26
460.964	1044.05
461.337	1056.03
461.71	1038.18
462.083	1060.33
462.456	1080.21
462.829	1079.99
463.201	1100.1
463.574	1103.94
463.947	1119.53
464.32	1157.05
464.692	1159.53
465.065	1174.67
465.438	1180.1
465.81	1223.71
466.183	1196.82
466.555	1237.5
466.928	1252.18
467.3	1237.5
467.672	1276.82
468.045	1292.64
468.417	1318.62
468.789	1323.82
469.161	1336.48
469.534	1365.63
469.906	1397.49
470.278	1414.67
470.65	1438.39
471.022	1470.48
471.394	1508.22
471.766	1520.2
472.138	1542.8
472.51	1547.09
472.882	1585.96
473.253	1632.97
473.625	1648.78
473.997	1706.64
474.369	1718.39
474.74	1723.81
475.112	1764.04
475.484	1803.81
475.855	1867.08
476.227	1872.73
476.598	1930.13
476.97	1954.76
477.341	2017.59
477.713	2023.46
478.084	2110.24
478.455	2136
478.827	2185.72
479.198	2300.74
479.569	2321.76
479.94	2370.57
480.311	2444.7
480.682	2520.17
481.053	2541.64
481.424	2655.09
481.795	2656.67
482.166	2760.17
482.537	2832.03
482.908	2912.03
483.279	2940.95
483.65	3058.01
484.021	3127.16
484.391	3192.92
484.762	3255.3
485.133	3321.51
485.503	3398.57
485.874	3499.36
486.244	3566.47
486.615	3680.37
486.985	3772.12
487.356	3887.14
487.726	3943.87
488.097	4086.23
488.467	4132.11
488.837	4229.06
489.207	4283.07
489.578	4434.93
489.948	4474.92
490.318	4618.42
490.688	4694.35
491.058	4812.09
491.428	4879.89
491.798	4967.12
492.168	5137.05
492.538	5196.94
492.908	5333.43
493.278	5400.1
493.648	5426.31
494.017	5619.3
494.387	5678.96
494.757	5813.87
495.126	5865.4
495.496	5983.36
495.866	6018.39
496.235	6148.55
496.605	6199.17
496.974	6259.74
497.344	6416.34
497.713	6486.62
498.082	6568.88
498.452	6705.37
498.821	6767.29
499.19	6862.21
499.559	6975.42
499.928	6989.89
500.298	7147.85
500.667	7205.93
501.036	7228.98
501.405	7325.92
501.774	7336.54
502.143	7492.02
502.512	7583.09
502.88	7643.88
503.249	7751.45
503.618	7812.46
503.987	7797.1
504.356	7952.12
504.724	8040.71
505.093	8089.29
505.462	8145.11
505.83	8197.76
506.199	8289.06
506.567	8399.12
506.936	8468.04
507.304	8603.18
507.672	8649.5
508.041	8722.72
508.409	8742.38
508.777	8830.97
509.145	8951.19
509.514	8941.7
509.882	9039.32
510.25	9049.27
510.618	9157.74
510.986	9190.73
511.354	9330.39
511.722	9416.94
512.09	9450.16
512.458	9495.36
512.826	9606.54
513.193	9663.26
513.561	9677.05
513.929	9757.72
514.297	9809.47
514.664	10009.24
515.032	9979.41
515.4	10088.34
515.767	10056.7
516.135	10141.44
516.502	10080.65
516.869	10331.27
517.237	10340.76
517.604	10351.38
517.972	10509.57
518.339	10535.78
518.706	10587.76
519.073	10688.09
519.44	10710.69
519.808	10771.03
520.175	10837.24
520.542	10931.25
520.909	10992.95
521.276	11020.06
521.643	11091.25
522.009	11218.48
522.376	11254.18
522.743	11329.89
523.11	11411.92
523.477	11505.7
523.843	11662.98
524.21	11752.25
524.577	11802.19
524.943	11857.56
525.31	11818.91
525.676	12006.93
526.043	12064.1
526.409	12145.46
526.776	12260.48
527.142	12328.28
527.508	12364.43
527.874	12499.8
528.241	12525.33
528.607	12611.21
528.973	12621.6
529.339	12630.42
529.705	12863.4
530.071	12924.87
530.437	13014.36
530.803	13055.49
531.169	13193.79
531.535	13147.92
531.901	13142.72
532.267	13301.81
532.632	13292.32
532.998	13316.05
533.364	13486.44
533.73	13461.81
534.095	13497.51
534.461	13675.36
534.826	13702.7
535.192	13827.22
535.557	13829.48
535.923	13792.87
536.288	13889.37
536.653	14019.53
537.019	13985.41
537.384	14084.84
537.749	14141.56
538.114	14177.27
538.479	14238.06
538.845	14320.99
539.21	14259.07
539.575	14318.06
539.94	14379.75
540.305	14512.17
540.67	14511.05
541.034	14542.68
541.399	14622.68
541.764	14680.31
542.129	14678.72
542.494	14776.57
542.858	14829.91
543.223	14882.56
543.587	14943.35
543.952	14938.15
544.316	15116.23
544.681	15011.37
545.045	15126.4
545.41	15257.69
545.774	15281.87
546.138	15208.88
546.503	15421.08
546.867	15407.52
547.231	15558.48
547.595	15586.95
547.959	15622.65
548.324	15697.23
548.688	15699.94
549.052	15801.86
549.416	15918.92
549.779	15842.99
550.143	15939.93
550.507	15955.53
550.871	16048.41
551.235	16074.62
551.599	16146.48
551.962	16178.35
552.326	16272.13
552.689	16163.88
553.053	16281.39
553.417	16313.71
553.78	16467.15
554.143	16494.27
554.507	16563.87
554.87	16582.18
555.234	16779.91
555.597	16692
555.96	16741.27
556.323	16805
556.686	16897.65
557.05	17053.8
557.413	17098.55
557.776	17020.36
558.139	17159.11
558.502	17227.58
558.865	17283.85
559.228	17390.29
559.59	17404.53
559.953	17483.17
560.316	17635.26
560.679	17563.62
561.041	17698.08
561.404	17726.55
561.767	17850.39
562.129	17853.1
562.492	18057.17
562.854	17996.15
563.217	18046.09
563.579	18086.09
563.941	18224.17
564.304	18343.26
564.666	18392.3
565.028	18410.6
565.39	18483.37
565.753	18599.53
566.115	18610.15
566.477	18814.21
566.839	18758.84
567.201	18804.27
567.563	18775.79
567.925	19004.26
568.287	19053.98
568.648	19133.52
569.01	19179.4
569.372	19351.82
569.734	19252.62
570.095	19469.78
570.457	19481.31
570.819	19541.87
571.18	19589.56
571.542	19765.82
571.903	19762.43
572.265	19921.07
572.626	19968.98
572.987	19980.73
573.349	20077.68
573.71	20173.72
574.071	20282.19
574.432	20439.25
574.794	20560.15
575.155	20547.04
575.516	20495.75
575.877	20668.85
576.238	20788.39
576.599	20956.53
576.96	20920.37
577.32	21122.17
577.681	21204.2
578.042	21336.18
578.403	21464.53
578.763	21500.92
579.124	21580.01
579.485	21874.47
579.845	21938.87
580.206	22025.42
580.566	22022.26
580.927	22323.49
581.287	22446.66
581.648	22550.38
582.008	22773.2
582.368	22742.92
582.728	23001.9
583.089	23041.22
583.449	23116.24
583.809	23372.28
584.169	23542.9
584.529	23627.64
584.889	23963
585.249	23939.05
585.609	24017.91
585.969	24267.4
586.329	24425.36
586.688	24799.59
587.048	24848.4
587.408	25014.95
587.768	25165.91
588.127	25360.03
588.487	25542.39
588.846	25819.9
589.206	25739.45
589.565	25943.96
589.925	26339.66
590.284	26334.46
590.643	26640.67
591.003	26902.36
591.362	27027.1
591.721	27210.82
592.08	27388.22
592.44	27660.08
592.799	27777.36
593.158	27955.66
593.517	28050.58
593.876	28353.39
594.235	28361.3
594.593	28559.04
594.952	28933.26
595.311	29027.27
595.67	29200.83
596.029	29516.07
596.387	29592
596.746	29897.99
597.104	29907.25
597.463	30012.11
597.822	30382.94
598.18	30417.97
598.538	30537.29
598.897	30834.01
599.255	30769.15
599.613	31360.32
599.972	31269.25
600.33	31438.96
600.688	31513.54
601.046	31880.98
601.404	32005.95
601.762	32008.44
602.12	32347.41
602.478	32502.21
602.836	32598.03
603.194	32643.9
603.552	32819.49
603.91	32633.51
604.268	33161.85
604.625	33018.13
604.983	33409.53
605.341	33411.79
605.698	33570.2
606.056	33777.21
606.413	33906.02
606.771	33977.43
607.128	34206.57
607.485	34196.63
607.843	34221.04
608.2	34381.03
608.557	34745.77
608.914	34632.55
609.272	34788.93
609.629	35077.06
609.986	35297.17
610.343	35144.4
610.7	35409.93
611.057	35392.98
611.414	35600.89
611.771	35725.4
612.127	36005.4
612.484	35762.46
612.841	35965.17
613.198	36167.2
613.554	36255.56
613.911	36467.08
614.267	36504.59
614.624	36546.85
614.98	36643.57
615.337	36765.6
615.693	36752.95
616.05	36796.33
616.406	37055.31
616.762	36980.51
617.118	37075.88
617.475	37094.63
617.831	37175.31
618.187	37335.76
618.543	37349.31
618.899	37653.26
619.255	37743.2
619.611	37679.48
619.967	37880.6
620.323	37974.83
620.678	37911.56
621.034	37788.85
621.39	37869.3
621.746	37883.09
622.101	38289.85
622.457	38063.87
622.812	38241.04
623.168	38282.17
623.523	38348.84
623.879	38467.25
624.234	38304.09
624.589	38428.61
624.945	38533.92
625.3	38625.89
625.655	38612.78
626.01	38654.36
626.365	38576.4
626.72	38660.01
627.075	38787.47
627.43	38735.94
627.785	38756.96
628.14	38880.12
628.495	38820.91
628.85	38850.97
629.205	38734.14
629.559	39012.77
629.914	38795.6
630.269	38942.94
630.623	38818.43
630.978	38715.83
631.332	38933.45
631.687	38958.31
632.041	38854.81
632.396	38815.94
632.75	38758.09
633.104	38835.15
633.459	38717.87
633.813	38721.03
634.167	38730.52
634.521	38749.5
634.875	38821.37
635.229	38725.32
635.583	38717.87
635.937	38713.12
636.291	38597.87
636.645	38736.62
636.999	38523.75
637.352	38845.77
637.706	38410.98
638.06	38573.92
638.413	38626.34
638.767	38492.79
639.121	38558.1
639.474	38349.51
639.828	38362.62
640.181	38549.06
640.534	38393.13
640.888	38331.44
641.241	38225.9
641.594	38352.9
641.947	38444.88
642.301	38288.27
642.654	38371.89
643.007	38386.58
643.36	38332.11
643.713	38279.91
644.066	38406.24
644.419	38009.64
644.771	37818.23
645.124	37614.62
645.477	37537.78
645.83	37205.36
646.182	37157.68
646.535	37093.28
646.888	37110.45
647.24	36900.96
647.593	37066.16
647.945	37003.33
648.298	36841.31
648.65	36881.3
649.002	36729.9
649.355	36886.73
649.707	36823.45
650.059	37110.45
650.411	37429.09
650.763	37378.92
651.115	37760.38
651.467	37543.21
651.819	37721.28
652.171	37676.99
652.523	37585.24
652.875	37564
653.227	37467.5
653.578	37730.55
653.93	37542.53
654.282	37353.38
654.633	37372.59
654.985	37414.62
655.337	37538.46
655.688	37357.22
656.039	37592.25
656.391	37323.33
656.742	37435.87
657.094	37343.44
657.445	37567.39
657.796	37362.2
658.147	37247.85
658.498	37193.16
658.849	37337.34
659.2	37270.67
659.551	37229.54
659.902	37213.72
660.253	37217.11
660.604	37313.38
660.955	37128.76
661.306	37311.35
661.656	37033.84
662.007	37341.63
662.358	37120.85
662.708	37096.44
663.059	37134.63
663.409	36834.75
663.76	37134.86
664.11	36983
664.461	37139.38
664.811	37081.3
665.161	37062.09
665.511	36992.04
665.862	37000.4
666.212	37117.68
666.562	37107.74
666.912	36933.96
667.262	37122.43
667.612	36952.49
667.962	37066.84
668.312	37011.24
668.662	37163.33
669.011	36949.78
669.361	37090.34
669.711	36980.74
670.06	36989.55
670.41	36895.09
670.76	36743.45
671.109	37088.76
671.459	36883.56
671.808	36907.29
672.157	36915.2
672.507	36605.38
672.856	36638.15
673.205	36733.06
673.554	36890.8
673.904	36618.71
674.253	37057.12
674.602	36785.49
674.951	36180.98
675.3	36158.84
675.649	36616.45
675.998	36625.94
676.346	36584.59
676.695	36749.33
677.044	36524.25
677.393	36582.1
677.741	36568.09
678.09	36563.57
678.438	36364.26
678.787	36441.77
679.135	36402.45
679.484	36230.25
679.832	36326.29
680.181	36254.65
680.529	36225.28
680.877	36112.96
681.225	36137.14
681.573	36324.03
681.922	36124.26
682.27	35945.74
682.618	36004.27
682.966	36008.78
683.314	36070.03
683.661	35989.8
684.009	35630.72
684.357	35612.19
684.705	35603.6
685.053	35561.79
685.4	35423.72
685.748	35446.31
686.095	35459.87
686.443	35358.41
686.79	35305.53
687.138	35362.93
687.485	35308.24
687.832	35049.94
688.18	35261.01
688.527	34952.77
688.874	34967.23
689.221	35008.59
689.568	34741.25
689.915	34780.79
690.262	34688.14
690.609	34576.51
690.956	34441.14
691.303	34362.05
691.65	34340.58
691.997	34381.03
692.344	34188.27
692.69	34119.12
693.037	34060.14
693.383	33805.23
693.73	34069.4
694.077	33829.86
694.423	33771.1
694.769	33673.93
695.116	33566.59
695.462	33524.33
695.808	33431.68
696.155	33561.84
696.501	33188.29
696.847	33244.11
697.193	33074.4
697.539	33188.52
697.885	32926.61
698.231	32780.85
698.577	32879.83
698.923	32784.01
699.269	32693.39
699.614	32542.44
699.96	32473.06
700.306	32458.82
700.651	32375.66
700.997	32266.96
701.342	32328.2
701.688	32145.38
702.033	31943.81
702.379	31945.39
702.724	31849.8
703.069	31932.28
703.415	31699.07
703.76	31598.05
704.105	31558.28
704.45	31428.79
704.795	31296.59
705.14	31269.02
705.485	31344.05
705.83	31108.57
706.175	31149.03
706.52	30954.45
706.865	30846.89
707.209	30850.05
707.554	30624.29
707.899	30838.98
708.243	30757.17
708.588	30573.67
708.932	30358.54
709.277	30454.13
709.621	30441.25
709.966	30138.88
710.31	30269.5
710.654	30091.65
710.998	30095.49
711.342	30174.14
711.687	30074.93
712.031	29885.78
712.375	29761.04
712.719	29830.19
713.063	29719.68
713.407	29885.78
713.75	29658.22
714.094	29583.42
714.438	29577.09
714.782	29575.51
715.125	29425
715.469	29411.9
715.812	29344.1
716.156	29077.22
716.499	29211.45
716.843	29162.86
717.186	29023.88
717.53	29131.45
717.873	29098.68
718.216	29005.58
718.559	28827.73
718.902	28699.37
719.246	28850.78
719.589	28696.21
719.932	28636.55
720.275	28574.86
720.617	28641.75
720.96	28491.02
721.303	28502.09
721.646	28451.92
721.989	28273.62
722.331	28355.88
722.674	28313.17
723.016	28293.73
723.359	28146.17
723.701	28226.84
724.044	28216
724.386	27893.52
724.729	27980.3
725.071	27912.95
725.413	27902.11
725.755	27871.15
726.097	27790.02
726.439	27690.36
726.782	27638.84
727.124	27652.17
727.465	27565.84
727.807	27571.49
728.149	27482.91
728.491	27508.44
728.833	27508.44
729.175	27424.83
729.516	27330.37
729.858	27360.42
730.199	27345.28
730.541	27326.08
730.882	27286.98
731.224	27248.11
731.565	27154.55
731.906	27119.3
732.248	27097.83
732.589	27077.95
732.93	26841.34
733.271	26856.48
733.612	26995.91
733.953	26813.09
734.294	26779.42
734.635	26738.75
734.976	26863.26
735.317	26682.25
735.658	26652.19
735.999	26623.95
736.339	26615.59
736.68	26609.71
737.021	26508.7
737.361	26298.76
737.702	26602.25
738.042	26453.33
738.383	26333.11
738.723	26336.5
739.063	26249.04
739.404	26416.49
739.744	26287.91
740.084	26141.47
740.424	26167.01
740.764	26153.9
741.104	26147.8
741.444	26029.39
741.784	25897.41
742.124	26023.74
742.464	25973.57
742.804	25829.39
743.143	25844.53
743.483	25789.84
743.823	25732.44
744.162	25673.46
744.502	25789.17
744.841	25607.48
745.181	25609.96
745.52	25598.21
745.86	25675.72
746.199	25632.79
746.538	25567.7
746.877	25524.54
747.216	25484.32
747.556	25456.52
747.895	25417.2
748.234	25285.45
748.573	25278.45
748.911	25237.54
749.25	25116.42
749.589	25067.6
749.928	25200.93
750.267	25187.37
750.605	25104.66
750.944	24948.28
751.283	24856.99
751.621	24986.7
751.96	24723.66
752.298	24788.74
752.636	24759.36
752.975	24624.68
753.313	24542.65
753.651	24609.31
753.989	24496.32
754.327	24464.23
754.666	24321.86
755.004	24478.01
755.342	24447.51
755.679	24392.59
756.017	24260.62
756.355	24318.7
756.693	24167.51
757.031	24253.61
757.368	24050.91
757.706	23997.58
758.044	23838.94
758.381	23970.01
758.719	23900.85
759.056	23798.71
759.394	23755.32
759.731	23603.01
760.068	23522.56
760.405	23504.03
760.743	23382.68
761.08	23536.12
761.417	23433.52
761.754	23354.65
762.091	23304.71
762.428	23153.08
762.765	23167.77
763.102	23149.01
763.438	22992.86
763.775	22888.9
764.112	22963.03
764.449	22892.29
764.785	22714.22
765.122	22489.82
765.458	22510.38
765.795	22500.21
766.131	22467.67
766.467	22359.65
766.804	22350.61
767.14	22155.82
767.476	22281.01
767.812	22077.63
768.148	22106.78
768.485	21889.16
768.821	21884.18
769.157	21748.14
769.492	21762.15
769.828	21753.34
770.164	21573.01
770.5	21575.27
770.836	21413.46
771.171	21354.03
771.507	21304.99
771.842	21102.06
772.178	21113.81
772.513	21061.61
772.849	21093.24
773.184	20951.55
773.519	20812.12
773.855	20834.49
774.19	20716.31
774.525	20660.71
774.86	20670.66
775.195	20520.6
775.53	20470.21
775.865	20376.88
776.2	20189.77
776.535	20079.26
776.87	20089.43
777.205	20100.5
777.539	19895.76
777.874	19959.49
778.209	19782.54
778.543	19775.09
778.878	19644.7
779.212	19678.59
779.547	19492.61
779.881	19585.26
780.215	19407.64
780.55	19455.77
780.884	19272.28
781.218	19299.17
781.552	19218.72
781.886	19145.73
782.22	19039.29
782.554	18952.28
782.888	18852.17
783.222	18732.63
783.556	18698.28
783.889	18642.24
784.223	18527.44
784.557	18507.78
784.89	18544.61
785.224	18505.52
785.557	18300.32
785.891	18211.51
786.224	18290.38
786.558	18154.11
786.891	18087.67
787.224	18022.37
787.557	17945.98
787.891	17881.8
788.224	17974.46
788.557	17824.63
788.89	17743.95
789.223	17696.27
789.556	17570.17
789.888	17597.52
790.221	17492.21
790.554	17431.19
790.887	17327.92
791.219	17289.73
791.552	17264.19
791.884	17193.46
792.217	17133.57
792.549	17015.39
792.882	16927.93
793.214	16880.02
793.546	16899.91
793.879	16847.25
794.211	16724.09
794.543	16808.61
794.875	16643.87
795.207	16728.84
795.539	16593.48
795.871	16523.65
796.203	16453.82
796.535	16319.36
796.867	16315.07
797.198	16354.84
797.53	16289.08
797.862	16159.36
798.193	16148.52
798.525	16085.01
798.856	16104.68
799.188	15946.49
799.519	15855.19
799.85	15762.54
800.182	15787.4
800.513	15819.26
800.844	15677.57
801.175	15717.79
801.506	15694.06
801.837	15562.99
802.168	15533.17
802.499	15569.55
802.83	15441.42
803.161	15337.92
803.491	15412.26
803.822	15367.07
804.153	15281.65
804.483	15137.24
804.814	15134.53
805.145	15123.91
805.475	15070.58
805.805	14993.29
806.136	14988.55
806.466	14967.76
806.796	15014.53
807.126	14861.09
807.457	14725.05
807.787	14682.34
808.117	14716.92
808.447	14677.14
808.777	14754.43
809.107	14558.05
809.436	14555.34
809.766	14520.08
810.096	14521.67
810.426	14379.3
810.755	14400.99
811.085	14406.64
811.414	14365.06
811.744	14292.29
812.073	14177.95
812.403	14199.87
812.732	14119.64
813.061	14198.74
813.39	13979.53
813.719	13971.4
814.049	14112.64
814.378	14067.89
814.707	13978.4
815.036	13871.29
815.365	13871.29
815.693	13716.72
816.022	13737.28
816.351	13716.94
816.68	13713.33
817.008	13708.81
817.337	13541.58
817.665	13618.41
817.994	13599.43
818.322	13630.62
818.651	13482.37
818.979	13442.15
819.307	13493.9
819.636	13342.71
819.964	13355.14
820.292	13394.01
820.62	13359.44
820.948	13316.27
821.276	13347.23
821.604	13245.99
821.932	13355.37
822.259	13238.99
822.587	13233.11
822.915	13322.15
823.243	13258.65
823.57	13208.03
823.898	13231.98
824.225	13205.99
824.553	13219.55
824.88	13271.08
825.207	13284.18
825.535	13205.99
825.862	13272.89
826.189	13196.5
826.516	13277.63
826.843	13310.4
827.17	13340
827.497	13255.71
827.824	13262.49
828.151	13260.68
828.478	13211.64
828.805	13249.84
829.131	13177.29
829.458	13189.95
829.785	13159.22
830.111	13153.79
830.438	13155.6
830.764	13175.03
831.09	13153.34
831.417	13150.63
831.743	13190.4
832.069	13189.95
832.395	13100.23
832.722	13140.46
833.048	13093.91
833.374	13116.51
833.7	13071.53
834.026	13097.07
834.351	13093.23
834.677	13024.98
835.003	13151.31
835.329	13024.53
835.654	13047.58
835.98	12950.63
836.306	13021.82
836.631	12905.89
836.956	12995.15
837.282	12933.01
837.607	12897.75
837.932	12901.82
838.258	12946.57
838.583	12847.59
838.908	12827.7
839.233	12839
839.558	12814.37
839.883	12728.49
840.208	12752.45
840.533	12628.38
840.858	12609.63
841.182	12661.38
841.507	12643.07
841.832	12516.3
842.156	12543.87
842.481	12547.93
842.805	12510.42
843.13	12464.32
843.454	12494.15
843.778	12332.57
844.103	12429.29
844.427	12301.84
844.751	12396.52
845.075	12260.71
845.399	12307.94
845.723	12160.6
846.047	12250.54
846.371	12086.02
846.695	12123.76
847.019	12039.25
847.343	11939.36
847.666	11933.49
847.99	11898.46
848.313	11874.28
848.637	11791.57
848.96	11712.93
849.284	11692.36
849.607	11661.85
849.931	11643.1
850.254	11601.52
850.577	11450.56
850.9	11405.59
851.223	11383.9
851.546	11326.04
851.869	11267.74
852.192	11357.46
852.515	11198.14
852.838	11249.44
853.161	11166.95
853.483	11144.58
853.806	11034.07
854.129	11090.12
854.451	11017.8
854.774	11012.15
855.096	10996.11
855.419	10893.29
855.741	10897.35
856.063	10851.93
856.385	10788.66
856.708	10731.03
857.03	10722.67
857.352	10697.13
857.674	10704.59
857.996	10606.06
858.318	10586.18
858.64	10585.27
858.961	10576.46
859.283	10470.47
859.605	10415.11
859.926	10537.82
860.248	10457.37
860.57	10363.81
860.891	10386.41
861.212	10328.33
861.534	10350.25
861.855	10286.98
862.176	10346.41
862.498	10286.98
862.819	10312.51
863.14	10192.29
863.461	10206.98
863.782	10141.67
864.103	10158.39
864.424	10097.6
864.745	10149.58
865.065	10068.45
865.386	10091.73
865.707	10061.67
866.027	10080.88
866.348	10099.18
866.668	10021.67
866.989	9967.44
867.309	9912.07
867.63	9909.58
867.95	9943.71
868.27	9914.1
868.59	9831.17
868.91	9841.11
869.23	9884.95
869.55	9840.66
869.87	9886.53
870.19	9831.17
870.51	9786.42
870.83	9798.17
871.15	9766.99
871.469	9761.11
871.789	9775.8
872.109	9729.02
872.428	9677.95
872.748	9721.11
873.067	9635.69
873.386	9686.31
873.706	9666.43
874.025	9555.02
874.344	9588.91
874.663	9606.54
874.982	9574.23
875.301	9562.93
875.62	9509.59
875.939	9567.22
876.258	9497.39
876.577	9445.64
876.896	9511.4
877.214	9460.1
877.533	9425.75
877.852	9472.99
878.17	9453.32
878.489	9462.36
878.807	9424.17
879.125	9367
879.444	9390.5
879.762	9372.42
880.08	9353.67
880.398	9327.45
880.716	9360.67
881.034	9294.91
881.352	9260.56
881.67	9267.79
881.988	9228.47
882.306	9154.8
882.624	9183.28
882.941	9148.93
883.259	9151.41
883.577	9185.54
883.894	9093.79
884.212	9045.88
884.529	9043.84
884.846	8984.64
885.164	9080
885.481	8995.94
885.798	9032.09
886.115	8901.02
886.432	8923.17
886.75	8875.94
887.067	8925.2
887.383	8851.98
887.7	8862.15
888.017	8758.65
888.334	8805.21
888.651	8800.01
888.967	8746.9
889.284	8724.3
889.6	8726.56
889.917	8679.11
890.233	8681.14
890.55	8616.28
890.866	8649.73
891.182	8574.48
891.498	8529.73
891.815	8508.49
892.131	8525.21
892.447	8449.06
892.763	8443.18
893.079	8399.34
893.395	8402.51
893.71	8349.85
894.026	8354.82
894.342	8294.26
894.657	8245.45
894.973	8306.91
895.289	8250.87
895.604	8244.54
895.92	8188.73
896.235	8135.85
896.55	8103.53
896.865	8162.06
897.181	8134.26
897.496	8103.3
897.811	8055.4
898.126	8006.58
898.441	7995.51
898.756	7973.82
899.071	7914.38
899.386	7955.74
899.7	7874.84
900.015	7843.2
900.33	7723.65
900.644	7839.13
900.959	7776.76
901.273	7762.75
901.588	7729.98
901.902	7670.77
902.216	7601.62
902.531	7600.72
902.845	7607.27
903.159	7591
903.473	7533.38
903.787	7484.11
904.101	7453.15
904.415	7450.89
904.729	7361.63
905.042	7313.49
905.356	7371.35
905.67	7348.3
905.984	7247.73
906.297	7251.35
906.611	7256.32
906.924	7244.8
907.237	7185.14
907.551	7127.06
907.864	7121.63
908.177	7126.38
908.491	7123.22
908.804	7092.93
909.117	6988.98
909.43	6986.05
909.743	6949.66
910.056	6998.47
910.368	6896.56
910.681	6891.36
910.994	6885.26
911.307	6831.25
911.619	6797.12
911.932	6799.38
912.244	6718.93
912.557	6788.76
912.869	6724.58
913.181	6664.92
913.494	6673.96
913.806	6579.05
914.118	6629.22
914.43	6523.23
914.742	6591.25
915.054	6522.78
915.366	6447.98
915.678	6451.14
915.99	6492.95
916.302	6358.49
916.613	6392.16
916.925	6325.27
917.236	6350.13
917.548	6297.25
917.859	6278.95
918.171	6245.95
918.482	6207.08
918.794	6184.71
919.105	6184.94
919.416	6157.82
919.727	6124.37
920.038	6086.86
920.349	6065.84
920.66	6083.47
920.971	6088.44
921.282	5992.4
921.593	5946.52
921.903	5934.55
922.214	5917.82
922.525	5909.01
922.835	5897.26
923.146	5811.84
923.456	5810.26
923.767	5780.65
924.077	5779.07
924.387	5748.11
924.697	5705.85
925.008	5690.49
925.318	5686.87
925.628	5633.99
925.938	5634.67
926.248	5620.66
926.558	5521.9
926.867	5530.72
927.177	5501.11
927.487	5439.19
927.796	5424.73
928.106	5464.5
928.416	5487.33
928.725	5445.52
929.034	5374.79
929.344	5364.84
929.653	5381.79
929.962	5310.38
930.271	5258.86
930.581	5264.96
930.89	5247.11
931.199	5283.27
931.508	5218.63
931.817	5221.57
932.125	5130.95
932.434	5146.55
932.743	5074.01
933.051	5075.36
933.36	5042.14
933.669	5045.76
933.977	5029.26
934.286	5034.01
934.594	4987.23
934.902	4942.26
935.21	4953.78
935.519	4946.32
935.827	4951.07
936.135	4887.12
936.443	4845.08
936.751	4838.98
937.059	4804.18
937.367	4818.64
937.674	4812.54
937.982	4770.06
938.29	4780.68
938.597	4722.38
938.905	4654.81
939.213	4638.76
939.52	4644.19
939.827	4675.6
940.135	4608.71
940.442	4640.57
940.749	4592.44
941.056	4562.61
941.363	4537.97
941.67	4535.26
941.977	4485.55
942.284	4481.03
942.591	4420.01
942.898	4458.43
943.205	4453.23
943.511	4441.03
943.818	4403.74
944.125	4394.7
944.431	4368.49
944.738	4355.83
945.044	4325.78
945.35	4280.81
945.657	4258.89
945.963	4254.82
946.269	4220.92
946.575	4247.59
946.881	4230.64
947.187	4205.1
947.493	4204.65
947.799	4167.59
948.105	4149.51
948.41	4123.97
948.716	4112.22
949.022	4008.95
949.327	4069.06
949.633	4054.6
949.938	4062.96
950.244	4034.48
950.549	4039.23
950.854	3954.03
951.16	3973.02
951.465	3963.75
951.77	3921.49
952.075	3884.21
952.38	3908.39
952.685	3890.99
952.99	3860.93
953.294	3886.92
953.599	3833.36
953.904	3819.12
954.209	3819.12
954.513	3792.68
954.818	3790.2
955.122	3747.03
955.426	3759.24
955.731	3723.76
956.035	3701.84
956.339	3687.83
956.643	3686.02
956.948	3643.53
957.252	3646.02
957.556	3629.75
957.86	3610.31
958.163	3626.13
958.467	3625.23
958.771	3559.02
959.075	3550.43
959.378	3530.09
959.682	3529.64
959.985	3503.42
960.289	3488.06
960.592	3504.78
960.896	3487.38
961.199	3408.74
961.502	3404.67
961.805	3400.83
962.108	3381.17
962.411	3403.77
962.714	3390.21
963.017	3359.47
963.32	3340.27
963.623	3313.83
963.926	3327.16
964.228	3286.93
964.531	3303.2
964.833	3234.28
965.136	3243.32
965.438	3243.54
965.741	3215.97
966.043	3199.7
966.345	3204.45
966.648	3156.99
966.95	3154.28
967.252	3136.2
967.554	3156.77
967.856	3142.3
968.158	3122.87
968.46	3094.85
968.761	3090.55
969.063	3088.75
969.365	3052.36
969.666	3051.23
969.968	3027.05
970.269	3025.92
970.571	3018.01
970.872	3001.52
971.174	2996.32
971.475	2980.5
971.776	2969.2
972.077	2924.68
972.378	2975.08
972.679	2902.76
972.98	2899.6
973.281	2919.49
973.582	2889.66
973.883	2876.32
974.183	2848.53
974.484	2855.31
974.785	2873.84
975.085	2799.94
975.386	2807.4
975.686	2784.8
975.986	2787.29
976.287	2788.19
976.587	2754.97
976.887	2749.55
977.187	2734.63
977.487	2731.02
977.787	2695.31
978.087	2695.54
978.387	2677.68
978.687	2662.77
978.987	2661.64
979.286	2632.26
979.586	2613.96
979.885	2619.61
980.185	2619.15
980.484	2616.22
980.784	2577.12
981.083	2571.7
981.382	2559.72
981.682	2594.97
981.981	2571.25
982.28	2510.68
982.579	2497.12
982.878	2533.05
983.177	2543.68
983.475	2496.9
983.774	2459.84
984.073	2474.07
984.372	2467.75
984.67	2452.61
984.969	2465.49
985.267	2438.37
985.566	2442.89
985.864	2445.83
986.162	2425.71
986.461	2379.61
986.759	2395.88
987.057	2343.91
987.355	2372.38
987.653	2369.22
987.951	2360.63
988.249	2339.16
988.547	2300.97
988.844	2314.76
989.142	2295.77
989.44	2307.98
989.737	2272.04
990.035	2267.3
990.332	2274.76
990.63	2234.08
990.927	2260.52
991.224	2229.56
991.521	2216.45
991.819	2171.26
992.116	2219.39
992.413	2187.75
992.71	2178.94
993.006	2169.45
993.303	2145.27
993.6	2174.87
993.897	2131.48
994.193	2164.48
994.49	2120.18
994.787	2085.61
995.083	2074.99
995.379	2115.89
995.676	2053.75
995.972	2053.97
996.268	2071.15
996.565	2058.72
996.861	1989.34
997.157	2044.25
997.453	2033.41
997.749	2025.27
998.044	1976.46
998.34	1969.91
998.636	1968.55
998.932	1998.83
999.227	1947.08
999.523	1954.54
999.818	1959.28
1000.114	1900.08
1000.409	1941.21
1000.704	1917.93
1001	1868.89
1001.295	1880.87
1001.59	1872.51
1001.885	1860.98
1002.18	1878.16
1002.475	1855.11
1002.77	1853.52
1003.065	1834.09
1003.359	1808.78
1003.654	1822.11
1003.949	1816.92
1004.243	1790.02
1004.538	1792.51
1004.832	1766.97
1005.127	1762
1005.421	1750.7
1005.715	1741.66
1006.009	1747.76
1006.304	1752.96
1006.598	1710.7
1006.892	1757.03
1007.186	1694.21
1007.48	1698.95
1007.773	1685.17
1008.067	1644.04
1008.361	1654.89
1008.655	1673.19
1008.948	1628.22
1009.242	1636.81
1009.535	1623.25
1009.829	1622.34
1010.122	1626.86
1010.415	1611.72
1010.708	1583.93
1011.001	1581.22
1011.295	1562.68
1011.588	1567.88
1011.881	1551.39
1012.173	1543.93
1012.466	1535.12
1012.759	1555.23
1013.052	1553.19
1013.344	1521.56
1013.637	1519.07
1013.93	1450.82
1014.222	1505.96
1014.514	1494.66
1014.807	1492.63
1015.099	1435.23
1015.391	1442.24
1015.683	1452.63
1015.976	1433.42
1016.268	1435.91
1016.56	1419.64
1016.851	1430.71
1017.143	1411.95
1017.435	1388.9
1017.727	1374.67
1018.018	1376.02
1018.31	1374.44
1018.602	1367.44
1018.893	1359.75
1019.185	1376.02
1019.476	1310.94
1019.767	1355.91
1020.058	1351.84
1020.35	1317.27
1020.641	1289.7
1020.932	1295.35
1021.223	1289.25
1021.514	1278.4
1021.804	1275.01
1022.095	1282.92
1022.386	1262.81
1022.677	1221.68
1022.967	1254.22
1023.258	1232.52
1023.548	1242.92
1023.839	1213.99
1024.129	1219.42
1024.419	1184.84
1024.709	1188.68
1025	1196.82
1025.29	1192.3
1025.58	1205.18
1025.87	1167.89
1026.16	1144.16
1026.449	1152.3
1026.739	1152.07
1027.029	1131.96
1027.319	1119.98
1027.608	1113.21
1027.898	1084.28
1028.187	1082.02
1028.477	1092.87
1028.766	1098.06
1029.055	1107.33
1029.344	1084.96
1029.634	1072.08
1029.923	1059.42
1030.212	1073.43
1030.501	1064.39
1030.79	1066.43
1031.078	1029.59
1031.367	1009.71
1031.656	1013.55
1031.945	1014.9
1032.233	1004.28
1032.522	1014.45
1032.81	984.85
1033.099	1000.67
1033.387	976.71
1033.675	974.23
1033.963	973.1
1034.251	990.04
1034.54	974
1034.828	969.48
1035.116	956.6
1035.403	982.14
1035.691	919.54
1035.979	930.84
1036.267	936.94
1036.554	905.98
1036.842	938.75
1037.129	929.48
1037.417	900.33
1037.704	922.48
1037.992	909.82
1038.279	906.43
1038.566	903.95
1038.853	903.95
1039.14	903.95
