Data from hue_310_FLMS001491_54.txt Node
Date: Mon Feb 06 15:49:52 GMT 2017
User: dcchb
Spectrometer: FLMS00149
Trigger mode: 0
Integration Time (sec): 2.000000E-2
Scans to average: 10
Electric dark correction enabled: true
Nonlinearity correction enabled: false
Boxcar width: 0
XAxis mode: Wavelengths
Number of Pixels in Spectrum: 2048
>>>>>Begin Spectral Data<<<<<
341.393	-7.91
341.776	-7.91
342.16	-7.91
342.543	-64.18
342.927	-74.57
343.31	-81.81
343.693	-56.95
344.077	-53.78
344.46	-59.21
344.843	-63.73
345.226	-44.29
345.61	-28.93
345.993	-6.33
346.376	-9.49
346.759	4.07
347.142	22.15
347.525	52.2
347.908	49.72
348.291	61.24
348.674	85.2
349.057	129.94
349.44	121.58
349.823	140.11
350.206	165.87
350.588	186.89
350.971	212.88
351.354	239.54
351.737	226.89
352.119	274.57
352.502	259.2
352.884	252.42
353.267	275.02
353.65	290.84
354.032	285.87
354.414	284.51
354.797	312.08
355.179	316.15
355.562	314.34
355.944	351.18
356.326	347.34
356.709	329.48
357.091	343.27
357.473	332.65
357.855	339.43
358.238	329.03
358.62	328.13
359.002	351.18
359.384	343.72
359.766	328.8
360.148	340.78
360.53	337.62
360.912	320.9
361.294	337.62
361.676	310.27
362.057	324.29
362.439	332.87
362.821	329.71
363.203	322.48
363.584	318.41
363.966	346.43
364.348	318.64
364.729	311.63
365.111	320.9
365.493	332.65
365.874	317.73
366.256	312.99
366.637	306.88
367.019	319.77
367.4	308.92
367.781	304.62
368.163	325.87
368.544	303.04
368.925	296.04
369.306	312.76
369.688	303.04
370.069	302.36
370.45	301.01
370.831	307.79
371.212	331.52
371.593	337.84
371.974	319.31
372.355	299.88
372.736	315.02
373.117	338.75
373.498	310.5
373.879	310.73
374.26	305.53
374.641	326.77
375.021	312.99
375.402	332.19
375.783	332.87
376.163	330.61
376.544	336.71
376.925	337.84
377.305	340.56
377.686	351.4
378.066	310.73
378.447	312.99
378.827	331.52
379.208	315.47
379.588	335.36
379.968	327.67
380.349	332.19
380.729	338.75
381.109	351.63
381.489	345.98
381.87	346.21
382.25	338.07
382.63	334.45
383.01	332.87
383.39	342.36
383.77	330.61
384.15	353.44
384.53	323.83
384.91	355.47
385.29	341.46
385.67	359.09
386.049	367.45
386.429	360.44
386.809	358.18
387.189	325.64
387.568	359.31
387.948	346.21
388.328	372.87
388.707	367.67
389.087	345.75
389.466	374.45
389.846	372.87
390.225	371.06
390.605	376.26
390.984	385.53
391.363	373.78
391.743	371.52
392.122	377.39
392.501	355.7
392.881	378.07
393.26	379.88
393.639	382.81
394.018	370.84
394.397	378.3
394.776	387.11
395.155	401.12
395.534	390.95
395.913	377.39
396.292	395.92
396.671	406.32
397.05	399.54
397.429	410.16
397.808	394.11
398.186	396.83
398.565	388.92
398.944	422.36
399.323	415.58
399.701	400.67
400.08	409.03
400.458	404.28
400.837	415.58
401.215	420.33
401.594	410.38
401.972	421.91
402.351	427.79
402.729	429.37
403.107	417.62
403.486	438.18
403.864	421.01
404.242	433.89
404.62	431.18
404.999	436.82
405.377	425.98
405.755	448.8
406.133	428.69
406.511	459.87
406.889	484.73
407.267	481.34
407.645	480.44
408.023	467.56
408.401	464.17
408.779	462.59
409.156	476.15
409.534	510.5
409.912	502.59
410.29	507.33
410.667	516.6
411.045	525.41
411.422	512.08
411.8	512.75
412.178	545.07
412.555	564.73
412.933	556.37
413.31	546.2
413.687	588.01
414.065	579.19
414.442	567.44
414.819	604.5
415.197	591.17
415.574	627.33
415.951	622.36
416.328	599.98
416.705	621.23
417.082	635.01
417.46	651.96
417.837	660.32
418.214	654.9
418.591	683.6
418.967	691.96
419.344	698.74
419.721	691.96
420.098	684.73
420.475	718.63
420.852	699.64
421.228	722.69
421.605	728.12
421.982	753.88
422.358	765.63
422.735	773.99
423.111	790.49
423.488	798.17
423.864	776.93
424.241	810.37
424.617	817.15
424.994	818.06
425.37	822.35
425.746	831.39
426.123	827.1
426.499	824.16
426.875	849.47
427.251	869.36
427.627	891.5
428.003	895.8
428.379	900.99
428.756	907.77
429.132	920.43
429.507	945.29
429.883	941.22
430.259	975.57
430.635	975.57
431.011	974.89
431.387	978.73
431.763	1002.23
432.138	993.42
432.514	987.77
432.89	1020.31
433.265	1019.86
433.641	1052.18
434.016	1054.44
434.392	1068.67
434.767	1086.75
435.143	1096.69
435.518	1117.26
435.894	1125.62
436.269	1140.76
436.644	1160.42
437.02	1162.23
437.395	1190.93
437.77	1192.51
438.145	1207.43
438.52	1193.87
438.895	1204.26
439.271	1205.84
439.646	1244.94
440.021	1238.16
440.395	1263.47
440.77	1245.39
441.145	1249.91
441.52	1291.27
441.895	1271.83
442.27	1271.38
442.645	1300.98
443.019	1298.95
443.394	1312.96
443.769	1314.32
444.143	1319.97
444.518	1322.45
444.892	1314.32
445.267	1343.47
445.641	1326.74
446.016	1347.08
446.39	1352.05
446.764	1352.73
447.139	1357.48
447.513	1403.8
447.887	1396.35
448.262	1375.56
448.636	1396.57
449.01	1391.83
449.384	1396.8
449.758	1393.86
450.132	1428.66
450.506	1446.74
450.88	1424.14
451.254	1422.56
451.628	1435.22
452.002	1433.18
452.376	1424.14
452.75	1450.58
453.123	1490.81
453.497	1493.07
453.871	1479.28
454.244	1499.62
454.618	1536.46
454.992	1521.77
455.365	1526.97
455.739	1564.25
456.112	1606.74
456.486	1561.31
456.859	1580.75
457.232	1622.33
457.606	1600.18
457.979	1621.43
458.352	1621.2
458.725	1637.92
459.099	1634.99
459.472	1678.6
459.845	1693.06
460.218	1693.74
460.591	1713.85
460.964	1735.32
461.337	1734.64
461.71	1772.16
462.083	1794.76
462.456	1807.86
462.829	1766.51
463.201	1791.82
463.574	1797.01
463.947	1828.65
464.32	1858.26
464.692	1841.53
465.065	1892.38
465.438	1905.03
465.81	1904.81
466.183	1912.49
466.555	1957.91
466.928	1933.51
467.3	1962.21
467.672	1973.51
468.045	2007.4
468.417	2000.17
468.789	2023.68
469.161	2046.05
469.534	2051.02
469.906	2089.21
470.278	2105.71
470.65	2107.74
471.022	2154.97
471.394	2181.19
471.766	2182.77
472.138	2189.32
472.51	2210.34
472.882	2242.65
473.253	2265.03
473.625	2287.85
473.997	2326.49
474.369	2332.14
474.74	2329.66
475.112	2386.83
475.484	2401.52
475.855	2425.7
476.227	2447.39
476.598	2475.19
476.97	2514.51
477.341	2555.41
477.713	2588.41
478.084	2593.15
478.455	2646.03
478.827	2662.53
479.198	2685.58
479.569	2718.35
479.94	2734.62
480.311	2777.1
480.682	2812.58
481.053	2855.52
481.424	2891.22
481.795	2892.13
482.166	2951.79
482.537	2971.67
482.908	3001.05
483.279	3023.65
483.65	3042.63
484.021	3128.51
484.391	3125.57
484.762	3184.78
485.133	3197.2
485.503	3195.62
485.874	3264.55
486.244	3290.99
486.615	3322.4
486.985	3333.02
487.356	3398.33
487.726	3448.27
488.097	3441.27
488.467	3476.07
488.837	3536.63
489.207	3558.78
489.578	3595.84
489.948	3593.35
490.318	3642.62
490.688	3661.15
491.058	3659.34
491.428	3730.75
491.798	3750.18
492.168	3813.46
492.538	3857.53
492.908	3864.76
493.278	3909.73
493.648	3931.87
494.017	3960.57
494.387	3937.98
494.757	3969.16
495.126	4036.96
495.496	4043.74
495.866	4064.98
496.235	4102.49
496.605	4038.99
496.974	4121.47
497.344	4130.74
497.713	4160.57
498.082	4167.57
498.452	4245.31
498.821	4224.97
499.19	4196.27
499.559	4228.82
499.928	4295.25
500.298	4260.9
500.667	4342.48
501.036	4352.43
501.405	4357.17
501.774	4344.74
502.143	4414.12
502.512	4394.01
502.88	4459.54
503.249	4435.82
503.618	4420.9
503.987	4472.42
504.356	4514.91
504.724	4494.35
505.093	4521.24
505.462	4528.24
505.83	4528.02
506.199	4565.53
506.567	4648.01
506.936	4603.27
507.304	4687.79
507.672	4616.38
508.041	4682.81
508.409	4663.15
508.777	4709.48
509.145	4784.51
509.514	4739.99
509.882	4781.57
510.25	4775.47
510.618	4789.93
510.986	4816.82
511.354	4804.62
511.722	4892.07
512.09	4861.79
512.458	4834.45
512.826	4859.99
513.193	4893.66
513.561	4937.72
513.929	4920.1
514.297	4958.74
514.664	5009.81
515.032	4968.46
515.4	4998.74
515.767	5023.37
516.135	5042.81
516.502	5014.11
516.869	5070.38
517.237	5088
517.604	5023.82
517.972	5132.97
518.339	5133.65
518.706	5120.77
519.073	5124.61
519.44	5120.32
519.808	5168
520.175	5126.64
520.542	5264.27
520.909	5261.1
521.276	5219.75
521.643	5277.6
522.009	5282.35
522.376	5282.35
522.743	5332.74
523.11	5398.95
523.477	5358.05
523.843	5394.89
524.21	5440.76
524.577	5437.82
524.943	5532.74
525.31	5490.25
525.676	5583.58
526.043	5594.43
526.409	5596.91
526.776	5650.47
527.142	5673.52
527.508	5688.89
527.874	5782.9
528.241	5753.52
528.607	5775.67
528.973	5840.07
529.339	5792.16
529.705	5838.04
530.071	5834.2
530.437	5896.79
530.803	5925.49
531.169	5972.5
531.535	6001.65
531.901	5970.46
532.267	6007.07
532.632	6044.59
532.998	6009.11
533.364	6064.02
533.73	6113.74
534.095	6170.69
534.461	6141.53
534.826	6218.82
535.192	6210.68
535.557	6287.74
535.923	6313.28
536.288	6308.31
536.653	6345.37
537.019	6326.16
537.384	6344.69
537.749	6380.62
538.114	6438.02
538.479	6451.36
538.845	6441.41
539.21	6448.42
539.575	6503.56
539.94	6530.45
540.305	6549.88
540.67	6584.46
541.034	6604.12
541.399	6618.36
541.764	6627.4
542.129	6715.76
542.494	6708.52
542.858	6754.62
543.223	6728.41
543.587	6759.14
543.952	6806.37
544.316	6816.32
544.681	6858.12
545.045	6878.01
545.41	6982.42
545.774	7001.17
546.138	6963.88
546.503	7022.87
546.867	7017.22
547.231	7054.05
547.595	7056.09
547.959	7129.53
548.324	7145.12
548.688	7127.27
549.052	7215.86
549.416	7155.97
549.779	7205.01
550.143	7280.49
550.507	7298.34
550.871	7289.3
551.235	7300.37
551.599	7335.63
551.962	7327.26
552.326	7354.83
552.689	7435.96
553.053	7402.74
553.417	7412.69
553.78	7550.99
554.143	7537.2
554.507	7518.45
554.87	7547.37
555.234	7601.16
555.597	7562.74
555.96	7632.34
556.323	7658.56
556.686	7669.4
557.05	7609.97
557.413	7731.1
557.776	7766.8
558.139	7797.08
558.502	7785.78
558.865	7786.46
559.228	7798.44
559.59	7847.03
559.953	7838.66
560.316	7946.46
560.679	7909.17
561.041	8023.97
561.404	7999.11
561.767	8027.81
562.129	8026.46
562.492	8009.51
562.854	8079.11
563.217	8021.48
563.579	8080.01
563.941	8138.77
564.304	8195.72
564.666	8215.15
565.028	8255.6
565.39	8336.96
565.753	8268.71
566.115	8304.19
566.477	8324.07
566.839	8348.26
567.201	8434.35
567.563	8432.77
567.925	8534.46
568.287	8493.79
568.648	8501.92
569.01	8593.45
569.372	8633.45
569.734	8653.78
570.095	8617.17
570.457	8753.44
570.819	8741.01
571.18	8740.34
571.542	8815.36
571.903	8888.58
572.265	8847.23
572.626	8879.09
572.987	8941.69
573.349	9041.12
573.71	9061.46
574.071	9110.27
574.432	9179.42
574.794	9277.72
575.155	9295.35
575.516	9260.32
575.877	9396.59
576.238	9500.77
576.599	9571.5
576.96	9646.3
577.32	9720.2
577.681	9774.43
578.042	9874.09
578.403	9976.69
578.763	10066.4
579.124	10135.33
579.485	10250.35
579.845	10466.17
580.206	10477.46
580.566	10670.23
580.927	10747.29
581.287	10932.37
581.648	10995.42
582.008	11146.15
582.368	11291.68
582.728	11490.32
583.089	11652.57
583.449	11735.96
583.809	11972.34
584.169	12169.62
584.529	12340.92
584.889	12648.71
585.249	12749.5
585.609	12947.23
585.969	13270.84
586.329	13413.43
586.688	13583.15
587.048	13856.58
587.408	14041.66
587.768	14264.03
588.127	14571.59
588.487	14854.98
588.846	15093.61
589.206	15389.43
589.565	15593.26
589.925	15996.42
590.284	16125.45
590.643	16446.8
591.003	16807.69
591.362	17142.83
591.721	17352.76
592.08	17597.96
592.44	17999.98
592.799	18322.23
593.158	18507.76
593.517	18975.32
593.876	19198.14
594.235	19377.34
594.593	19762.87
594.952	20078.79
595.311	20303.87
595.67	20694.15
596.029	21037.86
596.387	21364.41
596.746	21816.38
597.104	22012.53
597.463	22320.77
597.822	22746.97
598.18	22836.91
598.538	23342.66
598.897	23597.35
599.255	23724.8
599.613	24309.87
599.972	24481.62
600.33	24896.07
600.688	24948.72
601.046	25488.37
601.404	25837.74
601.762	25915.93
602.12	26371.96
602.478	26725.17
602.836	26951.16
603.194	27096.91
603.552	27358.83
603.91	27502.33
604.268	27913.39
604.625	28103.44
604.983	28521.74
605.341	28640.83
605.698	29000.14
606.056	29308.38
606.413	29458.89
606.771	29984.75
607.128	30092.77
607.485	30262.03
607.843	30534.79
608.2	30874.22
608.557	31163.93
608.914	31259.74
609.272	31793.06
609.629	32021.53
609.986	32295.42
610.343	32212.03
610.7	32659.93
611.057	32859.02
611.414	33067.83
611.771	33233.48
612.127	33454.49
612.484	33780.35
612.841	33955.72
613.198	34037.98
613.554	34171.98
613.911	34481.35
614.267	34656.04
614.624	34842.02
614.98	34948.23
615.337	35265.29
615.693	35345.29
616.05	35557.71
616.406	35851.71
616.762	35734.43
617.118	35958.6
617.475	35958.83
617.831	36344.36
618.187	36444.47
618.543	36602.88
618.899	36985.47
619.255	37219.36
619.611	37059.14
619.967	37395.63
620.323	37492.8
620.678	37568.5
621.034	37425.23
621.39	37675.39
621.746	37634.04
622.101	38287.81
622.457	37973.24
622.812	38188.15
623.168	38351.31
623.523	38463.17
623.879	38620.91
624.234	38450.97
624.589	38651.41
624.945	38797.85
625.3	38872.88
625.655	38837.85
626.01	39124.62
626.365	39230.83
626.72	39131.63
627.075	39257.27
627.43	39161
627.785	39201.68
628.14	39313.54
628.495	39603.7
628.85	39556.02
629.205	39499.75
629.559	39814.77
629.914	39579.52
630.269	39699.97
630.623	39769.58
630.978	39612.97
631.332	39845.05
631.687	40013.41
632.041	39896.8
632.396	40112.84
632.75	40000.76
633.104	40092.96
633.459	39958.27
633.813	39934.54
634.167	39918.27
634.521	40011.38
634.875	40125.5
635.229	40094.31
635.583	39869.01
635.937	40036.91
636.291	39947.88
636.645	39953.53
636.999	39929.12
637.352	40135.67
637.706	39900.19
638.06	40100.41
638.413	39955.79
638.767	39977.93
639.121	40084.6
639.474	39874.21
639.828	39871.27
640.181	39851.16
640.534	39963.02
640.888	39879.86
641.241	39810.25
641.594	39838.95
641.947	39880.99
642.301	39769.8
642.654	39869.69
643.007	39835.79
643.36	39713.98
643.713	39716.7
644.066	40047.08
644.419	39652.52
644.771	39344.5
645.124	39035.81
645.477	39100.21
645.83	38856.15
646.182	38879.2
646.535	38699.32
646.888	38758.98
647.24	38531.42
647.593	38713.78
647.945	38750.17
648.298	38588.36
648.65	38514.92
649.002	38393.11
649.355	38538.2
649.707	38512.43
650.059	38698.64
650.411	39110.61
650.763	39238.06
651.115	39592.63
651.467	39487.32
651.819	39462.01
652.171	39390.38
652.523	39244.17
652.875	39341.34
653.227	39237.16
653.578	39439.41
653.93	39352.19
654.282	39248.91
654.633	39074
654.985	39358.51
655.337	39235.35
655.688	39353.09
656.039	39403.03
656.391	39072.64
656.742	39280.55
657.094	39202.81
657.445	39296.59
657.796	39077.62
658.147	39006.43
658.498	39074.23
658.849	39061.35
659.2	39134.79
659.551	39109.93
659.902	39230.61
660.253	39070.39
660.604	39199.2
660.955	38921.24
661.306	39051.4
661.656	39051.85
662.007	39018.86
662.358	39024.06
662.708	39005.75
663.059	39027.9
663.409	38756.95
663.76	39070.16
664.11	39036.94
664.461	39018.18
664.811	38925.76
665.161	38911.97
665.511	38861.13
665.862	39030.39
666.212	39003.95
666.562	39103.38
666.912	39076.26
667.262	38974.12
667.612	38872.2
667.962	38898.86
668.312	38856.83
668.662	39070.16
669.011	38946.55
669.361	38934.8
669.711	38785.65
670.06	38757.85
670.41	38776.61
670.76	38801.01
671.109	38993.1
671.459	38844.18
671.808	38760.34
672.157	38871.52
672.507	38580.68
672.856	38596.95
673.205	38618.65
673.554	38777.74
673.904	38533.68
674.253	38932.08
674.602	38620.91
674.951	38209.84
675.3	38271.99
675.649	38609.61
675.998	38396.73
676.346	38471.08
676.695	38671.53
677.044	38371.42
677.393	38559.44
677.741	38568.93
678.09	38545.2
678.438	38329.16
678.787	38463.62
679.135	38476.73
679.484	38208.49
679.832	38457.97
680.181	38105.44
680.529	38191.09
680.877	38086.68
681.225	38218.88
681.573	38269.05
681.922	38058.21
682.27	37930.08
682.618	38078.09
682.966	37937.08
683.314	37973.01
683.661	37860.25
684.009	37690.76
684.357	37590.65
684.705	37470.43
685.053	37605.34
685.4	37475.85
685.748	37488.28
686.095	37320.6
686.443	37327.61
686.79	37332.8
687.138	37301.84
687.485	37246.48
687.832	37084.67
688.18	37208.06
688.527	36848.75
688.874	37075.86
689.221	36939.59
689.568	36776.66
689.915	36678.58
690.262	36709.54
690.609	36592.26
690.956	36435.43
691.303	36477.01
691.65	36318.82
691.997	36338.25
692.344	36124.7
692.69	36076.11
693.037	36043.57
693.383	35813.75
693.73	35904.37
694.077	35763.81
694.423	35763.81
694.769	35631.61
695.116	35590.48
695.462	35469.58
695.808	35336.47
696.155	35421.22
696.501	35197.72
696.847	35199.3
697.193	34973.09
697.539	35098.06
697.885	34839.54
698.231	34821.01
698.577	34692.65
698.923	34757.96
699.269	34557.06
699.614	34421.02
699.96	34249.04
700.306	34425.54
700.651	34193.23
700.997	34035.94
701.342	34055.38
701.688	34027.35
702.033	33907.81
702.379	33766.8
702.724	33718.89
703.069	33859.22
703.415	33468.72
703.76	33396.18
704.105	33570.19
704.45	33467.14
704.795	33265.11
705.14	33082.52
705.485	33167.26
705.83	32952.81
706.175	33096.3
706.52	32880.94
706.865	32828.29
707.209	32829.65
707.554	32548.97
707.899	32755.52
708.243	32665.13
708.588	32579.93
708.932	32337.91
709.277	32233.5
709.621	32409.54
709.966	32049.78
710.31	32288.42
710.654	32014.98
710.998	31934.98
711.342	31857.92
711.687	31842.78
712.031	31723.91
712.375	31621.99
712.719	31627.87
713.063	31610.92
713.407	31709.67
713.75	31503.35
714.094	31478.49
714.438	31295.9
714.782	31430.36
715.125	31275.11
715.469	31242.34
715.812	31166.41
716.156	31058.62
716.499	30976.13
716.843	31144.72
717.186	30740.21
717.53	30863.82
717.873	30921.67
718.216	30871.73
718.559	30736.59
718.902	30484.17
719.246	30607.33
719.589	30513.32
719.932	30315.36
720.275	30293.44
720.617	30398.07
720.96	30241.69
721.303	30265.42
721.646	30294.12
721.989	30085.54
722.331	30117.63
722.674	30171.18
723.016	30119.89
723.359	29962.38
723.701	30048.25
724.044	29788.37
724.386	29660.46
724.729	29856.84
725.071	29719.9
725.413	29720.35
725.755	29645.1
726.097	29552.22
726.439	29405.55
726.782	29435.84
727.124	29461.6
727.465	29343.41
727.807	29338.89
728.149	29331.88
728.491	29239.68
728.833	29274.94
729.175	29053.47
729.516	28996.3
729.858	29029.52
730.199	29025.9
730.541	29104.55
730.882	28962.4
731.224	28954.04
731.565	28879.24
731.906	28851.44
732.248	28766.25
732.589	28732.8
732.93	28479.25
733.271	28551.57
733.612	28598.8
733.953	28610.77
734.294	28439.25
734.635	28468.4
734.976	28431.34
735.317	28313.83
735.658	28309.54
735.999	28323.78
736.339	28212.14
736.68	28352.47
737.021	28253.27
737.361	28078.13
737.702	28173.5
738.042	28130.33
738.383	28113.61
738.723	28108.87
739.063	27979.83
739.404	28069.32
739.744	27925.59
740.084	27853.5
740.424	27927.85
740.764	27835.88
741.104	27858.25
741.444	27742.32
741.784	27690.57
742.124	27596.56
742.464	27627.07
742.804	27552.72
743.143	27358.83
743.483	27519.95
743.823	27312.5
744.162	27446.74
744.502	27371.26
744.841	27154.99
745.181	27331.48
745.52	27180.98
745.86	27228.21
746.199	27001.1
746.538	27031.38
746.877	27098.27
747.216	27103.47
747.556	27006.75
747.895	26987.09
748.234	26840.88
748.573	26900.99
748.911	26815.11
749.25	26886.52
749.589	26571.28
749.928	26700.99
750.267	26773.76
750.605	26527.44
750.944	26602.46
751.283	26439.98
751.621	26607.66
751.96	26281.12
752.298	26348.23
752.636	26410.83
752.975	26281.12
753.313	26013.55
753.651	26206.99
753.989	26159.09
754.327	26027.34
754.666	25878.19
755.004	25972.65
755.342	26019.43
755.679	25829.15
756.017	25700.34
756.355	25782.82
756.693	25648.82
757.031	25620.57
757.368	25591.19
757.706	25514.36
758.044	25467.58
758.381	25420.12
758.719	25244.08
759.056	25238.66
759.394	25185.55
759.731	25034.14
760.068	25069.17
760.405	24944.2
760.743	24817.43
761.08	24799.12
761.417	24710.54
761.754	24623.08
762.091	24574.27
762.428	24457.21
762.765	24355.52
763.102	24412.01
763.438	24233.94
763.775	24228.06
764.112	24208.4
764.449	24202.75
764.785	24233.26
765.122	23958.69
765.458	23786.04
765.795	23929.31
766.131	23807.96
766.467	23758.02
766.804	23630.79
767.14	23476.44
767.476	23600.06
767.812	23503.34
768.148	23386.05
768.485	23199.39
768.821	23146.74
769.157	23088.88
769.492	23050.24
769.828	23053.41
770.164	22873.3
770.5	22857.03
770.836	22811.83
771.171	22624.26
771.507	22612.29
771.842	22478.28
772.178	22430.14
772.513	22364.61
772.849	22305.63
773.184	22152.19
773.519	22127.78
773.855	22205.74
774.19	22018.4
774.525	21900.44
774.86	21811.86
775.195	21721.69
775.53	21667.45
775.865	21706.1
776.2	21463.16
776.535	21255.03
776.87	21342.04
777.205	21277.18
777.539	21106.11
777.874	21256.39
778.209	21009.62
778.543	20931.2
778.878	20860.47
779.212	20756.74
779.547	20658.89
779.881	20840.81
780.215	20580.93
780.55	20605.79
780.884	20457.99
781.218	20441.72
781.552	20427.26
781.886	20237.89
782.22	20183.42
782.554	20038.8
782.888	19959.25
783.222	19916.54
783.556	19789.99
783.889	19668.64
784.223	19637.9
784.557	19633.38
784.89	19689.43
785.224	19426.38
785.557	19422.99
785.891	19303.22
786.224	19328.53
786.558	19291.24
786.891	19100.97
787.224	19103.68
787.557	19065.04
787.891	18961.31
788.224	18921.76
788.557	18902.33
788.89	18810.13
789.223	18889.22
789.556	18609.23
789.888	18614.65
790.221	18487.65
790.554	18409.01
790.887	18366.52
791.219	18246.07
791.552	18312.74
791.884	18129.69
792.217	18110.48
792.549	18129.47
792.882	17926.31
793.214	17931.28
793.546	17909.13
793.879	17740.55
794.211	17722.47
794.543	17749.59
794.875	17708.01
795.207	17710.04
795.539	17664.17
795.871	17537.39
796.203	17377.62
796.535	17446.55
796.867	17276.83
797.198	17285.87
797.53	17159.77
797.862	17148.25
798.193	17125.65
798.525	17057.63
798.856	17056.5
799.188	16850.4
799.519	16822.83
799.85	16640.47
800.182	16717.53
800.513	16664.87
800.844	16517.08
801.175	16591.43
801.506	16535.84
801.837	16494.71
802.168	16463.07
802.499	16362.96
802.83	16308.95
803.161	16200.25
803.491	16219.69
803.822	16219.23
804.153	16072.35
804.483	16060.82
804.814	16000.03
805.145	15944.44
805.475	15875.29
805.805	15872.35
806.136	15872.8
806.466	15820.37
806.796	15866.7
807.126	15656.54
807.457	15642.3
807.787	15637.1
808.117	15520.27
808.447	15474.62
808.777	15607.73
809.107	15501.97
809.436	15442.53
809.766	15360.5
810.096	15329.54
810.426	15235.76
810.755	15363.89
811.085	15212.71
811.414	15181.75
811.744	15035.99
812.073	15124.35
812.403	15010.45
812.732	14915.77
813.061	14947.4
813.39	14854.75
813.719	14796
814.049	14949.66
814.378	14865.6
814.707	14764.13
815.036	14711.25
815.365	14665.83
815.693	14564.36
816.022	14564.36
816.351	14514.87
816.68	14417.02
817.008	14538.15
817.337	14338.15
817.665	14349.45
817.994	14429.9
818.322	14386.06
818.651	14265.84
818.979	14206.63
819.307	14364.82
819.636	14215.9
819.964	14057.71
820.292	14154.66
820.62	14197.59
820.948	14112.85
821.276	14193.3
821.604	14087.99
821.932	14127.54
822.259	14140.65
822.587	14012.96
822.915	14051.83
823.243	14020.2
823.57	14083.47
823.898	14038.73
824.225	13982.23
824.553	13984.49
824.88	13996.02
825.207	14049.8
825.535	14041.89
825.862	14009.35
826.189	13987.65
826.516	14085.73
826.843	14120.31
827.17	14110.82
827.497	14056.35
827.824	14083.7
828.151	14039.63
828.478	14029.01
828.805	14081.44
829.131	14042.57
829.458	14020.42
829.785	14017.03
830.111	13997.82
830.438	14017.71
830.764	14007.54
831.09	14003.47
831.417	13972.74
831.743	14009.8
832.069	13996.92
832.395	13902.91
832.722	13890.48
833.048	13905.62
833.374	13887.54
833.7	13866.53
834.026	13885.74
834.351	13942.23
834.677	13929.35
835.003	13880.99
835.329	13806.64
835.654	13817.49
835.98	13688.91
836.306	13757.38
836.631	13755.34
836.956	13747.44
837.282	13748.57
837.607	13676.25
837.932	13622.01
838.258	13642.58
838.583	13601.9
838.908	13513.09
839.233	13592.41
839.558	13547.21
839.883	13452.53
840.208	13466.54
840.533	13516.71
840.858	13452.53
841.182	13460.66
841.507	13470.61
841.832	13317.84
842.156	13313.1
842.481	13281.68
842.805	13230.39
843.13	13265.87
843.454	13144.74
843.778	13146.32
844.103	13143.16
844.427	13144.97
844.751	13166.43
845.075	12967.34
845.399	13062.71
845.723	12844.86
846.047	12997.4
846.371	12859.1
846.695	12870.4
847.019	12744.3
847.343	12760.79
847.666	12609.84
847.99	12535.49
848.313	12637.63
848.637	12502.95
848.96	12495.72
849.284	12541.59
849.607	12403.52
849.931	12335.95
850.254	12194.93
850.577	12215.5
850.9	12066.35
851.223	12019.12
851.546	11979.8
851.869	11923.75
852.192	12050.53
852.515	11899.12
852.838	11765.11
853.161	11872.23
853.483	11747.04
853.806	11776.41
854.129	11684.89
854.451	11678.79
854.774	11686.47
855.096	11628.39
855.419	11446.03
855.741	11541.39
856.063	11461.17
856.385	11454.61
856.708	11348.18
857.03	11288.74
857.352	11356.31
857.674	11284
857.996	11246.26
858.318	11205.81
858.64	11155.41
858.961	11123.78
859.283	11128.29
859.605	11105.24
859.926	11108.63
860.248	11077.22
860.57	10932.59
860.891	11048.07
861.212	10966.04
861.534	10902.09
861.855	10887.62
862.176	10850.11
862.498	10880.39
862.819	10901.18
863.14	10831.58
863.461	10774.18
863.782	10739.6
864.103	10762.65
864.424	10730.57
864.745	10740.28
865.065	10668.42
865.386	10640.85
865.707	10640.62
866.027	10708.64
866.348	10577.35
866.668	10653.96
866.989	10581.42
867.309	10479.05
867.63	10550.91
867.95	10562.21
868.27	10495.32
868.59	10516.33
868.91	10466.39
869.23	10455.32
869.55	10422.55
869.87	10425.71
870.19	10437.47
870.51	10436.56
870.83	10404.7
871.15	10315.21
871.469	10383.46
871.789	10271.37
872.109	10344.13
872.428	10208.55
872.748	10262.78
873.067	10289.22
873.386	10306.62
873.706	10194.08
874.025	10254.19
874.344	10214.42
874.663	10120.19
874.982	10129.9
875.301	10164.48
875.62	10092.39
875.939	10064.59
876.258	10043.58
876.577	10083.35
876.896	10086.29
877.214	10063.01
877.533	10058.72
877.852	9967.65
878.17	9929.68
878.489	10049
878.807	9973.75
879.125	9938.04
879.444	9896.01
879.762	9860.31
880.08	9886.29
880.398	9833.64
880.716	9869.8
881.034	9803.58
881.352	9818.72
881.67	9768.78
881.988	9784.38
882.306	9780.08
882.624	9711.38
882.941	9658.05
883.259	9667.09
883.577	9628.9
883.894	9643.81
884.212	9607.66
884.529	9637.71
884.846	9510.26
885.164	9530.82
885.481	9441.56
885.798	9555.91
886.115	9415.8
886.432	9433.42
886.75	9448.11
887.067	9443.37
887.383	9372.63
887.7	9424.16
888.017	9328.34
888.334	9310.72
888.651	9328.57
888.967	9272.07
889.284	9224.16
889.6	9225.29
889.917	9178.97
890.233	9196.82
890.55	9104.39
890.866	9177.16
891.182	9052.87
891.498	9111.62
891.815	9100.78
892.131	9022.36
892.447	8959.99
892.763	8951.4
893.079	8903.72
893.395	8875.47
893.71	8886.55
894.026	8884.06
894.342	8844.97
894.657	8809.94
894.973	8760
895.289	8803.16
895.604	8750.5
895.92	8669.6
896.235	8598.19
896.55	8648.81
896.865	8540.57
897.181	8577.4
897.496	8551.64
897.811	8490.4
898.126	8467.57
898.441	8452.43
898.756	8410.85
899.071	8369.05
899.386	8371.31
899.7	8341.48
900.015	8283.62
900.33	8263.51
900.644	8291.31
900.959	8252.44
901.273	8128.6
901.588	8167.02
901.902	8091.09
902.216	8092.89
902.531	8034.59
902.845	8001.37
903.159	7935.61
903.473	7989.62
903.787	7985.33
904.101	7968.38
904.415	7868.49
904.729	7835.05
905.042	7790.76
905.356	7785.11
905.67	7774.94
905.984	7725.67
906.297	7722.73
906.611	7685.22
906.924	7608.61
907.237	7628.73
907.551	7622.17
907.864	7497.43
908.177	7650.42
908.491	7522.29
908.804	7444.55
909.117	7410.2
909.43	7381.73
909.743	7369.75
910.056	7372.24
910.368	7313.25
910.681	7263.54
910.994	7231.45
911.307	7258.34
911.619	7206.14
911.932	7155.29
912.244	7169.98
912.557	7065.8
912.869	7065.8
913.181	7078.01
913.494	7066.93
913.806	6996.2
914.118	6947.39
914.43	6937.67
914.742	6909.87
915.054	6883.21
915.366	6858.35
915.678	6817.67
915.99	6774.06
916.302	6729.54
916.613	6736.55
916.925	6713.72
917.236	6732.03
917.548	6631.01
917.859	6707.62
918.171	6554.4
918.482	6574.52
918.794	6576.1
919.105	6553.05
919.416	6487.96
919.727	6445.25
920.038	6474.41
920.349	6408.42
920.66	6349.89
920.971	6390.11
921.282	6370.68
921.593	6289.33
921.903	6278.03
922.214	6256.11
922.525	6216.56
922.835	6228.99
923.146	6163.23
923.456	6169.33
923.767	6190.12
924.077	6136.79
924.387	6097.01
924.697	6014.76
925.008	6071.93
925.318	5990.58
925.628	6034.87
925.938	5920.97
926.248	5912.16
926.558	5906.74
926.867	5906.06
927.177	5854.99
927.487	5864.03
927.796	5770.7
928.106	5802.33
928.416	5782.22
928.725	5731.6
929.034	5744.03
929.344	5701.32
929.653	5693.41
929.962	5640.98
930.271	5580.42
930.581	5617.71
930.89	5547.42
931.199	5559.4
931.508	5556.24
931.817	5498.16
932.125	5477.37
932.434	5420.42
932.743	5414.77
933.051	5378.39
933.36	5384.72
933.669	5339.75
933.977	5322.8
934.286	5307.43
934.594	5335.9
934.902	5250.03
935.21	5242.12
935.519	5251.39
935.827	5232.63
936.135	5158.96
936.443	5140.2
936.751	5095.23
937.059	5145.63
937.367	5098.17
937.674	5098.85
937.982	5076.48
938.29	5030.15
938.597	5004.84
938.905	4923.26
939.213	4912.87
939.52	4884.84
939.827	4936.14
940.135	4865.18
940.442	4838.97
940.749	4916.25
941.056	4841.68
941.363	4779.54
941.67	4777.5
941.977	4785.86
942.284	4751.29
942.591	4712.19
942.898	4712.87
943.205	4705.19
943.511	4697.5
943.818	4655.24
944.125	4610.73
944.431	4594
944.738	4601.23
945.044	4602.36
945.35	4570.05
945.657	4523.95
945.963	4459.54
946.269	4471.29
946.575	4467.68
946.881	4455.02
947.187	4441.92
947.493	4433.1
947.799	4377.06
948.105	4352.43
948.41	4368.02
948.716	4330.73
949.022	4334.35
949.327	4302.71
949.633	4251.64
949.938	4268.59
950.244	4272.43
950.549	4197.86
950.854	4189.04
951.16	4171.42
951.465	4153.11
951.77	4139.55
952.075	4160.57
952.38	4112.66
952.685	4123.06
952.99	4069.5
953.294	4081.25
953.599	4037.18
953.904	4044.41
954.209	3977.75
954.513	3984.53
954.818	3999.67
955.122	3935.04
955.426	3967.81
955.731	3935.04
956.035	3928.94
956.339	3927.35
956.643	3898.2
956.948	3861.82
957.252	3878.54
957.556	3804.87
957.86	3807.36
958.163	3783.63
958.467	3780.24
958.771	3792.67
959.075	3725.55
959.378	3757.64
959.682	3692.11
959.985	3682.62
960.289	3664.76
960.592	3655.05
960.896	3691.88
961.199	3631.54
961.502	3637.19
961.805	3600.36
962.108	3594.71
962.411	3596.06
962.714	3570.53
963.017	3533.92
963.32	3538.89
963.623	3538.89
963.926	3519.23
964.228	3443.07
964.531	3450.76
964.833	3451.89
965.136	3412.79
965.438	3420.02
965.741	3405.11
966.043	3403.98
966.345	3387.93
966.648	3360.59
966.95	3367.14
967.252	3328.5
967.554	3319.23
967.856	3322.85
968.158	3295.73
968.46	3289.86
968.761	3278.56
969.063	3255.28
969.365	3258.45
969.666	3255.96
969.968	3178.22
970.269	3177.09
970.571	3219.35
970.872	3183.87
971.174	3131.44
971.475	3130.09
971.776	3105.68
972.077	3107.94
972.378	3090.99
972.679	3090.09
972.98	3067.26
973.281	3040.37
973.582	3059.35
973.883	3039.92
974.183	2996.98
974.484	2994.05
974.785	2992.92
975.085	2976.87
975.386	2991.79
975.686	2908.85
975.986	2942.75
976.287	2936.19
976.587	2875.86
976.887	2885.57
977.187	2880.6
977.487	2907.49
977.787	2851.68
978.087	2851.45
978.387	2848.96
978.687	2847.16
978.987	2814.84
979.286	2792.69
979.586	2787.95
979.885	2764.9
980.185	2751.34
980.484	2782.75
980.784	2726.93
981.083	2727.16
981.382	2690.32
981.682	2717.22
981.981	2706.14
982.28	2721.96
982.579	2683.77
982.878	2652.81
983.177	2647.39
983.475	2640.38
983.774	2610.33
984.073	2612.13
984.372	2647.39
984.67	2594.73
984.969	2563.1
985.267	2571.46
985.566	2550.67
985.864	2529.65
986.162	2535.75
986.461	2552.7
986.759	2530.1
987.057	2512.48
987.355	2475.19
987.653	2513.83
987.951	2460.05
988.249	2472.7
988.547	2447.39
988.844	2446.26
989.142	2438.58
989.44	2411.46
989.737	2402.87
990.035	2392.93
990.332	2397
990.63	2370.33
990.927	2348.41
991.224	2366.94
991.521	2326.27
991.819	2295.76
992.116	2297.79
992.413	2313.39
992.71	2320.62
993.006	2287.85
993.303	2243.33
993.6	2311.35
993.897	2250.34
994.193	2255.53
994.49	2239.72
994.787	2229.55
995.083	2203.11
995.379	2193.39
995.676	2211.92
995.972	2158.59
996.268	2206.72
996.565	2161.53
996.861	2155.65
997.157	2111.81
997.453	2145.03
997.749	2112.03
998.044	2073.62
998.34	2107.52
998.636	2061.64
998.932	2068.19
999.227	2058.93
999.523	2066.16
999.818	2044.92
1000.114	2042.43
1000.409	1985.71
1000.704	1991.13
1001	1969.21
1001.295	2001.53
1001.59	1989.33
1001.885	1954.3
1002.18	1930.57
1002.475	1953.39
1002.77	1924.02
1003.065	1951.59
1003.359	1930.8
1003.654	1923.34
1003.949	1924.92
1004.243	1886.5
1004.538	1911.36
1004.832	1888.09
1005.127	1855.77
1005.421	1842.44
1005.715	1837.24
1006.009	1843.34
1006.304	1797.01
1006.598	1811.48
1006.892	1803.57
1007.186	1807.18
1007.48	1767.86
1007.773	1795.43
1008.067	1759.28
1008.361	1752.04
1008.655	1751.59
1008.948	1732.38
1009.242	1723.12
1009.535	1691.25
1009.829	1715.44
1010.122	1680.41
1010.415	1667.53
1010.708	1653.97
1011.001	1671.37
1011.295	1646.06
1011.588	1665.27
1011.881	1624.36
1012.173	1628.43
1012.466	1623.01
1012.759	1603.12
1013.052	1601.09
1013.344	1566.74
1013.637	1618.04
1013.93	1577.36
1014.222	1572.61
1014.514	1546.4
1014.807	1536.46
1015.099	1540.52
1015.391	1536.23
1015.683	1510.69
1015.976	1493.75
1016.268	1480.64
1016.56	1499.62
1016.851	1495.55
1017.143	1486.29
1017.435	1458.27
1017.727	1452.17
1018.018	1438.83
1018.31	1433.41
1018.602	1453.75
1018.893	1419.17
1019.185	1390.02
1019.476	1382.56
1019.767	1395.22
1020.058	1391.83
1020.35	1414.65
1020.641	1354.77
1020.932	1390.25
1021.223	1364.03
1021.514	1303.69
1021.804	1304.82
1022.095	1338.95
1022.386	1360.87
1022.677	1332.17
1022.967	1344.6
1023.258	1309.57
1023.548	1279.51
1023.839	1277.25
1024.129	1254.43
1024.419	1258.05
1024.709	1282.9
1025	1246.52
1025.29	1229.35
1025.58	1236.35
1025.87	1215.79
1026.16	1194.32
1026.449	1220.08
1026.739	1193.87
1027.029	1184.6
1027.319	1175.56
1027.608	1182.57
1027.898	1178.95
1028.187	1161.78
1028.477	1137.15
1028.766	1152.96
1029.055	1116.81
1029.344	1138.95
1029.634	1148.9
1029.923	1110.48
1030.212	1105.28
1030.501	1114.32
1030.79	1097.82
1031.078	1095.56
1031.367	1092.85
1031.656	1075.68
1031.945	1076.36
1032.233	1044.72
1032.522	1059.86
1032.81	1052.4
1033.099	1031.84
1033.387	1035.45
1033.675	1051.27
1033.963	1023.93
1034.251	1011.05
1034.54	1042.68
1034.828	1001.1
1035.116	989.35
1035.403	981.22
1035.691	987.77
1035.979	996.81
1036.267	965.17
1036.554	961.78
1036.842	949.58
1037.129	948.45
1037.417	952.29
1037.704	941.44
1037.992	934.89
1038.279	914.78
1038.566	907.55
1038.853	907.55
1039.14	907.55
