Data from hue_320_FLMS001491_47.txt Node
Date: Mon Feb 06 15:47:15 GMT 2017
User: dcchb
Spectrometer: FLMS00149
Trigger mode: 0
Integration Time (sec): 2.000000E-2
Scans to average: 10
Electric dark correction enabled: true
Nonlinearity correction enabled: false
Boxcar width: 0
XAxis mode: Wavelengths
Number of Pixels in Spectrum: 2048
>>>>>Begin Spectral Data<<<<<
341.393	-12.58
341.776	-12.58
342.16	-12.58
342.543	-55.97
342.927	-61.85
343.31	-51
343.693	-87.38
344.077	-74.05
344.46	-53.04
344.843	-51.45
345.226	-23.66
345.61	-13.49
345.993	-8.97
346.376	-26.82
346.759	17.92
347.142	17.02
347.525	43.01
347.908	51.37
348.291	72.16
348.674	74.64
349.057	113.74
349.44	124.59
349.823	133.85
350.206	158.26
350.588	199.16
350.971	188.09
351.354	196
351.737	246.62
352.119	264.7
352.502	258.14
352.884	273.28
353.267	283.68
353.65	278.71
354.032	299.95
354.414	314.19
354.797	286.62
355.179	304.47
355.562	330.68
355.944	333.85
356.326	336.33
356.709	335.43
357.091	327.75
357.473	339.04
357.855	345.82
358.238	315.09
358.62	318.93
359.002	329.55
359.384	328.2
359.766	337.91
360.148	341.3
360.53	327.52
360.912	326.62
361.294	319.16
361.676	340.85
362.057	319.38
362.439	310.57
362.821	333.4
363.203	318.93
363.584	307.41
363.966	324.81
364.348	323.45
364.729	307.18
365.111	303.57
365.493	313.96
365.874	302.44
366.256	311.93
366.637	309.67
367.019	303.57
367.4	315.54
367.781	301.53
368.163	301.08
368.544	310.57
368.925	297.24
369.306	312.83
369.688	298.82
370.069	280.52
370.45	293.4
370.831	308.31
371.212	318.93
371.593	291.14
371.974	311.47
372.355	285.26
372.736	330.01
373.117	313.06
373.498	297.92
373.879	300.18
374.26	299.95
374.641	308.09
375.021	310.34
375.402	306.28
375.783	316.9
376.163	299.27
376.544	325.26
376.925	321.42
377.305	319.84
377.686	316.9
378.066	319.16
378.447	322.77
378.827	321.42
379.208	314.64
379.588	304.7
379.968	315.54
380.349	303.79
380.729	315.77
381.109	365.71
381.489	326.16
381.87	312.38
382.25	326.39
382.63	352.6
383.01	318.93
383.39	323
383.77	329.55
384.15	322.55
384.53	346.05
384.91	303.79
385.29	344.47
385.67	346.05
386.049	339.27
386.429	344.02
386.809	344.24
387.189	332.72
387.568	343.56
387.948	344.47
388.328	350.34
388.707	345.37
389.087	354.19
389.466	347.18
389.846	330.68
390.225	364.13
390.605	356.22
390.984	332.04
391.363	356.9
391.743	358.71
392.122	352.6
392.501	354.41
392.881	366.61
393.26	338.14
393.639	353.73
394.018	345.37
394.397	368.65
394.776	356.22
395.155	370.68
395.534	352.83
395.913	361.64
396.292	359.16
396.671	381.98
397.05	384.69
397.429	365.94
397.808	383.79
398.186	342.43
398.565	369.78
398.944	371.13
399.323	389.21
399.701	393.73
400.08	391.25
400.458	389.89
400.837	373.17
401.215	390.79
401.594	377.91
401.972	391.25
402.351	392.38
402.729	400.74
403.107	398.93
403.486	389.66
403.864	383.79
404.242	412.72
404.62	419.72
404.999	408.42
405.377	435.77
405.755	395.99
406.133	397.35
406.511	413.39
406.889	394.86
407.267	420.85
407.645	421.53
408.023	437.57
408.401	453.17
408.779	422.88
409.156	456.33
409.534	461.08
409.912	441.41
410.29	439.38
410.667	441.87
411.045	465.82
411.422	470.11
411.8	457.91
412.178	479.83
412.555	482.54
412.933	484.8
413.31	514.63
413.687	496.78
414.065	501.98
414.442	522.77
414.819	511.92
415.197	527.74
415.574	532.49
415.951	556.89
416.328	534.97
416.705	548.53
417.082	530.23
417.46	544.46
417.837	568.42
418.214	571.36
418.591	586.04
418.967	585.14
419.344	586.27
419.721	592.15
420.098	609.55
420.475	603.44
420.852	608.19
421.228	614.97
421.605	630.11
421.982	610.45
422.358	655.87
422.735	647.74
423.111	639.83
423.488	654.52
423.864	666.49
424.241	681.41
424.617	646.38
424.994	680.96
425.37	670.79
425.746	686.61
426.123	691.58
426.499	693.39
426.875	712.82
427.251	713.72
427.627	707.85
428.003	709.88
428.379	724.57
428.756	766.15
429.132	751.46
429.507	764.34
429.883	759.37
430.259	766.15
430.635	760.5
431.011	781.52
431.387	814.51
431.763	815.42
432.138	812.03
432.514	845.7
432.89	824
433.265	814.06
433.641	842.31
434.016	874.62
434.392	885.25
434.767	869.65
435.143	860.61
435.518	877.34
435.894	892.25
436.269	916.88
436.644	923.44
437.02	932.48
437.395	927.5
437.77	912.14
438.145	931.12
438.52	935.87
438.895	949.42
439.271	947.84
439.646	976.77
440.021	974.73
440.395	961.18
440.77	969.54
441.145	974.51
441.52	1013.6
441.895	1019.03
442.27	1034.17
442.645	1015.86
443.019	1009.99
443.394	1017.44
443.769	1028.52
444.143	1031.46
444.518	1053.83
444.892	1034.17
445.267	1058.57
445.641	1047.5
446.016	1068.52
446.39	1035.98
446.764	1080.04
447.139	1068.29
447.513	1084.34
447.887	1116.2
448.262	1092.92
448.636	1075.97
449.01	1087.5
449.384	1093.6
449.758	1083.88
450.132	1095.41
450.506	1094.73
450.88	1108.29
451.254	1150.77
451.628	1108.29
452.002	1139.02
452.376	1133.83
452.75	1135.63
453.123	1161.85
453.497	1158.46
453.871	1170.66
454.244	1162.53
454.618	1184.67
454.992	1177.89
455.365	1200.72
455.739	1207.72
456.112	1232.13
456.486	1222.41
456.859	1225.58
457.232	1253.6
457.606	1258.57
457.979	1247.27
458.352	1271.22
458.725	1260.38
459.099	1296.76
459.472	1290.66
459.845	1297.66
460.218	1316.19
460.591	1294.27
460.964	1331.79
461.337	1325.46
461.71	1348.96
462.083	1376.08
462.456	1381.5
462.829	1367.27
463.201	1377.21
463.574	1390.99
463.947	1398
464.32	1407.49
464.692	1439.13
465.065	1426.7
465.438	1439.35
465.81	1428.73
466.183	1452.69
466.555	1510.99
466.928	1516.87
467.3	1490.43
467.672	1511.9
468.045	1543.76
468.417	1520.93
468.789	1562.52
469.161	1547.83
469.534	1577.66
469.906	1580.59
470.278	1594.15
470.65	1588.73
471.022	1660.37
471.394	1630.99
471.766	1669.18
472.138	1683.19
472.51	1703.08
472.882	1687.94
473.253	1692.91
473.625	1749.86
473.997	1778.1
474.369	1759.35
474.74	1764.32
475.112	1772.23
475.484	1821.27
475.855	1846.8
476.227	1843.41
476.598	1886.8
476.97	1922.28
477.341	1955.73
477.713	1944.2
478.084	1962.5
478.455	2007.02
478.827	2040.47
479.198	2079.79
479.569	2063.97
479.94	2116.17
480.311	2082.95
480.682	2168.38
481.053	2143.07
481.424	2226.23
481.795	2198.66
482.166	2274.59
482.537	2270.75
482.908	2285.66
483.279	2278.43
483.65	2327.69
484.021	2369.05
484.391	2380.35
484.762	2388.71
485.133	2374.25
485.503	2416.96
485.874	2463.28
486.244	2505.77
486.615	2520.91
486.985	2549.16
487.356	2554.35
487.726	2593.45
488.097	2663.28
488.467	2656.27
488.837	2674.8
489.207	2703.5
489.578	2749.83
489.948	2731.75
490.318	2820.79
490.688	2780.34
491.058	2823.27
491.428	2841.35
491.798	2894.01
492.168	2893.33
492.538	2893.33
492.908	2949.15
493.278	2953.89
493.648	2956.38
494.017	3025.08
494.387	3014.68
494.757	3025.98
495.126	3080.22
495.496	3054.68
495.866	3065.98
496.235	3076.37
496.605	3126.54
496.974	3141.68
497.344	3168.8
497.713	3168.8
498.082	3212.19
498.452	3216.03
498.821	3233.66
499.19	3216.94
499.559	3258.52
499.928	3284.28
500.298	3234.34
500.667	3264.17
501.036	3293.09
501.405	3319.76
501.774	3291.06
502.143	3312.98
502.512	3338.51
502.88	3380.77
503.249	3376.7
503.618	3365.18
503.987	3398.17
504.356	3398.63
504.724	3413.77
505.093	3360.66
505.462	3478.17
505.83	3478.17
506.199	3428.23
506.567	3516.14
506.936	3522.01
507.304	3540.99
507.672	3552.07
508.041	3562.91
508.409	3584.84
508.777	3559.53
509.145	3621.9
509.514	3563.82
509.882	3564.95
510.25	3586.87
510.618	3590.71
510.986	3604.72
511.354	3607.66
511.722	3659.64
512.09	3638.62
512.458	3632.74
512.826	3678.39
513.193	3637.49
513.561	3653.31
513.929	3695.57
514.297	3734.44
514.664	3710.26
515.032	3758.62
515.4	3758.84
515.767	3790.93
516.135	3779.63
516.502	3748.67
516.869	3805.39
517.237	3797.26
517.604	3798.61
517.972	3804.72
518.339	3803.13
518.706	3788.22
519.073	3819.63
519.44	3844.94
519.808	3864.6
520.175	3876.58
520.542	3886.3
520.909	3854.21
521.276	3852.4
521.643	3910.7
522.009	3956.58
522.376	3944.15
522.743	3955.67
523.11	3956.8
523.477	3985.05
523.843	4007.42
524.21	4024.15
524.577	4000.19
524.943	4033.86
525.31	4042.9
525.676	4075.67
526.043	4099.17
526.409	4115.67
526.776	4174.42
527.142	4154.99
527.508	4163.8
527.874	4218.72
528.241	4248.55
528.607	4260.52
528.973	4257.13
529.339	4262.33
529.705	4297.81
530.071	4335.1
530.437	4313.18
530.803	4292.16
531.169	4387.98
531.535	4347.3
531.901	4410.58
532.267	4389.56
532.632	4421.42
532.998	4489.22
533.364	4463.91
533.73	4463.68
534.095	4493.29
534.461	4541.87
534.826	4555.21
535.192	4580.06
535.557	4570.12
535.923	4595.2
536.288	4592.94
536.653	4629.1
537.019	4608.76
537.384	4631.59
537.749	4689.44
538.114	4732.38
538.479	4687.18
538.845	4712.49
539.21	4694.64
539.575	4782.09
539.94	4751.13
540.305	4800.17
540.67	4773.28
541.034	4825.71
541.399	4834.07
541.764	4866.16
542.129	4888.53
542.494	4920.85
542.858	4878.81
543.223	4982.99
543.587	4968.75
543.952	4954.74
544.316	4973.27
544.681	4992.71
545.045	5082.42
545.41	5068.19
545.774	5075.42
546.138	5128.3
546.503	5105.02
546.867	5099.6
547.231	5149.54
547.595	5166.49
547.959	5186.15
548.324	5197.9
548.688	5210.1
549.052	5231.12
549.416	5267.73
549.779	5298.69
550.143	5267.73
550.507	5288.52
550.871	5335.52
551.235	5330.1
551.599	5352.25
551.962	5355.41
552.326	5376.88
552.689	5384.34
553.053	5449.64
553.417	5452.13
553.78	5465.24
554.143	5479.47
554.507	5469.53
554.87	5513.37
555.234	5568.74
555.597	5559.25
555.96	5540.49
556.323	5546.59
556.686	5569.87
557.05	5616.42
557.413	5622.75
557.776	5599.92
558.139	5617.55
558.502	5658.68
558.865	5699.58
559.228	5698
559.59	5791.56
559.953	5733.71
560.316	5702.75
560.679	5782.07
561.041	5788.62
561.404	5807.6
561.767	5829.07
562.129	5850.31
562.492	5868.62
562.854	5913.81
563.217	5865.45
563.579	5868.16
563.941	5930.31
564.304	5921.27
564.666	5977.09
565.028	6010.31
565.39	5988.39
565.753	6020.48
566.115	6052.57
566.477	6034.04
566.839	6051.66
567.201	6083.07
567.563	6138.21
567.925	6144.77
568.287	6192.22
568.648	6204.2
569.01	6263.18
569.372	6205.56
569.734	6236.29
570.095	6270.41
570.457	6334.82
570.819	6363.07
571.18	6348.6
571.542	6415.72
571.903	6475.15
572.265	6454.82
572.626	6541.82
572.987	6484.42
573.349	6579.56
573.71	6610.52
574.071	6700.69
574.432	6711.31
574.794	6770.06
575.155	6790.63
575.516	6833.56
575.877	6897.06
576.238	6933
576.599	6987.91
576.96	7019.1
577.32	7135.02
577.681	7198.07
578.042	7318.3
578.403	7280.33
578.763	7393.1
579.124	7487.33
579.485	7628.8
579.845	7652.3
580.206	7786.08
580.566	7869.69
580.927	7990.14
581.287	8105.17
581.648	8241.21
582.008	8438.04
582.368	8489.11
582.728	8636.23
583.089	8745.6
583.449	8931.14
583.809	9111.24
584.169	9197.57
584.529	9409.77
584.889	9567.73
585.249	9679.36
585.609	9836.2
585.969	10099.69
586.329	10287.03
586.688	10519.34
587.048	10696.74
587.408	10816.51
587.768	11084.75
588.127	11295.14
588.487	11516.6
588.846	11858.52
589.206	12032.75
589.565	12295.79
589.925	12518.61
590.284	12777.36
590.643	13042.89
591.003	13301.64
591.362	13593.84
591.721	13865.47
592.08	14008.29
592.44	14435.4
592.799	14643.75
593.158	14984.99
593.517	15126.23
593.876	15516.5
594.235	15659.09
594.593	16038.74
594.952	16338.17
595.311	16573.87
595.67	16919.85
596.029	17344.25
596.387	17627.18
596.746	17889.32
597.104	18035.75
597.463	18353.03
597.822	18834.6
598.18	19007.71
598.538	19326.57
598.897	19594.81
599.255	19648.59
599.613	20241.8
599.972	20508.23
600.33	20825.74
600.688	21036.35
601.046	21365.38
601.404	21690.57
601.762	21896.44
602.12	22250.56
602.478	22556.31
602.836	22716.76
603.194	22948.62
603.552	23183.87
603.91	23408.27
604.268	23797.64
604.625	23887.8
604.983	24254.35
605.341	24356.49
605.698	24803.26
606.056	25057.72
606.413	25247.77
606.771	25579.51
607.128	25808.66
607.485	25974.98
607.843	26181.08
608.2	26487.74
608.557	26837.33
608.914	26846.14
609.272	27197.32
609.629	27373.36
609.986	27746.01
610.343	27948.49
610.7	28240.68
611.057	28360.68
611.414	28469.15
611.771	28714.34
612.127	29120.43
612.484	29054.45
612.841	29374.67
613.198	29495.11
613.554	29584.15
613.911	29966.51
614.267	30151.14
614.624	30181.2
614.98	30430.23
615.337	30718.36
615.693	30895.53
616.05	30946.38
616.406	31242.19
616.762	31244.22
617.118	31361.51
617.475	31436.53
617.831	31824.32
618.187	31803.08
618.543	32046.23
618.899	32341.82
619.255	32323.74
619.611	32481.93
619.967	32614.81
620.323	32805.99
620.678	32900
621.034	32816.38
621.39	32988.13
621.746	33138.86
622.101	33443.03
622.457	33299.99
622.812	33355.58
623.168	33556.25
623.523	33641.45
623.879	33753.76
624.234	33834.21
624.589	33951.04
624.945	34085.73
625.3	34057.48
625.655	34077.14
626.01	34193.52
626.365	34346.29
626.72	34354.42
627.075	34464.25
627.43	34457.02
627.785	34443.01
628.14	34615.66
628.495	34705.15
628.85	34710.12
629.205	34683.45
629.559	34786.73
629.914	34825.14
630.269	34814.07
630.623	34829.66
630.978	34892.94
631.332	35083.67
631.687	35062.2
632.041	34979.49
632.396	35110.11
632.75	35022.65
633.104	35095.64
633.459	35134.51
633.813	35116.66
634.167	35039.15
634.521	35102.65
634.875	35277.34
635.229	35269.2
635.583	35171.58
635.937	35044.12
636.291	35137.68
636.645	35204.57
636.999	35124.57
637.352	35400.5
637.706	35195.3
638.06	35312.14
638.413	35109.2
638.767	35159.37
639.121	35192.14
639.474	35053.84
639.828	35145.59
640.181	35245.02
640.534	35370.67
640.888	34992.6
641.241	35101.52
641.594	35093.84
641.947	35156.66
642.301	35059.71
642.654	35079.6
643.007	35193.27
643.36	35111.24
643.713	35181.97
644.066	35238.01
644.419	35045.93
644.771	34778.37
645.124	34445.04
645.477	34381.31
645.83	34281.66
646.182	34148.1
646.535	33997.14
646.888	34220.41
647.24	33949.69
647.593	34209.57
647.945	34104.94
648.298	33932.29
648.65	33889.58
649.002	33772.97
649.355	34051.83
649.707	33822.46
650.059	34033.75
650.411	34360.07
650.763	34534.76
651.115	34929.32
651.467	34713.96
651.819	34753.51
652.171	34786.73
652.523	34743.11
652.875	34658.37
653.227	34450.01
653.578	34770.68
653.93	34704.69
654.282	34527.07
654.633	34530.01
654.985	34511.25
655.337	34576.79
655.688	34531.82
656.039	34599.61
656.391	34380.64
656.742	34436.45
657.094	34585.15
657.445	34627.63
657.796	34478.71
658.147	34401.43
658.498	34429.9
658.849	34420.63
659.2	34462.44
659.551	34451.14
659.902	34343.35
660.253	34474.42
660.604	34514.64
660.955	34364.36
661.306	34437.58
661.656	34452.27
662.007	34376.79
662.358	34287.3
662.708	34286.17
663.059	34279.4
663.409	34226.52
663.76	34415.66
664.11	34420.86
664.461	34441.2
664.811	34455.66
665.161	34450.01
665.511	34402.56
665.862	34390.35
666.212	34382.22
666.562	34516.45
666.912	34373.86
667.262	34299.73
667.612	34302.45
667.962	34332.05
668.312	34316.68
668.662	34292.73
669.011	34341.99
669.361	34293.41
669.711	34241.2
670.06	34260.64
670.41	34169.34
670.76	34042.34
671.109	34260.19
671.459	34121.89
671.808	34007.31
672.157	34238.72
672.507	34025.62
672.856	34055.45
673.205	33963.7
673.554	34238.94
673.904	33953.98
674.253	34194.88
674.602	34052.73
674.951	33553.76
675.3	33493.65
675.649	33938.84
675.998	33928.44
676.346	33936.58
676.695	34157.36
677.044	33748.56
677.393	33955.34
677.741	33931.83
678.09	33772.06
678.438	33670.6
678.787	33828.79
679.135	33844.6
679.484	33677.6
679.832	33757.6
680.181	33560.32
680.529	33679.86
680.877	33568.23
681.225	33622.24
681.573	33872.85
681.922	33545.18
682.27	33504.73
682.618	33456.59
682.966	33402.36
683.314	33495.24
683.661	33319.87
684.009	33216.37
684.357	33125.3
684.705	33029.71
685.053	33163.72
685.4	33150.39
685.748	32888.7
686.095	32823.61
686.443	32760.34
686.79	32797.63
687.138	32904.74
687.485	32761.47
687.832	32636.95
688.18	32674.47
688.527	32638.76
688.874	32425.88
689.221	32420.46
689.568	32400.57
689.915	32342.72
690.262	32357.64
690.609	32239.67
690.956	32051.21
691.303	32111.99
691.65	31874.71
691.997	31968.72
692.344	31672.91
692.69	31772.12
693.037	31670.42
693.383	31577.09
693.73	31616.64
694.077	31375.97
694.423	31391.56
694.769	31298.91
695.116	31294.84
695.462	31141.17
695.808	31007.39
696.155	31169.65
696.501	30861.18
696.847	30924.91
697.193	30698.47
697.539	30877.45
697.885	30684.91
698.231	30476.56
698.577	30506.84
698.923	30445.6
699.269	30341.19
699.614	30188.88
699.96	30133.74
700.306	30109.56
700.651	29994.31
700.997	29922.45
701.342	29888.55
701.688	29761.32
702.033	29790.25
702.379	29729.01
702.724	29586.41
703.069	29614.21
703.415	29297.83
703.76	29426.64
704.105	29476.58
704.45	29428.22
704.795	29094.22
705.14	29172.64
705.485	29103.94
705.83	28929.93
706.175	29074.56
706.52	28958.18
706.865	28802.7
707.209	28779.65
707.554	28618.53
707.899	28735.81
708.243	28553.22
708.588	28431.64
708.932	28399.78
709.277	28325.88
709.621	28264.86
709.966	28091.99
710.31	28293.56
710.654	27976.51
710.998	28094.7
711.342	27957.53
711.687	27891.99
712.031	27860.81
712.375	27764.54
712.719	27685.44
713.063	27761.37
713.407	27779.91
713.75	27606.12
714.094	27666.91
714.438	27445
714.782	27505.11
715.125	27351.44
715.469	27401.38
715.812	27233.7
716.156	27188.28
716.499	27186.47
716.843	27162.75
717.186	26937.67
717.53	27094.95
717.873	27050.43
718.216	26960.27
718.559	26848.18
718.902	26661.74
719.246	26819.7
719.589	26671.23
719.932	26680.95
720.275	26648.86
720.617	26671.46
720.96	26590.11
721.303	26509.43
721.646	26600.05
721.989	26365.93
722.331	26497.68
722.674	26346.5
723.016	26310.57
723.359	26279.38
723.701	26237.12
724.044	26129.33
724.386	26052.72
724.729	26112.15
725.071	25954.42
725.413	26050.23
725.755	25952.38
726.097	25844.81
726.439	25739.96
726.782	25775.21
727.124	25756.46
727.465	25695.89
727.807	25633.29
728.149	25576.57
728.491	25470.14
728.833	25611.83
729.175	25521.66
729.516	25575.9
729.858	25491.38
730.199	25535.22
730.541	25354.66
730.882	25392.85
731.224	25429.01
731.565	25296.13
731.906	25216.36
732.248	25267.43
732.589	25235.57
732.93	25005.29
733.271	25159.41
733.612	25195.57
733.953	25159.86
734.294	25053.42
734.635	25020.66
734.976	25008.45
735.317	24863.6
735.658	24920.09
735.999	24814.11
736.339	24834.9
736.68	24774.79
737.021	24733.88
737.361	24476.49
737.702	24774.11
738.042	24719.19
738.383	24634
738.723	24614.11
739.063	24492.31
739.404	24604.4
739.744	24377.51
740.084	24355.59
740.424	24468.58
740.764	24348.36
741.104	24451.63
741.444	24233.56
741.784	24100.91
742.124	24168.47
742.464	24185.2
742.804	24171.19
743.143	24092.77
743.483	24064.97
743.823	23894.81
744.162	23916.05
744.502	23963.06
744.841	23888.71
745.181	23958.54
745.52	23889.84
745.86	23745.66
746.199	23965.09
746.538	23800.57
746.877	23693.23
747.216	23844.64
747.556	23643.06
747.895	23866.79
748.234	23659.79
748.573	23567.13
748.911	23562.39
749.25	23477.65
749.589	23453.24
749.928	23429.96
750.267	23441.49
750.605	23276.97
750.944	23279.01
751.283	23342.96
751.621	23368.04
751.96	23142.29
752.298	23136.86
752.636	23160.14
752.975	23017.32
753.313	22943.42
753.651	23087.15
753.989	22889.19
754.327	22784.1
754.666	22787.95
755.004	22808.28
755.342	22773.71
755.679	22726.25
756.017	22563.09
756.355	22603.54
756.693	22561.29
757.031	22507.5
757.368	22366.04
757.706	22404
758.044	22289.2
758.381	22350.22
758.719	22317.22
759.056	22294.4
759.394	22171.92
759.731	21957.91
760.068	22004.92
760.405	21960.85
760.743	21848.54
761.08	21864.13
761.417	21698.71
761.754	21754.3
762.091	21665.04
762.428	21568.77
762.765	21354.09
763.102	21526.96
763.438	21462.33
763.775	21357.48
764.112	21232.05
764.449	21307.98
764.785	21115.67
765.122	21006.52
765.458	20985.28
765.795	20899.41
766.131	20877.26
766.467	20894.21
766.804	20729.7
767.14	20592.07
767.476	20568.34
767.812	20581.68
768.148	20632.3
768.485	20358.18
768.821	20245.87
769.157	20370.83
769.492	20209.93
769.828	20137.62
770.164	20068.02
770.5	20026.44
770.836	20173.33
771.171	19867.34
771.507	19871.41
771.842	19640.91
772.178	19616.73
772.513	19565.21
772.849	19603.17
773.184	19421.71
773.519	19459.9
773.855	19307.81
774.19	19306.46
774.525	19171.54
774.86	19208.61
775.195	19193.46
775.53	19031.89
775.865	18950.08
776.2	18853.81
776.535	18653.37
776.87	18787.37
777.205	18707.15
777.539	18524.33
777.874	18598.9
778.209	18435.29
778.543	18322.3
778.878	18336.31
779.212	18360.27
779.547	18223.55
779.881	18224.45
780.215	18174.73
780.55	18194.62
780.884	17913.72
781.218	17936.1
781.552	17966.6
781.886	17779.04
782.22	17708.76
782.554	17741.53
782.888	17483.45
783.222	17482.1
783.556	17418.14
783.889	17412.72
784.223	17279.62
784.557	17250.01
784.89	17170.01
785.224	17073.07
785.557	17032.62
785.891	17032.84
786.224	16952.85
786.558	16939.74
786.891	16856.35
787.224	16796.24
787.557	16686.86
787.891	16607.54
788.224	16605.96
788.557	16616.58
788.89	16517.83
789.223	16433.54
789.556	16345.4
789.888	16261.34
790.221	16178.18
790.554	16177.05
790.887	16138.63
791.219	16032.42
791.552	16024.06
791.884	15949.48
792.217	15845.98
792.549	15800.33
792.882	15758.3
793.214	15660.9
793.546	15719.43
793.879	15576.38
794.211	15536.61
794.543	15618.87
794.875	15541.13
795.207	15514.46
795.539	15390.4
795.871	15443.51
796.203	15288.03
796.535	15222.04
796.867	15153.57
797.198	15131.2
797.53	15094.81
797.862	15057.08
798.193	15037.19
798.525	14962.16
798.856	14951.32
799.188	14851.43
799.519	14862.28
799.85	14694.83
800.182	14773.92
800.513	14629.52
800.844	14594.94
801.175	14640.82
801.506	14605.79
801.837	14493.02
802.168	14417.77
802.499	14453.02
802.83	14308.17
803.161	14325.57
803.491	14245.12
803.822	14274.27
804.153	14204.22
804.483	14029.08
804.814	14047.84
805.145	14115.18
805.475	14106.82
805.805	13982.3
806.136	13973.04
806.466	13907.5
806.796	13884
807.126	13686.26
807.457	13811.46
807.787	13735.3
808.117	13700.5
808.447	13626.6
808.777	13630.67
809.107	13556.55
809.436	13542.99
809.766	13537.79
810.096	13426.61
810.426	13443.78
810.755	13483.56
811.085	13374.63
811.414	13316.56
811.744	13274.3
812.073	13305.48
812.403	13256.67
812.732	13089.44
813.061	13155.88
813.39	13011.03
813.719	13016.23
814.049	13093.29
814.378	13020.97
814.707	13022.33
815.036	12931.71
815.365	12909.79
815.693	12845.83
816.022	12838.83
816.351	12759.74
816.68	12748.66
817.008	12759.74
817.337	12566.29
817.665	12712.73
817.994	12588.21
818.322	12632.96
818.651	12511.61
818.979	12486.52
819.307	12573.3
819.636	12516.13
819.964	12387.09
820.292	12498.73
820.62	12474.09
820.948	12435.45
821.276	12405.85
821.604	12461.66
821.932	12460.08
822.259	12421.66
822.587	12402
822.915	12399.07
823.243	12469.57
823.57	12365.85
823.898	12394.32
824.225	12349.12
824.553	12357.71
824.88	12346.19
825.207	12394.1
825.535	12308.67
825.862	12381.21
826.189	12262.35
826.516	12364.04
826.843	12392.97
827.17	12365.4
827.497	12330.59
827.824	12294.44
828.151	12362.23
828.478	12360.2
828.805	12480.42
829.131	12351.61
829.458	12326.07
829.785	12132.63
830.111	12248.34
830.438	12346.41
830.764	12291.72
831.09	12330.82
831.417	12173.54
831.743	12267.77
832.069	12235
832.395	12154.1
832.722	12193.87
833.048	12173.08
833.374	12143.71
833.7	12112.97
834.026	12147.1
834.351	12172.41
834.677	12154.78
835.003	12098.74
835.329	12107.77
835.654	12190.71
835.98	12084.95
836.306	12091.73
836.631	11990.04
836.956	12047.89
837.282	12075.91
837.607	12025.97
837.932	11941.45
838.258	11974.67
838.583	11960.66
838.908	11886.76
839.233	11892.19
839.558	11816.71
839.883	11890.15
840.208	11840.66
840.533	11720.89
840.858	11810.83
841.182	11836.82
841.507	11755.47
841.832	11744.62
842.156	11712.31
842.481	11648.13
842.805	11656.04
843.13	11673.21
843.454	11570.61
843.778	11599.31
844.103	11542.82
844.427	11574
844.751	11534.46
845.075	11505.08
845.399	11474.57
845.723	11393.9
846.047	11329.49
846.371	11293.11
846.695	11289.04
847.019	11194.13
847.343	11154.58
847.666	11140.12
847.99	11103.28
848.313	11015.6
848.637	10946.45
848.96	10966.79
849.284	10887.69
849.607	10916.17
849.931	10861.71
850.254	10673.46
850.577	10714.14
850.9	10684.76
851.223	10649.96
851.546	10589.85
851.869	10484.54
852.192	10537.42
852.515	10540.36
852.838	10412.45
853.161	10456.97
853.483	10348.05
853.806	10290.42
854.129	10322.29
854.451	10309.18
854.774	10222.4
855.096	10176.98
855.419	10233.7
855.741	10100.82
856.063	10105.57
856.385	10063.99
856.708	10102.4
857.03	9981.05
857.352	10055.4
857.674	9960.03
857.996	9861.28
858.318	9816.31
858.64	9862.86
858.961	9840.72
859.283	9852.47
859.605	9751
859.926	9714.39
860.248	9647.27
860.57	9661.51
860.891	9749.87
861.212	9621.06
861.534	9605.69
861.855	9610.89
862.176	9639.82
862.498	9650.89
862.819	9623.32
863.14	9540.61
863.461	9551.23
863.782	9438.24
864.103	9498.8
864.424	9462.87
864.745	9475.53
865.065	9427.62
865.386	9434.85
865.707	9313.72
866.027	9362.31
866.348	9383.33
866.668	9352.37
866.989	9323.89
867.309	9321.41
867.63	9276.21
867.95	9252.48
868.27	9245.48
868.59	9279.15
868.91	9235.76
869.23	9229.88
869.55	9111.7
869.87	9182.88
870.19	9132.71
870.51	9175.2
870.83	9169.77
871.15	9083
871.469	9074.41
871.789	9127.29
872.109	9132.71
872.428	8998.25
872.748	9070.57
873.067	9013.39
873.386	9023.56
873.706	9007.52
874.025	8910.57
874.344	8940.85
874.663	8991.7
874.982	8930.01
875.301	8937.24
875.62	8889.1
875.939	8864.02
876.258	8930.68
876.577	8813.62
876.896	8904.7
877.214	8858.59
877.533	8798.71
877.852	8890.23
878.17	8826.96
878.489	8840.52
878.807	8708.99
879.125	8827.86
879.444	8791.03
879.762	8675.32
880.08	8713.51
880.398	8623.12
880.716	8686.17
881.034	8616.57
881.352	8643.46
881.67	8624.02
881.988	8592.84
882.306	8578.38
882.624	8530.02
882.941	8545.83
883.259	8490.02
883.577	8439.62
883.894	8501.99
884.212	8428.1
884.529	8449.11
884.846	8473.07
885.164	8447.31
885.481	8381.55
885.798	8454.99
886.115	8334.31
886.432	8309.23
886.75	8304.71
887.067	8279.17
887.383	8277.14
887.7	8282.34
888.017	8199.86
888.334	8238.05
888.651	8181.78
888.967	8150.14
889.284	8161.21
889.6	8135.45
889.917	8067.2
890.233	8113.53
890.55	7993.98
890.866	8017.03
891.182	7970.93
891.498	7931.16
891.815	7932.07
892.131	7933.2
892.447	7887.09
892.763	7898.17
893.079	7890.94
893.395	7861.56
893.71	7832.41
894.026	7848.9
894.342	7831.28
894.657	7739.75
894.973	7772.3
895.289	7693.65
895.604	7709.92
895.92	7601.23
896.235	7621.57
896.55	7566.2
896.865	7594.22
897.181	7521.45
897.496	7616.14
897.811	7499.99
898.126	7455.47
898.441	7437.62
898.756	7416.37
899.071	7332.99
899.386	7420.21
899.7	7304.29
900.015	7302.25
900.33	7279.2
900.644	7198.75
900.959	7258.64
901.273	7261.35
901.588	7164.63
901.902	7118.3
902.216	7155.36
902.531	7128.47
902.845	7087.12
903.159	7029.72
903.473	7028.59
903.787	6998.08
904.101	6947.46
904.415	6925.31
904.729	6957.4
905.042	6964.41
905.356	6929.61
905.67	6895.71
905.984	6815.71
906.297	6789.27
906.611	6733.45
906.924	6760.12
907.237	6742.94
907.551	6720.57
907.864	6681.25
908.177	6653.68
908.491	6685.32
908.804	6601.25
909.117	6596.28
909.43	6529.62
909.743	6487.58
910.056	6486.68
910.368	6440.13
910.681	6440.13
910.994	6397.64
911.307	6324.65
911.619	6324.42
911.932	6356.74
912.244	6313.35
912.557	6353.58
912.869	6243.97
913.181	6228.38
913.494	6217.31
913.806	6164.88
914.118	6163.75
914.43	6149.29
914.742	6104.09
915.054	6057.54
915.366	6073.13
915.678	6019.8
915.99	6006.69
916.302	5962.63
916.613	5970.76
916.925	5919.69
917.236	5884.21
917.548	5872.91
917.859	5911.78
918.171	5835.62
918.482	5802.4
918.794	5769.64
919.105	5782.07
919.416	5698.68
919.727	5668.85
920.038	5710.2
920.349	5664.33
920.66	5674.95
920.971	5645.57
921.282	5574.84
921.593	5499.81
921.903	5553.82
922.214	5510.21
922.525	5447.84
922.835	5487.61
923.146	5463.66
923.456	5453.26
923.767	5410.32
924.077	5346.6
924.387	5371
924.697	5351.12
925.008	5341.17
925.318	5319.25
925.628	5293.72
925.938	5283.77
926.248	5247.62
926.558	5193.15
926.867	5195.87
927.177	5204.91
927.487	5132.37
927.796	5070.67
928.106	5146.15
928.416	5100.28
928.725	5090.56
929.034	5056.21
929.344	5057.56
929.653	4977.79
929.962	4987.96
930.271	4934.18
930.581	4949.09
930.89	4919.26
931.199	4870
931.508	4892.15
931.817	4882.2
932.125	4843.11
932.434	4822.54
932.743	4802.66
933.051	4744.58
933.36	4762.21
933.669	4740.96
933.977	4706.16
934.286	4691.7
934.594	4665.26
934.902	4650.34
935.21	4636.33
935.519	4628.2
935.827	4640.85
936.135	4588.65
936.443	4558.37
936.751	4531.93
937.059	4514.75
937.367	4515.88
937.674	4488.99
937.982	4466.85
938.29	4463.23
938.597	4436.56
938.905	4425.94
939.213	4443.34
939.52	4414.42
939.827	4379.62
940.135	4384.36
940.442	4347.3
940.749	4301.43
941.056	4325.83
941.363	4288.09
941.67	4270.47
941.977	4231.6
942.284	4209.68
942.591	4214.65
942.898	4162.45
943.205	4141.2
943.511	4143.24
943.818	4115.44
944.125	4062.79
944.431	4098.04
944.738	4080.87
945.044	4032.73
945.35	4017.14
945.657	3987.54
945.963	3983.24
946.269	4038.38
946.575	3993.86
946.881	3949.57
947.187	3965.39
947.493	3932.17
947.799	3889.91
948.105	3883.36
948.41	3875.9
948.716	3857.82
949.022	3816.69
949.327	3813.53
949.633	3804.26
949.938	3795.9
950.244	3813.3
950.549	3765.4
950.854	3710.93
951.16	3701.67
951.465	3689.69
951.77	3702.8
952.075	3685.4
952.38	3657.6
952.685	3663.03
952.99	3626.19
953.294	3596.36
953.599	3589.81
953.904	3578.51
954.209	3538.73
954.513	3564.27
954.818	3524.72
955.122	3517.49
955.426	3480.66
955.731	3507.55
956.035	3520.43
956.339	3452.86
956.643	3475.69
956.948	3474.1
957.252	3447.66
957.556	3385.74
957.86	3359.08
958.163	3403.6
958.467	3350.94
958.771	3343.71
959.075	3330.15
959.378	3304.84
959.682	3298.51
959.985	3299.19
960.289	3236.6
960.592	3252.19
960.896	3254.9
961.199	3202.02
961.502	3232.53
961.805	3208.57
962.108	3167.9
962.411	3114.56
962.714	3162.25
963.017	3173.09
963.32	3142.36
963.623	3127.45
963.926	3107.11
964.228	3072.53
964.531	3099.88
964.833	3062.36
965.136	3064.4
965.438	3073.44
965.741	3036.6
966.043	3011.52
966.345	2965.87
966.648	3012.65
966.95	2976.72
967.252	2980.56
967.554	2992.53
967.856	2940.78
968.158	2935.81
968.46	2882.93
968.761	2869.83
969.063	2879.09
969.365	2896.04
969.666	2877.96
969.968	2850.39
970.269	2821.69
970.571	2820.79
970.872	2821.47
971.174	2795.03
971.475	2802.26
971.776	2790.51
972.077	2783.05
972.378	2741.69
972.679	2737.63
972.98	2721.81
973.281	2731.75
973.582	2701.02
973.883	2736.95
974.183	2679.55
974.484	2681.36
974.785	2689.27
975.085	2637.52
975.386	2658.98
975.686	2643.84
975.986	2643.16
976.287	2635.48
976.587	2610.4
976.887	2627.12
977.187	2558.42
977.487	2570.85
977.787	2543.73
978.087	2551.87
978.387	2560.68
978.687	2519.1
978.987	2511.64
979.286	2522.49
979.586	2490.63
979.885	2470.97
980.185	2475.03
980.484	2473.9
980.784	2453.11
981.083	2425.09
981.382	2403.4
981.682	2411.31
981.981	2402.95
982.28	2357.3
982.579	2402.49
982.878	2364.75
983.177	2355.71
983.475	2334.7
983.774	2290.41
984.073	2316.62
984.372	2299.9
984.67	2303.96
984.969	2316.17
985.267	2281.82
985.566	2291.99
985.864	2232.55
986.162	2266.23
986.461	2245.44
986.759	2229.62
987.057	2236.85
987.355	2208.6
987.653	2245.21
987.951	2203.85
988.249	2186.45
988.547	2179
988.844	2167.25
989.142	2180.13
989.44	2124.08
989.737	2144.42
990.035	2143.74
990.332	2120.92
990.63	2106
990.927	2099
991.224	2087.25
991.521	2096.74
991.819	2081.82
992.116	2080.24
992.413	2073.69
992.71	2032.79
993.006	2050.19
993.303	2024.2
993.6	2014.48
993.897	1986.23
994.193	2009.28
994.49	1945.78
994.787	1998.21
995.083	1969.96
995.379	1969.74
995.676	1965.22
995.972	1975.84
996.268	1909.85
996.565	1965.89
996.861	1920.92
997.157	1898.33
997.453	1895.16
997.749	1880.93
998.044	1847.03
998.34	1862.17
998.636	1849.29
998.932	1850.42
999.227	1861.49
999.523	1839.34
999.818	1823.98
1000.114	1790.98
1000.409	1787.37
1000.704	1789.85
1001	1829.18
1001.295	1776.07
1001.59	1802.51
1001.885	1751.89
1002.18	1752.34
1002.475	1728.39
1002.77	1738.56
1003.065	1740.36
1003.359	1713.25
1003.654	1715.96
1003.949	1733.58
1004.243	1685.22
1004.538	1686.58
1004.832	1676.86
1005.127	1670.54
1005.421	1656.3
1005.715	1623.3
1006.009	1651.1
1006.304	1652.23
1006.598	1643.42
1006.892	1617.2
1007.186	1601.16
1007.48	1592.57
1007.773	1590.54
1008.067	1566.58
1008.361	1576.98
1008.655	1573.59
1008.948	1545.34
1009.242	1542.4
1009.535	1545.11
1009.829	1542.85
1010.122	1514.16
1010.415	1522.74
1010.708	1496.53
1011.001	1490.2
1011.295	1499.92
1011.588	1485.91
1011.881	1490.65
1012.173	1471.9
1012.466	1488.85
1012.759	1436.87
1013.052	1455.17
1013.344	1432.35
1013.637	1393.03
1013.93	1394.16
1014.222	1422.86
1014.514	1400.49
1014.807	1412.24
1015.099	1383.76
1015.391	1379.47
1015.683	1373.37
1015.976	1351
1016.268	1342.18
1016.56	1380.15
1016.851	1326.36
1017.143	1329.08
1017.435	1307.15
1017.727	1302.41
1018.018	1280.26
1018.31	1313.48
1018.602	1273.26
1018.893	1287.04
1019.185	1283.65
1019.476	1305.35
1019.767	1249.3
1020.058	1256.53
1020.35	1235.29
1020.641	1228.96
1020.932	1227.38
1021.223	1210.43
1021.514	1210.21
1021.804	1210.66
1022.095	1180.6
1022.386	1166.82
1022.677	1192.13
1022.967	1191.9
1023.258	1159.59
1023.548	1166.14
1023.839	1180.38
1024.129	1148.97
1024.419	1135.86
1024.709	1150.32
1025	1120.27
1025.29	1115.07
1025.58	1107.39
1025.87	1099.25
1026.16	1093.15
1026.449	1062.19
1026.739	1074.84
1027.029	1075.75
1027.319	1060.61
1027.608	1084.79
1027.898	1088.63
1028.187	1075.3
1028.477	1036.88
1028.766	1050.89
1029.055	1009.31
1029.344	1041.85
1029.634	1030.55
1029.923	1008.63
1030.212	1003.21
1030.501	983.77
1030.79	988.07
1031.078	997.33
1031.367	984.68
1031.656	947.39
1031.945	950.1
1032.233	976.99
1032.522	973.83
1032.81	995.3
1033.099	965.02
1033.387	941.74
1033.675	925.92
1033.963	921.63
1034.251	921.4
1034.54	926.37
1034.828	914.4
1035.116	937.22
1035.403	885.47
1035.691	894.96
1035.979	907.17
1036.267	892.48
1036.554	905.58
1036.842	849.09
1037.129	858.13
1037.417	862.87
1037.704	864.23
1037.992	857.9
1038.279	854.06
1038.566	846.6
1038.853	846.6
1039.14	846.6
