Data from hue_140_FLMS001491_00020.txt Node
Date: Tue Feb 07 16:55:30 GMT 2017
User: dcchb
Spectrometer: FLMS00149
Trigger mode: 0
Integration Time (sec): 2.000000E-2
Scans to average: 10
Electric dark correction enabled: true
Nonlinearity correction enabled: false
Boxcar width: 0
XAxis mode: Wavelengths
Number of Pixels in Spectrum: 2048
>>>>>Begin Spectral Data<<<<<
341.393	-14.77
341.776	-14.77
342.16	-14.77
342.543	-52.74
342.927	-77.14
343.31	-68.11
343.693	-82.34
344.077	-64.94
344.46	-63.59
344.843	-67.88
345.226	-32.85
345.61	-32.63
345.993	-4.83
346.376	-10.48
346.759	16.41
347.142	26.36
347.525	35.17
347.908	75.85
348.291	79.69
348.674	100.7
349.057	93.47
349.44	134.6
349.823	142.74
350.206	161.49
350.588	192.45
350.971	215.5
351.354	228.16
351.737	243.07
352.119	241.94
352.502	276.07
352.884	271.09
353.267	291.88
353.65	272
354.032	287.59
354.414	318.32
354.797	304.31
355.179	307.48
355.562	314.48
355.944	333.01
356.326	313.81
356.709	334.82
357.091	332.56
357.473	334.37
357.855	340.92
358.238	335.73
358.62	320.58
359.002	341.6
359.384	341.15
359.766	349.06
360.148	348.38
360.53	335.95
360.912	319.45
361.294	332.56
361.676	316.07
362.057	331.21
362.439	332.34
362.821	316.52
363.203	312
363.584	316.74
363.966	334.6
364.348	306.12
364.729	307.7
365.111	304.99
365.493	322.17
365.874	317.87
366.256	321.94
366.637	329.4
367.019	300.25
367.4	322.39
367.781	304.09
368.163	307.7
368.544	293.69
368.925	301.15
369.306	312.45
369.688	305.44
370.069	301.38
370.45	303.64
370.831	304.77
371.212	302.28
371.593	331.43
371.974	312
372.355	290.98
372.736	308.16
373.117	317.2
373.498	315.61
373.879	312.45
374.26	302.51
374.641	319.68
375.021	317.2
375.402	317.65
375.783	306.8
376.163	322.62
376.544	328.27
376.925	309.74
377.305	341.83
377.686	330.98
378.066	325.33
378.447	315.61
378.827	340.02
379.208	338.66
379.588	313.13
379.968	318.78
380.349	330.75
380.729	337.99
381.109	344.99
381.489	335.05
381.87	314.26
382.25	344.09
382.63	351.32
383.01	345.67
383.39	336.4
383.77	340.02
384.15	347.25
384.53	357.87
384.91	364.88
385.29	334.14
385.67	349.51
386.049	331.21
386.429	345.44
386.809	367.82
387.189	340.25
387.568	346.8
387.948	342.73
388.328	359.23
388.707	370.75
389.087	337.99
389.466	351.54
389.846	364.88
390.225	377.08
390.605	332.11
390.984	359.68
391.363	368.04
391.743	370.08
392.122	378.21
392.501	356.29
392.881	382.05
393.26	373.69
393.639	370.08
394.018	348.15
394.397	369.4
394.776	383.63
395.155	369.85
395.534	369.62
395.913	387.7
396.292	401.03
396.671	381.83
397.05	366.46
397.429	371.2
397.808	391.32
398.186	405.33
398.565	385.67
398.944	369.62
399.323	389.28
399.701	403.97
400.08	396.29
400.458	396.74
400.837	415.27
401.215	413.24
401.594	414.82
401.972	388.38
402.351	394.93
402.729	414.14
403.107	406.68
403.486	396.29
403.864	424.54
404.242	422.05
404.62	425.21
404.999	423.41
405.377	422.5
405.755	414.82
406.133	441.94
406.511	418.89
406.889	429.73
407.267	418.44
407.645	441.71
408.023	430.86
408.401	435.61
408.779	467.02
409.156	440.13
409.534	430.41
409.912	437.42
410.29	448.94
410.667	449.39
411.045	440.36
411.422	451.65
411.8	471.77
412.178	481.26
412.555	450.52
412.933	467.25
413.31	490.07
413.687	491.65
414.065	493.46
414.442	488.04
414.819	487.13
415.197	485.78
415.574	505.21
415.951	495.95
416.328	512.22
416.705	511.54
417.082	516.06
417.46	498.66
417.837	513.12
418.214	518.55
418.591	532.56
418.967	521.94
419.344	527.58
419.721	511.09
420.098	534.82
420.475	541.6
420.852	541.14
421.228	559.9
421.605	527.13
421.982	549.51
422.358	528.26
422.735	539.79
423.111	561.71
423.488	547.7
423.864	553.12
424.241	546.12
424.617	566.91
424.994	558.54
425.37	587.7
425.746	563.52
426.123	555.61
426.499	572.78
426.875	608.26
427.251	597.64
427.627	596.06
428.003	633.8
428.379	602.61
428.756	618.66
429.132	599
429.507	614.36
429.883	621.37
430.259	634.7
430.635	643.06
431.011	646.68
431.387	659.78
431.763	655.27
432.138	669.95
432.514	678.54
432.89	667.69
433.265	691.42
433.641	690.97
434.016	671.31
434.392	706.11
434.767	714.92
435.143	697.75
435.518	718.54
435.894	719.22
436.269	727.81
436.644	728.03
437.02	740.23
437.395	745.66
437.77	728.94
438.145	742.95
438.52	761.03
438.895	772.55
439.271	769.61
439.646	768.93
440.021	780.46
440.395	794.7
440.77	773.45
441.145	779.78
441.52	801.02
441.895	782.49
442.27	810.29
442.645	824.98
443.019	813.91
443.394	829.5
443.769	840.8
444.143	815.94
444.518	865.2
444.892	854.58
445.267	840.35
445.641	845.32
446.016	845.99
446.39	880.34
446.764	881.25
447.139	882.83
447.513	885.32
447.887	870.17
448.262	868.82
448.636	903.62
449.01	917.41
449.384	896.39
449.758	916.05
450.132	923.73
450.506	929.38
450.88	939.55
451.254	939.78
451.628	955.6
452.002	955.82
452.376	941.13
452.75	955.37
453.123	955.6
453.497	972.09
453.871	997.4
454.244	1034.46
454.618	1039.66
454.992	1014.8
455.365	1017.52
455.739	1032.66
456.112	1081.69
456.486	1076.05
456.859	1084.41
457.232	1103.39
457.606	1111.3
457.979	1125.99
458.352	1137.96
458.725	1145.2
459.099	1156.5
459.472	1181.13
459.845	1185.42
460.218	1202.6
460.591	1184.52
460.964	1208.25
461.337	1246.21
461.71	1252.54
462.083	1295.7
462.456	1314
462.829	1297.28
463.201	1304.51
463.574	1319.43
463.947	1348.81
464.32	1377.05
464.692	1354.23
465.065	1420.67
465.438	1400.56
465.81	1423.15
466.183	1477.39
466.555	1491.18
466.928	1524.85
467.3	1492.53
467.672	1529.59
468.045	1598.07
468.417	1604.39
468.789	1618.63
469.161	1651.62
469.534	1671.51
469.906	1700.44
470.278	1705.41
470.65	1739.08
471.022	1784.73
471.394	1808
471.766	1857.04
472.138	1861.11
472.51	1937.27
472.882	1975.46
473.253	1998.51
473.625	2041.44
473.997	2063.36
474.369	2137.94
474.74	2161.44
475.112	2208.22
475.484	2287.09
475.855	2295.9
476.227	2352.4
476.598	2425.84
476.97	2476.69
477.341	2559.17
477.713	2592.62
478.084	2686.85
478.455	2774.98
478.827	2834.42
479.198	2888.2
479.569	2936.79
479.94	3023.56
480.311	3133.39
480.682	3201.64
481.053	3293.39
481.424	3383.33
481.795	3449.09
482.166	3517.34
482.537	3660.16
482.908	3776.31
483.279	3844.11
483.65	3931.11
484.021	4032.13
484.391	4173.82
484.762	4247.94
485.133	4344.66
485.503	4480.93
485.874	4585.11
486.244	4698.1
486.615	4806.79
486.985	4902.84
487.356	5078.88
487.726	5171.3
488.097	5345.54
488.467	5359.55
488.837	5541.01
489.207	5676.15
489.578	5842.93
489.948	5965.63
490.318	6119.75
490.688	6179.41
491.058	6314.78
491.428	6469.8
491.798	6599.29
492.168	6721.09
492.538	6927.42
492.908	7044.7
493.278	7128.99
493.648	7255.09
494.017	7377.8
494.387	7475.42
494.757	7619.15
495.126	7771.46
495.496	7899.14
495.866	7975.98
496.235	8116.99
496.605	8232.02
496.974	8404.21
497.344	8540.03
497.713	8528.73
498.082	8729.86
498.452	8841.49
498.821	8888.95
499.19	8986.57
499.559	9068.38
499.928	9209.16
500.298	9273.34
500.667	9435.37
501.036	9474.69
501.405	9706.1
501.774	9640.34
502.143	9851.86
502.512	9843.05
502.88	10011.18
503.249	10041.69
503.618	10103.83
503.987	10139.08
504.356	10254.33
504.724	10414.78
505.093	10516.93
505.462	10470.6
505.83	10558.51
506.199	10646.64
506.567	10854.32
506.936	10774.32
507.304	10944.26
507.672	10992.17
508.041	11123.01
508.409	11209.79
508.777	11210.47
509.145	11273.52
509.514	11304.7
509.882	11441.2
510.25	11482.33
510.618	11492.49
510.986	11537.46
511.354	11657.91
511.722	11719.83
512.09	11771.81
512.458	11806.38
512.826	11857.23
513.193	11870.79
513.561	11897.68
513.929	11987.4
514.297	12165.47
514.664	12134.29
515.032	12177
515.4	12271.91
515.767	12300.61
516.135	12259.25
516.502	12288.18
516.869	12449.76
517.237	12460.6
517.604	12430.32
517.972	12597.32
518.339	12586.7
518.706	12532.24
519.073	12591.67
519.44	12657.44
519.808	12743.99
520.175	12699.02
520.542	12820.14
520.909	12871.44
521.276	12751.67
521.643	12944.21
522.009	12910.31
522.376	12990.76
522.743	12953.47
523.11	13113.47
523.477	13146.91
523.843	13155.73
524.21	13247.93
524.577	13360.02
524.943	13262.39
525.31	13264.43
525.676	13353.46
526.043	13394.14
526.409	13444.53
526.776	13499.9
527.142	13459.67
527.508	13392.78
527.874	13494.48
528.241	13522.5
528.607	13527.24
528.973	13561.14
529.339	13558.2
529.705	13615.15
530.071	13652.44
530.437	13601.37
530.803	13679.33
531.169	13746.22
531.535	13630.97
531.901	13630.52
532.267	13541.48
532.632	13625.55
532.998	13608.6
533.364	13637.3
533.73	13632.33
534.095	13696.05
534.461	13580.8
534.826	13588.71
535.192	13584.64
535.557	13651.76
535.923	13571.08
536.288	13519.11
536.653	13556.85
537.019	13451.99
537.384	13383.52
537.749	13494.02
538.114	13500.58
538.479	13484.98
538.845	13326.12
539.21	13420.81
539.575	13346.23
539.94	13293.13
540.305	13325.21
540.67	13296.74
541.034	13249.51
541.399	13206.8
541.764	13322.95
542.129	13247.25
542.494	13185.56
542.858	13205.22
543.223	13136.07
543.587	13147.14
543.952	13029.63
544.316	13069.85
544.681	12960.48
545.045	12995.05
545.41	12960.93
545.774	12913.93
546.138	12892.46
546.503	12850.88
546.867	12781.27
547.231	12894.72
547.595	12897.66
547.959	12760.26
548.324	12707.6
548.688	12755.51
549.052	12708.96
549.416	12714.61
549.779	12601.17
550.143	12625.12
550.507	12628.28
550.871	12575.63
551.235	12606.14
551.599	12658.57
551.962	12476.2
552.326	12453.15
552.689	12518.91
553.053	12396.2
553.417	12372.02
553.78	12459.7
554.143	12381.06
554.507	12371.79
554.87	12352.36
555.234	12436.65
555.597	12268.75
555.96	12342.42
556.323	12298.8
556.686	12204.57
557.05	12311.23
557.413	12310.33
557.776	12204.57
558.139	12258.35
558.502	12266.26
558.865	12219.48
559.228	12282.98
559.59	12273.49
559.953	12159.14
560.316	12288.63
560.679	12255.86
561.041	12223.32
561.404	12258.8
561.767	12372.92
562.129	12261.97
562.492	12284.56
562.854	12261.06
563.217	12263.1
563.579	12319.59
563.941	12320.5
564.304	12300.16
564.666	12315.98
565.028	12306.03
565.39	12293.15
565.753	12429.87
566.115	12375.18
566.477	12410.21
566.839	12405.92
567.201	12412.02
567.563	12392.36
567.925	12478.91
568.287	12421.51
568.648	12409.53
569.01	12483.65
569.372	12524.78
569.734	12451.57
570.095	12543.54
570.457	12519.81
570.819	12586.02
571.18	12474.84
571.542	12557.55
571.903	12563.88
572.265	12616.98
572.626	12629.64
572.987	12649.53
573.349	12654.72
573.71	12581.28
574.071	12654.5
574.432	12697.43
574.794	12753.48
575.155	12761.39
575.516	12588.74
575.877	12722.97
576.238	12707.83
576.599	12708.73
576.96	12695.4
577.32	12751.44
577.681	12761.61
578.042	12726.13
578.403	12842.06
578.763	12719.35
579.124	12681.16
579.485	12763.2
579.845	12835.74
580.206	12762.29
580.566	12698.56
580.927	12727.04
581.287	12769.07
581.648	12733.14
582.008	12806.36
582.368	12708.51
582.728	12730.43
583.089	12702.63
583.449	12674.61
583.809	12735.17
584.169	12799.35
584.529	12698.56
584.889	12794.61
585.249	12643.42
585.609	12729.52
585.969	12743.99
586.329	12641.16
586.688	12664.22
587.048	12697.21
587.408	12623.09
587.768	12616.31
588.127	12622.18
588.487	12594.84
588.846	12697.21
589.206	12574.5
589.565	12591.45
589.925	12620.37
590.284	12562.75
590.643	12578.12
591.003	12605.46
591.362	12634.16
591.721	12529.08
592.08	12525.69
592.44	12589.41
592.799	12521.39
593.158	12512.13
593.517	12510.09
593.876	12485.01
594.235	12549.19
594.593	12493.82
594.952	12542.64
595.311	12373.38
595.67	12461.51
596.029	12497.67
596.387	12490.21
596.746	12508.51
597.104	12472.13
597.463	12454.5
597.822	12474.62
598.18	12409.98
598.538	12372.7
598.897	12486.37
599.255	12366.14
599.613	12589.19
599.972	12475.75
600.33	12429.87
600.688	12487.27
601.046	12490.89
601.404	12521.39
601.762	12552.13
602.12	12520.26
602.478	12590.32
602.836	12477.1
603.194	12490.43
603.552	12453.6
603.91	12425.13
604.268	12489.76
604.625	12471.9
604.983	12516.42
605.341	12412.7
605.698	12583.54
606.056	12498.34
606.413	12465.12
606.771	12558.68
607.128	12544.67
607.485	12452.02
607.843	12496.99
608.2	12551.45
608.557	12595.97
608.914	12508.74
609.272	12582.41
609.629	12557.1
609.986	12654.5
610.343	12588.74
610.7	12687.49
611.057	12618.34
611.414	12616.76
611.771	12562.75
612.127	12712.58
612.484	12761.39
612.841	12725.91
613.198	12652.01
613.554	12631.45
613.911	12771.56
614.267	12725.46
614.624	12663.09
614.98	12759.13
615.337	12779.69
615.693	12827.37
616.05	12817.21
616.406	12782.18
616.762	12758
617.118	12788.05
617.475	12766.59
617.831	12794.83
618.187	12879.58
618.543	12747.38
618.899	12889.07
619.255	12823.98
619.611	12878.67
619.967	12934.94
620.323	12895.4
620.678	12927.03
621.034	12838.45
621.39	12881.16
621.746	12817.21
622.101	12923.19
622.457	12802.29
622.812	12875.73
623.168	12839.8
623.523	12890.65
623.879	12997.77
624.234	12879.35
624.589	12834.15
624.945	12854.94
625.3	12953.02
625.655	12889.29
626.01	12835.51
626.365	12899.24
626.72	12833.25
627.075	12894.04
627.43	12930.42
627.785	12852.68
628.14	12850.2
628.495	12798.67
628.85	12869.86
629.205	12788.96
629.559	12838.9
629.914	12845.45
630.269	12802.97
630.623	12859.01
630.978	12798.9
631.332	12835.06
631.687	12729.98
632.041	12806.13
632.396	12793.7
632.75	12728.17
633.104	12738.11
633.459	12721.39
633.813	12713.71
634.167	12694.72
634.521	12651.79
634.875	12685.01
635.229	12719.58
635.583	12592.58
635.937	12609.3
636.291	12571.11
636.645	12566.36
636.999	12547.16
637.352	12532.02
637.706	12393.71
638.06	12551
638.413	12557.1
638.767	12416.31
639.121	12483.2
639.474	12393.49
639.828	12372.02
640.181	12411.57
640.534	12376.54
640.888	12435.97
641.241	12360.72
641.594	12375.18
641.947	12435.29
642.301	12418.12
642.654	12333.83
643.007	12404.11
643.36	12337.67
643.713	12342.42
644.066	12432.81
644.419	12334.96
644.771	12256.54
645.124	12157.11
645.477	12114.4
645.83	12108.3
646.182	11999.37
646.535	12054.74
646.888	12010.9
647.24	11925.48
647.593	12014.97
647.945	12007.96
648.298	11924.35
648.65	11960.5
649.002	11861.98
649.355	11863.56
649.707	11862.88
650.059	11958.02
650.411	11988.53
650.763	12109.43
651.115	12184.45
651.467	12219.71
651.819	12153.49
652.171	12146.04
652.523	12176.77
652.875	12138.81
653.227	12068.75
653.578	12128.41
653.93	12114.4
654.282	12089.99
654.633	12095.64
654.985	12149.43
655.337	12169.09
655.688	12119.6
656.039	12251.12
656.391	12100.61
656.742	12083.21
657.094	12157.11
657.445	12183.55
657.796	12162.08
658.147	12121.86
658.498	12149.43
658.849	12185.81
659.2	12164.34
659.551	12135.87
659.902	12186.26
660.253	12139.26
660.604	12167.96
660.955	12207.5
661.306	12231.46
661.656	12177.22
662.007	12195.75
662.358	12169.31
662.708	12240.72
663.059	12212.48
663.409	12155.53
663.76	12224.23
664.11	12197.33
664.461	12185.58
664.811	12209.31
665.161	12180.16
665.511	12242.98
665.862	12230.1
666.212	12292.25
666.562	12175.64
666.912	12199.82
667.262	12162.31
667.612	12217
667.962	12198.69
668.312	12133.83
668.662	12283.89
669.011	12223.77
669.361	12133.61
669.711	12222.87
670.06	12194.62
670.41	12117.34
670.76	12146.49
671.109	12154.4
671.459	12183.78
671.808	12153.49
672.157	12223.55
672.507	12057.45
672.856	12084.12
673.205	12176.77
673.554	12227.39
673.904	12111.69
674.253	12219.25
674.602	12079.15
674.951	11993.95
675.3	11886.83
675.649	12118.24
675.998	12052.48
676.346	12139.71
676.695	12092.93
677.044	12037.79
677.393	12047.96
677.741	11976.32
678.09	12016.32
678.438	11986.04
678.787	11953.95
679.135	11920.05
679.484	11883.22
679.832	12001.41
680.181	11795.99
680.529	11959.6
680.877	11886.83
681.225	11817.01
681.573	11901.07
681.922	11842.77
682.27	11718.03
682.618	11695.65
682.966	11678.03
683.314	11783.33
683.661	11624.24
684.009	11591.7
684.357	11586.05
684.705	11576.79
685.053	11606.39
685.4	11579.72
685.748	11535.66
686.095	11525.49
686.443	11458.82
686.79	11415.21
687.138	11480.97
687.485	11381.31
687.832	11405.04
688.18	11422.44
688.527	11306.06
688.874	11334.98
689.221	11347.64
689.568	11253.18
689.915	11291.82
690.262	11210.24
690.609	11232.84
690.956	11096.8
691.303	11138.61
691.65	11117.82
691.997	10991.04
692.344	11017.48
692.69	10978.84
693.037	10931.61
693.383	10823.13
693.73	10904.49
694.077	10769.12
694.423	10857.26
694.769	10806.18
695.116	10718.5
695.462	10750.59
695.808	10619.07
696.155	10670.6
696.501	10504.95
696.847	10579.75
697.193	10548.34
697.539	10576.13
697.885	10507.21
698.231	10437.61
698.577	10451.84
698.923	10370.49
699.269	10307.21
699.614	10272.64
699.96	10217.05
700.306	10154.45
700.651	10143.15
700.997	10132.08
701.342	10084.85
701.688	10078.52
702.033	10059.99
702.379	10014.79
702.724	9987
703.069	10013.66
703.415	9924.17
703.76	9902.48
704.105	9889.15
704.45	9827
704.795	9775.25
705.14	9781.13
705.485	9714.69
705.83	9624.97
706.175	9667.01
706.52	9639.21
706.865	9593.56
707.209	9566.9
707.554	9581.36
707.899	9608.25
708.243	9521.25
708.588	9489.38
708.932	9438.76
709.277	9470.4
709.621	9455.26
709.966	9368.71
710.31	9410.52
710.654	9240.12
710.998	9347.24
711.342	9355.15
711.687	9192.22
712.031	9182.5
712.375	9183.63
712.719	9223.63
713.063	9156.06
713.407	9180.01
713.75	9164.65
714.094	9115.16
714.438	9104.53
714.782	9131.65
715.125	9053.24
715.469	9065.21
715.812	9034.71
716.156	9013.69
716.499	8984.99
716.843	9000.58
717.186	8893.92
717.53	8993.13
717.873	8965.78
718.216	8949.28
718.559	8890.75
718.902	8847.37
719.246	8866.12
719.589	8908.38
719.932	8829.74
720.275	8849.17
720.617	8778.67
720.96	8802.85
721.303	8811.66
721.646	8755.62
721.989	8759.46
722.331	8785.22
722.674	8716.97
723.016	8835.39
723.359	8721.72
723.701	8728.95
724.044	8737.54
724.386	8672.91
724.729	8724.66
725.071	8697.54
725.413	8642.85
725.755	8637.2
726.097	8643.08
726.439	8605.34
726.782	8632
727.124	8653.25
727.465	8645.56
727.807	8577.99
728.149	8591.33
728.491	8630.87
728.833	8616.19
729.175	8637.43
729.516	8584.55
729.858	8576.64
730.199	8620.48
730.541	8545.68
730.882	8527.37
731.224	8554.49
731.565	8530.54
731.906	8539.8
732.248	8512.01
732.589	8545
732.93	8460.03
733.271	8475.85
733.612	8524.66
733.953	8485.12
734.294	8556.75
734.635	8526.02
734.976	8526.24
735.317	8496.19
735.658	8539.35
735.999	8469.98
736.339	8514.72
736.68	8543.87
737.021	8525.57
737.361	8485.34
737.702	8493.93
738.042	8574.15
738.383	8527.6
738.723	8539.35
739.063	8555.85
739.404	8594.72
739.744	8541.61
740.084	8564.21
740.424	8585.68
740.764	8594.49
741.104	8599.92
741.444	8595.17
741.784	8608.5
742.124	8647.82
742.464	8678.11
742.804	8727.37
743.143	8737.09
743.483	8736.63
743.823	8747.71
744.162	8744.54
744.502	8824.09
744.841	8796.97
745.181	8926.91
745.52	8833.36
745.86	8918.78
746.199	8942.28
746.538	8978.89
746.877	9083.74
747.216	9016.63
747.556	9062.05
747.895	9162.16
748.234	9129.17
748.573	9206.45
748.911	9259.78
749.25	9295.94
749.589	9397.63
749.928	9422.27
750.267	9455.03
750.605	9520.79
750.944	9631.07
751.283	9639.89
751.621	9815.93
751.96	9802.37
752.298	9901.58
752.636	10009.37
752.975	10036.49
753.313	10175.69
753.651	10250.04
753.989	10328.23
754.327	10476.48
754.666	10539.98
755.004	10661.33
755.342	10758.73
755.679	10933.87
756.017	10991.94
756.355	11147.64
756.693	11227.19
757.031	11467.64
757.368	11565.49
757.706	11684.13
758.044	11780.62
758.381	12036.66
758.719	12111.24
759.056	12325.47
759.394	12465.12
759.731	12541.96
760.068	12658.11
760.405	12877.32
760.743	12984.21
761.08	13264.88
761.417	13295.61
761.754	13489.5
762.091	13689.72
762.428	13748.71
762.765	13838.42
763.102	14149.37
763.438	14177.85
763.775	14291.29
764.112	14535.58
764.449	14720.21
764.785	14793.42
765.122	14892.18
765.458	14999.07
765.795	15230.93
766.131	15335.56
766.467	15493.07
766.804	15545.27
767.14	15651.93
767.476	15850.35
767.812	15892.38
768.148	16067.97
768.485	16180.51
768.821	16259.6
769.157	16465.47
769.492	16570.78
769.828	16649.65
770.164	16657.56
770.5	16943.2
770.836	17013.48
771.171	16987.49
771.507	17139.58
771.842	17146.13
772.178	17165.57
772.513	17391.1
772.849	17421.83
773.184	17602.62
773.519	17613.92
773.855	17623.86
774.19	17701.37
774.525	17751.76
774.86	17925.09
775.195	17918.54
775.53	17883.51
775.865	17950.4
776.2	17978.88
776.535	17919.22
776.87	17990.63
777.205	18089.84
777.539	18100.68
777.874	18217.74
778.209	18132.77
778.543	18140.46
778.878	18076.05
779.212	18267.23
779.547	18254.8
779.881	18230.62
780.215	18148.59
780.55	18314.46
780.884	18256.61
781.218	18352.43
781.552	18396.49
781.886	18314.46
782.22	18277.17
782.554	18231.98
782.888	18134.81
783.222	18215.03
783.556	18175.93
783.889	18211.41
784.223	18173.45
784.557	18142.04
784.89	18067.46
785.224	18000.57
785.557	18021.14
785.891	18106.56
786.224	18033.57
786.558	18146.1
786.891	17889.16
787.224	17987.69
787.557	17968.48
787.891	17992.66
788.224	17970.74
788.557	17987.69
788.89	18024.53
789.223	17921.25
789.556	17832.44
789.888	17821.37
790.221	17869.95
790.554	17675.16
790.887	17807.81
791.219	17749.73
791.552	17637.42
791.884	17621.15
792.217	17575.27
792.549	17474.48
792.882	17433.81
793.214	17466.35
793.546	17415.95
793.879	17294.6
794.211	17307.93
794.543	17392.23
794.875	17329.18
795.207	17276.3
795.539	17279.69
795.871	17314.49
796.203	17218.67
796.535	17082.63
796.867	17106.58
797.198	16934.39
797.53	17044.21
797.862	16954.95
798.193	16957.66
798.525	16916.53
798.856	16816.42
799.188	16727.16
799.519	16695.07
799.85	16676.76
800.182	16603.55
800.513	16698.23
800.844	16530.33
801.175	16637.67
801.506	16488.3
801.837	16430.9
802.168	16415.53
802.499	16435.64
802.83	16354.29
803.161	16265.02
803.491	16290.33
803.822	16223.67
804.153	16225.93
804.483	16124.24
804.814	16071.36
805.145	16016.9
805.475	16048.53
805.805	15991.59
806.136	15927.86
806.466	15979.16
806.796	15946.61
807.126	15908.2
807.457	15794.53
807.787	15826.84
808.117	15760.4
808.447	15705.94
808.777	15791.82
809.107	15745.04
809.436	15677.02
809.766	15684.25
810.096	15589.79
810.426	15536.68
810.755	15523.35
811.085	15489.68
811.414	15488.1
811.744	15313.64
812.073	15371.71
812.403	15360.64
812.732	15301.43
813.061	15324.48
813.39	15191.83
813.719	15159.06
814.049	15174.43
814.378	15213.75
814.707	15138.73
815.036	15110.48
815.365	15073.87
815.693	14842.91
816.022	14915
816.351	15003.81
816.68	14881.78
817.008	14882.69
817.337	14784.84
817.665	14780.32
817.994	14711.84
818.322	14755.01
818.651	14737.83
818.979	14618.29
819.307	14726.76
819.636	14738.96
819.964	14622.36
820.292	14665.07
820.62	14670.94
820.948	14507.1
821.276	14640.89
821.604	14586.42
821.932	14679.3
822.259	14623.49
822.587	14553.43
822.915	14578.29
823.243	14622.58
823.57	14548.69
823.898	14558.63
824.225	14476.14
824.553	14536.26
824.88	14564.28
825.207	14522.92
825.535	14512.08
825.862	14635.01
826.189	14619.64
826.516	14605.86
826.843	14631.17
827.17	14613.77
827.497	14562.47
827.824	14566.99
828.151	14599.76
828.478	14705.29
828.805	14641.79
829.131	14559.53
829.458	14635.24
829.785	14498.97
830.111	14590.04
830.438	14676.59
830.764	14588.68
831.09	14644.73
831.417	14500.78
831.743	14607.67
832.069	14545.75
832.395	14545.3
832.722	14561.57
833.048	14565.63
833.374	14506.2
833.7	14456.26
834.026	14437.28
834.351	14554.11
834.677	14421.23
835.003	14516.14
835.329	14371.06
835.654	14393.66
835.98	14336.49
836.306	14418.97
836.631	14340.33
836.956	14414.9
837.282	14400.67
837.607	14391.63
837.932	14290.84
838.258	14325.41
838.583	14223.72
838.908	14233.67
839.233	14229.6
839.558	14192.31
839.883	14066.44
840.208	14131.52
840.533	14121.35
840.858	14058.75
841.182	14144.63
841.507	14107.57
841.832	14040.9
842.156	14013.78
842.481	14044.29
842.805	13868.03
843.13	13971.75
843.454	13860.79
843.778	13915.48
844.103	13783.28
844.427	13779.67
844.751	13786.45
845.075	13763.4
845.399	13607.02
845.723	13570.86
846.047	13597.07
846.371	13480.69
846.695	13468.71
847.019	13411.54
847.343	13407.02
847.666	13320.24
847.99	13293.58
848.313	13248.83
848.637	13183.98
848.96	13200.25
849.284	13120.7
849.607	12951.89
849.931	12957.09
850.254	12963.19
850.577	12849.29
850.9	12699.24
851.223	12791.9
851.546	12675.51
851.869	12589.19
852.192	12618.34
852.515	12548.29
852.838	12432.13
853.161	12437.1
853.483	12391.68
853.806	12374.28
854.129	12372.25
854.451	12288.86
854.774	12203.66
855.096	12186.26
855.419	12077.34
855.741	12113.72
856.063	12007.96
856.385	12033.27
856.708	11972.26
857.03	11963.44
857.352	11952.82
857.674	11922.77
857.996	11864.69
858.318	11757.35
858.64	11781.98
858.961	11809.55
859.283	11694.07
859.605	11710.12
859.926	11691.13
860.248	11627.18
860.57	11598.48
860.891	11612.72
861.212	11494.98
861.534	11518.48
861.855	11552.38
862.176	11477.81
862.498	11508.77
862.819	11455.43
863.14	11407.75
863.461	11391.93
863.782	11372.27
864.103	11353.06
864.424	11295.89
864.745	11330.46
865.065	11290.24
865.386	11227.87
865.707	11182.67
866.027	11173.86
866.348	11153.52
866.668	11218.6
866.989	11105.16
867.309	11080.3
867.63	11104.71
867.95	11028.1
868.27	10982
868.59	11037.37
868.91	11118.94
869.23	11048.66
869.55	10978.38
869.87	11070.13
870.19	10978.61
870.51	10939.06
870.83	10977.71
871.15	10935.67
871.469	10906.07
871.789	10918.72
872.109	10925.28
872.428	10861.78
872.748	10901.32
873.067	10851.38
873.386	10883.02
873.706	10782.68
874.025	10753.53
874.344	10680.31
874.663	10688
874.982	10719.41
875.301	10715.79
875.62	10697.04
875.939	10736.81
876.258	10689.58
876.577	10665.62
876.896	10640.09
877.214	10576.36
877.533	10642.8
877.852	10561.22
878.17	10595.79
878.489	10582.69
878.807	10529.13
879.125	10576.81
879.444	10452.97
879.762	10502.92
880.08	10469.02
880.398	10321.45
880.716	10398.96
881.034	10434.22
881.352	10359.19
881.67	10384.95
881.988	10286.42
882.306	10326.65
882.624	10248.23
882.941	10226.31
883.259	10228.35
883.577	10179.31
883.894	10189.48
884.212	10120.55
884.529	10227.67
884.846	10116.94
885.164	10079.2
885.481	10038.07
885.798	10147.9
886.115	9955.81
886.432	9963.95
886.75	9946.77
887.067	9973.66
887.383	9959.43
887.7	9984.29
888.017	9815.7
888.334	9899.99
888.651	9859.54
888.967	9836.94
889.284	9800.79
889.6	9741.81
889.917	9754.24
890.233	9672.66
890.55	9654.12
890.866	9585.43
891.182	9636.95
891.498	9542.72
891.815	9542.94
892.131	9524.86
892.447	9448.48
892.763	9487.8
893.079	9435.6
893.395	9409.84
893.71	9390.4
894.026	9326.9
894.342	9318.99
894.657	9250.75
894.973	9302.95
895.289	9262.72
895.604	9243.51
895.92	9118.32
896.235	9063.86
896.55	9085.55
896.865	9046.46
897.181	9015.95
897.496	9028.83
897.811	8993.8
898.126	8944.31
898.441	8898.44
898.756	8910.87
899.071	8848.5
899.386	8883.07
899.7	8764.88
900.015	8720.36
900.33	8693.7
900.644	8657.54
900.959	8661.16
901.273	8682.62
901.588	8656.41
901.902	8560.14
902.216	8541.39
902.531	8507.26
902.845	8438.79
903.159	8408.28
903.473	8389.53
903.787	8367.15
904.101	8347.27
904.415	8327.61
904.729	8240.83
905.042	8163.09
905.356	8172.13
905.67	8190.21
905.984	8234.73
906.297	8124.9
906.611	8110.89
906.924	8067.27
907.237	8013.72
907.551	8028.86
907.864	7955.86
908.177	7931.68
908.491	7903.21
908.804	7883.32
909.117	7867.96
909.43	7740.73
909.743	7764
910.056	7680.84
910.368	7679.94
910.681	7666.38
910.994	7576.21
911.307	7631.35
911.619	7531.69
911.932	7531.69
912.244	7514.75
912.557	7490.34
912.869	7394.75
913.181	7388.42
913.494	7390.23
913.806	7338.71
914.118	7368.76
914.43	7291.25
914.742	7300.29
915.054	7263.68
915.366	7266.16
915.678	7158.37
915.99	7127.41
916.302	7082.89
916.613	7140.97
916.925	7064.59
917.236	7030.92
917.548	7020.75
917.859	7027.3
918.171	6949.11
918.482	6879.28
918.794	6842.9
919.105	6860.75
919.416	6846.97
919.727	6837.25
920.038	6804.03
920.349	6750.7
920.66	6729.68
920.971	6747.99
921.282	6675.9
921.593	6593.19
921.903	6588.44
922.214	6594.32
922.525	6542.57
922.835	6554.55
923.146	6469.58
923.456	6503.93
923.767	6437.71
924.077	6468.9
924.387	6402.01
924.697	6308.68
925.008	6378.96
925.318	6298.05
925.628	6382.12
925.938	6338.05
926.248	6230.49
926.558	6247.66
926.867	6207.44
927.177	6234.33
927.487	6182.35
927.796	6114.1
928.106	6109.36
928.416	6036.82
928.725	6066.2
929.034	6034.33
929.344	6002.47
929.653	5975.35
929.962	5949.59
930.271	5943.04
930.581	5854.9
930.89	5866.65
931.199	5854
931.508	5899.2
931.817	5905.3
932.125	5793.66
932.434	5842.25
932.743	5693.55
933.051	5689.94
933.36	5680.9
933.669	5641.35
933.977	5659.2
934.286	5609.49
934.594	5603.61
934.902	5544.4
935.21	5535.59
935.519	5531.52
935.827	5469.6
936.135	5437.06
936.443	5452.88
936.751	5455.82
937.059	5419.66
937.367	5394.35
937.674	5354.12
937.982	5314.58
938.29	5288.82
938.597	5334.24
938.905	5251.08
939.213	5246.33
939.52	5185.09
939.827	5209.95
940.135	5156.84
940.442	5175.15
940.749	5114.81
941.056	5154.13
941.363	5088.37
941.67	5075.04
941.977	5022.38
942.284	5003.4
942.591	5010.18
942.898	4966.11
943.205	5005.89
943.511	4921.14
943.818	4931.99
944.125	4891.76
944.431	4877.53
944.738	4900.8
945.044	4863.74
945.35	4803.4
945.657	4776.51
945.963	4753.24
946.269	4705.33
946.575	4761.37
946.881	4698.55
947.187	4689.06
947.493	4631.43
947.799	4650.64
948.105	4665.1
948.41	4578.78
948.716	4604.31
949.022	4582.39
949.327	4530.19
949.633	4533.36
949.938	4542.85
950.244	4531.77
950.549	4485
950.854	4480.02
951.16	4471.44
951.465	4414.26
951.77	4389.4
952.075	4346.02
952.38	4373.59
952.685	4343.53
952.99	4317.09
953.294	4278.45
953.599	4280.03
953.904	4279.58
954.209	4235.51
954.513	4247.94
954.818	4188.73
955.122	4212.01
955.426	4180.82
955.731	4162.52
956.035	4146.92
956.339	4131.33
956.643	4139.24
956.948	4052.01
957.252	4091.11
957.556	4064.89
957.86	4099.92
958.163	4019.02
958.467	3973.82
958.771	3971.11
959.075	3984.44
959.378	3962.07
959.682	3956.42
959.985	3931.34
960.289	3904.22
960.592	3907.61
960.896	3903.99
961.199	3871
961.502	3847.5
961.805	3828.06
962.108	3840.04
962.411	3776.99
962.714	3799.59
963.017	3732.92
963.32	3733.83
963.623	3711.91
963.926	3714.17
964.228	3694.51
964.531	3735.86
964.833	3695.41
965.136	3642.08
965.438	3640.05
965.741	3594.17
966.043	3601.63
966.345	3614.51
966.648	3577
966.95	3547.84
967.252	3548.3
967.554	3562.53
967.856	3511.46
968.158	3494.06
968.46	3470.11
968.761	3458.58
969.063	3464.68
969.365	3434.85
969.666	3391.01
969.968	3403.89
970.269	3348.08
970.571	3362.31
970.872	3370.67
971.174	3344.91
971.475	3346.04
971.776	3346.27
972.077	3301.07
972.378	3310.11
972.679	3279.6
972.98	3257.91
973.281	3309.21
973.582	3208.42
973.883	3262.43
974.183	3208.42
974.484	3168.87
974.785	3172.71
975.085	3160.74
975.386	3171.81
975.686	3163.67
975.986	3130.68
976.287	3134.07
976.587	3080.74
976.887	3099.49
977.187	3101.08
977.487	3062.66
977.787	3041.19
978.087	3023.11
978.387	3034.86
978.687	2991.02
978.987	2994.41
979.286	2979.5
979.586	2977.24
979.885	2932.27
980.185	2936.56
980.484	2900.18
980.784	2880.74
981.083	2897.24
981.382	2879.61
981.682	2896.79
981.981	2854.3
982.28	2834.64
982.579	2820.86
982.878	2844.36
983.177	2783.34
983.475	2793.51
983.774	2785.38
984.073	2756.45
984.372	2767.75
984.67	2755.32
984.969	2735.89
985.267	2716.68
985.566	2714.65
985.864	2682.56
986.162	2673.07
986.461	2680.75
986.759	2636.68
987.057	2624.25
987.355	2610.47
987.653	2630.35
987.951	2600.75
988.249	2564.14
988.547	2586.97
988.844	2554.65
989.142	2553.97
989.44	2536.35
989.737	2534.31
990.035	2542.45
990.332	2479.62
990.63	2490.47
990.927	2487.53
991.224	2464.71
991.521	2428.55
991.819	2437.82
992.116	2442.79
992.413	2434.65
992.71	2412.73
993.006	2417.93
993.303	2392.39
993.6	2400.3
993.897	2386.97
994.193	2376.35
994.49	2368.21
994.787	2348.1
995.083	2343.81
995.379	2291.38
995.676	2298.84
995.972	2287.31
996.268	2271.49
996.565	2273.08
996.861	2294.77
997.157	2260.19
997.453	2252.74
997.749	2217.71
998.044	2206.86
998.34	2201.44
998.636	2202.57
998.932	2193.53
999.227	2194.43
999.523	2171.61
999.818	2141.1
1000.114	2120.31
1000.409	2129.35
1000.704	2116.7
1001	2104.27
1001.295	2108.79
1001.59	2079.86
1001.885	2085.74
1002.18	2063.59
1002.475	2054.1
1002.77	2028.79
1003.065	2039.18
1003.359	2011.39
1003.654	2016.59
1003.949	2012.52
1004.243	1982.01
1004.538	1956.93
1004.832	1989.69
1005.127	1972.07
1005.421	1939.07
1005.715	1931.39
1006.009	1910.6
1006.304	1909.02
1006.598	1904.5
1006.892	1886.65
1007.186	1868.34
1007.48	1889.81
1007.773	1856.36
1008.067	1854.56
1008.361	1840.32
1008.655	1819.08
1008.948	1801.45
1009.242	1828.57
1009.535	1787.89
1009.829	1767.33
1010.122	1765.74
1010.415	1768.46
1010.708	1758.51
1011.001	1743.15
1011.295	1742.92
1011.588	1680.78
1011.881	1717.16
1012.173	1717.38
1012.466	1676.71
1012.759	1688.68
1013.052	1705.86
1013.344	1647.33
1013.637	1646.88
1013.93	1617.73
1014.222	1653.21
1014.514	1618.63
1014.807	1635.35
1015.099	1615.92
1015.391	1597.39
1015.683	1593.55
1015.976	1610.27
1016.268	1563.49
1016.56	1590.38
1016.851	1568.24
1017.143	1543.15
1017.435	1523.94
1017.727	1510.16
1018.018	1524.85
1018.31	1496.15
1018.602	1469.93
1018.893	1474.23
1019.185	1507.67
1019.476	1459.09
1019.767	1442.14
1020.058	1438.75
1020.35	1422.7
1020.641	1412.76
1020.932	1405.75
1021.223	1400.1
1021.514	1385.42
1021.804	1377.51
1022.095	1400.78
1022.386	1389.94
1022.677	1352.2
1022.967	1346.77
1023.258	1350.39
1023.548	1342.25
1023.839	1345.42
1024.129	1302.25
1024.419	1306.77
1024.709	1290.05
1025	1298.86
1025.29	1317.39
1025.58	1288.69
1025.87	1262.25
1026.16	1257.74
1026.449	1263.84
1026.739	1241.24
1027.029	1240.11
1027.319	1251.41
1027.608	1216.15
1027.898	1193.33
1028.187	1221.35
1028.477	1225.42
1028.766	1184.06
1029.055	1180.45
1029.344	1166.66
1029.634	1174.8
1029.923	1151.52
1030.212	1185.87
1030.501	1180.68
1030.79	1128.7
1031.078	1119.66
1031.367	1126.89
1031.656	1129.6
1031.945	1128.02
1032.233	1088.7
1032.522	1109.49
1032.81	1091.86
1033.099	1092.09
1033.387	1079.21
1033.675	1083.95
1033.963	1066.78
1034.251	1064.52
1034.54	1064.97
1034.828	1040.57
1035.116	1028.81
1035.403	1032.43
1035.691	1013.67
1035.979	1015.71
1036.267	984.75
1036.554	1000.34
1036.842	993.79
1037.129	1010.28
1037.417	973.67
1037.704	974.35
1037.992	957.18
1038.279	965.99
1038.566	978.65
1038.853	978.65
1039.14	978.65
