Data from hue_230_FLMS001491_00096.txt Node
Date: Tue Feb 07 16:38:01 GMT 2017
User: dcchb
Spectrometer: FLMS00149
Trigger mode: 0
Integration Time (sec): 2.000000E-2
Scans to average: 10
Electric dark correction enabled: true
Nonlinearity correction enabled: false
Boxcar width: 0
XAxis mode: Wavelengths
Number of Pixels in Spectrum: 2048
>>>>>Begin Spectral Data<<<<<
341.393	-7.46
341.776	-7.46
342.16	-7.46
342.543	-64.86
342.927	-68.92
343.31	-57.4
343.693	-63.28
344.077	-72.54
344.46	-71.86
344.843	-46.78
345.226	-52.43
345.61	-41.13
345.993	-9.04
346.376	-5.2
346.759	14.69
347.142	28.93
347.525	33.45
347.908	53.11
348.291	70.73
348.674	98.08
349.057	120.67
349.44	125.19
349.823	139.21
350.206	156.61
350.588	183.5
350.971	191.63
351.354	224.17
351.737	247.68
352.119	235.7
352.502	255.36
352.884	276.6
353.267	259.65
353.65	284.06
354.032	285.19
354.414	297.17
354.797	310.73
355.179	309.37
355.562	330.84
355.944	323.38
356.326	319.54
356.709	334.68
357.091	315.92
357.473	322.48
357.855	339.2
358.238	329.03
358.62	339.65
359.002	321.35
359.384	324.06
359.766	322.03
360.148	319.54
360.53	323.38
360.912	325.87
361.294	322.25
361.676	324.51
362.057	310.27
362.439	306.43
362.821	317.28
363.203	308.69
363.584	303.04
363.966	339.65
364.348	316.83
364.729	315.25
365.111	327.9
365.493	310.27
365.874	286.77
366.256	289.71
366.637	300.56
367.019	313.21
367.4	302.14
367.781	285.64
368.163	288.81
368.544	299.2
368.925	308.01
369.306	315.7
369.688	311.86
370.069	309.82
370.45	317.51
370.831	305.98
371.212	306.88
371.593	301.69
371.974	310.27
372.355	289.48
372.736	295.59
373.117	310.5
373.498	310.95
373.879	319.31
374.26	276.6
374.641	321.57
375.021	328.35
375.402	301.24
375.783	314.79
376.163	315.92
376.544	330.39
376.925	307.56
377.305	317.96
377.686	308.01
378.066	321.35
378.447	332.65
378.827	323.16
379.208	304.17
379.588	304.85
379.968	343.49
380.349	321.12
380.729	334.68
381.109	328.35
381.489	321.57
381.87	330.61
382.25	313.44
382.63	326.77
383.01	319.31
383.39	350.73
383.77	341.01
384.15	330.84
384.53	326.09
384.91	333.78
385.29	348.92
385.67	339.65
386.049	332.87
386.429	339.65
386.809	339.65
387.189	334.68
387.568	349.37
387.948	345.53
388.328	333.1
388.707	341.91
389.087	356.15
389.466	342.36
389.846	345.3
390.225	363.38
390.605	358.86
390.984	353.66
391.363	343.95
391.743	357.28
392.122	368.58
392.501	349.14
392.881	348.69
393.26	369.71
393.639	362.93
394.018	381.91
394.397	360.22
394.776	359.54
395.155	377.84
395.534	378.75
395.913	371.29
396.292	362.93
396.671	390.27
397.05	378.07
397.429	363.15
397.808	373.55
398.186	392.53
398.565	373.32
398.944	355.92
399.323	408.35
399.701	388.24
400.08	383.04
400.458	388.69
400.837	366.77
401.215	409.03
401.594	391.63
401.972	391.18
402.351	397.5
402.729	426.2
403.107	401.12
403.486	388.69
403.864	405.41
404.242	413.55
404.62	433.43
404.999	440.44
405.377	425.75
405.755	416.03
406.133	400.44
406.511	420.78
406.889	417.84
407.267	437.05
407.645	437.5
408.023	433.89
408.401	461.46
408.779	462.59
409.156	471.17
409.534	454.45
409.912	490.61
410.29	476.82
410.667	496.03
411.045	488.35
411.422	502.13
411.8	489.7
412.178	507.56
412.555	531.74
412.933	513.88
413.31	502.81
413.687	522.02
414.065	541.23
414.442	522.25
414.819	534.22
415.197	551.4
415.574	555.01
415.951	537.39
416.328	567.44
416.705	575.35
417.082	571.51
417.46	587.33
417.837	576.93
418.214	597.5
418.591	604.5
418.967	601.57
419.344	631.4
419.721	625.97
420.098	621.9
420.475	653.77
420.852	639.31
421.228	651.06
421.605	673.65
421.982	671.39
422.358	655.58
422.735	685.18
423.111	677.95
423.488	709.81
423.864	711.17
424.241	742.58
424.617	735.12
424.994	732.18
425.37	750.49
425.746	747.1
426.123	747.78
426.499	770.38
426.875	784.61
427.251	808.79
427.627	830.71
428.003	843.14
428.379	820.32
428.756	826.87
429.132	839.98
429.507	833.2
429.883	865.51
430.259	870.94
430.635	852.41
431.011	897.83
431.387	902.35
431.763	925.63
432.138	937.15
432.514	943.25
432.89	942.8
433.265	940.31
433.641	973.76
434.016	980.54
434.392	981.9
434.767	1028.67
435.143	1011.95
435.518	1065.28
435.894	1068.67
436.269	1073.19
436.644	1136.02
437.02	1116.13
437.395	1116.81
437.77	1132.4
438.145	1149.57
438.52	1171.72
438.895	1192.06
439.271	1176.69
439.646	1224.15
440.021	1218.95
440.395	1239.29
440.77	1238.61
441.145	1262.79
441.52	1305.28
441.895	1318.61
442.27	1324.03
442.645	1320.19
443.019	1344.82
443.394	1324.48
443.769	1362.45
444.143	1330.36
444.518	1387.76
444.892	1390.92
445.267	1359.96
445.641	1383.24
446.016	1411.04
446.39	1415.1
446.764	1467.31
447.139	1424.6
447.513	1462.56
447.887	1462.56
448.262	1475.44
448.636	1489
449.01	1477.02
449.384	1483.35
449.758	1486.06
450.132	1541.65
450.506	1554.54
450.88	1565.61
451.254	1539.39
451.628	1594.99
452.002	1596.57
452.376	1590.47
452.75	1622.56
453.123	1639.73
453.497	1664.36
453.871	1650.58
454.244	1681.99
454.618	1707.53
454.992	1720.18
455.365	1704.36
455.739	1779.84
456.112	1766.96
456.486	1794.53
456.859	1781.87
457.232	1825.49
457.606	1803.12
457.979	1832.49
458.352	1875.66
458.725	1892.61
459.099	1877.01
459.472	1924.02
459.845	1951.81
460.218	1984.35
460.591	1948.42
460.964	1976.9
461.337	2047.18
461.71	2052.15
462.083	2084.46
462.456	2101.87
462.829	2098.25
463.201	2113.84
463.574	2109.1
463.947	2147.74
464.32	2213.5
464.692	2170.11
465.065	2232.48
465.438	2265.48
465.81	2262.99
466.183	2272.48
466.555	2348.41
466.928	2351.58
467.3	2340.05
467.672	2395.87
468.045	2461.4
468.417	2454.4
468.789	2456.88
469.161	2527.62
469.534	2521.97
469.906	2580.95
470.278	2568.07
470.65	2588.86
471.022	2680.61
471.394	2706.37
471.766	2714.96
472.138	2734.62
472.51	2806.93
472.882	2837.89
473.253	2863.43
473.625	2883.99
473.997	2983.2
474.369	2950.66
474.74	2966.48
475.112	3039.02
475.484	3051.45
475.855	3120.37
476.227	3138
476.598	3217.54
476.97	3214.83
477.341	3281.5
477.713	3349.29
478.084	3318.1
478.455	3415.28
478.827	3468.38
479.198	3525.56
479.569	3565.1
479.94	3617.98
480.311	3643.52
480.682	3711.31
481.053	3778.43
481.424	3847.13
481.795	3884.87
482.166	3916.06
482.537	3934.36
482.908	4015.04
483.279	4043.96
483.65	4096.62
484.021	4219.78
484.391	4213.22
484.762	4261.36
485.133	4317.17
485.503	4372.09
485.874	4448.02
486.244	4438.53
486.615	4505.19
486.985	4594
487.356	4653.89
487.726	4628.8
488.097	4723.94
488.467	4738.86
488.837	4832.64
489.207	4899.76
489.578	4969.13
489.948	4981.56
490.318	5069.92
490.688	5055.69
491.058	5129.81
491.428	5174.55
491.798	5199.41
492.168	5277.15
492.538	5332.97
492.908	5403.02
493.278	5431.04
493.648	5453.19
494.017	5494.09
494.387	5525.96
494.757	5505.62
495.126	5617.03
495.496	5630.81
495.866	5611.83
496.235	5671.94
496.605	5695.22
496.974	5749.45
497.344	5842.11
497.713	5803.46
498.082	5831.94
498.452	5851.37
498.821	5929.11
499.19	5896.34
499.559	5939.05
499.928	5987.64
500.298	6014.31
500.667	5990.58
501.036	5965.27
501.405	6030.8
501.774	6104.7
502.143	6140.18
502.512	6127.75
502.88	6183.34
503.249	6153.51
503.618	6148.54
503.987	6223.57
504.356	6205.26
504.724	6224.24
505.093	6285.26
505.462	6255.43
505.83	6338.14
506.199	6242.77
506.567	6423.11
506.936	6396.67
507.304	6435.31
507.672	6421.98
508.041	6436.67
508.409	6463.56
508.777	6522.77
509.145	6566.38
509.514	6524.8
509.882	6569.09
510.25	6586.49
510.618	6551.47
510.986	6564.35
511.354	6627.4
511.722	6649.32
512.09	6706.26
512.458	6689.32
512.826	6695.19
513.193	6712.37
513.561	6734.29
513.929	6764.57
514.297	6764.12
514.664	6809.31
515.032	6805.02
515.4	6795.75
515.767	6823.55
516.135	6829.42
516.502	6781.52
516.869	6900.16
517.237	6848.63
517.604	6816.32
517.972	6874.17
518.339	6905.36
518.706	6909.65
519.073	6868.29
519.44	6971.79
519.808	6925.24
520.175	6927.73
520.542	6934.05
520.909	6998.46
521.276	6951.91
521.643	6981.74
522.009	7018.35
522.376	7019.25
522.743	7034.84
523.11	7054.5
523.477	7105.35
523.843	7127.27
524.21	7088.18
524.577	7163.88
524.943	7194.61
525.31	7082.07
525.676	7195.29
526.043	7175.18
526.409	7140.83
526.776	7258.79
527.142	7216.53
527.508	7230.54
527.874	7285.46
528.241	7225.8
528.607	7240.71
528.973	7270.77
529.339	7282.75
529.705	7269.19
530.071	7279.36
530.437	7317.77
530.803	7294.05
531.169	7283.42
531.535	7245.23
531.901	7272.35
532.267	7288.62
532.632	7252.92
532.998	7282.07
533.364	7385.34
533.73	7271
534.095	7336.3
534.461	7296.98
534.826	7294.05
535.192	7286.81
535.557	7364.1
535.923	7285.23
536.288	7269.64
536.653	7261.96
537.019	7223.54
537.384	7244.1
537.749	7244.56
538.114	7208.85
538.479	7176.08
538.845	7178.12
539.21	7130.21
539.575	7142.19
539.94	7212.47
540.305	7182.41
540.67	7084.56
541.034	7123.2
541.399	7108.06
541.764	7101.28
542.129	7102.64
542.494	7067.16
542.858	7138.34
543.223	7126.37
543.587	7100.15
543.952	7041.85
544.316	7024.45
544.681	7022.19
545.045	7045.01
545.41	7035.52
545.774	7044.11
546.138	7050.44
546.503	6994.84
546.867	6960.27
547.231	7033.04
547.595	6957.11
547.959	6987.39
548.324	6950.55
548.688	6953.72
549.052	6931.12
549.416	6919.82
549.779	6923.21
550.143	6914.39
550.507	6918.91
550.871	6838.24
551.235	6829.42
551.599	6862.64
551.962	6798.24
552.326	6789.2
552.689	6911.23
553.053	6792.14
553.417	6786.94
553.78	6863.32
554.143	6786.71
554.507	6845.92
554.87	6797.79
555.234	6817.67
555.597	6777.45
555.96	6765.92
556.323	6814.51
556.686	6741.74
557.05	6793.27
557.413	6777.67
557.776	6737.68
558.139	6804.34
558.502	6780.39
558.865	6751.91
559.228	6792.59
559.59	6837.11
559.953	6771.57
560.316	6848.63
560.679	6776.54
561.041	6833.04
561.404	6877.56
561.767	6859.48
562.129	6874.85
562.492	6863.32
562.854	6823.32
563.217	6843.44
563.579	6884.11
563.941	6883.21
564.304	6912.81
564.666	6939.93
565.028	6927.95
565.39	6954.62
565.753	6901.51
566.115	6941.06
566.477	6952.13
566.839	6988.52
567.201	7029.87
567.563	7062.64
567.925	7050.89
568.287	7054.28
568.648	7059.25
569.01	7102.19
569.372	7110.32
569.734	7082.07
570.095	7128.17
570.457	7131.34
570.819	7162.3
571.18	7157.1
571.542	7112.13
571.903	7108.74
572.265	7190.09
572.626	7235.29
572.987	7242.75
573.349	7189.64
573.71	7280.26
574.071	7268.96
574.432	7244.78
574.794	7334.27
575.155	7330.65
575.516	7256.98
575.877	7304.21
576.238	7352.12
576.599	7338.79
576.96	7367.26
577.32	7423.53
577.681	7388.51
578.042	7408.84
578.403	7475.74
578.763	7408.39
579.124	7496.75
579.485	7461.27
579.845	7562.96
580.206	7508.05
580.566	7520.93
580.927	7550.31
581.287	7576.75
581.648	7600.03
582.008	7549.18
582.368	7604.32
582.728	7629.86
583.089	7595.96
583.449	7605.22
583.809	7604.55
584.169	7672.79
584.529	7605.22
584.889	7701.72
585.249	7674.83
585.609	7699.68
585.969	7729.97
586.329	7755.5
586.688	7727.71
587.048	7779.91
587.408	7724.09
587.768	7739.01
588.127	7704.66
588.487	7776.52
588.846	7818.1
589.206	7754.82
589.565	7747.14
589.925	7808.38
590.284	7795.5
590.643	7742.17
591.003	7818.33
591.362	7875.05
591.721	7851.54
592.08	7909.4
592.44	7851.09
592.799	7860.58
593.158	7890.64
593.517	7944.2
593.876	7936.74
594.235	7910.53
594.593	7826.23
594.952	7916.4
595.311	7951.66
595.67	7948.27
596.029	7984.65
596.387	7912.56
596.746	8020.13
597.104	7988.49
597.463	7933.35
597.822	8026.68
598.18	7936.51
598.538	7962.73
598.897	7955.5
599.255	7935.61
599.613	8088.37
599.972	7971.54
600.33	8030.52
600.688	7948.72
601.046	7982.84
601.404	8083.86
601.762	8082.27
602.12	8059.45
602.478	8113.68
602.836	8106
603.194	8077.53
603.552	8105.55
603.91	8088.37
604.268	8129.73
604.625	8063.97
604.983	8078.21
605.341	8055.38
605.698	8102.16
606.056	8088.37
606.413	8099.22
606.771	8194.36
607.128	8120.01
607.485	8145.77
607.843	8136.96
608.2	8203.63
608.557	8150.75
608.914	8150.75
609.272	8204.53
609.629	8178.99
609.986	8195.72
610.343	8209.05
610.7	8274.36
611.057	8239.33
611.414	8224.87
611.771	8249.73
612.127	8276.62
612.484	8278.2
612.841	8281.14
613.198	8239.56
613.554	8249.05
613.911	8294.7
614.267	8345.54
614.624	8315.26
614.98	8367.24
615.337	8319.78
615.693	8323.85
616.05	8338.76
616.406	8400.68
616.762	8371.98
617.118	8368.59
617.475	8369.72
617.831	8411.76
618.187	8359.1
618.543	8394.36
618.899	8470.96
619.255	8424.19
619.611	8428.03
619.967	8459.21
620.323	8456.73
620.678	8448.37
621.034	8395.71
621.39	8404.07
621.746	8423.73
622.101	8429.83
622.457	8458.76
622.812	8444.75
623.168	8444.07
623.523	8427.8
623.879	8430.06
624.234	8459.44
624.589	8426.67
624.945	8440.91
625.3	8406.33
625.655	8421.93
626.01	8494.24
626.365	8393.68
626.72	8478.87
627.075	8408.82
627.43	8363.85
627.785	8364.07
628.14	8446.33
628.495	8360.46
628.85	8380.12
629.205	8334.92
629.559	8445.65
629.914	8384.64
630.269	8331.98
630.623	8331.31
630.978	8315.49
631.332	8308.71
631.687	8352.55
632.041	8331.53
632.396	8371.53
632.75	8354.13
633.104	8318.65
633.459	8221.93
633.813	8311.19
634.167	8276.84
634.521	8302.15
634.875	8289.5
635.229	8269.61
635.583	8249.27
635.937	8206.79
636.291	8195.26
636.645	8283.4
636.999	8199.78
637.352	8268.94
637.706	8189.16
638.06	8150.97
638.413	8185.55
638.767	8146.68
639.121	8188.49
639.474	8045.89
639.828	8146
640.181	8086.12
640.534	8161.82
640.888	8134.7
641.241	8050.41
641.594	8122.72
641.947	8062.84
642.301	8061.03
642.654	8050.41
643.007	8041.37
643.36	8149.39
643.713	8119.11
644.066	8168.15
644.419	8033.46
644.771	7981.49
645.124	7936.06
645.477	7883.41
645.83	7809.96
646.182	7800.25
646.535	7739.01
646.888	7870.98
647.24	7727.71
647.593	7832.34
647.945	7814.26
648.298	7726.58
648.65	7751.21
649.002	7640.48
649.355	7750.53
649.707	7793.69
650.059	7769.51
650.411	7851.09
650.763	7920.47
651.115	7995.95
651.467	7945.55
651.819	7906.46
652.171	7969.73
652.523	7921.83
652.875	7939.9
653.227	7855.61
653.578	7949.4
653.93	7914.59
654.282	7924.99
654.633	7879.11
654.985	7914.59
655.337	7901.49
655.688	7886.12
656.039	7962.05
656.391	7850.87
656.742	7828.72
657.094	7901.26
657.445	7915.72
657.796	7903.3
658.147	7882.96
658.498	7902.84
658.849	7893.58
659.2	7945.55
659.551	7905.33
659.902	7902.17
660.253	7934.03
660.604	7957.76
660.955	7896.97
661.306	7868.72
661.656	7903.97
662.007	7887.48
662.358	7965.67
662.708	7886.8
663.059	7892.67
663.409	7901.49
663.76	7939.68
664.11	7908.49
664.461	7961.37
664.811	7933.58
665.161	7976.51
665.511	7949.17
665.862	7910.07
666.212	7957.98
666.562	7972.45
666.912	7916.85
667.262	7908.27
667.612	7866.91
667.962	7944.88
668.312	7975.84
668.662	7966.12
669.011	7935.38
669.361	7960.02
669.711	7941.03
670.06	7940.81
670.41	7917.98
670.76	7931.32
671.109	7974.93
671.459	7885.89
671.808	7916.63
672.157	7902.84
672.507	7891.09
672.856	7843.64
673.205	7891.77
673.554	7896.74
673.904	7818.1
674.253	7901.49
674.602	7915.72
674.951	7786.91
675.3	7701.27
675.649	7831.21
675.998	7832.79
676.346	7777.2
676.695	7857.87
677.044	7801.38
677.393	7813.35
677.741	7769.74
678.09	7821.26
678.438	7754.6
678.787	7806.12
679.135	7823.52
679.484	7717.54
679.832	7717.99
680.181	7721.15
680.529	7709.85
680.877	7684.09
681.225	7685
681.573	7693.13
681.922	7683.64
682.27	7593.47
682.618	7668.05
682.966	7647.71
683.314	7630.08
683.661	7586.47
684.009	7530.2
684.357	7553.7
684.705	7553.02
685.053	7522.51
685.4	7463.76
685.748	7494.04
686.095	7453.82
686.443	7436.41
686.79	7447.49
687.138	7419.47
687.485	7468.28
687.832	7416.98
688.18	7379.69
688.527	7353.93
688.874	7343.08
689.221	7307.83
689.568	7298.79
689.915	7295.4
690.262	7274.61
690.609	7217.21
690.956	7238.23
691.303	7223.54
691.65	7207.49
691.997	7202.52
692.344	7152.81
692.69	7091.79
693.037	7125.69
693.383	7047.72
693.73	7062.87
694.077	7098.34
694.423	7002.75
694.769	6966.14
695.116	6990.32
695.462	6918.91
695.808	6939.93
696.155	6964.79
696.501	6907.61
696.847	6914.62
697.193	6767.73
697.539	6866.03
697.885	6786.04
698.231	6819.48
698.577	6786.04
698.923	6756.43
699.269	6714.63
699.614	6683.21
699.96	6670.33
700.306	6652.03
700.651	6642.54
700.997	6632.82
701.342	6639.83
701.688	6580.39
702.033	6564.12
702.379	6582.88
702.724	6502.88
703.069	6522.09
703.415	6423.79
703.76	6499.94
704.105	6459.49
704.45	6440.51
704.795	6431.92
705.14	6348.76
705.485	6334.07
705.83	6320.06
706.175	6313.05
706.52	6294.3
706.865	6279.61
707.209	6263.56
707.554	6217.01
707.899	6221.08
708.243	6256.11
708.588	6201.87
708.932	6169.78
709.277	6184.92
709.621	6138.6
709.966	6150.8
710.31	6128.88
710.654	6101.53
710.998	6040.07
711.342	6092.72
711.687	6091.82
712.031	6017.02
712.375	6000.97
712.719	6072.16
713.063	6034.87
713.407	6018.6
713.75	6013.4
714.094	5951.48
714.438	6007.75
714.782	5919.62
715.125	5961.88
715.469	5912.84
715.812	5892.5
716.156	5885.27
716.499	5940.41
716.843	5888.88
717.186	5870.13
717.53	5826.74
717.873	5892.27
718.216	5912.16
718.559	5847.08
718.902	5791.03
719.246	5832.39
719.589	5766.63
719.932	5815.44
720.275	5771.83
720.617	5747.87
720.96	5786.51
721.303	5771.6
721.646	5753.3
721.989	5690.7
722.331	5786.29
722.674	5768.44
723.016	5792.84
723.359	5763.92
723.701	5729.79
724.044	5687.53
724.386	5710.58
724.729	5737.02
725.071	5746.52
725.413	5736.57
725.755	5637.82
726.097	5731.83
726.439	5659.51
726.782	5669.68
727.124	5685.73
727.465	5648.67
727.807	5684.37
728.149	5630.36
728.491	5693.86
728.833	5677.82
729.175	5645.95
729.516	5650.92
729.858	5579.74
730.199	5679.17
730.541	5650.47
730.882	5568.89
731.224	5646.18
731.565	5639.63
731.906	5650.02
732.248	5617.93
732.589	5624.48
732.93	5594.2
733.271	5619.97
733.612	5634.88
733.953	5598.27
734.294	5564.83
734.635	5593.53
734.976	5613.86
735.317	5586.07
735.658	5635.78
735.999	5623.35
736.339	5604.6
736.68	5671.49
737.021	5599.85
737.361	5575.45
737.702	5641.66
738.042	5624.71
738.383	5622.9
738.723	5671.72
739.063	5683.01
739.404	5658.38
739.744	5698.16
740.084	5623.13
740.424	5686.4
740.764	5668.33
741.104	5730.92
741.444	5669.46
741.784	5690.25
742.124	5743.8
742.464	5727.98
742.804	5755.78
743.143	5738.83
743.483	5744.48
743.823	5762.11
744.162	5787.87
744.502	5819.51
744.841	5840.07
745.181	5821.77
745.52	5880.98
745.86	5929.34
746.199	5915.1
746.538	5952.84
746.877	5971.14
747.216	6032.16
747.556	6054.76
747.895	6093.85
748.234	6084.36
748.573	6085.94
748.911	6162.32
749.25	6190.8
749.589	6227.86
749.928	6225.15
750.267	6375.43
750.605	6373.17
750.944	6424.92
751.283	6446.84
751.621	6569.09
751.96	6536.33
752.298	6601.63
752.636	6657
752.975	6780.39
753.313	6831.68
753.651	6860.61
753.989	6977.9
754.327	6984.45
754.666	7092.69
755.004	7160.26
755.342	7276.42
755.679	7364.1
756.017	7456.53
756.355	7515.51
756.693	7559.35
757.031	7704.66
757.368	7782.85
757.706	7897.87
758.044	8053.35
758.381	8229.84
758.719	8240.24
759.056	8359.33
759.394	8485.43
759.731	8536.5
760.068	8615.14
760.405	8723.39
760.743	8864.4
761.08	8981.23
761.417	9083.15
761.754	9177.61
762.091	9308.46
762.428	9401.56
762.765	9576.25
763.102	9679.07
763.438	9718.84
763.775	9846.97
764.112	9942.34
764.449	10149.34
764.785	10201.09
765.122	10320.18
765.458	10337.13
765.795	10526.28
766.131	10592.94
766.467	10632.94
766.804	10851.01
767.14	10851.47
767.476	10918.13
767.812	11069.31
768.148	11216.65
768.485	11173.49
768.821	11301.85
769.157	11380.04
769.492	11436.54
769.828	11545.23
770.164	11612.8
770.5	11686.47
770.836	11828.39
771.171	11752.91
771.507	11859.35
771.842	11889.18
772.178	12009.85
772.513	12008.72
772.849	12143.64
773.184	12107.03
773.519	12243.07
773.855	12252.11
774.19	12309.96
774.525	12298.43
774.86	12412.78
775.195	12482.38
775.53	12437.19
775.865	12401.93
776.2	12491.2
776.535	12414.81
776.87	12526.22
777.205	12521.48
777.539	12539.78
777.874	12575.94
778.209	12607.35
778.543	12586.79
778.878	12581.14
779.212	12621.36
779.547	12594.25
779.881	12657.52
780.215	12573.68
780.55	12676.73
780.884	12670.63
781.218	12633.34
781.552	12640.12
781.886	12670.18
782.22	12652.1
782.554	12556.73
782.888	12558.31
783.222	12664.98
783.556	12557.18
783.889	12592.44
784.223	12452.55
784.557	12533.46
784.89	12530.07
785.224	12467.47
785.557	12510.41
785.891	12457.53
786.224	12513.34
786.558	12436.74
786.891	12407.58
787.224	12396.51
787.557	12368.26
787.891	12364.65
788.224	12362.16
788.557	12391.54
788.89	12311.54
789.223	12369.84
789.556	12259.79
789.888	12255.27
790.221	12287.81
790.554	12127.36
790.887	12213.46
791.219	12145.9
791.552	12197.65
791.884	12081.26
792.217	12088.72
792.549	12058.89
792.882	12049.85
793.214	12045.56
793.546	12088.5
793.879	12001.49
794.211	11966.01
794.543	11940.7
794.875	11953.81
795.207	11945.45
795.539	11910.2
795.871	11947.48
796.203	11744.1
796.535	11807.15
796.867	11749.52
797.198	11661.39
797.53	11742.29
797.862	11686.02
798.193	11744.55
798.525	11616.42
798.856	11696.19
799.188	11549.3
799.519	11482.41
799.85	11484.9
800.182	11540.26
800.513	11518.57
800.844	11427.27
801.175	11537.32
801.506	11444.22
801.837	11427.95
802.168	11301.62
802.499	11386.14
802.83	11269.08
803.161	11313.15
803.491	11307.95
803.822	11224.11
804.153	11232.7
804.483	11180.72
804.814	11141.63
805.145	11120.39
805.475	11174.4
805.805	11090.56
806.136	11070.22
806.466	11081.29
806.796	10998.35
807.126	10984.8
807.457	11021.18
807.787	10957
808.117	10931.92
808.447	10876.78
808.777	10893.05
809.107	10816.21
809.436	10852.82
809.766	10813.05
810.096	10778.25
810.426	10737.12
810.755	10748.64
811.085	10714.97
811.414	10740.51
811.744	10564.92
812.073	10636.78
812.403	10652.6
812.732	10584.13
813.061	10582.77
813.39	10521.76
813.719	10480.63
814.049	10570.57
814.378	10519.5
814.707	10394.75
815.036	10414.42
815.365	10375.32
815.693	10363.34
816.022	10337.13
816.351	10309.79
816.68	10280.41
817.008	10316.56
817.337	10242.89
817.665	10165.16
817.994	10266.17
818.322	10261.43
818.651	10164.03
818.979	10108.43
819.307	10195.44
819.636	10180.75
819.964	10077.25
820.292	10084.03
820.62	10155.89
820.948	10076.12
821.276	10188.66
821.604	10073.41
821.932	10119.51
822.259	10119.28
822.587	10086.06
822.915	10058.27
823.243	10161.54
823.57	10061.2
823.898	10153.63
824.225	10006.29
824.553	10073.41
824.88	10134.87
825.207	10226.4
825.535	10077.93
825.862	10126.51
826.189	10048.55
826.516	10188.21
826.843	10081.54
827.17	10195.44
827.497	10156.34
827.824	10130.36
828.151	10172.16
828.478	10164.03
828.805	10166.74
829.131	10089.68
829.458	10113.86
829.785	10049
830.111	10139.17
830.438	10122.45
830.764	10136.68
831.09	10129
831.417	10049.23
831.743	10133.07
832.069	10109.79
832.395	10080.19
832.722	10117.25
833.048	10084.03
833.374	10013.07
833.7	10020.53
834.026	10066.85
834.351	10039.51
834.677	10041.54
835.003	10057.59
835.329	10088.1
835.654	10009.68
835.98	9994.99
836.306	10037.02
836.631	9982.11
836.956	9971.04
837.282	9900.08
837.607	9893.53
837.932	9950.92
838.258	9896.01
838.583	9878.61
838.908	9862.34
839.233	9881.55
839.558	9800.65
839.883	9786.86
840.208	9802.68
840.533	9826.86
840.858	9772.85
841.182	9804.94
841.507	9704.83
841.832	9680.42
842.156	9690.82
842.481	9731.95
842.805	9671.38
843.13	9669.58
843.454	9631.84
843.778	9612.4
844.103	9592.52
844.427	9552.29
844.751	9508.45
845.075	9468
845.399	9475.01
845.723	9484.5
846.047	9436.14
846.371	9397.27
846.695	9313.88
847.019	9299.64
847.343	9268.23
847.666	9294.67
847.99	9179.87
848.313	9185.3
848.637	9172.64
848.96	9108.24
849.284	9157.5
849.607	9016.71
849.931	9022.59
850.254	8929.48
850.577	8874.12
850.9	8866.89
851.223	8863.72
851.546	8780.79
851.869	8779.43
852.192	8840.22
852.515	8670.96
852.838	8675.48
853.161	8743.05
853.483	8672.31
853.806	8595.71
854.129	8614.91
854.451	8580.34
854.774	8525.2
855.096	8470.29
855.419	8443.85
855.741	8473.9
856.063	8374.24
856.385	8451.53
856.708	8383.51
857.03	8315.49
857.352	8315.94
857.674	8353.9
857.996	8271.65
858.318	8241.37
858.64	8308.26
858.961	8232.33
859.283	8127.24
859.605	8199.56
859.926	8134.93
860.248	8134.02
860.57	8093.35
860.891	8118.88
861.212	8075.49
861.534	8087.7
861.855	8080.24
862.176	8039.11
862.498	8066.68
862.819	8070.97
863.14	7988.26
863.461	8036.85
863.782	7980.36
864.103	7946.91
864.424	7982.16
864.745	7946.23
865.065	7895.84
865.386	7863.75
865.707	7875.5
866.027	7858.78
866.348	7808.83
866.668	7821.94
866.989	7873.92
867.309	7812.68
867.63	7751.66
867.95	7783.52
868.27	7694.49
868.59	7727.03
868.91	7743.75
869.23	7593.25
869.55	7713.92
869.87	7738.78
870.19	7685.9
870.51	7680.25
870.83	7654.26
871.15	7620.82
871.469	7658.56
871.789	7575.17
872.109	7653.58
872.428	7575.39
872.748	7605.45
873.067	7553.7
873.386	7547.6
873.706	7541.27
874.025	7523.19
874.344	7498.33
874.663	7523.19
874.982	7507.6
875.301	7418.79
875.62	7453.14
875.939	7436.64
876.258	7445.23
876.577	7384.66
876.896	7442.52
877.214	7485.9
877.533	7430.99
877.852	7389.18
878.17	7362.07
878.489	7350.77
878.807	7370.65
879.125	7358.22
879.444	7377.89
879.762	7404.55
880.08	7332.24
880.398	7353.7
880.716	7327.72
881.034	7299.92
881.352	7278.45
881.67	7230.09
881.988	7218.12
882.306	7220.15
882.624	7234.61
882.941	7145.12
883.259	7158.46
883.577	7121.85
883.894	7118.91
884.212	7124.78
884.529	7132.24
884.846	7100.83
885.164	7085.46
885.481	7004.34
885.798	7024.45
886.115	7005.24
886.432	7012.24
886.75	6973.38
887.067	6984.45
887.383	6963.66
887.7	6973.38
888.017	6898.58
888.334	6894.06
888.651	6889.31
888.967	6833.72
889.284	6825.13
889.6	6894.73
889.917	6772.03
890.233	6795.98
890.55	6736.32
890.866	6759.6
891.182	6761.18
891.498	6712.14
891.815	6683.67
892.131	6672.37
892.447	6607.74
892.763	6610.45
893.079	6633.72
893.395	6543.33
893.71	6547.17
894.026	6610
894.342	6543.78
894.657	6517.79
894.973	6492.03
895.289	6484.35
895.604	6489.77
895.92	6449.32
896.235	6412.26
896.55	6415.2
896.865	6377.46
897.181	6395.09
897.496	6395.99
897.811	6335.43
898.126	6290
898.441	6245.94
898.756	6264.69
899.071	6176.79
899.386	6168.43
899.7	6175.66
900.015	6126.62
900.33	6111.7
900.644	6119.61
900.959	6103.57
901.273	6131.36
901.588	6055.89
901.902	6005.27
902.216	6038.94
902.531	6032.38
902.845	6010.01
903.159	5939.05
903.473	5929.34
903.787	5911.26
904.101	5859.73
904.415	5909.68
904.729	5793.75
905.042	5825.61
905.356	5769.34
905.67	5798.94
905.984	5756.91
906.297	5765.05
906.611	5770.7
906.924	5699.29
907.237	5684.14
907.551	5618.38
907.864	5663.13
908.177	5643.02
908.491	5618.38
908.804	5558.05
909.117	5508.78
909.43	5491.83
909.743	5449.57
910.056	5442.12
910.368	5429.01
910.681	5384.94
910.994	5435.56
911.307	5437.37
911.619	5383.81
911.932	5405.28
912.244	5306.75
912.557	5362.34
912.869	5300.65
913.181	5236.7
913.494	5218.62
913.806	5210.94
914.118	5203.03
914.43	5184.95
914.742	5187.21
915.054	5119.87
915.366	5172.75
915.678	5135.91
915.99	5047.55
916.302	5062.47
916.613	5032.18
916.925	5007.1
917.236	5051.17
917.548	5018.17
917.859	5022.47
918.171	4941.11
918.482	4934.33
918.794	4923.26
919.105	4925.97
919.416	4833.09
919.727	4858.86
920.038	4851.85
920.349	4850.95
920.66	4775.69
920.971	4786.09
921.282	4795.13
921.593	4732.76
921.903	4745.19
922.214	4713.55
922.525	4716.03
922.835	4676.04
923.146	4642.14
923.456	4602.59
923.767	4614.79
924.077	4617.28
924.387	4614.57
924.697	4582.03
925.008	4566.89
925.318	4527.56
925.628	4506.32
925.938	4528.92
926.248	4455.48
926.558	4441.24
926.867	4440.56
927.177	4453.44
927.487	4343.39
927.796	4347.23
928.106	4374.35
928.416	4335.71
928.725	4309.72
929.034	4322.37
929.344	4266.1
929.653	4254.8
929.962	4256.61
930.271	4203.28
930.581	4214.35
930.89	4155.82
931.199	4210.74
931.508	4157.4
931.817	4202.15
932.125	4153.34
932.434	4150.63
932.743	4086.67
933.051	4076.05
933.36	4049.61
933.669	4045.77
933.977	4023.62
934.286	4050.74
934.594	4029.95
934.902	3989.5
935.21	3979.56
935.519	3984.08
935.827	3951.08
936.135	3962.38
936.443	3928.26
936.751	3896.62
937.059	3900.01
937.367	3880.35
937.674	3872.44
937.982	3813.01
938.29	3824.98
938.597	3843.74
938.905	3824.53
939.213	3794.25
939.52	3738.43
939.827	3778.88
940.135	3731.2
940.442	3739.79
940.749	3714.25
941.056	3709.96
941.363	3660.02
941.67	3650.3
941.977	3606.46
942.284	3614.59
942.591	3593.13
942.898	3557.42
943.205	3567.14
943.511	3575.73
943.818	3545.67
944.125	3536.18
944.431	3517.87
944.738	3510.19
945.044	3480.36
945.35	3444.2
945.657	3446.46
945.963	3436.29
946.269	3411.44
946.575	3429.97
946.881	3378.22
947.187	3379.35
947.493	3363.98
947.799	3364.88
948.105	3345.22
948.41	3315.85
948.716	3336.86
949.022	3289.63
949.327	3314.49
949.633	3253.47
949.938	3271.33
950.244	3289.63
950.549	3253.7
950.854	3216.41
951.16	3229.29
951.465	3168.05
951.77	3184.78
952.075	3188.62
952.38	3116.3
952.685	3161.72
952.99	3150.43
953.294	3130.09
953.599	3145.45
953.904	3083.31
954.209	3105
954.513	3047.38
954.818	3080.82
955.122	3063.2
955.426	3030.88
955.731	3030.43
956.035	3000.6
956.339	3001.73
956.643	3011.22
956.948	2983.88
957.252	2966.93
957.556	2927.15
957.86	2929.41
958.163	2881.96
958.467	2886.25
958.771	2894.84
959.075	2885.57
959.378	2858.23
959.682	2884.67
959.985	2863.88
960.289	2846.93
960.592	2858.91
960.896	2820.04
961.199	2833.82
961.502	2833.6
961.805	2780.27
962.108	2744.56
962.411	2795.18
962.714	2754.5
963.017	2750.89
963.32	2736.88
963.623	2724
963.926	2688.74
964.228	2727.16
964.531	2657.33
964.833	2662.98
965.136	2651.91
965.438	2667.27
965.741	2640.83
966.043	2631.8
966.345	2624.79
966.648	2626.37
966.95	2593.83
967.252	2582.98
967.554	2597.9
967.856	2549.99
968.158	2550.44
968.46	2579.82
968.761	2504.57
969.063	2535.53
969.365	2529.65
969.666	2514.74
969.968	2464.12
970.269	2497.34
970.571	2482.87
970.872	2470.67
971.174	2463.44
971.475	2456.43
971.776	2419.15
972.077	2415.76
972.378	2422.54
972.679	2391.58
972.98	2375.08
973.281	2380.95
973.582	2367.4
973.883	2381.18
974.183	2364.23
974.484	2364.23
974.785	2336.66
975.085	2313.16
975.386	2364.46
975.686	2294.63
975.986	2350.22
976.287	2324.68
976.587	2271.58
976.887	2270.9
977.187	2229.32
977.487	2244.69
977.787	2242.2
978.087	2216.66
978.387	2223.22
978.687	2219.38
978.987	2200.17
979.286	2196.55
979.586	2175.76
979.885	2167.63
980.185	2170.56
980.484	2170.11
980.784	2172.6
981.083	2152.26
981.382	2097.35
981.682	2118.81
981.981	2100.96
982.28	2092.6
982.579	2089.44
982.878	2086.27
983.177	2045.14
983.475	2109.1
983.774	2049.66
984.073	2027.74
984.372	2022.32
984.67	1984.13
984.969	2053.96
985.267	2008.76
985.566	2011.02
985.864	2002.21
986.162	1992.49
986.461	1986.39
986.759	1940.97
987.057	1939.61
987.355	1942.1
987.653	1936.45
987.951	1955.65
988.249	1913.62
988.547	1915.2
988.844	1892.61
989.142	1926.28
989.44	1872.27
989.737	1879.72
990.035	1892.15
990.332	1890.12
990.63	1868.65
990.927	1862.1
991.224	1868.43
991.521	1824.58
991.819	1846.73
992.116	1829.33
992.413	1806.73
992.71	1842.21
993.006	1781.42
993.303	1793.17
993.6	1796.11
993.897	1783.46
994.193	1795.21
994.49	1795.43
994.787	1760.41
995.083	1760.41
995.379	1760.63
995.676	1746.85
995.972	1723.34
996.268	1704.14
996.565	1675.66
996.861	1663.46
997.157	1696.9
997.453	1695.55
997.749	1690.8
998.044	1646.28
998.34	1657.81
998.636	1634.08
998.932	1643.12
999.227	1665.04
999.523	1606.74
999.818	1584.14
1000.114	1604.48
1000.409	1611.03
1000.704	1589.79
1001	1584.82
1001.295	1549.34
1001.59	1552.5
1001.885	1539.85
1002.18	1529.45
1002.475	1568.77
1002.77	1545.72
1003.065	1543.69
1003.359	1493.07
1003.654	1516.34
1003.949	1518.15
1004.243	1487.19
1004.538	1467.98
1004.832	1493.07
1005.127	1461.88
1005.421	1466.18
1005.715	1484.71
1006.009	1451.04
1006.304	1465.05
1006.598	1443.13
1006.892	1442.9
1007.186	1425.73
1007.48	1412.17
1007.773	1401.77
1008.067	1381.43
1008.361	1400.42
1008.655	1363.13
1008.948	1412.39
1009.242	1373.07
1009.535	1341.66
1009.829	1361.55
1010.122	1336.91
1010.415	1346.18
1010.708	1323.81
1011.001	1313.41
1011.295	1303.69
1011.588	1304.82
1011.881	1316.58
1012.173	1316.8
1012.466	1288.55
1012.759	1314.99
1013.052	1271.38
1013.344	1270.02
1013.637	1246.07
1013.93	1260.31
1014.222	1266.41
1014.514	1262.79
1014.807	1230.7
1015.099	1222.34
1015.391	1220.53
1015.683	1200.65
1015.976	1196.13
1016.268	1191.61
1016.56	1212.17
1016.851	1172.85
1017.143	1204.26
1017.435	1185.51
1017.727	1190.93
1018.018	1162.91
1018.31	1132.17
1018.602	1150.25
1018.893	1138.95
1019.185	1121.1
1019.476	1137.82
1019.767	1114.09
1020.058	1146.86
1020.35	1106.64
1020.641	1102.34
1020.932	1103.25
1021.223	1096.24
1021.514	1065.96
1021.804	1044.27
1022.095	1070.48
1022.386	1077.49
1022.677	1077.49
1022.967	1037.49
1023.258	1050.14
1023.548	1035.9
1023.839	1035
1024.129	1046.3
1024.419	1044.27
1024.709	1017.37
1025	1011.5
1025.29	993.42
1025.58	1018.5
1025.87	969.69
1026.16	978.96
1026.449	992.06
1026.739	962.23
1027.029	971.73
1027.319	972.86
1027.608	960.88
1027.898	944.83
1028.187	976.47
1028.477	945.06
1028.766	934.44
1029.055	917.72
1029.344	911.61
1029.634	921.33
1029.923	893.54
1030.212	900.99
1030.501	896.47
1030.79	911.84
1031.078	871.84
1031.367	917.49
1031.656	897.38
1031.945	877.04
1032.233	869.36
1032.522	844.72
1032.81	850.37
1033.099	859.41
1033.387	830.71
1033.675	848.57
1033.963	854.67
1034.251	843.14
1034.54	823.93
1034.828	828.45
1035.116	854.21
1035.403	814.44
1035.691	823.03
1035.979	838.4
1036.267	816.02
1036.554	797.04
1036.842	791.39
1037.129	796.14
1037.417	773.54
1037.704	782.13
1037.992	795.46
1038.279	775.35
1038.566	751.39
1038.853	751.39
1039.14	751.39
