Data from hue_230_FLMS001491_00056.txt Node
Date: Tue Feb 07 16:37:27 GMT 2017
User: dcchb
Spectrometer: FLMS00149
Trigger mode: 0
Integration Time (sec): 2.000000E-2
Scans to average: 10
Electric dark correction enabled: true
Nonlinearity correction enabled: false
Boxcar width: 0
XAxis mode: Wavelengths
Number of Pixels in Spectrum: 2048
>>>>>Begin Spectral Data<<<<<
341.393	-31.04
341.776	-31.04
342.16	-31.04
342.543	-60.42
342.927	-58.84
343.31	-59.97
343.693	-56.35
344.077	-54.09
344.46	-38.95
344.843	-67.65
345.226	-66.98
345.61	-14.55
345.993	-29.46
346.376	-32.17
346.759	11.89
347.142	23.42
347.525	29.97
347.908	69.52
348.291	63.42
348.674	100.03
349.057	121.95
349.44	133.92
349.823	129.4
350.206	142.96
350.588	185.22
350.971	200.81
351.354	216.18
351.737	227.93
352.119	243.3
352.502	252.56
352.884	258.44
353.267	276.29
353.65	294.6
354.032	279.91
354.414	295.95
354.797	307.48
355.179	303.18
355.562	320.13
355.944	325.78
356.326	324.88
356.709	335.27
357.091	333.24
357.473	347.7
357.855	330.98
358.238	329.17
358.62	324.88
359.002	317.65
359.384	328.72
359.766	338.21
360.148	317.65
360.53	341.38
360.912	344.76
361.294	333.47
361.676	316.97
362.057	352.22
362.439	343.86
362.821	340.7
363.203	332.56
363.584	313.58
363.966	327.59
364.348	329.85
364.729	319.68
365.111	340.25
365.493	296.86
365.874	318.1
366.256	282.85
366.637	313.35
367.019	287.82
367.4	330.3
367.781	307.48
368.163	310.87
368.544	301.6
368.925	316.52
369.306	300.92
369.688	306.57
370.069	290.3
370.45	292.79
370.831	283.98
371.212	285.56
371.593	298.21
371.974	317.42
372.355	305.22
372.736	320.13
373.117	313.13
373.498	321.04
373.879	333.24
374.26	307.25
374.641	298.89
375.021	291.88
375.402	327.36
375.783	328.27
376.163	324.65
376.544	337.31
376.925	312.68
377.305	320.13
377.686	334.14
378.066	308.83
378.447	340.92
378.827	339.57
379.208	324.65
379.588	308.61
379.968	331.88
380.349	325.1
380.729	320.81
381.109	319.45
381.489	350.64
381.87	322.39
382.25	325.56
382.63	352.22
383.01	368.04
383.39	333.47
383.77	319.45
384.15	325.1
384.53	345.22
384.91	328.72
385.29	329.4
385.67	325.1
386.049	356.29
386.429	357.42
386.809	332.34
387.189	360.81
387.568	341.38
387.948	350.64
388.328	362.17
388.707	362.62
389.087	363.52
389.466	365.1
389.846	364.2
390.225	369.62
390.605	362.84
390.984	363.3
391.363	368.04
391.743	385.44
392.122	380.47
392.501	371.2
392.881	374.82
393.26	359.23
393.639	357.87
394.018	373.24
394.397	374.82
394.776	381.15
395.155	396.51
395.534	370.3
395.913	358.78
396.292	395.84
396.671	387.02
397.05	397.42
397.429	381.83
397.808	403.52
398.186	389.96
398.565	376.4
398.944	391.54
399.323	399.68
399.701	386.35
400.08	397.87
400.458	411.88
400.837	434.03
401.215	408.04
401.594	403.29
401.972	430.19
402.351	448.27
402.729	422.05
403.107	416.18
403.486	421.6
403.864	443.52
404.242	428.38
404.62	454.14
404.999	446.68
405.377	440.13
405.755	433.12
406.133	430.19
406.511	429.73
406.889	451.65
407.267	459.11
407.645	446.91
408.023	457.08
408.401	466.57
408.779	479.22
409.156	475.38
409.534	481.71
409.912	491.88
410.29	506.57
410.667	494.14
411.045	502.05
411.422	514.93
411.8	535.72
412.178	522.84
412.555	521.71
412.933	514.48
413.31	560.13
413.687	544.31
414.065	567.58
414.442	566.68
414.819	553.35
415.197	561.03
415.574	568.26
415.951	580.92
416.328	587.24
416.705	592.89
417.082	611.88
417.46	626.34
417.837	588.83
418.214	614.81
418.591	643.29
418.967	645.32
419.344	659.78
419.721	643.97
420.098	653.68
420.475	664.08
420.852	669.5
421.228	685.77
421.605	692.33
421.982	717.41
422.358	725.32
422.735	755.6
423.111	715.15
423.488	740.69
423.864	728.94
424.241	785.21
424.617	775.26
424.994	783.17
425.37	788.6
425.746	794.02
426.123	809.61
426.499	833.34
426.875	837.41
427.251	853.45
427.627	874.02
428.003	861.36
428.379	870.85
428.756	875.37
429.132	865.88
429.507	914.92
429.883	907.01
430.259	915.37
430.635	932.32
431.011	940.23
431.387	961.47
431.763	960.57
432.138	993.11
432.514	989.49
432.89	996.95
433.265	1047.8
433.641	1046.22
434.016	1061.58
434.392	1074.69
434.767	1078.08
435.143	1094.35
435.518	1083.05
435.894	1119.21
436.269	1136.38
436.644	1153.78
437.02	1162.14
437.395	1206.89
437.77	1209.83
438.145	1243.5
438.52	1242.37
438.895	1280.33
439.271	1270.39
439.646	1297.28
440.021	1320.56
440.395	1314
440.77	1313.55
441.145	1324.63
441.52	1357.39
441.895	1349.94
442.27	1397.17
442.645	1394.23
443.019	1384.74
443.394	1416.38
443.769	1452.08
444.143	1450.5
444.518	1447.33
444.892	1449.82
445.267	1502.47
445.641	1484.4
446.016	1492.53
446.39	1510.61
446.764	1503.15
447.139	1510.61
447.513	1528.91
447.887	1544.73
448.262	1555.81
448.636	1565.52
449.01	1572.08
449.384	1602.36
449.758	1599.2
450.132	1622.92
450.506	1640.1
450.88	1640.1
451.254	1632.64
451.628	1662.7
452.002	1693.2
452.376	1704.28
452.75	1722.81
453.123	1717.16
453.497	1718.06
453.871	1739.76
454.244	1781.11
454.618	1811.17
454.992	1796.03
455.365	1793.54
455.739	1848.45
456.112	1906.08
456.486	1887.55
456.859	1884.39
457.232	1918.06
457.606	1959.41
457.979	1958.73
458.352	1946.98
458.725	1989.47
459.099	2022.01
459.472	2064.04
459.845	2086.87
460.218	2089.35
460.591	2087.09
460.964	2110.37
461.337	2157.82
461.71	2185.17
462.083	2214.09
462.456	2212.74
462.829	2255.9
463.201	2268.33
463.574	2246.18
463.947	2314.88
464.32	2387.65
464.692	2356.24
465.065	2340.19
465.438	2392.62
465.81	2461.09
466.183	2488.44
466.555	2524.82
466.928	2516.46
467.3	2543.35
467.672	2565.5
468.045	2598.72
468.417	2622.9
468.789	2633.74
469.161	2645.95
469.534	2686.85
469.906	2767.98
470.278	2784.47
470.65	2812.95
471.022	2852.27
471.394	2896.34
471.766	2908.54
472.138	2928.65
472.51	2963.68
472.882	3006.39
473.253	3058.14
473.625	3110.12
473.997	3176.55
474.369	3138.59
474.74	3217.01
475.112	3275.31
475.484	3302.88
475.855	3364.12
476.227	3366.83
476.598	3436.44
476.97	3483.89
477.341	3565.02
477.713	3596.66
478.084	3606.83
478.455	3720.95
478.827	3745.13
479.198	3794.17
479.569	3816.31
479.94	3921.62
480.311	3976.99
480.682	4031.22
481.053	4062.63
481.424	4111.45
481.795	4157.77
482.166	4220.37
482.537	4258.11
482.908	4329.29
483.279	4355.96
483.65	4450.87
484.021	4545.78
484.391	4532.68
484.762	4618.1
485.133	4615.61
485.503	4687.25
485.874	4789.85
486.244	4798.21
486.615	4884.53
486.985	4954.36
487.356	4987.35
487.726	5017.41
488.097	5105.77
488.467	5126.56
488.837	5253.56
489.207	5289.04
489.578	5333.11
489.948	5354.12
490.318	5431.86
490.688	5423.95
491.058	5541.01
491.428	5607.68
491.798	5632.76
492.168	5715.25
492.538	5708.47
492.908	5784.4
493.278	5875.92
493.648	5834.11
494.017	5911.85
494.387	5990.94
494.757	5990.27
495.126	6019.42
495.496	6041.34
495.866	6070.49
496.235	6137.83
496.605	6149.13
496.974	6180.54
497.344	6230.26
497.713	6300.09
498.082	6312.07
498.452	6395
498.821	6366.98
499.19	6369.92
499.559	6492.63
499.928	6504.83
500.298	6462.12
500.667	6562.68
501.036	6501.44
501.405	6602.68
501.774	6565.39
502.143	6615.56
502.512	6717.48
502.88	6680.42
503.249	6732.62
503.618	6752.73
503.987	6761.32
504.356	6806.29
504.724	6797.48
505.093	6793.86
505.462	6764.03
505.83	6886.29
506.199	6892.62
506.567	6997.7
506.936	7001.99
507.304	7033.63
507.672	7032.72
508.041	7013.74
508.409	7025.49
508.777	7103.68
509.145	7159.05
509.514	7124.93
509.882	7218.03
510.25	7113.4
510.618	7184.13
510.986	7193.4
511.354	7218.93
511.722	7274.98
512.09	7282.21
512.458	7307.97
512.826	7331.93
513.193	7354.07
513.561	7338.93
513.929	7436.56
514.297	7443.34
514.664	7486.95
515.032	7455.76
515.4	7480.17
515.767	7526.5
516.135	7470.23
516.502	7415.09
516.869	7584.57
517.237	7530.11
517.604	7533.05
517.972	7607.17
518.339	7578.25
518.706	7640.62
519.073	7595.2
519.44	7565.37
519.808	7686.72
520.175	7597.46
520.542	7687.62
520.909	7715.19
521.276	7659.6
521.643	7707.28
522.009	7755.19
522.376	7782.76
522.743	7827.51
523.11	7827.51
523.477	7836.55
523.843	7898.46
524.21	7925.36
524.577	7945.7
524.943	7959.93
525.31	7878.58
525.676	7947.5
526.043	8019.82
526.409	8045.35
526.776	8033.38
527.142	7984.79
527.508	8019.14
527.874	8070.44
528.241	8056.88
528.607	8044
528.973	8135.52
529.339	8119.02
529.705	8025.01
530.071	8111.34
530.437	8108.18
530.803	8148.18
531.169	8132.81
531.535	8082.64
531.901	8122.87
532.267	8074.28
532.632	8114.05
532.998	8105.69
533.364	8169.19
533.73	8154.05
534.095	8165.12
534.461	8126.03
534.826	8172.58
535.192	8105.01
535.557	8111.57
535.923	8145.46
536.288	8074.73
536.653	8152.24
537.019	8066.37
537.384	8075.18
537.749	8084
538.114	8140.72
538.479	8018.01
538.845	8062.53
539.21	8030.44
539.575	8001.51
539.94	8033.83
540.305	8011.46
540.67	7987.95
541.034	8000.38
541.399	8000.83
541.764	8006.94
542.129	7983.89
542.494	7929.65
542.858	7943.44
543.223	7978.69
543.587	7981.4
543.952	7975.07
544.316	7975.07
544.681	7910.44
545.045	7994.06
545.41	7889.2
545.774	7921.29
546.138	7906.15
546.503	7832.03
546.867	7760.16
547.231	7850.33
547.595	7849.2
547.959	7848.3
548.324	7759.49
548.688	7762.2
549.052	7740.5
549.416	7779.6
549.779	7789.31
550.143	7714.51
550.507	7785.02
550.871	7733.95
551.235	7694.18
551.599	7710.9
551.962	7759.03
552.326	7741.86
552.689	7695.31
553.053	7661.41
553.417	7690.79
553.78	7724.23
554.143	7583.9
554.507	7653.5
554.87	7691.01
555.234	7777.79
555.597	7726.04
555.96	7676.32
556.323	7670.45
556.686	7689.66
557.05	7658.92
557.413	7705.02
557.776	7678.58
558.139	7668.41
558.502	7674.97
558.865	7614.18
559.228	7673.61
559.59	7702.09
559.953	7700.96
560.316	7788.19
560.679	7681.07
561.041	7746.38
561.404	7808.75
561.767	7851.23
562.129	7694.18
562.492	7752.93
562.854	7733.5
563.217	7730.56
563.579	7729.88
563.941	7862.76
564.304	7838.81
564.666	7872.7
565.028	7874.06
565.39	7799.03
565.753	7815.3
566.115	7831.8
566.477	7912.48
566.839	7862.76
567.201	7921.51
567.563	7922.19
567.925	7954.73
568.287	7994.28
568.648	7988.41
569.01	8032.7
569.372	8030.89
569.734	8005.13
570.095	8091.91
570.457	8070.21
570.819	8065.69
571.18	8057.56
571.542	8036.99
571.903	8096.65
572.265	8058.46
572.626	8138.68
572.987	8143.66
573.349	8146.82
573.71	8215.97
574.071	8159.7
574.432	8206.03
574.794	8258.46
575.155	8245.57
575.516	8254.16
575.877	8268.17
576.238	8277.44
576.599	8285.35
576.96	8301.62
577.32	8328.06
577.681	8398.11
578.042	8361.5
578.403	8354.27
578.763	8403.08
579.124	8461.39
579.485	8443.99
579.845	8429.52
580.206	8483.53
580.566	8483.08
580.927	8471.78
581.287	8504.55
581.648	8544.55
582.008	8499.58
582.368	8538.22
582.728	8602.85
583.089	8552.68
583.449	8572.8
583.809	8613.93
584.169	8604.43
584.529	8609.63
584.889	8687.37
585.249	8630.42
585.609	8613.47
585.969	8653.7
586.329	8658.44
586.688	8748.39
587.048	8666.13
587.408	8737.76
587.768	8714.26
588.127	8720.36
588.487	8688.5
588.846	8768.95
589.206	8756.3
589.565	8753.81
589.925	8767.59
590.284	8711.1
590.643	8794.49
591.003	8813.24
591.362	8794.71
591.721	8801.49
592.08	8764.43
592.44	8848.04
592.799	8864.77
593.158	8830.87
593.517	8799.68
593.876	8902.73
594.235	8844.2
594.593	8867.48
594.952	8859.8
595.311	8850.76
595.67	8891.43
596.029	8914.71
596.387	8923.3
596.746	8987.48
597.104	8961.04
597.463	8912.68
597.822	8941.38
598.18	8956.29
598.538	8948.15
598.897	8968.49
599.255	8950.87
599.613	9012.56
599.972	8984.31
600.33	9010.98
600.688	9015.5
601.046	8945.44
601.404	9063.41
601.762	9021.37
602.12	9056.4
602.478	8944.99
602.836	9059.79
603.194	9032.9
603.552	9042.62
603.91	9008.49
604.268	8993.58
604.625	8985.44
604.983	9059.11
605.341	8940.7
605.698	9049.85
606.056	9159
606.413	9103.86
606.771	9064.76
607.128	9128.49
607.485	9100.24
607.843	9100.01
608.2	9137.53
608.557	9118.77
608.914	9084.65
609.272	9153.8
609.629	9181.82
609.986	9137.3
610.343	9160.13
610.7	9200.35
611.057	9216.62
611.414	9197.64
611.771	9233.57
612.127	9147.02
612.484	9238.54
612.841	9254.59
613.198	9217.07
613.554	9300.46
613.911	9296.62
614.267	9314.25
614.624	9245.1
614.98	9264.3
615.337	9322.83
615.693	9209.39
616.05	9287.13
616.406	9322.38
616.762	9260.46
617.118	9284.42
617.475	9355.15
617.831	9360.57
618.187	9368.03
618.543	9349.95
618.899	9418.42
619.255	9371.65
619.611	9374.58
619.967	9375.26
620.323	9387.24
620.678	9368.26
621.034	9325.55
621.39	9331.87
621.746	9352.66
622.101	9498.65
622.457	9387.69
622.812	9360.57
623.168	9384.3
623.523	9368.93
623.879	9433.34
624.234	9384.75
624.589	9386.11
624.945	9374.81
625.3	9421.59
625.655	9391.31
626.01	9411.87
626.365	9301.37
626.72	9384.3
627.075	9444.41
627.43	9363.74
627.785	9323.96
628.14	9372.78
628.495	9422.72
628.85	9339.1
629.205	9323.96
629.559	9347.47
629.914	9292.1
630.269	9354.7
630.623	9330.74
630.978	9270.86
631.332	9335.71
631.687	9328.26
632.041	9303.4
632.396	9274.02
632.75	9238.09
633.104	9293.68
633.459	9221.82
633.813	9207.13
634.167	9206.68
634.521	9226.34
634.875	9243.74
635.229	9231.54
635.583	9183.4
635.937	9143.18
636.291	9163.06
636.645	9179.33
636.999	9103.18
637.352	9190.18
637.706	9109.51
638.06	9119.9
638.413	9092.33
638.767	9030.86
639.121	9103.18
639.474	9008.49
639.828	9111.77
640.181	9066.8
640.534	9075.38
640.888	9065.89
641.241	8991.32
641.594	9021.6
641.947	9094.37
642.301	9014.14
642.654	8986.12
643.007	8997.87
643.36	8962.17
643.713	8994.93
644.066	9021.6
644.419	8979.79
644.771	8904.54
645.124	8900.7
645.477	8849.4
645.83	8776.86
646.182	8718.33
646.535	8670.2
646.888	8758.33
647.24	8642.4
647.593	8671.1
647.945	8677.65
648.298	8698.67
648.65	8697.99
649.002	8595.17
649.355	8688.27
649.707	8644.43
650.059	8701.61
650.411	8813.24
650.763	8780.7
651.115	8926.01
651.467	8892.34
651.819	8863.41
652.171	8780.48
652.523	8885.78
652.875	8813.24
653.227	8818.67
653.578	8874.71
653.93	8846.24
654.282	8868.83
654.633	8768.72
654.985	8852.79
655.337	8796.29
655.688	8814.15
656.039	8868.38
656.391	8834.49
656.742	8825.45
657.094	8873.58
657.445	8874.71
657.796	8858.89
658.147	8813.69
658.498	8802.4
658.849	8850.3
659.2	8836.07
659.551	8771.44
659.902	8882.17
660.253	8852.56
660.604	8800.81
660.955	8784.32
661.306	8822.28
661.656	8833.36
662.007	8821.15
662.358	8804.66
662.708	8827.25
663.059	8884.2
663.409	8777.09
663.76	8887.82
664.11	8865.67
664.461	8858.67
664.811	8876.52
665.161	8834.71
665.511	8848.27
665.862	8842.62
666.212	8850.98
666.562	8892.56
666.912	8820.47
667.262	8829.06
667.612	8846.24
667.962	8853.47
668.312	8786.35
668.662	8919.45
669.011	8843.3
669.361	8848.72
669.711	8819.57
670.06	8780.93
670.41	8850.3
670.76	8768.5
671.109	8836.07
671.459	8775.05
671.808	8826.58
672.157	8834.49
672.507	8794.49
672.856	8752.68
673.205	8781.83
673.554	8775.5
673.904	8770.08
674.253	8822.96
674.602	8738.44
674.951	8599.01
675.3	8578.67
675.649	8728.5
675.998	8665.45
676.346	8701.83
676.695	8750.87
677.044	8603.3
677.393	8668.84
677.741	8748.39
678.09	8592.23
678.438	8581.61
678.787	8643.98
679.135	8615.28
679.484	8638.78
679.832	8618.45
680.181	8547.71
680.529	8603.08
680.877	8561.05
681.225	8554.94
681.573	8622.06
681.922	8547.26
682.27	8504.78
682.618	8570.54
682.966	8505.91
683.314	8478.56
683.661	8465.91
684.009	8391.56
684.357	8358.57
684.705	8375.74
685.053	8416.19
685.4	8377.1
685.748	8375.29
686.095	8338
686.443	8292.8
686.79	8300.49
687.138	8269.98
687.485	8287.15
687.832	8236.53
688.18	8262.97
688.527	8174.39
688.874	8205.58
689.221	8152.7
689.568	8156.08
689.915	8091.23
690.262	8151.34
690.609	8073.83
690.956	8102.08
691.303	8025.47
691.65	8022.98
691.997	8004.22
692.344	7962.19
692.69	7929.2
693.037	7936.2
693.383	7905.47
693.73	7947.05
694.077	7825.25
694.423	7863.21
694.769	7810.78
695.116	7739.37
695.462	7733.5
695.808	7694.18
696.155	7783.21
696.501	7665.25
696.847	7614.4
697.193	7597.46
697.539	7630.22
697.885	7558.81
698.231	7476.55
698.577	7516.33
698.923	7446.95
699.269	7475.42
699.614	7383.68
699.96	7391.13
700.306	7473.17
700.651	7252.15
700.997	7338.48
701.342	7314.98
701.688	7281.08
702.033	7290.57
702.379	7154.08
702.724	7224.81
703.069	7210.8
703.415	7135.77
703.76	7128.54
704.105	7119.5
704.45	7113.85
704.795	7054.87
705.14	7070.01
705.485	7081.54
705.83	7040.63
706.175	7022.78
706.52	7009.9
706.865	6969.22
707.209	6979.17
707.554	6908.21
707.899	6959.96
708.243	6867.76
708.588	6844.48
708.932	6787.76
709.277	6796.8
709.621	6785.5
709.966	6772.84
710.31	6745.05
710.654	6712.51
710.998	6783.92
711.342	6716.8
711.687	6672.06
712.031	6665.5
712.375	6605.62
712.719	6682.23
713.063	6592.28
713.407	6605.39
713.75	6608.1
714.094	6577.82
714.438	6595.22
714.782	6578.27
715.125	6532.85
715.469	6558.39
715.812	6556.13
716.156	6534.66
716.499	6499.41
716.843	6503.47
717.186	6441.33
717.53	6496.24
717.873	6444.49
718.216	6451.27
718.559	6452.17
718.902	6393.87
719.246	6462.57
719.589	6426.19
719.932	6418.5
720.275	6368.56
720.617	6380.54
720.96	6363.59
721.303	6365.62
721.646	6309.13
721.989	6368.11
722.331	6330.37
722.674	6339.64
723.016	6360.88
723.359	6332.18
723.701	6320.43
724.044	6359.07
724.386	6308.45
724.729	6343.7
725.071	6311.84
725.413	6303.93
725.755	6263.03
726.097	6303.03
726.439	6269.81
726.782	6243.59
727.124	6304.83
727.465	6262.8
727.807	6232.75
728.149	6296.47
728.491	6221.67
728.833	6282.24
729.175	6185.74
729.516	6194.33
729.858	6199.75
730.199	6220.32
730.541	6244.95
730.882	6199.3
731.224	6230.26
731.565	6190.71
731.906	6239.3
732.248	6214.44
732.589	6188.23
732.93	6181.67
733.271	6178.28
733.612	6149.81
733.953	6242.91
734.294	6194.78
734.635	6211.96
734.976	6219.41
735.317	6204.27
735.658	6176.02
735.999	6190.71
736.339	6237.49
736.68	6239.07
737.021	6199.07
737.361	6177.38
737.702	6241.11
738.042	6212.86
738.383	6242.24
738.723	6181.22
739.063	6172.63
739.404	6229.81
739.744	6202.01
740.084	6273.65
740.424	6223.48
740.764	6218.28
741.104	6216.02
741.444	6197.72
741.784	6250.15
742.124	6302.12
742.464	6262.12
742.804	6290.15
743.143	6298.96
743.483	6318.85
743.823	6310.71
744.162	6380.31
744.502	6439.52
744.841	6396.36
745.181	6431.84
745.52	6417.83
745.86	6431.38
746.199	6450.37
746.538	6480.87
746.877	6546.64
747.216	6528.33
747.556	6605.84
747.895	6602.91
748.234	6611.94
748.573	6673.64
748.911	6750.7
749.25	6784.82
749.589	6823.69
749.928	6854.88
750.267	6917.7
750.605	6924.25
750.944	7034.31
751.283	7052.39
751.621	7098.26
751.96	7157.92
752.298	7291.93
752.636	7303
752.975	7304.36
753.313	7339.84
753.651	7471.13
753.989	7465.48
754.327	7589.09
754.666	7671.13
755.004	7802.2
755.342	7888.07
755.679	7967.84
756.017	8038.35
756.355	8145.46
756.693	8207.61
757.031	8339.36
757.368	8378
757.706	8503.87
758.044	8670.42
758.381	8720.82
758.719	8844.2
759.056	8973.01
759.394	9016.63
759.731	9083.29
760.068	9243.29
760.405	9360.35
760.743	9432.21
761.08	9547.01
761.417	9696.38
761.754	9820.67
762.091	9918.3
762.428	10021.12
762.765	10028.13
763.102	10231.06
763.438	10343.6
763.775	10345.86
764.112	10585.4
764.449	10761.44
764.785	10814.09
765.122	10829.01
765.458	10985.84
765.795	11068.55
766.131	11191.26
766.467	11273.74
766.804	11425.6
767.14	11426.28
767.476	11551.93
767.812	11575.2
768.148	11731.81
768.485	11828.98
768.821	11787.18
769.157	11962.09
769.492	12107.62
769.828	12097.22
770.164	12091.57
770.5	12210.44
770.836	12294.28
771.171	12327.05
771.507	12455.86
771.842	12477.78
772.178	12592.8
772.513	12496.99
772.849	12654.95
773.184	12660.15
773.519	12782.86
773.855	12812.01
774.19	12670.99
774.525	12802.97
774.86	12939.24
775.195	12946.24
775.53	12929.97
775.865	12905.11
776.2	12792.57
776.535	13002.51
776.87	12966.35
777.205	13003.64
777.539	13037.31
777.874	13070.31
778.209	13075.5
778.543	12976.07
778.878	12975.17
779.212	13135.62
779.547	13018.1
779.881	13210.64
780.215	13149.17
780.55	13229.62
780.884	13104.2
781.218	13120.93
781.552	13143.3
781.886	13045.9
782.22	13060.36
782.554	13147.82
782.888	13031.66
783.222	12999.8
783.556	13025.79
783.889	13021.95
784.223	12912.57
784.557	12986.92
784.89	12978.78
785.224	12948.5
785.557	12854.04
785.891	12989.86
786.224	12906.69
786.558	12905.56
786.891	12844.1
787.224	12776.3
787.557	12849.07
787.891	12875.28
788.224	12834.38
788.557	12880.48
788.89	12780.37
789.223	12871.67
789.556	12779.47
789.888	12705.34
790.221	12756.64
790.554	12679.13
790.887	12644.33
791.219	12572.69
791.552	12614.05
791.884	12591.45
792.217	12549.19
792.549	12502.19
792.882	12402.08
793.214	12393.71
793.546	12493.6
793.879	12433.71
794.211	12293.83
794.543	12448.4
794.875	12368.63
795.207	12380.38
795.539	12331.79
795.871	12384.22
796.203	12204.11
796.535	12181.74
796.867	12210.22
797.198	12101.52
797.53	12123.44
797.862	12072.59
798.193	12132.25
798.525	11996.66
798.856	12096.55
799.188	11938.81
799.519	11921.18
799.85	11839.6
800.182	11908.53
800.513	11863.78
800.844	11829.43
801.175	11900.39
801.506	11834.86
801.837	11781.98
802.168	11819.49
802.499	11728.87
802.83	11713.73
803.161	11598.25
803.491	11683
803.822	11671.25
804.153	11584.47
804.483	11525.26
804.814	11524.36
805.145	11450.46
805.475	11448.43
805.805	11417.92
806.136	11490.46
806.466	11396.9
806.796	11410.01
807.126	11252.5
807.457	11275.78
807.787	11347.19
808.117	11269.22
808.447	11288.43
808.777	11250.01
809.107	11174.99
809.436	11116.23
809.766	11181.09
810.096	11142
810.426	11081.21
810.755	10993.98
811.085	11122.56
811.414	11111.49
811.744	10967.99
812.073	10901.55
812.403	11007.99
812.732	10901.1
813.061	10935.67
813.39	10845.73
813.719	10825.17
814.049	10872.4
814.378	10839.4
814.707	10781.78
815.036	10784.94
815.365	10793.08
815.693	10648
816.022	10719.86
816.351	10618.85
816.68	10582.91
817.008	10643.25
817.337	10534.55
817.665	10475.57
817.994	10578.85
818.322	10514.67
818.651	10522.35
818.979	10463.37
819.307	10568.9
819.636	10440.54
819.964	10412.07
820.292	10486.42
820.62	10506.53
820.948	10399.42
821.276	10418.4
821.604	10431.05
821.932	10429.25
822.259	10397.38
822.587	10315.58
822.915	10354.22
823.243	10439.19
823.57	10396.03
823.898	10419.3
824.225	10400.09
824.553	10409.59
824.88	10381.56
825.207	10413.65
825.535	10390.38
825.862	10373.88
826.189	10375.69
826.516	10453.2
826.843	10436.48
827.17	10404.16
827.497	10462.47
827.824	10411.17
828.151	10502.46
828.478	10411.84
828.805	10475.35
829.131	10450.94
829.458	10428.12
829.785	10420.43
830.111	10417.49
830.438	10481
830.764	10405.29
831.09	10478.96
831.417	10326.42
831.743	10422.92
832.069	10408.23
832.395	10408
832.722	10424.95
833.048	10400.32
833.374	10425.63
833.7	10359.19
834.026	10318.29
834.351	10354.22
834.677	10313.32
835.003	10394.9
835.329	10331.4
835.654	10249.36
835.98	10330.27
836.306	10265.18
836.631	10265.63
836.956	10208.91
837.282	10296.82
837.607	10218.18
837.932	10197.16
838.258	10121.91
838.583	10152.64
838.908	10124.17
839.233	10140.21
839.558	10117.62
839.883	10112.64
840.208	10074.23
840.533	10119.2
840.858	10096.82
841.182	10047.11
841.507	10038.3
841.832	10011.86
842.156	10010.95
842.481	9995.58
842.805	9975.25
843.13	9904.97
843.454	9907.45
843.778	9876.04
844.103	9893.89
844.427	9858.87
844.751	9829.04
845.075	9793.78
845.399	9843.05
845.723	9720.56
846.047	9747.91
846.371	9649.38
846.695	9634.46
847.019	9561.25
847.343	9606.67
847.666	9526.9
847.99	9528.93
848.313	9503.17
848.637	9462.94
848.96	9373.91
849.284	9370.29
849.607	9266.56
849.931	9262.27
850.254	9270.63
850.577	9220.69
850.9	9130.52
851.223	9145.44
851.546	9086.23
851.869	9057.98
852.192	9097.98
852.515	8967.14
852.838	8916.97
853.161	8932.11
853.483	8939.79
853.806	8831.32
854.129	8896.18
854.451	8884.65
854.774	8800.81
855.096	8783.41
855.419	8754.26
855.741	8714.26
856.063	8658.9
856.385	8642.63
856.708	8615.73
857.03	8614.15
857.352	8670.87
857.674	8541.16
857.996	8553.81
858.318	8492.12
858.64	8496.87
858.961	8437.66
859.283	8431.11
859.605	8406.93
859.926	8450.99
860.248	8351.56
860.57	8442.18
860.891	8378
861.212	8307.49
861.534	8269.3
861.855	8278.57
862.176	8218.91
862.498	8224.33
862.819	8261.39
863.14	8225.24
863.461	8273.82
863.782	8224.11
864.103	8195.18
864.424	8119.48
864.745	8154.96
865.065	8160.15
865.386	8098.23
865.707	8124.22
866.027	8069.08
866.348	8098.91
866.668	8051.91
866.989	8058.01
867.309	7956.09
867.63	8028.86
867.95	8046.71
868.27	7916.09
868.59	7960.84
868.91	7950.21
869.23	7975.52
869.55	7866.38
869.87	7914.06
870.19	7932.59
870.51	7933.72
870.83	7899.37
871.15	7870.89
871.469	7825.7
871.789	7882.42
872.109	7855.53
872.428	7799.71
872.748	7776.21
873.067	7846.94
873.386	7840.61
873.706	7768.52
874.025	7766.94
874.344	7762.65
874.663	7720.62
874.982	7763.55
875.301	7700.5
875.62	7662.09
875.939	7635.87
876.258	7700.5
876.577	7624.8
876.896	7665.48
877.214	7592.71
877.533	7614.86
877.852	7600.17
878.17	7643.56
878.489	7580.96
878.807	7586.16
879.125	7571.47
879.444	7591.13
879.762	7535.31
880.08	7520.4
880.398	7485.82
880.716	7536.67
881.034	7486.05
881.352	7488.08
881.67	7451.7
881.988	7394.98
882.306	7454.18
882.624	7473.62
882.941	7390.46
883.259	7307.97
883.577	7343.9
883.894	7382.32
884.212	7325.82
884.529	7327.41
884.846	7333.51
885.164	7323.11
885.481	7277.24
885.798	7264.58
886.115	7233.17
886.432	7244.92
886.75	7228.65
887.067	7249.22
887.383	7175.55
887.7	7190.46
888.017	7143.91
888.334	7135.77
888.651	7067.53
888.967	7145.04
889.284	7050.8
889.6	7016.68
889.917	7053.06
890.233	7008.54
890.55	7006.06
890.866	7065.72
891.182	6929.45
891.498	6945.72
891.815	6912.95
892.131	6940.52
892.447	6846.97
892.763	6853.07
893.079	6796.35
893.395	6801.54
893.71	6792.96
894.026	6786.63
894.342	6797.93
894.657	6719.29
894.973	6675.67
895.289	6673.41
895.604	6659.4
895.92	6582.79
896.235	6592.06
896.55	6573.75
896.865	6585.05
897.181	6538.95
897.496	6521.78
897.811	6523.81
898.126	6482.23
898.441	6454.89
898.756	6399.52
899.071	6452.63
899.386	6425.51
899.7	6340.99
900.015	6378.73
900.33	6359.07
900.644	6299.64
900.959	6289.92
901.273	6297.38
901.588	6231.84
901.902	6178.74
902.216	6178.74
902.531	6201.79
902.845	6175.12
903.159	6117.49
903.473	6122.24
903.787	6097.61
904.101	6063.48
904.415	6088.57
904.729	5974.9
905.042	6030.94
905.356	6034.78
905.67	5938.06
905.984	6016.03
906.297	5900.1
906.611	5870.5
906.924	5903.49
907.237	5895.13
907.551	5853.77
907.864	5772.42
908.177	5815.81
908.491	5795.24
908.804	5738.3
909.117	5734
909.43	5645.42
909.743	5670.5
910.056	5659.43
910.368	5665.08
910.681	5598.41
910.994	5602.03
911.307	5608.81
911.619	5527
911.932	5588.69
912.244	5494.69
912.557	5468.25
912.869	5431.86
913.181	5447.68
913.494	5402.71
913.806	5388.93
914.118	5313.45
914.43	5325.2
914.742	5329.27
915.054	5313.22
915.366	5264.86
915.678	5305.54
915.99	5251.98
916.302	5213.79
916.613	5162.04
916.925	5176.5
917.236	5183.51
917.548	5142.38
917.859	5122.27
918.171	5095.83
918.482	5044.98
918.794	5063.28
919.105	5042.49
919.416	5005.21
919.727	5036.39
920.038	4993.46
920.349	4988.03
920.66	4966.34
920.971	4932.89
921.282	4957.53
921.593	4858.32
921.903	4862.61
922.214	4868.94
922.525	4816.96
922.835	4822.84
923.146	4795.5
923.456	4769.96
923.767	4734.03
924.077	4748.04
924.387	4734.25
924.697	4683.86
925.008	4675.72
925.318	4681.83
925.628	4677.76
925.938	4665.78
926.248	4577.65
926.558	4593.24
926.867	4570.19
927.177	4579
927.487	4529.74
927.796	4528.38
928.106	4508.72
928.416	4473.7
928.725	4445.45
929.034	4451.1
929.344	4447.26
929.653	4402.29
929.962	4380.82
930.271	4367.03
930.581	4309.41
930.89	4311.89
931.199	4279.8
931.508	4292.01
931.817	4325.9
932.125	4291.1
932.434	4257.43
932.743	4241.39
933.051	4213.59
933.36	4156.42
933.669	4156.64
933.977	4163.65
934.286	4164.33
934.594	4115.97
934.902	4120.03
935.21	4105.8
935.519	4053.59
935.827	4076.19
936.135	4078
936.443	3990.32
936.751	4031.45
937.059	4004.33
937.367	3973.14
937.674	3990.32
937.982	3950.32
938.29	3925.24
938.597	3937.21
938.905	3910.09
939.213	3889.08
939.52	3840.49
939.827	3847.95
940.135	3821.28
940.442	3828.52
940.749	3845.69
941.056	3803.66
941.363	3738.35
941.67	3781.06
941.977	3749.42
942.284	3716.2
942.591	3724.79
942.898	3713.26
943.205	3711.23
943.511	3688.18
943.818	3680.95
944.125	3626.26
944.431	3616.32
944.738	3614.28
945.044	3596.88
945.35	3538.35
945.657	3491.57
945.963	3520.5
946.269	3515.08
946.575	3509.43
946.881	3504.68
947.187	3484.12
947.493	3464.91
947.799	3432.82
948.105	3425.81
948.41	3431.92
948.716	3410.22
949.022	3430.56
949.327	3374.29
949.633	3376.78
949.938	3401.63
950.244	3364.12
950.549	3334.52
950.854	3310.79
951.16	3293.16
951.465	3269.43
951.77	3243.9
952.075	3271.24
952.38	3254.97
952.685	3232.15
952.99	3203.9
953.294	3184.01
953.599	3211.36
953.904	3172.26
954.209	3181.3
954.513	3156.22
954.818	3161.19
955.122	3113.73
955.426	3147.18
955.731	3088.2
956.035	3103.56
956.339	3082.09
956.643	3054.98
956.948	3065.15
957.252	3060.17
957.556	3054.52
957.86	2988.09
958.163	2998.48
958.467	2975.88
958.771	2984.7
959.075	2966.84
959.378	2954.64
959.682	2964.13
959.985	2938.82
960.289	2913.96
960.592	2900.4
960.896	2867.86
961.199	2852.5
961.502	2896.56
961.805	2845.04
962.108	2844.81
962.411	2831.03
962.714	2854.53
963.017	2810.01
963.32	2795.77
963.623	2814.08
963.926	2759.16
964.228	2786.06
964.531	2760.07
964.833	2739.28
965.136	2741.31
965.438	2693.63
965.741	2709.67
966.043	2711.03
966.345	2690.01
966.648	2699.28
966.95	2683.91
967.252	2640.07
967.554	2617.47
967.856	2608.89
968.158	2629.9
968.46	2588.77
968.761	2578.15
969.063	2579.06
969.365	2600.75
969.666	2550.13
969.968	2560.07
970.269	2574.76
970.571	2563.01
970.872	2565.27
971.174	2504.26
971.475	2514.88
971.776	2542.9
972.077	2496.35
972.378	2493.41
972.679	2471.04
972.98	2434.88
973.281	2448.44
973.582	2456.12
973.883	2440.53
974.183	2405.05
974.484	2396.01
974.785	2377.25
975.085	2365.5
975.386	2394.2
975.686	2384.03
975.986	2313.98
976.287	2365.28
976.587	2324.15
976.887	2339.74
977.187	2355.56
977.487	2323.92
977.787	2280.31
978.087	2276.92
978.387	2288.67
978.687	2285.5
978.987	2244.83
979.286	2245.96
979.586	2260.87
979.885	2229.91
980.185	2198.05
980.484	2184.72
980.784	2184.49
981.083	2203.47
981.382	2156.02
981.682	2171.61
981.981	2177.26
982.28	2174.1
982.579	2137.94
982.878	2161.44
983.177	2120.09
983.475	2108.11
983.774	2110.14
984.073	2124.15
984.372	2064.04
984.67	2071.95
984.969	2072.86
985.267	2054.1
985.566	2052.97
985.864	2042.35
986.162	2037.83
986.461	2001.9
986.759	1990.6
987.057	2026.08
987.355	1998.05
987.653	1983.82
987.951	1998.51
988.249	1991.73
988.547	1961.22
988.844	1943.14
989.142	1946.98
989.44	1967.1
989.737	1931.62
990.035	1947.66
990.332	1893.65
990.63	1935.01
990.927	1911.28
991.224	1883.26
991.521	1898.62
991.819	1888.45
992.116	1892.52
992.413	1858.85
992.71	1862.69
993.006	1849.13
993.303	1838.96
993.6	1836.93
993.897	1804.16
994.193	1825.63
994.49	1797.61
994.787	1778.63
995.083	1782.24
995.379	1786.99
995.676	1746.08
995.972	1759.64
996.268	1728.68
996.565	1752.19
996.861	1768
997.157	1725.52
997.453	1735.01
997.749	1733.88
998.044	1706.99
998.34	1721.9
998.636	1677.61
998.932	1686.88
999.227	1693.2
999.523	1668.35
999.818	1659.76
1000.114	1662.02
1000.409	1654.56
1000.704	1607.56
1001	1655.69
1001.295	1636.03
1001.59	1598.74
1001.885	1593.55
1002.18	1597.84
1002.475	1581.57
1002.77	1576.14
1003.065	1533.43
1003.359	1552.87
1003.654	1572.53
1003.949	1572.98
1004.243	1525.3
1004.538	1548.12
1004.832	1577.5
1005.127	1526.2
1005.421	1503.6
1005.715	1501.8
1006.009	1479.65
1006.304	1494.79
1006.598	1452.76
1006.892	1446.2
1007.186	1453.44
1007.48	1475.36
1007.773	1432.87
1008.067	1424.06
1008.361	1433.1
1008.655	1422.7
1008.948	1429.71
1009.242	1416.83
1009.535	1399.65
1009.829	1410.05
1010.122	1385.87
1010.415	1380.67
1010.708	1375.47
1011.001	1359.2
1011.295	1347
1011.588	1347
1011.881	1355.36
1012.173	1322.37
1012.466	1334.8
1012.759	1335.93
1013.052	1327.79
1013.344	1324.85
1013.637	1260.45
1013.93	1277.4
1014.222	1294.34
1014.514	1264.29
1014.807	1260
1015.099	1293.44
1015.391	1245.98
1015.683	1242.59
1015.976	1258.41
1016.268	1236.04
1016.56	1245.08
1016.851	1235.36
1017.143	1212.09
1017.435	1216.83
1017.727	1205.31
1018.018	1209.6
1018.31	1189.04
1018.602	1183.61
1018.893	1161.24
1019.185	1175.25
1019.476	1170.28
1019.767	1153.56
1020.058	1155.37
1020.35	1132.99
1020.641	1122.6
1020.932	1132.09
1021.223	1103.16
1021.514	1127.34
1021.804	1116.27
1022.095	1100
1022.386	1062.03
1022.677	1108.36
1022.967	1089.6
1023.258	1064.07
1023.548	1045.09
1023.839	1063.84
1024.129	1048.02
1024.419	1061.58
1024.709	1048.48
1025	1053.67
1025.29	1020.68
1025.58	1034.92
1025.87	1020.45
1026.16	1023.39
1026.449	1013.9
1026.739	1010.06
1027.029	1001.92
1027.319	996.5
1027.608	998.99
1027.898	975.71
1028.187	961.02
1028.477	964.64
1028.766	952.66
1029.055	953.56
1029.344	958.31
1029.634	944.07
1029.923	958.31
1030.212	941.59
1030.501	951.3
1030.79	913.34
1031.078	923.96
1031.367	915.6
1031.656	910.17
1031.945	905.88
1032.233	897.52
1032.522	883.28
1032.81	869.95
1033.099	871.08
1033.387	875.82
1033.675	874.92
1033.963	867.69
1034.251	883.28
1034.54	850.51
1034.828	848.48
1035.116	863.4
1035.403	845.09
1035.691	834.02
1035.979	816.39
1036.267	831.53
1036.554	817.75
1036.842	811.42
1037.129	793.57
1037.417	792.89
1037.704	787.47
1037.992	813.68
1038.279	809.16
1038.566	806
1038.853	806
1039.14	806
