Data from hue_240_FLMS001491_00079.txt Node
Date: Tue Feb 07 16:35:57 GMT 2017
User: dcchb
Spectrometer: FLMS00149
Trigger mode: 0
Integration Time (sec): 2.000000E-2
Scans to average: 10
Electric dark correction enabled: true
Nonlinearity correction enabled: false
Boxcar width: 0
XAxis mode: Wavelengths
Number of Pixels in Spectrum: 2048
>>>>>Begin Spectral Data<<<<<
341.393	-21.27
341.776	-21.27
342.16	-21.27
342.543	-73.25
342.927	-61.27
343.31	-72.34
343.693	-74.83
344.077	-48.39
344.46	-59.01
344.843	-46.13
345.226	-35.96
345.61	-7.49
345.993	-17.88
346.376	-14.04
346.759	8.33
347.142	19.63
347.525	37.26
347.908	46.75
348.291	79.52
348.674	88.11
349.057	96.47
349.44	136.47
349.823	147.54
350.206	144.6
350.588	206.29
350.971	214.88
351.354	215.33
351.737	229.12
352.119	220.98
352.502	248.55
352.884	266.18
353.267	277.93
353.65	274.31
354.032	297.59
354.414	287.42
354.797	314.09
355.179	311.6
355.562	303.47
355.944	317.25
356.326	314.31
356.709	333.97
357.091	342.11
357.473	340.08
357.855	309.79
358.238	319.51
358.62	332.62
359.002	344.82
359.384	322.9
359.766	322.22
360.148	334.88
360.53	322.22
360.912	350.7
361.294	322
361.676	328.78
362.057	312.05
362.439	299.62
362.821	315.22
363.203	303.47
363.584	330.13
363.966	325.84
364.348	310.25
364.729	309.79
365.111	308.66
365.493	315.67
365.874	292.62
366.256	312.73
366.637	301.66
367.019	323.13
367.4	300.98
367.781	304.14
368.163	307.08
368.544	295.78
368.925	314.99
369.306	306.63
369.688	296.91
370.069	315.9
370.45	314.09
370.831	287.87
371.212	310.7
371.593	309.34
371.974	322.68
372.355	297.82
372.736	292.17
373.117	303.92
373.498	329.68
373.879	305.27
374.26	298.49
374.641	298.49
375.021	304.37
375.402	291.94
375.783	322.9
376.163	315.44
376.544	307.76
376.925	337.59
377.305	303.01
377.686	287.2
378.066	347.99
378.447	336.46
378.827	326.74
379.208	326.52
379.588	329
379.968	351.6
380.349	322.9
380.729	313.64
381.109	334.65
381.489	319.96
381.87	335.78
382.25	341.88
382.63	336.01
383.01	316.12
383.39	335.1
383.77	328.1
384.15	317.48
384.53	318.61
384.91	315.67
385.29	336.69
385.67	352.5
386.049	329.91
386.429	350.02
386.809	353.18
387.189	353.41
387.568	328.1
387.948	365.16
388.328	365.39
388.707	340.53
389.087	340.08
389.466	327.65
389.846	343.47
390.225	354.99
390.605	347.31
390.984	355.22
391.363	344.37
391.743	378.04
392.122	355.22
392.501	354.54
392.881	374.65
393.26	342.11
393.639	358.83
394.018	366.74
394.397	364.71
394.776	374.65
395.155	390.02
395.534	380.75
395.913	378.72
396.292	368.78
396.671	368.32
397.05	413.52
397.429	386.85
397.808	375.1
398.186	402.67
398.565	393.86
398.944	409
399.323	367.65
399.701	385.95
400.08	402.9
400.458	416.46
400.837	404.48
401.215	426.18
401.594	414.65
401.972	413.52
402.351	404.03
402.729	395.67
403.107	399.28
403.486	434.76
403.864	413.97
404.242	415.55
404.62	423.69
404.999	450.13
405.377	439.06
405.755	435.89
406.133	459.85
406.511	440.86
406.889	448.32
407.267	447.64
407.645	432.05
408.023	465.04
408.401	477.7
408.779	472.05
409.156	479.28
409.534	475.89
409.912	479.73
410.29	525.83
410.667	505.95
411.045	496
411.422	521.54
411.8	513.18
412.178	509.79
412.555	529.45
412.933	556.34
413.31	527.64
413.687	531.26
414.065	557.92
414.442	553.63
414.819	543.46
415.197	580.75
415.574	565.15
415.951	563.57
416.328	582.78
416.705	564.48
417.082	585.27
417.46	616
417.837	620.29
418.214	604.48
418.591	617.58
418.967	611.03
419.344	637.47
419.721	646.28
420.098	656.9
420.475	663.91
420.852	666.17
421.228	670.24
421.605	675.21
421.982	702.55
422.358	698.26
422.735	712.72
423.111	715.21
423.488	723.12
423.864	724.92
424.241	705.49
424.617	748.88
424.994	747.07
425.37	762.66
425.746	772.38
426.123	768.77
426.499	786.39
426.875	799.95
427.251	820.74
427.627	813.74
428.003	827.97
428.379	819.39
428.756	860.06
429.132	845.37
429.507	872.72
429.883	894.19
430.259	897.58
430.635	871.59
431.011	872.94
431.387	910.46
431.763	919.04
432.138	935.77
432.514	938.7
432.89	942.09
433.265	953.39
433.641	986.61
434.016	978.25
434.392	1027.97
434.767	1025.03
435.143	1021.64
435.518	1015.76
435.894	1031.81
436.269	1062.77
436.644	1073.16
437.02	1129.89
437.395	1131.24
437.77	1152.71
438.145	1143.44
438.52	1148.87
438.895	1195.87
439.271	1208.3
439.646	1231.58
440.021	1228.64
440.395	1224.12
440.77	1265.02
441.145	1259.37
441.52	1258.02
441.895	1271.12
442.27	1308.19
442.645	1300.5
443.019	1318.13
443.394	1331.69
443.769	1305.93
444.143	1338.02
444.518	1368.3
444.892	1349.77
445.267	1372.82
445.641	1375.75
446.016	1406.71
446.39	1411.69
446.764	1432.02
447.139	1409.2
447.513	1420.95
447.887	1428.41
448.262	1431.35
448.636	1455.53
449.01	1476.32
449.384	1499.82
449.758	1512.93
450.132	1488.29
450.506	1522.87
450.88	1533.26
451.254	1544.11
451.628	1562.19
452.002	1568.52
452.376	1577.11
452.75	1591.57
453.123	1622.3
453.497	1621.85
453.871	1630.21
454.244	1677.44
454.618	1662.98
454.992	1691.68
455.365	1714.73
455.739	1720.6
456.112	1745.24
456.486	1737.55
456.859	1780.72
457.232	1793.14
457.606	1809.19
457.979	1830.21
458.352	1842.64
458.725	1887.61
459.099	1876.76
459.472	1925.8
459.845	1945.46
460.218	1935.51
460.591	1938.68
460.964	1987.04
461.337	2035.4
461.71	2032.23
462.083	2066.36
462.456	2081.05
462.829	2090.54
463.201	2099.13
463.574	2140.93
463.947	2129.63
464.32	2194.26
464.692	2168.05
465.065	2202.63
465.438	2241.49
465.81	2272
466.183	2286.01
466.555	2332.11
466.928	2336.63
467.3	2360.36
467.672	2413.69
468.045	2408.72
468.417	2436.29
468.789	2451.43
469.161	2489.17
469.534	2545.22
469.906	2572.79
470.278	2607.81
470.65	2642.39
471.022	2645.1
471.394	2691.43
471.766	2686.91
472.138	2727.58
472.51	2771.42
472.882	2839.9
473.253	2810.75
473.625	2914.7
473.997	2921.25
474.369	2966.22
474.74	3027.69
475.112	3006.67
475.484	3068.37
475.855	3111.3
476.227	3140.68
476.598	3229.49
476.97	3255.48
477.341	3301.35
477.713	3372.76
478.084	3393.33
478.455	3452.99
478.827	3461.8
479.198	3549.48
479.569	3533.21
479.94	3630.16
480.311	3689.82
480.682	3777.73
481.053	3796.93
481.424	3850.94
481.795	3893.43
482.166	3964.84
482.537	3982.01
482.908	4068.79
483.279	4078.28
483.65	4127.55
484.021	4217.04
484.391	4228.56
484.762	4280.54
485.133	4319.63
485.503	4403.02
485.874	4454.77
486.244	4458.39
486.615	4570.25
486.985	4593.07
487.356	4707.64
487.726	4702.22
488.097	4798.04
488.467	4818.83
488.837	4876.45
489.207	4948.77
489.578	5000.97
489.948	5068.09
490.318	5050.23
490.688	5119.16
491.058	5143.11
491.428	5233.51
491.798	5269.66
492.168	5349.66
492.538	5361.64
492.908	5424.91
493.278	5505.59
493.648	5540.84
494.017	5536.55
494.387	5602.76
494.757	5656.09
495.126	5699.93
495.496	5762.08
495.866	5703.55
496.235	5733.61
496.605	5826.03
496.974	5866.94
497.344	5904.45
497.713	5915.52
498.082	5949.87
498.452	6009.31
498.821	6070.32
499.19	6070.55
499.559	6128.17
499.928	6104.9
500.298	6141.96
500.667	6170.66
501.036	6138.57
501.405	6240.03
501.774	6209.07
502.143	6299.24
502.512	6337.66
502.88	6386.02
503.249	6318
503.618	6349.18
503.987	6369.75
504.356	6426.92
504.724	6419.24
505.093	6459.01
505.462	6504.43
505.83	6497.65
506.199	6549.86
506.567	6611.55
506.936	6598.22
507.304	6625.11
507.672	6681.6
508.041	6701.26
508.409	6723.18
508.777	6732.68
509.145	6826.91
509.514	6792.79
509.882	6809.06
510.25	6819.23
510.618	6887.7
510.986	6865.33
511.354	6952.11
511.722	6912.33
512.09	6930.19
512.458	6960.01
512.826	7014.7
513.193	7040.24
513.561	7044.76
513.929	7095.83
514.297	7097.41
514.664	7158.43
515.032	7135.15
515.4	7164.08
515.767	7178.77
516.135	7198.65
516.502	7182.38
516.869	7291.76
517.237	7274.58
517.604	7200.91
517.972	7277.75
518.339	7273.23
518.706	7304.41
519.073	7361.59
519.44	7333.34
519.808	7394.58
520.175	7380.57
520.542	7481.36
520.909	7434.8
521.276	7414.92
521.643	7484.97
522.009	7500.34
522.376	7506.67
522.743	7540.11
523.11	7581.92
523.477	7697.85
523.843	7642.48
524.21	7743.5
524.577	7703.27
524.943	7711.18
525.31	7759.54
525.676	7775.81
526.043	7718.41
526.409	7812.42
526.776	7858.07
527.142	7874.57
527.508	7856.26
527.874	7894
528.241	7877.05
528.607	7881.8
528.973	7897.39
529.339	7981.46
529.705	7977.39
530.071	8026.65
530.437	7988.24
530.803	8023.49
531.169	8100.55
531.535	8002.25
531.901	7975.36
532.267	8049.03
532.632	8044.28
532.998	8077.27
533.364	8035.92
533.73	8054.9
534.095	8095.8
534.461	8132.41
534.826	8076.82
535.192	8119.98
535.557	8182.13
535.923	8034.11
536.288	8123.15
536.653	8162.02
537.019	8094.22
537.384	8064.17
537.749	8119.98
538.114	8076.37
538.479	8052.87
538.845	8137.38
539.21	8086.54
539.575	8070.95
539.94	8115.46
540.305	8117.95
540.67	8105.3
541.034	8076.6
541.399	8079.53
541.764	8118.63
542.129	8075.01
542.494	8076.14
542.858	8056.26
543.223	8032.3
543.587	8097.61
543.952	8051.29
544.316	8037.5
544.681	8055.81
545.045	8137.84
545.41	8096.93
545.774	8037.05
546.138	8085.63
546.503	8055.13
546.867	8011.96
547.231	8105.07
547.595	8141.45
547.959	8057.61
548.324	8001.57
548.688	8056.48
549.052	8043.38
549.416	8017.16
549.779	8032.3
550.143	7996.6
550.507	8043.6
550.871	8083.6
551.235	8014.68
551.599	8050.38
551.962	8014.45
552.326	8081.57
552.689	8072.53
553.053	8007.44
553.417	8039.08
553.78	8076.6
554.143	8040.89
554.507	8057.16
554.87	7952.76
555.234	8182.58
555.597	8030.27
555.96	8016.71
556.323	8101.23
556.686	8042.02
557.05	8072.08
557.413	8057.61
557.776	8148.01
558.139	8166.54
558.502	8142.58
558.865	8131.28
559.228	8142.36
559.59	8161.34
559.953	8156.37
560.316	8236.82
560.679	8187.55
561.041	8244.27
561.404	8202.02
561.767	8267.1
562.129	8181.68
562.492	8294.67
562.854	8220.55
563.217	8303.03
563.579	8268.23
563.941	8352.29
564.304	8327.66
564.666	8430.26
565.028	8353.65
565.39	8401.56
565.753	8424.16
566.115	8508
566.477	8480.88
566.839	8470.94
567.201	8465.29
567.563	8528.11
567.925	8594.1
568.287	8582.57
568.648	8553.19
569.01	8611.27
569.372	8653.08
569.734	8597.03
570.095	8674.09
570.457	8699.63
570.819	8668.44
571.18	8711.61
571.542	8754.54
571.903	8779.85
572.265	8766.29
572.626	8756.8
572.987	8757.93
573.349	8852.17
573.71	8816.46
574.071	8847.2
574.432	8867.54
574.794	8910.02
575.155	8977.36
575.516	8959.74
575.877	8978.27
576.238	9011.71
576.599	9009
576.96	8979.4
577.32	9021.43
577.681	9065.72
578.042	9034.54
578.403	9078.83
578.763	9110.01
579.124	9093.74
579.485	9097.13
579.845	9171.26
580.206	9170.13
580.566	9183.69
580.927	9210.13
581.287	9194.53
581.648	9224.81
582.008	9245.38
582.368	9221.65
582.728	9327.41
583.089	9257.36
583.449	9263.68
583.809	9307.07
584.169	9387.97
584.529	9321.08
584.889	9359.27
585.249	9351.59
585.609	9325.38
585.969	9385.26
586.329	9406.5
586.688	9384.36
587.048	9427.29
587.408	9378.26
587.768	9458.25
588.127	9376.67
588.487	9405.83
588.846	9406.05
589.206	9473.39
589.565	9392.04
589.925	9470.68
590.284	9481.98
590.643	9464.81
591.003	9494.86
591.362	9541.19
591.721	9496.9
592.08	9515.43
592.44	9512.26
592.799	9546.84
593.158	9507.07
593.517	9496.67
593.876	9517.91
594.235	9522.43
594.593	9461.42
594.952	9523.11
595.311	9570.79
595.67	9554.97
596.029	9624.8
596.387	9598.59
596.746	9664.35
597.104	9621.19
597.463	9642.2
597.822	9710.22
598.18	9610.34
598.538	9656.89
598.897	9634.07
599.255	9594.97
599.613	9726.5
599.972	9612.37
600.33	9712.03
600.688	9660.28
601.046	9732.15
601.404	9807.62
601.762	9743.67
602.12	9684.01
602.478	9746.83
602.836	9763.78
603.194	9645.14
603.552	9673.16
603.91	9732.37
604.268	9802.65
604.625	9758.13
604.983	9753.16
605.341	9686.04
605.698	9768.3
606.056	9757.68
606.413	9791.8
606.771	9756.55
607.128	9839.49
607.485	9726.04
607.843	9738.7
608.2	9721.98
608.557	9849.2
608.914	9867.51
609.272	9811.69
609.629	9932.37
609.986	9836.1
610.343	9874.97
610.7	9938.69
611.057	9917.23
611.414	9921.74
611.771	9921.07
612.127	9943.67
612.484	9989.54
612.841	9928.07
613.198	9927.17
613.554	10021.86
613.911	10022.08
614.267	9973.27
614.624	9984.57
614.98	10024.34
615.337	10040.84
615.693	9977.11
616.05	10020.27
616.406	10085.13
616.762	10011.23
617.118	9996.55
617.475	10018.92
617.831	10081.06
618.187	10022.08
618.543	10114.28
618.899	10105.47
619.255	10083.77
619.611	10047.39
619.967	10128.52
620.323	10078.58
620.678	10072.02
621.034	10134.39
621.39	10022.31
621.746	10028.41
622.101	10154.06
622.457	10065.24
622.812	10167.61
623.168	10092.81
623.523	10186.37
623.879	10215.52
624.234	10088.52
624.589	10111.34
624.945	10095.07
625.3	10102.3
625.655	10134.39
626.01	10106.37
626.365	10083.55
626.72	10123.32
627.075	10086.03
627.43	10059.14
627.785	10079.93
628.14	10100.95
628.495	10161.06
628.85	10139.59
629.205	10065.24
629.559	10093.72
629.914	10099.14
630.269	10055.98
630.623	10053.27
630.978	10011.91
631.332	10058.24
631.687	10050.1
632.041	9998.35
632.396	9994.96
632.75	9997.9
633.104	9956.32
633.459	9985.92
633.813	9942.08
634.167	9921.07
634.521	9973.49
634.875	9947.96
635.229	9894.17
635.583	9882.88
635.937	9810.11
636.291	9925.13
636.645	9836.78
636.999	9791.58
637.352	9957
637.706	9800.39
638.06	9805.82
638.413	9811.69
638.767	9812.82
639.121	9778.47
639.474	9761.75
639.828	9740.05
640.181	9718.36
640.534	9728.53
640.888	9696.21
641.241	9672.71
641.594	9660.73
641.947	9808.75
642.301	9698.7
642.654	9692.6
643.007	9704.58
643.36	9660.28
643.713	9683.56
644.066	9702.32
644.419	9618.02
644.771	9510.46
645.124	9534.18
645.477	9487.18
645.83	9433.4
646.182	9334.87
646.535	9381.87
646.888	9253.97
647.24	9274.3
647.593	9371.25
647.945	9321.53
648.298	9248.99
648.65	9297.58
649.002	9205.38
649.355	9323.34
649.707	9266.85
650.059	9411.25
650.411	9517.01
650.763	9452.38
651.115	9477.46
651.467	9456.22
651.819	9557.91
652.171	9534.18
652.523	9527.18
652.875	9486.5
653.227	9392.27
653.578	9499.38
653.93	9514.07
654.282	9397.46
654.633	9481.08
654.985	9491.02
655.337	9485.37
655.688	9488.08
656.039	9471.14
656.391	9441.76
656.742	9359.95
657.094	9449.21
657.445	9411.93
657.796	9466.84
658.147	9382.32
658.498	9448.31
658.849	9437.92
659.2	9396.79
659.551	9326.28
659.902	9416.67
660.253	9415.09
660.604	9402.89
660.955	9407.86
661.306	9459.16
661.656	9485.15
662.007	9464.13
662.358	9505.71
662.708	9501.87
663.059	9427.52
663.409	9364.7
663.76	9437.69
664.11	9419.84
664.461	9436.11
664.811	9498.93
665.161	9400.18
665.511	9343.45
665.862	9436.79
666.212	9495.77
666.562	9474.3
666.912	9435.43
667.262	9436.33
667.612	9446.28
667.962	9494.41
668.312	9406.73
668.662	9445.6
669.011	9429.33
669.361	9463.45
669.711	9439.72
670.06	9378.93
670.41	9314.76
670.76	9432.72
671.109	9442.66
671.459	9374.41
671.808	9333.29
672.157	9422.77
672.507	9245.38
672.856	9281.08
673.205	9351.36
673.554	9354.75
673.904	9332.61
674.253	9418.93
674.602	9354.98
674.951	9187.98
675.3	9072.5
675.649	9308.2
675.998	9305.49
676.346	9260.29
676.695	9228.88
677.044	9193.4
677.393	9223.01
677.741	9328.99
678.09	9209
678.438	9159.96
678.787	9265.94
679.135	9114.99
679.484	9174.19
679.832	9180.07
680.181	9134.65
680.529	9172.16
680.877	9128.55
681.225	9070.69
681.573	9163.8
681.922	9131.03
682.27	9045.61
682.618	9046.29
682.966	8960.19
683.314	8989.11
683.661	8970.81
684.009	8989.57
684.357	8944.37
684.705	8931.04
685.053	8943.92
685.4	8894.65
685.748	8894.65
686.095	8857.14
686.443	8767.2
686.79	8826.63
687.138	8837.71
687.485	8793.64
687.832	8734.66
688.18	8803.81
688.527	8689.69
688.874	8716.58
689.221	8742.79
689.568	8626.19
689.915	8604.04
690.262	8627.77
690.609	8580.31
690.956	8622.34
691.303	8566.3
691.65	8480.43
691.997	8545.51
692.344	8441.11
692.69	8444.27
693.037	8398.62
693.383	8369.02
693.73	8378.28
694.077	8268.45
694.423	8332.41
694.769	8323.59
695.116	8259.19
695.462	8295.8
695.808	8191.62
696.155	8293.76
696.501	8134.22
696.847	8154.11
697.193	8097.39
697.539	8131.51
697.885	8096.93
698.231	8057.16
698.577	8081.57
698.923	8046.09
699.269	7977.39
699.614	7960.67
699.96	7903.27
700.306	7907.33
700.651	7872.99
700.997	7846.55
701.342	7816.94
701.688	7829.6
702.033	7762.71
702.379	7778.07
702.724	7761.58
703.069	7720.22
703.415	7666.89
703.76	7619.21
704.105	7550.06
704.45	7624.4
704.795	7562.26
705.14	7519.1
705.485	7540.11
705.83	7487.91
706.175	7578.53
706.52	7456.05
706.865	7516.16
707.209	7437.97
707.554	7404.75
707.899	7432.32
708.243	7365.43
708.588	7337.18
708.932	7290.4
709.277	7278.65
709.621	7295.15
709.966	7272.77
710.31	7244.53
710.654	7217.18
710.998	7202.72
711.342	7262.83
711.687	7243.62
712.031	7176.51
712.375	7148.03
712.719	7173.57
713.063	7226.45
713.407	7172.21
713.75	7136.51
714.094	7152.55
714.438	7051.99
714.782	7097.86
715.125	7005.89
715.469	7074.59
715.812	7033.01
716.156	7027.13
716.499	7021.03
716.843	6998.88
717.186	6960.92
717.53	7016.96
717.873	6987.36
718.216	6964.31
718.559	6862.39
718.902	6901.03
719.246	6891.54
719.589	6876.4
719.932	6862.84
720.275	6796.86
720.617	6800.7
720.96	6847.25
721.303	6805.89
721.646	6825.1
721.989	6853.35
722.331	6847.25
722.674	6784.43
723.016	6791.88
723.359	6810.19
723.701	6809.06
724.044	6779.91
724.386	6707.59
724.729	6776.29
725.071	6772.45
725.413	6788.04
725.755	6741.49
726.097	6688.38
726.439	6686.58
726.782	6743.52
727.124	6698.78
727.465	6660.59
727.807	6652.45
728.149	6663.75
728.491	6694.94
728.833	6672.56
729.175	6660.36
729.516	6653.36
729.858	6690.42
730.199	6588.95
730.541	6642.73
730.882	6607.93
731.224	6652.45
731.565	6580.59
731.906	6662.17
732.248	6610.42
732.589	6637.54
732.93	6585.79
733.271	6615.17
733.612	6628.72
733.953	6600.48
734.294	6580.59
734.635	6608.39
734.976	6599.57
735.317	6573.81
735.658	6599.57
735.999	6606.13
736.339	6595.5
736.68	6594.6
737.021	6566.8
737.361	6622.17
737.702	6561.83
738.042	6572.45
738.383	6612.68
738.723	6616.29
739.063	6593.24
739.404	6611.55
739.744	6626.92
740.084	6582.62
740.424	6608.39
740.764	6609.97
741.104	6678.67
741.444	6614.04
741.784	6600.48
742.124	6630.98
742.464	6689.74
742.804	6641.83
743.143	6673.24
743.483	6685.45
743.823	6710.08
744.162	6726.35
744.502	6744.43
744.841	6729.51
745.181	6773.13
745.52	6736.97
745.86	6788.27
746.199	6756.4
746.538	6797.31
746.877	6805.22
747.216	6863.97
747.556	6887.02
747.895	6980.81
748.234	6923.18
748.573	6941.26
748.911	6940.81
749.25	6965.44
749.589	7019.9
749.928	7063.74
750.267	7127.47
750.605	7180.35
750.944	7193.91
751.283	7217.18
751.621	7284.75
751.96	7294.7
752.298	7365.88
752.636	7402.71
752.975	7451.98
753.313	7505.99
753.651	7634.35
753.989	7621.01
754.327	7697.4
754.666	7757.28
755.004	7863.72
755.342	8002.93
755.679	7967.45
756.017	8075.01
756.355	8157.05
756.693	8284.05
757.031	8304.16
757.368	8319.53
757.706	8499.18
758.044	8552.29
758.381	8663.92
758.719	8765.84
759.056	8805.39
759.394	8886.74
759.731	8934.2
760.068	9080.64
760.405	9139.84
760.743	9213.06
761.08	9338.48
761.417	9469.78
761.754	9496.22
762.091	9631.13
762.428	9664.12
762.765	9760.85
763.102	9899.6
763.438	9970.78
763.775	10047.39
764.112	10185.47
764.449	10234.05
764.785	10349.53
765.122	10321.28
765.458	10403.99
765.795	10504.33
766.131	10692.35
766.467	10626.81
766.804	10797.2
767.14	10770.76
767.476	10871.78
767.812	10917.42
768.148	11062.05
768.485	11090.75
768.821	11072.9
769.157	11236.74
769.492	11242.61
769.828	11351.76
770.164	11313.57
770.5	11343.18
770.836	11490.29
771.171	11443.51
771.507	11551.31
771.842	11562.15
772.178	11611.42
772.513	11591.53
772.849	11617.97
773.184	11681.02
773.519	11770.28
773.855	11824.97
774.19	11842.6
774.525	11787.68
774.86	11885.53
775.195	11955.14
775.53	11897.51
775.865	11809.38
776.2	11878.3
776.535	11861.35
776.87	11926.21
777.205	11929.83
777.539	11923.05
777.874	11986.1
778.209	12005.53
778.543	11918.75
778.878	11968.47
779.212	12014.8
779.547	11948.13
779.881	12053.67
780.215	11986.1
780.55	12014.8
780.884	11984.74
781.218	11946.55
781.552	11970.73
781.886	11948.13
782.22	11910.85
782.554	11930.28
782.888	11831.3
783.222	11878.53
783.556	11866.1
783.889	11811.86
784.223	11752.43
784.557	11786.55
784.89	11862.71
785.224	11767.35
785.557	11758.31
785.891	11697.74
786.224	11763.96
786.558	11695.03
786.891	11645.09
787.224	11582.49
787.557	11626.78
787.891	11625.88
788.224	11568.03
788.557	11686.44
788.89	11618.2
789.223	11580.01
789.556	11601.25
789.888	11450.07
790.221	11581.14
790.554	11384.53
790.887	11523.51
791.219	11459.78
791.552	11376.62
791.884	11396.96
792.217	11333.01
792.549	11293.91
792.882	11278.32
793.214	11158.77
793.546	11244.42
793.879	11179.11
794.211	11167.59
794.543	11204.65
794.875	11129.85
795.207	11145.89
795.539	11153.8
795.871	11175.05
796.203	11025.9
796.535	11034.26
796.867	10950.64
797.198	10963.07
797.53	10895.05
797.862	10922.62
798.193	10949.29
798.525	10899.57
798.856	10880.14
799.188	10702.74
799.519	10692.57
799.85	10645.79
800.182	10686.7
800.513	10772.12
800.844	10620.26
801.175	10631.1
801.506	10655.51
801.837	10594.72
802.168	10574.38
802.499	10534.16
802.83	10510.43
803.161	10429.75
803.491	10541.16
803.822	10467.95
804.153	10415.97
804.483	10415.29
804.814	10395.4
805.145	10312.24
805.475	10307.5
805.805	10274.73
806.136	10274.28
806.466	10275.41
806.796	10243.09
807.126	10132.59
807.457	10183.66
807.787	10158.57
808.117	10158.8
808.447	10126.94
808.777	10117.45
809.107	10093.72
809.436	9989.77
809.766	10029.99
810.096	9988.86
810.426	9995.87
810.755	10003.78
811.085	9993.61
811.414	9992.93
811.744	9874.51
812.073	9826.61
812.403	9897.56
812.732	9857.79
813.061	9864.35
813.39	9785.7
813.719	9708.42
814.049	9819.15
814.378	9761.07
814.707	9678.59
815.036	9732.37
815.365	9618.93
815.693	9615.99
816.022	9662.32
816.351	9623.45
816.68	9608.31
817.008	9609.66
817.337	9535.31
817.665	9500.29
817.994	9568.76
818.322	9470.91
818.651	9432.04
818.979	9428.65
819.307	9538.7
819.636	9418.26
819.964	9408.31
820.292	9450.12
820.62	9408.99
820.948	9375.54
821.276	9408.76
821.604	9388.65
821.932	9389.33
822.259	9429.1
822.587	9341.65
822.915	9340.29
823.243	9379.84
823.57	9328.77
823.898	9350.01
824.225	9332.61
824.553	9296.22
824.88	9381.65
825.207	9372.83
825.535	9329.44
825.862	9387.97
826.189	9294.42
826.516	9388.43
826.843	9357.01
827.17	9343.68
827.497	9422.32
827.824	9330.35
828.151	9404.47
828.478	9390.91
828.805	9414.64
829.131	9310.46
829.458	9338.71
829.785	9335.55
830.111	9306.39
830.438	9404.7
830.764	9389.56
831.09	9397.69
831.417	9331.7
831.743	9320.18
832.069	9331.48
832.395	9278.6
832.722	9289.67
833.048	9332.83
833.374	9236.34
833.7	9205.15
834.026	9252.16
834.351	9332.83
834.677	9309.78
835.003	9270.46
835.329	9272.5
835.654	9266.17
835.98	9242.21
836.306	9294.87
836.631	9243.57
836.956	9257.81
837.282	9230.69
837.607	9229.79
837.932	9191.59
838.258	9209
838.583	9169
838.908	9084.48
839.233	9203.35
839.558	9125.16
839.883	9107.08
840.208	9055.78
840.533	9048.32
840.858	9034.54
841.182	9068.66
841.507	9108.88
841.832	9010.36
842.156	9060.52
842.481	8994.54
842.805	8909.12
843.13	8884.71
843.454	8963.8
843.778	8867.76
844.103	8891.94
844.427	8905.27
844.751	8888.78
845.075	8839.51
845.399	8769.68
845.723	8756.35
846.047	8784.6
846.371	8689.91
846.695	8710.48
847.019	8616.02
847.343	8584.15
847.666	8573.98
847.99	8486.08
848.313	8512.29
848.637	8509.35
848.96	8444.5
849.284	8463.7
849.607	8343.03
849.931	8339.87
850.254	8379.19
850.577	8298.28
850.9	8184.62
851.223	8163.6
851.546	8173.77
851.869	8060.32
852.192	8115.69
852.515	8094
852.838	8061.45
853.161	8084.73
853.483	8057.61
853.806	7913.89
854.129	7962.02
854.451	7926.77
854.774	7851.74
855.096	7856.04
855.419	7827.34
855.741	7836.38
856.063	7778.98
856.385	7769.26
856.708	7763.16
857.03	7769.71
857.352	7735.14
857.674	7680.9
857.996	7660.79
858.318	7623.05
858.64	7615.14
858.961	7566.1
859.283	7570.17
859.605	7524.75
859.926	7552.32
860.248	7451.08
860.57	7538.3
860.891	7507.12
861.212	7461.47
861.534	7398.2
861.855	7391.42
862.176	7382.83
862.498	7401.13
862.819	7381.7
863.14	7343.51
863.461	7420.79
863.782	7374.92
864.103	7336.73
864.424	7359.33
864.745	7308.93
865.065	7329.72
865.386	7226.67
865.707	7294.7
866.027	7291.53
866.348	7247.92
866.668	7236.17
866.989	7239.56
867.309	7215.6
867.63	7278.2
867.95	7253.34
868.27	7163.85
868.59	7204.98
868.91	7172.44
869.23	7129.05
869.55	7103.51
869.87	7158.2
870.19	7126.79
870.51	7125.21
870.83	7154.36
871.15	7071.2
871.469	7046.79
871.789	7108.71
872.109	7071.42
872.428	7007.7
872.748	7041.14
873.067	7060.13
873.386	7047.7
873.706	7023.97
874.025	7034.59
874.344	7003.63
874.663	6915.72
874.982	6967.92
875.301	6964.76
875.62	6960.92
875.939	6964.08
876.258	6964.53
876.577	6895.61
876.896	6864.88
877.214	6912.11
877.533	6903.52
877.852	6861.26
878.17	6866.01
878.489	6874.82
878.807	6902.16
879.125	6791.66
879.444	6844.09
879.762	6805.67
880.08	6781.94
880.398	6801.15
880.716	6735.39
881.034	6781.71
881.352	6737.87
881.67	6746.91
881.988	6751.88
882.306	6706.01
882.624	6683.41
882.941	6665.56
883.259	6626.24
883.577	6639.35
883.894	6596.41
884.212	6630.08
884.529	6611.78
884.846	6561.38
885.164	6588.05
885.481	6543.53
885.798	6510.08
886.115	6543.53
886.432	6556.86
886.75	6469.86
887.067	6469.41
887.383	6438.9
887.7	6424.21
888.017	6407.03
888.334	6437.54
888.651	6378.11
888.967	6356.64
889.284	6367.71
889.6	6333.36
889.917	6288.39
890.233	6305.79
890.55	6264.67
890.866	6294.27
891.182	6244.78
891.498	6267.15
891.815	6227.6
892.131	6223.76
892.447	6216.98
892.763	6194.61
893.079	6171.56
893.395	6106.03
893.71	6140.15
894.026	6092.69
894.342	6085.46
894.657	6053.37
894.973	6022.19
895.289	6019.02
895.604	6025.35
895.92	5962.75
896.235	5987.61
896.55	5977.44
896.865	5947.16
897.181	5930.44
897.496	5910.55
897.811	5868.52
898.126	5852.25
898.441	5848.86
898.756	5828.52
899.071	5760.27
899.386	5793.49
899.7	5789.88
900.015	5738.13
900.33	5686.15
900.644	5640.95
900.959	5753.49
901.273	5642.76
901.588	5597.34
901.902	5626.72
902.216	5554.4
902.531	5593.27
902.845	5488.64
903.159	5548.3
903.473	5490.67
903.787	5475.08
904.101	5489.09
904.415	5479.38
904.729	5433.28
905.042	5464.46
905.356	5434.41
905.67	5317.35
905.984	5441.18
906.297	5379.27
906.611	5328.19
906.924	5351.92
907.237	5249.1
907.551	5271.7
907.864	5235.31
908.177	5251.59
908.491	5203.9
908.804	5209.78
909.117	5194.41
909.43	5123.68
909.743	5108.09
910.056	5090.01
910.368	5119.61
910.681	5054.98
910.994	5043.23
911.307	5037.81
911.619	5025.83
911.932	5005.49
912.244	4970.69
912.557	4963.46
912.869	4941.31
913.181	4916.68
913.494	4923.46
913.806	4847.75
914.118	4854.31
914.43	4775.21
914.742	4824.48
915.054	4812.05
915.366	4774.31
915.678	4780.86
915.99	4758.72
916.302	4716.23
916.613	4688.89
916.925	4740.41
917.236	4673.52
917.548	4644.37
917.859	4643.01
918.171	4636.46
918.482	4600.08
918.794	4588.33
919.105	4550.81
919.416	4491.83
919.727	4527.08
920.038	4499.74
920.349	4472.62
920.66	4526.63
920.971	4453.41
921.282	4462.91
921.593	4428.33
921.903	4373.64
922.214	4353.98
922.525	4371.83
922.835	4312.85
923.146	4297.71
923.456	4284.15
923.767	4352.4
924.077	4294.55
924.387	4271.5
924.697	4246.19
925.008	4243.7
925.318	4208.9
925.628	4200.31
925.938	4168.45
926.248	4156.25
926.558	4212.74
926.867	4159.18
927.177	4135
927.487	4109.02
927.796	4028.34
928.106	4062.24
928.416	4041.45
928.725	4058.17
929.034	4030.37
929.344	4040.77
929.653	4018.4
929.962	4039.64
930.271	3978.85
930.581	3991.73
930.89	3913.77
931.199	3923.26
931.508	3958.06
931.817	3906.76
932.125	3883.71
932.434	3865.63
932.743	3840.32
933.051	3838.06
933.36	3811.4
933.669	3762.58
933.977	3747.44
934.286	3766.2
934.594	3784.73
934.902	3726.65
935.21	3677.62
935.519	3736.6
935.827	3716.48
936.135	3673.55
936.443	3663.38
936.751	3654.56
937.059	3619.99
937.367	3615.02
937.674	3588.13
937.982	3627.22
938.29	3588.13
938.597	3563.27
938.905	3495.93
939.213	3516.72
939.52	3524.17
939.827	3510.16
940.135	3470.84
940.442	3438.75
940.749	3435.36
941.056	3437.4
941.363	3431.52
941.67	3431.52
941.977	3375.02
942.284	3366.66
942.591	3386.1
942.898	3334.8
943.205	3325.31
943.511	3318.53
943.818	3342.71
944.125	3326.21
944.431	3267.46
944.738	3309.04
945.044	3298.42
945.35	3218.19
945.657	3250.06
945.963	3225.88
946.269	3210.73
946.575	3215.25
946.881	3178.19
947.187	3174.35
947.493	3133.45
947.799	3128.25
948.105	3119.66
948.41	3129.83
948.716	3107.46
949.022	3105.88
949.327	3102.72
949.633	3046.9
949.938	3060.23
950.244	3060.23
950.549	3029.04
950.854	2969.16
951.16	2977.75
951.465	2975.26
951.77	2982.94
952.075	2975.03
952.38	2935.49
952.685	2958.99
952.99	2942.27
953.294	2942.04
953.599	2898.88
953.904	2889.84
954.209	2898.65
954.513	2885.32
954.818	2872.44
955.122	2834.02
955.426	2839.9
955.731	2817.52
956.035	2845.77
956.339	2802.38
956.643	2791.08
956.948	2754.02
957.252	2769.16
957.556	2737.53
957.86	2724.42
958.163	2710.63
958.467	2725.32
958.771	2735.95
959.075	2703.86
959.378	2664.53
959.682	2671.99
959.985	2643.07
960.289	2615.27
960.592	2626.57
960.896	2653.24
961.199	2644.2
961.502	2606.91
961.805	2600.36
962.108	2547.7
962.411	2582.95
962.714	2589.96
963.017	2561.49
963.32	2554.03
963.623	2552.45
963.926	2542.28
964.228	2523.75
964.531	2487.14
964.833	2538.21
965.136	2494.6
965.438	2491.66
965.741	2442.17
966.043	2478.55
966.345	2465.9
966.648	2460.47
966.95	2410.98
967.252	2412.56
967.554	2436.97
967.856	2425.44
968.158	2394.49
968.46	2375.73
968.761	2396.74
969.063	2378.89
969.365	2355.39
969.666	2372.34
969.968	2359.01
970.269	2311.1
970.571	2306.35
970.872	2271.32
971.174	2306.35
971.475	2291.21
971.776	2289.63
972.077	2266.35
972.378	2235.85
972.679	2237.65
972.98	2240.14
973.281	2218.67
973.582	2220.03
973.883	2227.03
974.183	2207.15
974.484	2188.61
974.785	2166.02
975.085	2151.33
975.386	2180.25
975.686	2189.29
975.986	2147.94
976.287	2155.62
976.587	2142.51
976.887	2116.3
977.187	2102.29
977.487	2126.24
977.787	2130.09
978.087	2108.39
978.387	2094.38
978.687	2105.23
978.987	2042.86
979.286	2039.01
979.586	2045.34
979.885	2037.21
980.185	2013.25
980.484	2031.78
980.784	2005.34
981.083	1971.45
981.382	1995.63
981.682	2002.63
981.981	1971.45
982.28	1967.38
982.579	1959.69
982.878	1980.48
983.177	1939.36
983.475	1943.65
983.774	1924.67
984.073	1923.76
984.372	1901.39
984.67	1904.1
984.969	1939.81
985.267	1916.08
985.566	1889.87
985.864	1874.72
986.162	1864.33
986.461	1858
986.759	1839.7
987.057	1840.6
987.355	1819.58
987.653	1833.14
987.951	1821.17
988.249	1825.23
988.547	1816.2
988.844	1780.72
989.142	1793.6
989.44	1779.59
989.737	1799.92
990.035	1753.6
990.332	1761.73
990.63	1762.64
990.927	1768.51
991.224	1740.49
991.521	1729.19
991.819	1709.31
992.116	1731
992.413	1752.02
992.71	1685.35
993.006	1707.5
993.303	1686.71
993.6	1684
993.897	1672.02
994.193	1674.05
994.49	1649.42
994.787	1655.07
995.083	1652.36
995.379	1634.73
995.676	1635.41
995.972	1608.29
996.268	1609.42
996.565	1599.93
996.861	1577.33
997.157	1589.53
997.453	1594.73
997.749	1605.13
998.044	1588.86
998.34	1578.46
998.636	1579.37
998.932	1551.12
999.227	1528.75
999.523	1549.08
999.818	1524.45
1000.114	1515.19
1000.409	1495.98
1000.704	1490.78
1001	1486.94
1001.295	1489.65
1001.59	1469.09
1001.885	1481.51
1002.18	1455.3
1002.475	1439.48
1002.77	1438.35
1003.065	1432.7
1003.359	1442.19
1003.654	1435.19
1003.949	1425.47
1004.243	1407.84
1004.538	1404.23
1004.832	1432.48
1005.127	1399.03
1005.421	1386.6
1005.715	1364.23
1006.009	1371.91
1006.304	1374.62
1006.598	1338.47
1006.892	1356.32
1007.186	1350.9
1007.48	1335.53
1007.773	1324.46
1008.067	1336.21
1008.361	1331.24
1008.655	1290.56
1008.948	1305.7
1009.242	1280.84
1009.535	1272.03
1009.829	1297.34
1010.122	1275.64
1010.415	1313.16
1010.708	1268.41
1011.001	1264.12
1011.295	1267.28
1011.588	1227.51
1011.881	1234.06
1012.173	1222.76
1012.466	1196.1
1012.759	1245.14
1013.052	1219.6
1013.344	1214.4
1013.637	1206.72
1013.93	1210.34
1014.222	1179.6
1014.514	1171.92
1014.807	1202.65
1015.099	1164.91
1015.391	1156.55
1015.683	1163.78
1015.976	1147.74
1016.268	1164.69
1016.56	1111.35
1016.851	1140.05
1017.143	1136.89
1017.435	1130.34
1017.727	1124.91
1018.018	1085.14
1018.31	1093.73
1018.602	1088.3
1018.893	1096.44
1019.185	1098.25
1019.476	1055.99
1019.767	1066.61
1020.058	1055.09
1020.35	1066.16
1020.641	1056.89
1020.932	1045.59
1021.223	1042.43
1021.514	1022.77
1021.804	1034.29
1022.095	1024.8
1022.386	1041.53
1022.677	1016.22
1022.967	994.52
1023.258	988.65
1023.548	998.82
1023.839	1020.74
1024.129	968.99
1024.419	962.66
1024.709	965.6
1025	944.35
1025.29	958.82
1025.58	953.84
1025.87	959.95
1026.16	952.04
1026.449	967.63
1026.739	933.28
1027.029	933.28
1027.319	898.25
1027.608	925.15
1027.898	919.27
1028.187	895.54
1028.477	897.35
1028.766	884.92
1029.055	876.56
1029.344	882.43
1029.634	885.6
1029.923	871.36
1030.212	859.84
1030.501	870.01
1030.79	875.2
1031.078	847.63
1031.367	833.85
1031.656	830.23
1031.945	853.06
1032.233	831.59
1032.522	844.92
1032.81	819.39
1033.099	839.95
1033.387	833.4
1033.675	806.73
1033.963	788.43
1034.251	807.41
1034.54	794.3
1034.828	791.36
1035.116	787.52
1035.403	769.9
1035.691	771.7
1035.979	800.4
1036.267	762.89
1036.554	760.4
1036.842	766.51
1037.129	752.49
1037.417	764.47
1037.704	757.24
1037.992	752.95
1038.279	759.95
1038.566	751.82
1038.853	751.82
1039.14	751.82
