Data from hue_00_FLMS001491_30.txt Node
Date: Mon Feb 06 15:29:30 GMT 2017
User: dcchb
Spectrometer: FLMS00149
Trigger mode: 0
Integration Time (sec): 2.000000E-2
Scans to average: 10
Electric dark correction enabled: true
Nonlinearity correction enabled: false
Boxcar width: 0
XAxis mode: Wavelengths
Number of Pixels in Spectrum: 2048
>>>>>Begin Spectral Data<<<<<
341.393	-13.74
341.776	-13.74
342.16	-13.74
342.543	-58.94
342.927	-63.23
343.31	-67.53
343.693	-67.53
344.077	-50.35
344.46	-69.11
344.843	-56.45
345.226	-32.5
345.61	-37.92
345.993	-29.56
346.376	7.05
346.759	12.47
347.142	33.26
347.525	35.97
347.908	61.28
348.291	64.67
348.674	82.98
349.057	113.26
349.44	141.51
349.823	142.86
350.206	163.88
350.588	186.93
350.971	186.93
351.354	219.47
351.737	256.98
352.119	225.35
352.502	268.96
352.884	270.77
353.267	278.91
353.65	295.63
354.032	285.46
354.414	311.45
354.797	329.98
355.179	306.47
355.562	315.29
355.944	321.16
356.326	318
356.709	333.14
357.091	336.08
357.473	347.83
357.855	322.52
358.238	345.8
358.62	350.09
359.002	331.79
359.384	345.34
359.766	335.63
360.148	342.41
360.53	336.53
360.912	333.59
361.294	313.71
361.676	332.24
362.057	313.48
362.439	335.4
362.821	335.17
363.203	309.86
363.584	318.23
363.966	329.07
364.348	324.55
364.729	322.29
365.111	337.21
365.493	308.96
365.874	316.19
366.256	289.75
366.637	305.57
367.019	303.99
367.4	323.65
367.781	313.48
368.163	328.4
368.544	299.24
368.925	315.97
369.306	309.19
369.688	298.34
370.069	306.93
370.45	307.38
370.831	303.54
371.212	318.68
371.593	314.38
371.974	304.89
372.355	325.01
372.736	325.01
373.117	309.86
373.498	324.78
373.879	308.28
374.26	301.96
374.641	327.94
375.021	317.32
375.402	306.25
375.783	324.78
376.163	338.56
376.544	318.45
376.925	309.41
377.305	339.92
377.686	334.04
378.066	330.2
378.447	334.72
378.827	320.71
379.208	309.64
379.588	321.62
379.968	308.73
380.349	317.55
380.729	312.58
381.109	326.81
381.489	337.43
381.87	319.13
382.25	327.49
382.63	330.43
383.01	329.75
383.39	354.61
383.77	329.07
384.15	338.34
384.53	342.86
384.91	339.69
385.29	334.72
385.67	360.03
386.049	359.81
386.429	372.24
386.809	334.5
387.189	351.67
387.568	334.5
387.948	361.84
388.328	376.53
388.707	335.4
389.087	341.5
389.466	379.47
389.846	362.29
390.225	351.22
390.605	366.59
390.984	348.06
391.363	375.17
391.743	357.32
392.122	352.8
392.501	373.59
392.881	363.2
393.26	403.2
393.639	358.23
394.018	359.58
394.397	362.52
394.776	363.65
395.155	382.86
395.534	375.4
395.913	369.75
396.292	382.86
396.671	375.85
397.05	369.07
397.429	388.96
397.808	379.69
398.186	390.09
398.565	367.94
398.944	374.27
399.323	372.01
399.701	378.56
400.08	406.36
400.458	386.47
400.837	413.59
401.215	393.48
401.594	397.77
401.972	384.89
402.351	400.71
402.729	399.35
403.107	395.29
403.486	392.8
403.864	413.14
404.242	409.98
404.62	416.98
404.999	398
405.377	407.72
405.755	427.15
406.133	405
406.511	425.34
406.889	393.7
407.267	423.76
407.645	430.99
408.023	441.16
408.401	426.02
408.779	413.82
409.156	433.93
409.534	441.61
409.912	435.51
410.29	455.17
410.667	435.51
411.045	457.88
411.422	461.73
411.8	480.03
412.178	460.14
412.555	473.7
412.933	468.73
413.31	470.54
413.687	458.11
414.065	475.51
414.442	493.59
414.819	482.97
415.197	483.42
415.574	469.63
415.951	487.26
416.328	505.57
416.705	491.1
417.082	484.78
417.46	531.78
417.837	513.93
418.214	509.18
418.591	489.75
418.967	508.5
419.344	511.67
419.721	507.6
420.098	514.83
420.475	529.97
420.852	537.88
421.228	501.5
421.605	520.48
421.982	537.43
422.358	535.85
422.735	534.94
423.111	539.92
423.488	535.62
423.864	528.62
424.241	557.32
424.617	562.06
424.994	571.78
425.37	555.96
425.746	560.71
426.123	561.84
426.499	580.14
426.875	581.04
427.251	554.38
427.627	582.17
428.003	598.9
428.379	600.93
428.756	597.54
429.132	609.07
429.507	589.86
429.883	600.93
430.259	597.77
430.635	615.85
431.011	633.02
431.387	618.33
431.763	627.37
432.138	648.84
432.514	635.05
432.89	649.52
433.265	668.95
433.641	661.04
434.016	656.07
434.392	661.04
434.767	662.62
435.143	669.18
435.518	673.47
435.894	698.33
436.269	705.56
436.644	696.3
437.02	709.4
437.395	713.7
437.77	731.77
438.145	721.38
438.52	743.3
438.895	732.68
439.271	752.79
439.646	766.58
440.021	753.02
440.395	761.83
440.77	739.68
441.145	730.19
441.52	789.17
441.895	743.98
442.27	791.89
442.645	783.75
443.019	775.62
443.394	802.06
443.769	771.55
444.143	763.64
444.518	776.07
444.892	800.02
445.267	829.4
445.641	801.15
446.016	796.86
446.39	798.67
446.764	827.14
447.139	844.54
447.513	794.15
447.887	811.32
448.262	845.44
448.636	831.88
449.01	842.51
449.384	854.71
449.758	853.81
450.132	844.31
450.506	852.9
450.88	875.27
451.254	842.28
451.628	863.3
452.002	892
452.376	877.76
452.75	912.56
453.123	885.67
453.497	913.92
453.871	912.56
454.244	911.88
454.618	949.85
454.992	932.9
455.365	931.09
455.739	957.53
456.112	976.51
456.486	973.35
456.859	996.17
457.232	987.81
457.606	974.48
457.979	988.94
458.352	1002.73
458.725	1015.38
459.099	1033.69
459.472	1044.53
459.845	1063.29
460.218	1063.29
460.591	1070.75
460.964	1056.51
461.337	1122.5
461.71	1109.39
462.083	1094.02
462.456	1119.33
462.829	1122.27
463.201	1138.77
463.574	1136.28
463.947	1163.18
464.32	1197.3
464.692	1197.3
465.065	1198.2
465.438	1218.32
465.81	1229.84
466.183	1228.26
466.555	1237.75
466.928	1287.69
467.3	1282.95
467.672	1268.26
468.045	1313.68
468.417	1308.93
468.789	1310.06
469.161	1362.49
469.534	1374.24
469.906	1384.86
470.278	1383.73
470.65	1415.37
471.022	1421.02
471.394	1461.47
471.766	1477.52
472.138	1473.9
472.51	1486.56
472.882	1558.19
473.253	1548.48
473.625	1553
473.997	1605.65
474.369	1600.9
474.74	1669.38
475.112	1657.63
475.484	1699.21
475.855	1689.94
476.227	1743.73
476.598	1753.67
476.97	1784.4
477.341	1798.19
477.713	1856.72
478.084	1870.73
478.455	1917.96
478.827	1936.04
479.198	1990.27
479.569	1990.27
479.94	2025.3
480.311	2062.14
480.682	2122.02
481.053	2166.77
481.424	2242.47
481.795	2209.48
482.166	2259.64
482.537	2312.07
482.908	2324.95
483.279	2363.14
483.65	2397.27
484.021	2454.22
484.391	2481.79
484.762	2526.53
485.133	2510.48
485.503	2582.12
485.874	2631.61
486.244	2665.96
486.615	2708.9
486.985	2753.87
487.356	2795
487.726	2804.71
488.097	2857.82
488.467	2875.22
488.837	2965.39
489.207	2998.61
489.578	3022.56
489.948	3059.85
490.318	3099.62
490.688	3129.68
491.058	3176.46
491.428	3216.91
491.798	3260.97
492.168	3302.78
492.538	3293.52
492.908	3392.27
493.278	3383.91
493.648	3438.82
494.017	3463
494.387	3559.04
494.757	3544.36
495.126	3588.2
495.496	3628.87
495.866	3605.6
496.235	3629.55
496.605	3706.16
496.974	3710.68
497.344	3722.88
497.713	3758.36
498.082	3823.9
498.452	3856.21
498.821	3878.13
499.19	3870
499.559	3966.04
499.928	3957.45
500.298	3969.66
500.667	4033.83
501.036	4020.28
501.405	4058.24
501.774	4055.08
502.143	4072.7
502.512	4121.52
502.88	4124.68
503.249	4189.08
503.618	4164
503.987	4194.73
504.356	4187.5
504.724	4208.52
505.093	4243.55
505.462	4282.87
505.83	4294.17
506.199	4303.66
506.567	4365.35
506.936	4380.72
507.304	4401.51
507.672	4420.04
508.041	4469.08
508.409	4452.81
508.777	4489.64
509.145	4515.86
509.514	4520.83
509.882	4542.52
510.25	4591.79
510.618	4564.22
510.986	4620.26
511.354	4640.37
511.722	4678.11
512.09	4689.86
512.458	4699.58
512.826	4747.94
513.193	4692.57
513.561	4770.76
513.929	4776.87
514.297	4771.67
514.664	4807.6
515.032	4828.84
515.4	4895.73
515.767	4880.14
516.135	4931.89
516.502	4921.04
516.869	4972.34
517.237	4951.78
517.604	4956.3
517.972	4983.64
518.339	5006.24
518.706	5014.83
519.073	4993.13
519.44	5030.87
519.808	5135.95
520.175	5090.3
520.542	5148.16
520.909	5150.64
521.276	5104.31
521.643	5168.72
522.009	5261.6
522.376	5236.29
522.743	5264.99
523.11	5282.39
523.477	5352.67
523.843	5349.05
524.21	5416.17
524.577	5486.23
524.943	5437.87
525.31	5452.33
525.676	5554.47
526.043	5543.63
526.409	5574.13
526.776	5596.73
527.142	5605.54
527.508	5600.8
527.874	5708.59
528.241	5712.66
528.607	5656.39
528.973	5769.38
529.339	5804.41
529.705	5809.61
530.071	5842.15
530.437	5842.37
530.803	5892.99
531.169	5918.3
531.535	5905.42
531.901	5958.08
532.267	6009.6
532.632	6063.16
532.998	6027.91
533.364	6076.94
533.73	6096.83
534.095	6134.34
534.461	6182.48
534.826	6195.13
535.192	6182.7
535.557	6234.68
535.923	6241.23
536.288	6317.84
536.653	6326.43
537.019	6298.18
537.384	6336.82
537.749	6357.62
538.114	6431.74
538.479	6374.79
538.845	6422.92
539.21	6475.35
539.575	6486.65
539.94	6459.31
540.305	6541.11
540.67	6556.93
541.034	6558.97
541.399	6599.87
541.764	6634.9
542.129	6605.07
542.494	6700.43
542.858	6667.89
543.223	6745.4
543.587	6792.63
543.952	6741.33
544.316	6822.69
544.681	6871.05
545.045	6856.13
545.41	6877.83
545.774	6953.76
546.138	6931.39
546.503	7005.73
546.867	7030.82
547.231	7071.04
547.595	7010.03
547.959	7034.89
548.324	7052.51
548.688	7142
549.052	7185.84
549.416	7110.59
549.779	7145.62
550.143	7216.35
550.507	7234.65
550.871	7263.35
551.235	7289.79
551.599	7352.84
551.962	7368.44
552.326	7351.49
552.689	7427.64
553.053	7377.7
553.417	7397.14
553.78	7530.47
554.143	7516.68
554.507	7505.16
554.87	7513.07
555.234	7577.92
555.597	7577.7
555.96	7638.94
556.323	7645.27
556.686	7604.14
557.05	7691.82
557.413	7709.22
557.776	7719.84
558.139	7758.93
558.502	7734.53
558.865	7793.28
559.228	7844.36
559.59	7872.83
559.953	7830.34
560.316	7941.08
560.679	7989.89
561.041	8037.35
561.404	8017.68
561.767	8051.36
562.129	8054.52
562.492	8103.11
562.854	8134.07
563.217	8134.97
563.579	8151.24
563.941	8227.17
564.304	8238.24
564.666	8334.74
565.028	8348.52
565.39	8323.89
565.753	8421.29
566.115	8370.9
566.477	8446.15
566.839	8457.67
567.201	8523.43
567.563	8489.99
567.925	8544.22
568.287	8585.35
568.648	8647.72
569.01	8610.21
569.372	8651.11
569.734	8678.46
570.095	8786.93
570.457	8789.19
570.819	8835.29
571.18	8850.66
571.542	8912.35
571.903	8881.39
572.265	8994.16
572.626	9021.05
572.987	9056.98
573.349	9164.1
573.71	9207.03
574.071	9175.39
574.432	9267.6
574.794	9323.64
575.155	9334.03
575.516	9374.03
575.877	9468.72
576.238	9578.77
576.599	9608.6
576.96	9649.73
577.32	9739
577.681	9804.3
578.042	9940.35
578.403	9932.89
578.763	10000.46
579.124	10094.01
579.485	10261.92
579.845	10334.46
580.206	10397.51
580.566	10557.05
580.927	10668.69
581.287	10823.49
581.648	10886.08
582.008	11011.5
582.368	11166.08
582.728	11272.74
583.089	11353.64
583.449	11533.3
583.809	11707.53
584.169	11850.58
584.529	11978.26
584.889	12250.12
585.249	12341.86
585.609	12467.29
585.969	12788.63
586.329	12980.27
586.688	13210.77
587.048	13344.1
587.408	13481.04
587.768	13681.72
588.127	13959.45
588.487	14177.07
588.846	14514.01
589.206	14600.34
589.565	14751.52
589.925	15166.2
590.284	15334.1
590.643	15643.02
591.003	15931.15
591.362	16155.55
591.721	16362.78
592.08	16662.2
592.44	17027.84
592.799	17258.35
593.158	17551.45
593.517	17728.62
593.876	18129.74
594.235	18309.62
594.593	18635.71
594.952	19014.01
595.311	19211.97
595.67	19517.5
596.029	19897.37
596.387	20178.27
596.746	20514.76
597.104	20750.01
597.463	20957.01
597.822	21362.87
598.18	21571.45
598.538	21790.66
598.897	22272.9
599.255	22281.49
599.613	22969.83
599.972	23119.89
600.33	23455.47
600.688	23573.66
601.046	24021.11
601.404	24286.41
601.762	24631.03
602.12	24936.34
602.478	25191.02
602.836	25282.09
603.194	25596.21
603.552	25886.59
603.91	26127.72
604.268	26484.54
604.625	26635.73
604.983	26947.13
605.341	27104.19
605.698	27544.63
606.056	27673.89
606.413	27949.14
606.771	28314.78
607.128	28476.81
607.485	28536.92
607.843	28832.5
608.2	29106.17
608.557	29427.74
608.914	29464.35
609.272	29910.22
609.629	30192.24
609.986	30450.09
610.343	30500.48
610.7	30878.33
611.057	31090.07
611.414	31166.91
611.771	31371.19
612.127	31620.45
612.484	31792.65
612.841	32092.53
613.198	32092.08
613.554	32336.59
613.911	32682.35
614.267	32737.71
614.624	32841.44
614.98	33178.83
615.337	33445.04
615.693	33536.79
616.05	33585.15
616.406	33947.4
616.762	33795.09
617.118	34066.72
617.475	34216.54
617.831	34460.83
618.187	34586.93
618.543	34751.9
618.899	35005.9
619.255	35145.78
619.611	35205.9
619.967	35423.29
620.323	35574.7
620.678	35391.88
621.034	35486.11
621.39	35824.64
621.746	35725.43
622.101	36152.31
622.457	35964.52
622.812	36092.65
623.168	36277.73
623.523	36434.79
623.879	36647.44
624.234	36468.24
624.589	36629.14
624.945	36828.9
625.3	36856.47
625.655	37066.86
626.01	36978.73
626.365	36970.82
626.72	37234.09
627.075	37157.03
627.43	37132.63
627.785	37388.44
628.14	37475.44
628.495	37455.33
628.85	37484.03
629.205	37437.93
629.559	37731.71
629.914	37538.26
630.269	37627.53
630.623	37632.05
630.978	37609.45
631.332	37781.65
631.687	37810.12
632.041	37706.62
632.396	37796.34
632.75	37676.34
633.104	37776.45
633.459	37696.23
633.813	37572.84
634.167	37761.54
634.521	37756.56
634.875	37787.98
635.229	37794.08
635.583	37694.42
635.937	37848.99
636.291	37834.75
636.645	37839.5
636.999	37739.39
637.352	37774.42
637.706	37690.12
638.06	37930.8
638.413	37877.46
638.767	37790.24
639.121	37802.66
639.474	37567.19
639.828	37832.49
640.181	37856.67
640.534	37748.43
640.888	37691.71
641.241	37557.92
641.594	37712.72
641.947	37804.47
642.301	37695.77
642.654	37587.98
643.007	37808.54
643.36	37624.82
643.713	37651.26
644.066	37698.71
644.419	37483.58
644.771	37353.18
645.124	36987.54
645.477	37042.68
645.83	36788.68
646.182	36670.04
646.535	36657.16
646.888	36705.52
647.24	36405.41
647.593	36731.73
647.945	36602.02
648.298	36482.47
648.65	36314.57
649.002	36378.97
649.355	36499.2
649.707	36542.81
650.059	36636.59
650.411	37051.5
650.763	37062.8
651.115	37353.41
651.467	37207.88
651.819	37329.46
652.171	37174.66
652.523	37222.57
652.875	37201.78
653.227	37011.5
653.578	37219.18
653.93	37223.47
654.282	36997.71
654.633	36931.27
654.985	37149.8
655.337	36981.44
655.688	37043.36
656.039	37128.11
656.391	36788.45
656.742	36961.33
657.094	37005.4
657.445	36977.38
657.796	36949.35
658.147	36892.41
658.498	36945.06
658.849	37187.09
659.2	37008.56
659.551	36755.46
659.902	37051.72
660.253	36893.99
660.604	37036.36
660.955	36784.39
661.306	36974.89
661.656	36757.72
662.007	36970.37
662.358	36865.74
662.708	36890.15
663.059	36840.88
663.409	36576.48
663.76	36851.28
664.11	36909.13
664.461	36909.81
664.811	36934.66
665.161	36891.5
665.511	36808.57
665.862	36863.48
666.212	36827.55
666.562	36813.76
666.912	36896.02
667.262	36779.19
667.612	36797.27
667.962	36852.41
668.312	36849.69
668.662	36863.71
669.011	36803.37
669.361	36812.63
669.711	36789.58
670.06	36795.01
670.41	36683.6
670.76	36785.97
671.109	36639.3
671.459	36633.43
671.808	36663.26
672.157	36700.09
672.507	36442.93
672.856	36439.08
673.205	36554.34
673.554	36576.71
673.904	36358.86
674.253	36718.62
674.602	36548.01
674.951	35999.32
675.3	35772.21
675.649	36513.88
675.998	36414.23
676.346	36481.12
676.695	36497.16
677.044	36164.29
677.393	36349.6
677.741	36405.86
678.09	36181.69
678.438	36224.4
678.787	36174.91
679.135	36238.41
679.484	35969.27
679.832	36105.76
680.181	35973.79
680.529	36093.33
680.877	35953.9
681.225	35901.25
681.573	36229.15
681.922	35824.64
682.27	35869.38
682.618	35796.62
682.966	35616.06
683.314	35778.54
683.661	35603.85
684.009	35422.39
684.357	35406.8
684.705	35465.1
685.053	35427.59
685.4	35323.63
685.748	35298.1
686.095	35251.77
686.443	35075.05
686.79	35082.51
687.138	35215.39
687.485	35112.11
687.832	34959.58
688.18	35015.17
688.527	34869.86
688.874	34832.57
689.221	34690.66
689.568	34644.78
689.915	34583.99
690.262	34577.89
690.609	34428.97
690.956	34234.4
691.303	34355.75
691.65	34143.78
691.997	34016.32
692.344	33927.96
692.69	33845.48
693.037	33946.49
693.383	33697.24
693.73	33704.69
694.077	33609.33
694.423	33541.08
694.769	33402.1
695.116	33283.46
695.462	33340.86
695.808	33246.85
696.155	33319.62
696.501	32992.4
696.847	33023.58
697.193	32816.58
697.539	32993.75
697.885	32666.3
698.231	32695.23
698.577	32568.68
698.923	32518.96
699.269	32485.29
699.614	32367.1
699.96	32353.09
700.306	32258.86
700.651	32190.83
700.997	32131.17
701.342	32149.71
701.688	31942.03
702.033	31945.87
702.379	31829.71
702.724	31691.19
703.069	31704.29
703.415	31386.79
703.76	31484.19
704.105	31421.36
704.45	31326.9
704.795	31214.36
705.14	30927.36
705.485	30980.02
705.83	31019.79
706.175	31048.72
706.52	30932.79
706.865	30793.81
707.209	30742.06
707.554	30639.01
707.899	30792.68
708.243	30545.45
708.588	30481.73
708.932	30313.37
709.277	30293.03
709.621	30373.26
709.966	30133.71
710.31	30312.69
710.654	29902.98
710.998	30088.52
711.342	29953.38
711.687	29866.15
712.031	29636.78
712.375	29676.78
712.719	29642.43
713.063	29571.24
713.407	29717.23
713.75	29488.98
714.094	29485.37
714.438	29477.91
714.782	29347.07
715.125	29251.48
715.469	29175.77
715.812	29162.44
716.156	28966.74
716.499	29086.74
716.843	28939.39
717.186	28847.87
717.53	28927.19
717.873	29093.97
718.216	29079.5
718.559	28653.98
718.902	28489.91
719.246	28700.3
719.589	28531.72
719.932	28332.63
720.275	28468.67
720.617	28365.62
720.96	28465.73
721.303	28347.32
721.646	28384.61
721.989	28129.02
722.331	28212.41
722.674	28090.6
723.016	28190.94
723.359	28096.03
723.701	28219.64
724.044	27941.68
724.386	27814.45
724.729	28040.21
725.071	27826.43
725.413	27844.96
725.755	27814.45
726.097	27730.84
726.439	27481.81
726.782	27611.75
727.124	27697.39
727.465	27509.6
727.807	27512.99
728.149	27411.3
728.491	27521.13
728.833	27444.74
729.175	27337.4
729.516	27260.57
729.858	27331.3
730.199	27299.21
730.541	27164.75
730.882	27128.37
731.224	27222.83
731.565	27037.52
731.906	27090.63
732.248	27099.22
732.589	26876.4
732.93	26855.38
733.271	26849.51
733.612	26840.01
733.953	26923.63
734.294	26724.76
734.635	26753.46
734.976	26743.75
735.317	26495.16
735.658	26606.12
735.999	26623.52
736.339	26508.5
736.68	26649.29
737.021	26369.97
737.361	26411.33
737.702	26447.71
738.042	26491.32
738.383	26379.24
738.723	26362.97
739.063	26274.61
739.404	26284.55
739.744	26073.93
740.084	25988.51
740.424	26128.62
740.764	26030.09
741.104	26211.78
741.444	25965.24
741.784	25826.48
742.124	25830.78
742.464	25892.47
742.804	25698.12
743.143	25716.65
743.483	25799.82
743.823	25593.95
744.162	25734.96
744.502	25666.94
744.841	25507.85
745.181	25656.99
745.52	25404.57
745.86	25541.29
746.199	25444.8
746.538	25448.41
746.877	25518.02
747.216	25478.24
747.556	25299.94
747.895	25228.53
748.234	25298.13
748.573	25311.24
748.911	25332.26
749.25	25257.68
749.589	25157.12
749.928	25120.06
750.267	25206.84
750.605	25020.4
750.944	25069.44
751.283	24886.17
751.621	24929.56
751.96	24797.81
752.298	24837.81
752.636	24828.32
752.975	24732.5
753.313	24547.87
753.651	24689.11
753.989	24584.93
754.327	24544.03
754.666	24397.37
755.004	24417.48
755.342	24382.23
755.679	24366.86
756.017	24281.66
756.355	24174.32
756.693	24181.55
757.031	24136.13
757.368	24161.67
757.706	23987.66
758.044	23950.15
758.381	23946.31
758.719	23905.4
759.056	23975.68
759.394	23749.7
759.731	23712.19
760.068	23529.14
760.405	23478.75
760.743	23405.53
761.08	23627.67
761.417	23436.71
761.754	23303.38
762.091	23250.05
762.428	23177.29
762.765	23067.68
763.102	23101.36
763.438	23040.79
763.775	22971.42
764.112	22921.25
764.449	22858.42
764.785	22788.37
765.122	22702.95
765.458	22546.34
765.795	22632.22
766.131	22614.36
766.467	22437.42
766.804	22346.8
767.14	22250.76
767.476	22263.64
767.812	22072.23
768.148	22175.73
768.485	22010.99
768.821	22031.78
769.157	21903.42
769.492	21805.12
769.828	21869.07
770.164	21638.34
770.5	21582.53
770.836	21602.86
771.171	21379.14
771.507	21359.03
771.842	21164.68
772.178	21387.28
772.513	21146.38
772.849	21079.71
773.184	20954.07
773.519	20940.28
773.855	20931.24
774.19	20801.3
774.525	20678.82
774.86	20741.64
775.195	20536.45
775.53	20504.14
775.865	20460.3
776.2	20341.2
776.535	20232.28
776.87	20166.74
777.205	20043.13
777.539	20014.43
777.874	19979.63
778.209	19897.6
778.543	19836.81
778.878	19803.82
779.212	19736.47
779.547	19538.29
779.881	19639.75
780.215	19531.05
780.55	19470.26
780.884	19360.21
781.218	19263.26
781.552	19328.57
781.886	19199.09
782.22	19071.63
782.554	19044.29
782.888	18870.05
783.222	18823.95
783.556	18770.4
783.889	18698.76
784.223	18582.15
784.557	18575.37
784.89	18603.17
785.224	18437.3
785.557	18374.93
785.891	18228.04
786.224	18301.26
786.558	18209.28
786.891	18044.77
787.224	18050.42
787.557	17915.96
787.891	17955.28
788.224	17956.18
788.557	17909.63
788.89	17868.5
789.223	17837.77
789.556	17616.53
789.888	17605.23
790.221	17502.63
790.554	17287.5
790.887	17402.3
791.219	17277.1
791.552	17307.84
791.884	17210.89
792.217	17188.74
792.549	17157.56
792.882	17061.74
793.214	16891.58
793.546	17009.54
793.879	16851.58
794.211	16743.56
794.543	16768.64
794.875	16697.68
795.207	16851.35
795.539	16623.79
795.871	16621.3
796.203	16389.44
796.535	16319.39
796.867	16358.03
797.198	16340.86
797.53	16367.52
797.862	16173.4
798.193	16276.45
798.525	16046.85
798.856	16148.09
799.188	15957.59
799.519	15884.37
799.85	15907.87
800.182	15818.61
800.513	15888.44
800.844	15632.63
801.175	15758.5
801.506	15661.55
801.837	15654.09
802.168	15535.91
802.499	15518.73
802.83	15497.94
803.161	15363.93
803.491	15367.1
803.822	15451.84
804.153	15257.04
804.483	15236.7
804.814	15184.28
805.145	15126.88
805.475	15050.49
805.805	15011.63
806.136	15103.15
806.466	15028.35
806.796	14976.37
807.126	14811.86
807.457	14910.84
807.787	14864.51
808.117	14762.82
808.447	14663.84
808.777	14699.09
809.107	14638.3
809.436	14618.87
809.766	14622.71
810.096	14495.48
810.426	14467.91
810.755	14541.58
811.085	14467.68
811.414	14342.72
811.744	14295.71
812.073	14269.72
812.403	14314.47
812.732	14155.38
813.061	14182.49
813.39	14003.29
813.719	14016.62
814.049	14172.1
814.378	14066.11
814.707	14035.61
815.036	14017.3
815.365	13882.62
815.693	13825.67
816.022	13786.57
816.351	13751.55
816.68	13676.07
817.008	13750.87
817.337	13604.43
817.665	13572.34
817.994	13642.17
818.322	13672.9
818.651	13539.35
818.979	13462.06
819.307	13549.74
819.636	13436.07
819.964	13378.67
820.292	13467.03
820.62	13425.23
820.948	13374.83
821.276	13425.45
821.604	13310.2
821.932	13403.76
822.259	13317.21
822.587	13338.22
822.915	13337.54
823.243	13350.2
823.57	13349.97
823.898	13450.31
824.225	13208.96
824.553	13292.8
824.88	13243.99
825.207	13338.9
825.535	13313.14
825.862	13299.81
826.189	13161.73
826.516	13348.84
826.843	13281.05
827.17	13277.89
827.497	13363.53
827.824	13326.47
828.151	13337.09
828.478	13346.81
828.805	13310.43
829.131	13274.04
829.458	13240.37
829.785	13141.17
830.111	13268.85
830.438	13294.83
830.764	13230.2
831.09	13290.99
831.417	13208.28
831.743	13289.64
832.069	13270.2
832.395	13214.61
832.722	13239.69
833.048	13206.93
833.374	13121.28
833.7	13131.67
834.026	13179.81
834.351	13087.38
834.677	13006.25
835.003	13158.11
835.329	13125.8
835.654	13071.56
835.98	13025.24
836.306	12989.08
836.631	12933.94
836.956	13048.29
837.282	13029.3
837.607	12964.22
837.932	12921.51
838.258	12967.61
838.583	12905.01
838.908	12890.55
839.233	12920.15
839.558	12848.74
839.883	12750.89
840.208	12791.34
840.533	12759.03
840.858	12801.74
841.182	12723.1
841.507	12775.07
841.832	12670.44
842.156	12597.9
842.481	12608.3
842.805	12561.07
843.13	12486.27
843.454	12492.37
843.778	12477.91
844.103	12473.16
844.427	12362.88
844.751	12373.73
845.075	12336.89
845.399	12360.85
845.723	12310
846.047	12334.63
846.371	12242.21
846.695	12213.05
847.019	12165.82
847.343	12140.51
847.666	12006.51
847.99	11891.26
848.313	11944.81
848.637	11839.73
848.96	11818.94
849.284	11875.21
849.607	11728.32
849.931	11670.92
850.254	11576.01
850.577	11578.49
850.9	11482.9
851.223	11409.23
851.546	11419.4
851.869	11352.51
852.192	11334.89
852.515	11247.2
852.838	11224.83
853.161	11268.67
853.483	11217.37
853.806	11175.79
854.129	11176.7
854.451	11037.72
854.774	11089.24
855.096	10974.67
855.419	10895.8
855.741	10960.88
856.063	10913.43
856.385	10840.21
856.708	10772.19
857.03	10779.42
857.352	10748.01
857.674	10663.72
857.996	10670.27
858.318	10589.82
858.64	10670.72
858.961	10631.63
859.283	10606.32
859.605	10454.68
859.926	10513.66
860.248	10466.66
860.57	10436.15
860.891	10501.46
861.212	10369.04
861.534	10383.5
861.855	10355.93
862.176	10409.03
862.498	10398.64
862.819	10394.12
863.14	10306.21
863.461	10272.54
863.782	10293.56
864.103	10291.75
864.424	10203.39
864.745	10172.66
865.065	10177.4
865.386	10149.15
865.707	10115.03
866.027	10034.13
866.348	10158.87
866.668	10047.91
866.989	10047.46
867.309	9999.1
867.63	9941.7
867.95	10040.68
868.27	9941.25
868.59	10040.46
868.91	10006.33
869.23	9876.84
869.55	9876.39
869.87	9882.27
870.19	9817.19
870.51	9867.58
870.83	9855.15
871.15	9823.74
871.469	9765.44
871.789	9832.1
872.109	9821.93
872.428	9724.31
872.748	9682.05
873.067	9731.09
873.386	9729.05
873.706	9730.41
874.025	9668.94
874.344	9656.29
874.663	9687.25
874.982	9616.74
875.301	9601.82
875.62	9599.79
875.939	9576.97
876.258	9568.15
876.577	9482.5
876.896	9540.58
877.214	9517.76
877.533	9480.92
877.852	9521.37
878.17	9501.26
878.489	9438.21
878.807	9384.43
879.125	9344.2
879.444	9354.15
879.762	9338.78
880.08	9372.23
880.398	9351.21
880.716	9419.68
881.034	9383.3
881.352	9349.63
881.67	9257.2
881.988	9348.05
882.306	9237.77
882.624	9301.94
882.941	9180.59
883.259	9146.92
883.577	9163.19
883.894	9123.42
884.212	9113.48
884.529	9085.45
884.846	9078.67
885.164	9176.3
885.481	9099.01
885.798	9125
886.115	8973.37
886.432	8994.38
886.75	8923.42
887.067	8960.94
887.383	8899.24
887.7	8969.98
888.017	8840.49
888.334	8942.18
888.651	8815.63
888.967	8882.29
889.284	8793.03
889.6	8734.05
889.917	8699.93
890.233	8677.55
890.55	8659.93
890.866	8680.94
891.182	8648.18
891.498	8593.04
891.815	8575.86
892.131	8531.12
892.447	8551.91
892.763	8578.8
893.079	8480.95
893.395	8434.62
893.71	8457.9
894.026	8445.92
894.342	8359.6
894.657	8277.11
894.973	8322.54
895.289	8325.93
895.604	8277.34
895.92	8230.33
896.235	8193.5
896.55	8193.27
896.865	8189.21
897.181	8125.48
897.496	8162.77
897.811	8092.71
898.126	8053.39
898.441	7999.15
898.756	8035.54
899.071	7935.43
899.386	7990.11
899.7	7901.76
900.015	7873.96
900.33	7804.58
900.644	7832.6
900.959	7763.45
901.273	7737.47
901.588	7764.58
901.902	7720.29
902.216	7738.14
902.531	7651.82
902.845	7667.41
903.159	7568.88
903.473	7517.36
903.787	7503.35
904.101	7440.3
904.415	7511.26
904.729	7438.49
905.042	7450.24
905.356	7432.39
905.67	7410.92
905.984	7383.58
906.297	7331.6
906.611	7330.7
906.924	7287.76
907.237	7280.75
907.551	7258.38
907.864	7217.03
908.177	7219.29
908.491	7123.02
908.804	7081.89
909.117	7076.01
909.43	7020.87
909.743	7035.11
910.056	7041.67
910.368	6995.56
910.681	6923.48
910.994	6893.87
911.307	6844.16
911.619	6855.91
911.932	6825.4
912.244	6820.65
912.557	6740.43
912.869	6737.49
913.181	6692.97
913.494	6724.39
913.806	6649.59
914.118	6661.56
914.43	6607.1
914.742	6619.08
915.054	6577.72
915.366	6537.72
915.678	6539.76
915.99	6478.74
916.302	6449.82
916.613	6413.89
916.925	6458.86
917.236	6408.24
917.548	6353.55
917.859	6358.52
918.171	6293.44
918.482	6177.06
918.794	6252.99
919.105	6259.54
919.416	6224.96
919.727	6164.4
920.038	6147.68
920.349	6109.26
920.66	6073.1
920.971	6026.1
921.282	6056.38
921.593	6070.84
921.903	5934.8
922.214	5946.1
922.525	5948.36
922.835	5894.35
923.146	5811.87
923.456	5860.68
923.767	5825.65
924.077	5829.27
924.387	5761.25
924.697	5747.91
925.008	5808.03
925.318	5760.79
925.628	5704.3
925.938	5742.94
926.248	5642.61
926.558	5618.65
926.867	5587.69
927.177	5589.27
927.487	5584.3
927.796	5523.74
928.106	5502.04
928.416	5488.94
928.725	5524.64
929.034	5432.89
929.344	5437.41
929.653	5392.44
929.962	5354.25
930.271	5337.98
930.581	5298.21
930.89	5302.95
931.199	5236.29
931.508	5301.82
931.817	5230.87
932.125	5200.58
932.434	5152.9
932.743	5166.69
933.051	5138.44
933.36	5104.09
933.669	5063.41
933.977	5032.45
934.286	5029.29
934.594	5069.29
934.902	5000.36
935.21	5001.27
935.519	4993.58
935.827	4981.83
936.135	4925.79
936.443	4857.32
936.751	4846.24
937.059	4890.54
937.367	4828.84
937.674	4855.51
937.982	4864.32
938.29	4788.39
938.597	4809.41
938.905	4772.57
939.213	4700.94
939.52	4715.62
939.827	4676.98
940.135	4636.53
940.442	4638.56
940.749	4615.51
941.056	4632.24
941.363	4562.86
941.67	4575.06
941.977	4586.36
942.284	4510.66
942.591	4559.7
942.898	4485.57
943.205	4466.37
943.511	4433.15
943.818	4405.58
944.125	4405.58
944.431	4428.4
944.738	4410.1
945.044	4371.9
945.35	4311.57
945.657	4341.85
945.963	4262.53
946.269	4269.31
946.575	4287.39
946.881	4226.37
947.187	4282.42
947.493	4208.97
947.799	4212.81
948.105	4168.52
948.41	4128.75
948.716	4132.82
949.022	4145.92
949.327	4133.94
949.633	4048.98
949.938	4076.09
950.244	4113.15
950.549	3987.06
950.854	4006.72
951.16	3985.93
951.465	3962.65
951.77	3974.63
952.075	3903.67
952.38	3913.39
952.685	3950.45
952.99	3881.07
953.294	3881.52
953.599	3874.97
953.904	3838.81
954.209	3782.99
954.513	3795.87
954.818	3773.28
955.122	3801.07
955.426	3724.01
955.731	3766.95
956.035	3738.7
956.339	3682.66
956.643	3751.36
956.948	3658.93
957.252	3655.31
957.556	3668.19
957.86	3639.72
958.163	3630
958.467	3617.35
958.771	3605.6
959.075	3610.57
959.378	3564.69
959.682	3526.05
959.985	3569.67
960.289	3547.75
960.592	3499.16
960.896	3531.93
961.199	3466.84
961.502	3451.93
961.805	3448.31
962.108	3469.1
962.411	3431.59
962.714	3344.81
963.017	3380.74
963.32	3372.61
963.623	3343.68
963.926	3347.75
964.228	3315.89
964.531	3309.33
964.833	3311.37
965.136	3293.06
965.438	3264.59
965.741	3252.61
966.043	3243.8
966.345	3231.82
966.648	3187.76
966.95	3162.45
967.252	3169.68
967.554	3122.22
967.856	3152.28
968.158	3124.93
968.46	3097.59
968.761	3123.8
969.063	3108.89
969.365	3097.59
969.666	3066.63
969.968	3052.62
970.269	3049.91
970.571	3023.92
970.872	3037.25
971.174	3009.45
971.475	2996.12
971.776	2982.11
972.077	2970.13
972.378	2960.19
972.679	2947.08
972.98	2936.01
973.281	2916.58
973.582	2909.57
973.883	2887.65
974.183	2861.66
974.484	2874.09
974.785	2850.36
975.085	2865.96
975.386	2853.98
975.686	2826.63
975.986	2781.21
976.287	2793.19
976.587	2775.56
976.887	2781.44
977.187	2726.3
977.487	2754.55
977.787	2733.08
978.087	2710.93
978.387	2671.84
978.687	2727.43
978.987	2691.5
979.286	2660.76
979.586	2660.31
979.885	2630.93
980.185	2629.35
980.484	2622.12
980.784	2630.03
981.083	2612.4
981.382	2584.38
981.682	2618.28
981.981	2574.44
982.28	2557.26
982.579	2521.56
982.878	2573.99
983.177	2524.04
983.475	2516.13
983.774	2491.5
984.073	2513.42
984.372	2495.12
984.67	2464.84
984.969	2477.49
985.267	2450.6
985.566	2444.95
985.864	2460.09
986.162	2413.54
986.461	2412.86
986.759	2422.13
987.057	2405.4
987.355	2387.55
987.653	2362.92
987.951	2358.4
988.249	2318.85
988.547	2377.61
988.844	2351.84
989.142	2367.21
989.44	2307.55
989.737	2309.59
990.035	2273.65
990.332	2286.54
990.63	2245.86
990.927	2255.8
991.224	2261.9
991.521	2246.31
991.819	2217.84
992.116	2216.71
992.413	2216.93
992.71	2207.67
993.006	2170.61
993.303	2205.86
993.6	2167.89
993.897	2172.87
994.193	2152.08
994.49	2181
994.787	2111.85
995.083	2117.5
995.379	2100.33
995.676	2093.32
995.972	2089.25
996.268	2082.7
996.565	2052.64
996.861	2049.71
997.157	2034.11
997.453	2034.34
997.749	2032.53
998.044	1982.14
998.34	1994.79
998.636	1983.95
998.932	1960.89
999.227	1973.78
999.523	1960.44
999.818	1935.36
1000.114	1931.97
1000.409	1919.77
1000.704	1922.48
1001	1938.3
1001.295	1877.28
1001.59	1883.83
1001.885	1881.57
1002.18	1869.6
1002.475	1869.37
1002.77	1854.68
1003.065	1846.55
1003.359	1834.57
1003.654	1802.93
1003.949	1816.04
1004.243	1836.15
1004.538	1805.42
1004.832	1785.31
1005.127	1797.06
1005.421	1755.25
1005.715	1782.14
1006.009	1744.86
1006.304	1748.24
1006.598	1737.4
1006.892	1710.96
1007.186	1725.19
1007.48	1685.65
1007.773	1694.24
1008.067	1693.11
1008.361	1649.72
1008.655	1667.57
1008.948	1666.21
1009.242	1658.3
1009.535	1635.93
1009.829	1628.7
1010.122	1612.66
1010.415	1614.92
1010.708	1601.81
1011.001	1581.92
1011.295	1592.99
1011.588	1582.37
1011.881	1568.59
1012.173	1552.32
1012.466	1588.25
1012.759	1549.38
1013.052	1531.53
1013.344	1533.34
1013.637	1502.6
1013.93	1514.58
1014.222	1478.65
1014.514	1501.25
1014.807	1481.59
1015.099	1487.23
1015.391	1484.75
1015.683	1492.21
1015.976	1489.49
1016.268	1445.65
1016.56	1405.88
1016.851	1411.08
1017.143	1426.45
1017.435	1424.41
1017.727	1418.31
1018.018	1391.87
1018.31	1392.55
1018.602	1385.99
1018.893	1379.22
1019.185	1360.46
1019.476	1350.29
1019.767	1373.11
1020.058	1325.66
1020.35	1333.34
1020.641	1330.85
1020.932	1332.21
1021.223	1293.79
1021.514	1294.25
1021.804	1298.09
1022.095	1284.53
1022.386	1263.06
1022.677	1268.26
1022.967	1240.91
1023.258	1225.32
1023.548	1219.9
1023.839	1236.85
1024.129	1213.8
1024.419	1211.76
1024.709	1198.65
1025	1211.76
1025.29	1178.54
1025.58	1194.81
1025.87	1181.25
1026.16	1150.29
1026.449	1162.27
1026.739	1134.48
1027.029	1153.01
1027.319	1120.92
1027.608	1118.21
1027.898	1130.63
1028.187	1087.92
1028.477	1099.67
1028.766	1108.94
1029.055	1117.08
1029.344	1096.51
1029.634	1069.84
1029.923	1068.71
1030.212	1074.59
1030.501	1075.72
1030.79	1055.61
1031.078	1054.03
1031.367	1024.2
1031.656	1021.03
1031.945	1026
1032.233	1049.96
1032.522	1006.57
1032.81	993.24
1033.099	992.56
1033.387	997.76
1033.675	975.84
1033.963	970.19
1034.251	973.58
1034.54	970.19
1034.828	954.82
1035.116	982.39
1035.403	945.1
1035.691	953.01
1035.979	941.49
1036.267	942.62
1036.554	936.51
1036.842	906.91
1037.129	937.19
1037.417	909.85
1037.704	913.69
1037.992	915.27
1038.279	888.38
1038.566	879.79
1038.853	879.79
1039.14	879.79
