Data from hue_70_FLMS001491_69.txt Node
Date: Mon Feb 06 15:21:17 GMT 2017
User: dcchb
Spectrometer: FLMS00149
Trigger mode: 0
Integration Time (sec): 2.000000E-2
Scans to average: 10
Electric dark correction enabled: true
Nonlinearity correction enabled: false
Boxcar width: 0
XAxis mode: Wavelengths
Number of Pixels in Spectrum: 2048
>>>>>Begin Spectral Data<<<<<
341.393	-2.32
341.776	-2.32
342.16	-2.32
342.543	-66.95
342.927	-86.83
343.31	-74.4
343.693	-75.99
344.077	-61.3
344.46	-77.34
344.843	-39.38
345.226	-47.74
345.61	-33.5
345.993	-1.64
346.376	-20.39
346.759	11.47
347.142	19.38
347.525	37.46
347.908	58.7
348.291	89.43
348.674	99.38
349.057	115.87
349.44	140.96
349.823	149.09
350.206	165.81
350.588	203.33
350.971	210.11
351.354	223.67
351.737	244.68
352.119	271.57
352.502	261.86
352.884	271.8
353.267	291.46
353.65	295.98
354.032	300.5
354.414	306.6
354.797	313.83
355.179	309.77
355.562	317.45
355.944	309.54
356.326	331.91
356.709	352.02
357.091	341.63
357.473	353.15
357.855	347.05
358.238	327.17
358.62	357.67
359.002	328.52
359.384	331.23
359.766	348.41
360.148	335.53
360.53	331.23
360.912	344.12
361.294	341.63
361.676	329.43
362.057	319.26
362.439	314.74
362.821	327.84
363.203	325.13
363.584	331.91
363.966	326.26
364.348	321.07
364.729	322.19
365.111	317.9
365.493	310.44
365.874	325.36
366.256	310.44
366.637	295.08
367.019	329.88
367.4	312.25
367.781	307.73
368.163	293.5
368.544	310.67
368.925	303.21
369.306	331.46
369.688	307.96
370.069	309.99
370.45	314.06
370.831	321.52
371.212	317
371.593	327.62
371.974	312.25
372.355	317.9
372.736	309.09
373.117	320.16
373.498	320.16
373.879	348.63
374.26	325.81
374.641	316.55
375.021	319.94
375.402	323.1
375.783	335.75
376.163	316.77
376.544	323.78
376.925	335.08
377.305	335.3
377.686	314.96
378.066	327.17
378.447	330.33
378.827	328.3
379.208	306.83
379.588	332.82
379.968	325.36
380.349	324.68
380.729	311.8
381.109	330.33
381.489	329.65
381.87	338.47
382.25	332.82
382.63	331.91
383.01	350.67
383.39	337.34
383.77	328.52
384.15	340.05
384.53	350.67
384.91	344.12
385.29	368.97
385.67	350.22
386.049	349.09
386.429	341.4
386.809	344.34
387.189	364.45
387.568	356.09
387.948	345.47
388.328	339.14
388.707	376.2
389.087	360.84
389.466	351.12
389.846	375.53
390.225	364.23
390.605	350.44
390.984	362.42
391.363	335.75
391.743	379.59
392.122	346.83
392.501	356.77
392.881	375.75
393.26	375.75
393.639	371.01
394.018	341.63
394.397	385.47
394.776	371.91
395.155	380.05
395.534	375.07
395.913	376.66
396.292	393.83
396.671	363.32
397.05	356.77
397.429	383.66
397.808	368.52
398.186	387.96
398.565	374.85
398.944	384.79
399.323	386.37
399.701	380.05
400.08	369.43
400.458	385.24
400.837	393.38
401.215	387.5
401.594	394.51
401.972	397.45
402.351	387.05
402.729	403.77
403.107	389.99
403.486	403.1
403.864	407.16
404.242	412.81
404.62	405.58
404.999	390.44
405.377	404.9
405.755	411.91
406.133	396.09
406.511	396.32
406.889	421.4
407.267	410.33
407.645	420.05
408.023	421.4
408.401	422.53
408.779	441.29
409.156	422.31
409.534	427.05
409.912	434.51
410.29	445.58
410.667	436.54
411.045	438.12
411.422	429.08
411.8	450.78
412.178	461.17
412.555	455.3
412.933	451.23
413.31	470.44
413.687	451.68
414.065	472.7
414.442	452.59
414.819	461.85
415.197	480.38
415.574	462.08
415.951	492.81
416.328	453.72
416.705	478.57
417.082	482.19
417.46	500.27
417.837	477.22
418.214	494.85
418.591	485.58
418.967	480.38
419.344	525.13
419.721	475.64
420.098	494.62
420.475	498.46
420.852	502.53
421.228	515.64
421.605	545.69
421.982	520.61
422.358	530.78
422.735	523.09
423.111	520.38
423.488	533.71
423.864	516.09
424.241	542.98
424.617	547.27
424.994	547.95
425.37	555.18
425.746	541.85
426.123	562.64
426.499	547.27
426.875	544.79
427.251	564.9
427.627	564
428.003	562.19
428.379	583.66
428.756	598.8
429.132	578.23
429.507	608.52
429.883	580.49
430.259	590.21
430.635	588.63
431.011	589.76
431.387	598.12
431.763	604.45
432.138	622.98
432.514	615.07
432.89	640.38
433.265	632.92
433.641	651.68
434.016	637.21
434.392	636.08
434.767	663.65
435.143	639.7
435.518	659.36
435.894	675.18
436.269	658.68
436.644	673.6
437.02	679.7
437.395	683.09
437.77	714.05
438.145	713.37
438.52	692.13
438.895	712.24
439.271	702.98
439.646	726.48
440.021	702.3
440.395	732.35
440.77	711.11
441.145	728.29
441.52	724.44
441.895	729.42
442.27	728.96
442.645	743.43
443.019	735.07
443.394	736.42
443.769	737.78
444.143	745.46
444.518	749.75
444.892	791.56
445.267	765.57
445.641	802.18
446.016	779.81
446.39	773.93
446.764	775.06
447.139	783.2
447.513	795.4
447.887	800.83
448.262	813.03
448.636	818
449.01	814.84
449.384	809.64
449.758	835.4
450.132	829.07
450.506	817.78
450.88	808.51
451.254	832.69
451.628	849.86
452.002	849.86
452.376	829.3
452.75	852.12
453.123	878.56
453.497	893.71
453.871	879.47
454.244	894.38
454.618	881.5
454.992	923.76
455.365	931.67
455.739	918.56
456.112	945.46
456.486	954.49
456.859	960.82
457.232	957.21
457.606	995.4
457.979	977.32
458.352	1012.57
458.725	1021.39
459.099	1022.52
459.472	1026.81
459.845	1039.46
460.218	1062.29
460.591	1058.67
460.964	1079.69
461.337	1103.42
461.71	1105.23
462.083	1139.57
462.456	1145.22
462.829	1170.08
463.201	1166.92
463.574	1149.97
463.947	1166.47
464.32	1207.14
464.692	1195.17
465.065	1209.18
465.438	1220.7
465.81	1249.4
466.183	1278.33
466.555	1290.08
466.928	1287.37
467.3	1321.94
467.672	1332.56
468.045	1377.08
468.417	1386.12
468.789	1369.63
469.161	1390.19
469.534	1444.88
469.906	1443.52
470.278	1500.7
470.65	1485.33
471.022	1555.83
471.394	1587.47
471.766	1609.17
472.138	1635.15
472.51	1641.03
472.882	1691.2
473.253	1689.62
473.625	1749.05
473.997	1806.9
474.369	1827.69
474.74	1839.67
475.112	1928.93
475.484	1930.51
475.855	1994.02
476.227	2030.85
476.598	2085.76
476.97	2146.33
477.341	2195.59
477.713	2272.88
478.084	2302.93
478.455	2340.9
478.827	2380.67
479.198	2485.53
479.569	2536.37
479.94	2633.55
480.311	2729.14
480.682	2798.74
481.053	2860.66
481.424	2955.57
481.795	3011.39
482.166	3104.04
482.537	3169.8
482.908	3280.54
483.279	3340.42
483.65	3474.43
484.021	3559.4
484.391	3641.66
484.762	3735.66
485.133	3792.84
485.503	3931.37
485.874	4033.74
486.244	4117.58
486.615	4279.38
486.985	4377.91
487.356	4517.34
487.726	4580.84
488.097	4771.57
488.467	4824.22
488.837	5015.63
489.207	5128.17
489.578	5226.02
489.948	5336.07
490.318	5505.11
490.688	5600.7
491.058	5785.78
491.428	5867.36
491.798	6032.78
492.168	6209.5
492.538	6328.14
492.908	6443.62
493.278	6621.92
493.648	6705.76
494.017	6881.34
494.387	7007.89
494.757	7123.82
495.126	7328.79
495.496	7379.86
495.866	7540.54
496.235	7684.71
496.605	7888.55
496.974	7999.28
497.344	8066.17
497.713	8152.05
498.082	8347.75
498.452	8509.1
498.821	8625.25
499.19	8735.98
499.559	8901.63
499.928	9015.3
500.298	9132.13
500.667	9257.78
501.036	9326.7
501.405	9523.08
501.774	9596.75
502.143	9760.82
502.512	9816.63
502.88	10022.73
503.249	10081.94
503.618	10074.71
503.987	10311.99
504.356	10441.48
504.724	10571.64
505.093	10582.26
505.462	10721.92
505.83	10838.98
506.199	10978.64
506.567	11155.36
506.936	11177.95
507.304	11350.15
507.672	11436.7
508.041	11532.75
508.409	11655.91
508.777	11770.48
509.145	11893.42
509.514	12013.64
509.882	12135.67
510.25	12255.67
510.618	12354.65
510.986	12318.04
511.354	12576.56
511.722	12718.25
512.09	12904.91
512.458	12779.95
512.826	12953.95
513.193	13027.85
513.561	13057.91
513.929	13244.12
514.297	13397.56
514.664	13537.21
515.032	13487.95
515.4	13661.51
515.767	13801.39
516.135	13881.61
516.502	13763.42
516.869	14039.57
517.237	14042.06
517.604	14129.97
517.972	14305.1
518.339	14349.17
518.706	14431.43
519.073	14483.86
519.44	14588.94
519.808	14724.75
520.175	14731.99
520.542	14960.91
520.909	15039.32
521.276	15067.57
521.643	15251.52
522.009	15328.81
522.376	15344.62
522.743	15465.98
523.11	15623.26
523.477	15666.42
523.843	15787.78
524.21	15915.46
524.577	16086.53
524.943	16130.14
525.31	16082.68
525.676	16369.68
526.043	16456.23
526.409	16397.03
526.776	16676.12
527.142	16617.59
527.508	16792.04
527.874	16810.35
528.241	16944.13
528.607	16921.98
528.973	17070.23
529.339	17101.64
529.705	17226.61
530.071	17351.58
530.437	17348.19
530.803	17365.14
531.169	17535.08
531.535	17486.04
531.901	17584.57
532.267	17526.04
532.632	17807.61
532.998	17775.07
533.364	17806.48
533.73	17833.82
534.095	17930.09
534.461	17991.56
534.826	18038.34
535.192	18114.72
535.557	18234.49
535.923	18110.65
536.288	18152.91
536.653	18227.94
537.019	18268.39
537.384	18328.28
537.749	18371.89
538.114	18467.93
538.479	18353.13
538.845	18415.5
539.21	18441.49
539.575	18473.13
539.94	18530.76
540.305	18544.54
540.67	18505.9
541.034	18562.85
541.399	18731.88
541.764	18673.35
542.129	18743.41
542.494	18662.73
542.858	18810.52
543.223	18666.35
543.587	18790.18
543.952	18790.86
544.316	18839
544.681	18785.66
545.045	18882.61
545.41	18995.15
545.774	18971.42
546.138	18956.96
546.503	18919.67
546.867	18946.56
547.231	19064.53
547.595	19071.76
547.959	19048.93
548.324	18995.6
548.688	19110.63
549.052	19079.67
549.416	19158.54
549.779	19039.67
550.143	19245.31
550.507	19167.8
550.871	19174.35
551.235	19259.32
551.599	19292.54
551.962	19200.12
552.326	19374.35
552.689	19411.41
553.053	19307.46
553.417	19382.26
553.78	19570.5
554.143	19500.22
554.507	19572.76
554.87	19593.1
555.234	19735.47
555.597	19551.29
555.96	19658.86
556.323	19740.67
556.686	19627.45
557.05	19808.24
557.413	19775.02
557.776	19870.61
558.139	19990.6
558.502	19925.97
558.865	19982.24
559.228	20069.92
559.59	20150.37
559.953	20115.57
560.316	20293.42
560.679	20309.47
561.041	20424.94
561.404	20462.91
561.767	20519.18
562.129	20479.63
562.492	20659.06
562.854	20675.11
563.217	20651.38
563.579	20739.96
563.941	20846.63
564.304	20905.38
564.666	21001.2
565.028	20914.42
565.39	21060.18
565.753	21084.59
566.115	21176.11
566.477	21154.19
566.839	21206.62
567.201	21328.42
567.563	21349.66
567.925	21537
568.287	21571.13
568.648	21438.48
569.01	21674.63
569.372	21704.68
569.734	21702.42
570.095	21804.12
570.457	21875.98
570.819	21795.53
571.18	21955.98
571.542	21946.49
571.903	22013.15
572.265	22085.24
572.626	22100.15
572.987	22125.92
573.349	22207.04
573.71	22173.6
574.071	22242.52
574.432	22383.99
574.794	22600.93
575.155	22360.49
575.516	22424.44
575.877	22544.44
576.238	22562.51
576.599	22670.76
576.96	22558.22
577.32	22625.11
577.681	22593.7
578.042	22703.75
578.403	22764.99
578.763	22681.83
579.124	22757.31
579.485	22904.2
579.845	22892.22
580.206	22832.79
580.566	22750.53
580.927	22736.29
581.287	22939.23
581.648	22791.43
582.008	22961.15
582.368	22996.63
582.728	22972.22
583.089	22879.34
583.449	22899
583.809	22998.21
584.169	22888.83
584.529	22877.53
584.889	23160.69
585.249	23033.69
585.609	22881.83
585.969	23062.39
586.329	22900.81
586.688	22935.84
587.048	22979.9
587.408	22942.62
587.768	22995.72
588.127	22946.68
588.487	22909.62
588.846	23041.15
589.206	22864.65
589.565	22932
589.925	22972.67
590.284	22898.32
590.643	23013.12
591.003	23061.48
591.362	23015.84
591.721	22932.45
592.08	22906.46
592.44	23011.99
592.799	22974.03
593.158	23021.03
593.517	22997.98
593.876	23030.98
594.235	22953.92
594.593	22921.15
594.952	22998.89
595.311	22979
595.67	23112.78
596.029	23069.39
596.387	23081.82
596.746	23136.28
597.104	23020.13
597.463	22990.3
597.822	23153.01
598.18	23048.15
598.538	23081.6
598.897	23148.49
599.255	22891.09
599.613	23317.97
599.972	23218.77
600.33	23163.4
600.688	23172.67
601.046	23106.91
601.404	23240.46
601.762	23150.97
602.12	23384.87
602.478	23394.58
602.836	23306.45
603.194	23284.08
603.552	23276.62
603.91	23200.24
604.268	23350.97
604.625	23185.32
604.983	23387.8
605.341	23305.32
605.698	23381.02
606.056	23391.42
606.413	23497.63
606.771	23444.75
607.128	23483.39
607.485	23395.49
607.843	23325.21
608.2	23553.9
608.557	23660.56
608.914	23425.09
609.272	23562.04
609.629	23638.19
609.986	23672.09
610.343	23610.62
610.7	23863.27
611.057	23705.99
611.414	23751.64
611.771	23769.26
612.127	23879.54
612.484	23971.29
612.841	23909.37
613.198	23942.36
613.554	23947.34
613.911	24037.73
614.267	23944.4
614.624	24049.93
614.98	24143.72
615.337	24256.93
615.693	24157.73
616.05	24122.7
616.406	24246.76
616.762	24095.58
617.118	24154.79
617.475	24146.43
617.831	24267.55
618.187	24308.68
618.543	24387.1
618.899	24475.23
619.255	24399.3
619.611	24330.15
619.967	24520.43
620.323	24493.76
620.678	24430.49
621.034	24356.37
621.39	24328.8
621.746	24434.56
622.101	24712.74
622.457	24447.21
622.812	24540.99
623.168	24555.91
623.523	24613.31
623.879	24645.85
624.234	24496.25
624.589	24503.93
624.945	24554.33
625.3	24720.2
625.655	24666.19
626.01	24615.57
626.365	24575.34
626.72	24641.78
627.075	24584.38
627.43	24498.28
627.785	24505.97
628.14	24578.73
628.495	24687.2
628.85	24642.91
629.205	24503.25
629.559	24667.77
629.914	24692.4
630.269	24612.63
630.623	24474.55
630.978	24488.34
631.332	24599.75
631.687	24470.71
632.041	24483.82
632.396	24572.4
632.75	24405.4
633.104	24455.12
633.459	24319.76
633.813	24404.95
634.167	24431.17
634.521	24390.26
634.875	24378.06
635.229	24395.46
635.583	24188.46
635.937	24229.59
636.291	24345.52
636.645	24237.95
636.999	24221.23
637.352	24258.29
637.706	24089.93
638.06	24263.71
638.413	24160.89
638.767	24032.53
639.121	24132.87
639.474	24041.12
639.828	23996.15
640.181	24062.81
640.534	24108.01
640.888	24040.22
641.241	23954.57
641.594	23939.65
641.947	23999.76
642.301	24008.8
642.654	23966.09
643.007	23893.55
643.36	23931.74
643.713	23764.97
644.066	23895.59
644.419	23797.06
644.771	23689.49
645.124	23503.96
645.477	23395.71
645.83	23302.38
646.182	23135.38
646.535	23042.5
646.888	23192.78
647.24	23091.77
647.593	23160.69
647.945	23054.7
648.298	23101.71
648.65	22992.11
649.002	22864.2
649.355	22960.02
649.707	22967.25
650.059	23069.17
650.411	23429.16
650.763	23432.55
651.115	23648.81
651.467	23551.87
651.819	23637.51
652.171	23496.27
652.523	23516.61
652.875	23520.46
653.227	23388.26
653.578	23560.23
653.93	23491.08
654.282	23346
654.633	23402.49
654.985	23459.44
655.337	23388.93
655.688	23376.73
656.039	23509.38
656.391	23404.53
656.742	23347.8
657.094	23337.41
657.445	23404.53
657.796	23433.68
658.147	23381.93
658.498	23303.06
658.849	23422.83
659.2	23334.25
659.551	23254.7
659.902	23427.8
660.253	23442.04
660.604	23348.48
660.955	23391.42
661.306	23411.53
661.656	23327.24
662.007	23341.93
662.358	23400.46
662.708	23426.67
663.059	23349.39
663.409	23266.68
663.76	23443.17
664.11	23366.33
664.461	23489.95
664.811	23312.55
665.161	23355.26
665.511	23333.12
665.862	23343.74
666.212	23482.94
666.562	23384.19
666.912	23279.56
667.262	23240.46
667.612	23423.51
667.962	23456.73
668.312	23250.18
668.662	23377.18
669.011	23378.99
669.361	23273.91
669.711	23241.14
670.06	23289.5
670.41	23190.75
670.76	23242.5
671.109	23338.99
671.459	23190.07
671.808	23166.57
672.157	23322.72
672.507	23138.77
672.856	23068.49
673.205	23075.95
673.554	23271.65
673.904	23051.77
674.253	23216.96
674.602	23085.44
674.951	22740.81
675.3	22625.79
675.649	23019
675.998	22958.66
676.346	23101.03
676.695	23230.07
677.044	22887.7
677.393	22881.15
677.741	22983.75
678.09	22994.14
678.438	22901.94
678.787	22897.65
679.135	22899.91
679.484	22717.09
679.832	22835.05
680.181	22692.45
680.529	22696.75
680.877	22658.78
681.225	22611.78
681.573	22765.45
681.922	22588.28
682.27	22542.18
682.618	22613.59
682.966	22506.92
683.314	22589.18
683.661	22524.1
684.009	22284.78
684.357	22253.82
684.705	22377.21
685.053	22319.13
685.4	22284.56
685.748	22142.41
686.095	22194.16
686.443	22100.38
686.79	22025.81
687.138	22021.51
687.485	22025.35
687.832	21935.64
688.18	21956.43
688.527	21961.4
688.874	21858.13
689.221	21688.86
689.568	21784.68
689.915	21687.51
690.262	21653.61
690.609	21491.36
690.956	21593.05
691.303	21455.65
691.65	21358.7
691.997	21432.15
692.344	21193.96
692.69	21156.9
693.037	21213.4
693.383	21050.46
693.73	21166.62
694.077	20886.85
694.423	20960.3
694.769	20822.9
695.116	20768.66
695.462	20680.76
695.808	20685.5
696.155	20716.91
696.501	20512.62
696.847	20545.84
697.193	20381.33
697.539	20525.73
697.885	20195.57
698.231	20209.58
698.577	20170.71
698.923	20193.76
699.269	20050.72
699.614	19885.52
699.96	19959.64
700.306	19919.19
700.651	19756.71
700.997	19743.38
701.342	19687.34
701.688	19643.04
702.033	19613.21
702.379	19505.65
702.724	19377.74
703.069	19449.15
703.415	19258.65
703.76	19309.49
704.105	19305.65
704.45	19227.46
704.795	19112.89
705.14	19108.59
705.485	19082.83
705.83	19035.83
706.175	18980.91
706.52	18938.65
706.865	18796.51
707.209	18889.39
707.554	18764.65
707.899	18867.7
708.243	18566.69
708.588	18611.66
708.932	18532.34
709.277	18411.89
709.621	18509.29
709.966	18441.04
710.31	18449.63
710.654	18177.54
710.998	18320.14
711.342	18277.88
711.687	18187.26
712.031	18073.59
712.375	18111.11
712.719	18049.19
713.063	18016.64
713.407	18057.1
713.75	18074.27
714.094	17972.8
714.438	17824.79
714.782	17886.25
715.125	17800.61
715.469	17752.02
715.812	17771.23
716.156	17627.28
716.499	17610.33
716.843	17601.06
717.186	17554.96
717.53	17615.3
717.873	17697.33
718.216	17486.49
718.559	17528.75
718.902	17377.57
719.246	17382.31
719.589	17408.53
719.932	17350
720.275	17323.1
720.617	17279.49
720.96	17302.77
721.303	17253.5
721.646	17306.61
721.989	17114.52
722.331	17215.31
722.674	17127.18
723.016	17175.54
723.359	17164.92
723.701	17154.97
724.044	17032.94
724.386	16975.09
724.729	17092.38
725.071	16976.22
725.413	16945.94
725.755	16963.79
726.097	16881.08
726.439	16725.61
726.782	16801.08
727.124	16915.2
727.465	16830.24
727.807	16844.25
728.149	16805.15
728.491	16728.77
728.833	16761.54
729.175	16625.5
729.516	16632.5
729.858	16693.97
730.199	16677.92
730.541	16680.63
730.882	16654.19
731.224	16696.68
731.565	16639.28
731.906	16593.41
732.248	16626.17
732.589	16550.24
732.93	16470.7
733.271	16489.68
733.612	16580.52
733.953	16585.95
734.294	16365.16
734.635	16418.27
734.976	16528.1
735.317	16489.23
735.658	16498.27
735.999	16458.49
736.339	16486.74
736.68	16425.5
737.021	16320.87
737.361	16326.07
737.702	16377.82
738.042	16372.62
738.383	16369.23
738.723	16401.09
739.063	16352.73
739.404	16444.93
739.744	16337.59
740.084	16256.69
740.424	16346.86
740.764	16289.23
741.104	16382.34
741.444	16304.15
741.784	16312.06
742.124	16354.77
742.464	16400.87
742.804	16340.98
743.143	16357.48
743.483	16388.21
743.823	16242.45
744.162	16350.7
744.502	16308.44
744.841	16359.51
745.181	16437.25
745.52	16417.36
745.86	16490.58
746.199	16461.21
746.538	16591.15
746.877	16568.32
747.216	16503.24
747.556	16501.88
747.895	16579.39
748.234	16553.18
748.573	16554.08
748.911	16590.47
749.25	16661.88
749.589	16615.55
749.928	16702.33
750.267	16794.53
750.605	16798.15
750.944	16833.4
751.283	16775.55
751.621	16907.07
751.96	16886.05
752.298	16936
752.636	17158.14
752.975	17009.67
753.313	17088.31
753.651	17172.37
753.989	17208.76
754.327	17311.58
754.666	17204.46
755.004	17389.99
755.342	17353.39
755.679	17523.32
756.017	17493.95
756.355	17641.74
756.693	17560.39
757.031	17806.93
757.368	17716.31
757.706	17816.65
758.044	17835.41
758.381	17920.83
758.719	18080.82
759.056	18128.28
759.394	18099.13
759.731	18125.57
760.068	18204.44
760.405	18244.21
760.743	18142.29
761.08	18401.95
761.417	18330.53
761.754	18375.51
762.091	18418.44
762.428	18542.73
762.765	18480.59
763.102	18667.25
763.438	18562.17
763.775	18568.49
764.112	18738.43
764.449	18778.43
764.785	18745.21
765.122	18635.39
765.458	18654.82
765.795	18793.35
766.131	18868.83
766.467	18871.76
766.804	18853.46
767.14	18816.62
767.476	18801.48
767.812	18840.58
768.148	18967.13
768.485	18881.71
768.821	18803.97
769.157	18859.11
769.492	18870.18
769.828	18907.24
770.164	18781.6
770.5	18829.05
770.836	18744.76
771.171	18721.94
771.507	18804.65
771.842	18702.5
772.178	18759.22
772.513	18680.13
772.849	18689.4
773.184	18574.6
773.519	18744.08
773.855	18523.3
774.19	18571.21
774.525	18556.97
774.86	18595.39
775.195	18558.78
775.53	18516.52
775.865	18427.26
776.2	18395.39
776.535	18278.33
776.87	18244.21
777.205	18336.86
777.539	18183.65
777.874	18248.96
778.209	18043.08
778.543	18123.76
778.878	17993.59
779.212	18016.42
779.547	17980.26
779.881	17973.03
780.215	17906.82
780.55	17979.81
780.884	17828.4
781.218	17709.99
781.552	17745.24
781.886	17600.38
782.22	17594.28
782.554	17567.17
782.888	17393.61
783.222	17424.57
783.556	17362.88
783.889	17317.91
784.223	17253.28
784.557	17173.5
784.89	17274.29
785.224	17134.18
785.557	17106.84
785.891	17075.88
786.224	16973.06
786.558	16976.67
786.891	16799.73
787.224	16746.85
787.557	16707.98
787.891	16789.11
788.224	16595.67
788.557	16641.09
788.89	16635.44
789.223	16583.69
789.556	16460.08
789.888	16411.72
790.221	16371.26
790.554	16293.53
790.887	16291.04
791.219	16154.77
791.552	16174.43
791.884	16200.2
792.217	16143.93
792.549	15977.6
792.882	15951.39
793.214	15851.28
793.546	15938.28
793.879	15801.56
794.211	15677.72
794.543	15735.8
794.875	15683.82
795.207	15752.98
795.539	15605.18
795.871	15620.32
796.203	15481.57
796.535	15372.87
796.867	15376.94
797.198	15431.4
797.53	15376.71
797.862	15236.38
798.193	15239.32
798.525	15128.59
798.856	15208.81
799.188	15078.42
799.519	15038.64
799.85	14971.53
800.182	14877.52
800.513	14963.84
800.844	14912.55
801.175	14822.38
801.506	14846.56
801.837	14752.1
802.168	14693.57
802.499	14724.75
802.83	14592.1
803.161	14604.08
803.491	14665.09
803.822	14503.52
804.153	14442.28
804.483	14372.9
804.814	14314.82
805.145	14342.62
805.475	14301.04
805.805	14300.13
806.136	14203.41
806.466	14262.62
806.796	14173.13
807.126	14055.62
807.457	13976.75
807.787	14035.51
808.117	13967.71
808.447	13862.63
808.777	13906.7
809.107	13869.41
809.436	13727.04
809.766	13889.97
810.096	13783.99
810.426	13721.62
810.755	13727.04
811.085	13731.56
811.414	13676.87
811.744	13515.75
812.073	13548.29
812.403	13548.74
812.732	13426.48
813.061	13474.17
813.39	13324.79
813.719	13317.56
814.049	13425.13
814.378	13336.09
814.707	13310.55
815.036	13334.06
815.365	13214.74
815.693	13117.11
816.022	13116.43
816.351	13108.07
816.68	13045.93
817.008	13131.35
817.337	12984.01
817.665	13029.21
817.994	12964.8
818.322	12980.85
818.651	12904.01
818.979	12826.5
819.307	12918.25
819.636	12791.7
819.964	12817.01
820.292	12777.01
820.62	12743.34
820.948	12720.96
821.276	12740.17
821.604	12742.21
821.932	12785.82
822.259	12756.9
822.587	12695.43
822.915	12649.1
823.243	12793.05
823.57	12639.16
823.898	12732.04
824.225	12623.34
824.553	12646.62
824.88	12667.63
825.207	12680.06
825.535	12583.57
825.862	12661.76
826.189	12613.4
826.516	12702.66
826.843	12730.68
827.17	12655.43
827.497	12693.17
827.824	12695.65
828.151	12723.9
828.478	12667.41
828.805	12717.12
829.131	12616.79
829.458	12609.33
829.785	12539.5
830.111	12592.83
830.438	12811.36
830.764	12642.55
831.09	12740.17
831.417	12591.93
831.743	12596.45
832.069	12639.39
832.395	12601.42
832.722	12601.87
833.048	12513.06
833.374	12593.74
833.7	12539.05
834.026	12566.62
834.351	12640.52
834.677	12518.03
835.003	12562.55
835.329	12543.12
835.654	12485.49
835.98	12453.18
836.306	12523
836.631	12414.31
836.956	12435.32
837.282	12424.93
837.607	12444.81
837.932	12310.58
838.258	12363.01
838.583	12357.36
838.908	12270.81
839.233	12359.84
839.558	12297.93
839.883	12215.22
840.208	12164.37
840.533	12195.78
840.858	12159.62
841.182	12212.28
841.507	12128.21
841.832	12074.88
842.156	12078.27
842.481	12071.26
842.805	11996.92
843.13	11985.62
843.454	11985.39
843.778	11938.39
844.103	11773.87
844.427	11922.79
844.751	11874.21
845.075	11794.89
845.399	11823.81
845.723	11706.08
846.047	11706.3
846.371	11634.44
846.695	11627.89
847.019	11544.5
847.343	11559.19
847.666	11446.87
847.99	11419.3
848.313	11339.76
848.637	11341.79
848.96	11310.15
849.284	11283.04
849.607	11248.01
849.931	11153.32
850.254	11036.04
850.577	11081.23
850.9	10959.43
851.223	10965.76
851.546	10822.94
851.869	10835.36
852.192	10886.66
852.515	10803.28
852.838	10759.89
853.161	10758.08
853.483	10700.23
853.806	10646.44
854.129	10631.53
854.451	10552.21
854.774	10537.75
855.096	10483.28
855.419	10522.83
855.741	10530.06
856.063	10393.12
856.385	10345.66
856.708	10310.86
857.03	10317.86
857.352	10316.28
857.674	10307.92
857.996	10195.83
858.318	10202.84
858.64	10158.09
858.961	10102.95
859.283	10127.13
859.605	10006.23
859.926	10065.22
860.248	9998.1
860.57	10037.65
860.891	9954.48
861.212	9964.43
861.534	9819.57
861.855	9832.68
862.176	9862.28
862.498	9924.2
862.819	9863.64
863.14	9794.26
863.461	9792.23
863.782	9817.09
864.103	9712.46
864.424	9747.03
864.745	9755.85
865.065	9677.88
865.386	9701.38
865.707	9697.09
866.027	9671.33
866.348	9661.84
866.668	9549.07
866.989	9551.1
867.309	9563.31
867.63	9535.29
867.95	9578
868.27	9484.67
868.59	9481.95
868.91	9557.43
869.23	9479.92
869.55	9415.52
869.87	9526.25
870.19	9417.77
870.51	9446.47
870.83	9441.5
871.15	9428.4
871.469	9376.42
871.789	9396.98
872.109	9411
872.428	9344.78
872.748	9348.4
873.067	9354.05
873.386	9272.69
873.706	9327.83
874.025	9262.98
874.344	9281.06
874.663	9210.77
874.982	9135.3
875.301	9173.49
875.62	9209.64
875.939	9152.92
876.258	9178.23
876.577	9110.21
876.896	9149.99
877.214	9081.06
877.533	9062.53
877.852	9095.52
878.17	9054.39
878.489	8998.58
878.807	9052.59
879.125	9015.98
879.444	8961.52
879.762	8921.52
880.08	8987.28
880.398	8946.37
880.716	8952.25
881.034	8868.18
881.352	8893.95
881.67	8877
881.988	8874.96
882.306	8860.28
882.624	8806.72
882.941	8815.98
883.259	8801.29
883.577	8793.84
883.894	8675.2
884.212	8699.38
884.529	8732.14
884.846	8686.04
885.164	8646.5
885.481	8634.52
885.798	8606.27
886.115	8565.59
886.432	8549.32
886.75	8552.04
887.067	8572.15
887.383	8490.79
887.7	8522.66
888.017	8487.63
888.334	8457.12
888.651	8493.05
888.967	8434.52
889.284	8397.69
889.6	8336.22
889.917	8310.46
890.233	8258.48
890.55	8282.89
890.866	8307.3
891.182	8226.85
891.498	8210.12
891.815	8180.97
892.131	8171.48
892.447	8156.11
892.763	8107.53
893.079	8141.65
893.395	8063.23
893.71	8073.4
894.026	8068.66
894.342	8076.79
894.657	7985.27
894.973	7865.05
895.289	7971.49
895.604	7877.48
895.92	7900.53
896.235	7847.65
896.55	7848.78
896.865	7873.86
897.181	7783.24
897.496	7808.1
897.811	7751.15
898.126	7779.63
898.441	7729.46
898.756	7739.18
899.071	7637.03
899.386	7698.05
899.7	7608.56
900.015	7536.92
900.33	7470.71
900.644	7474.32
900.959	7479.75
901.273	7493.53
901.588	7459.18
901.902	7389.35
902.216	7338.51
902.531	7350.03
902.845	7284.05
903.159	7233.2
903.473	7211.28
903.787	7157.27
904.101	7143.03
904.415	7144.16
904.729	7177.83
905.042	7141
905.356	7066.88
905.67	7062.58
905.984	7028.69
906.297	7017.39
906.611	6964.73
906.924	6961.79
907.237	6971.96
907.551	6900.55
907.864	6853.77
908.177	6907.56
908.491	6865.53
908.804	6839.99
909.117	6707.11
909.43	6754.79
909.743	6665.53
910.056	6657.85
910.368	6618.53
910.681	6655.36
910.994	6597.51
911.307	6589.37
911.619	6548.7
911.932	6543.27
912.244	6484.29
912.557	6492.88
912.869	6444.29
913.181	6386.44
913.494	6396.84
913.806	6365.43
914.118	6291.53
914.43	6273.22
914.742	6273.22
915.054	6257.63
915.366	6290.17
915.678	6172.66
915.99	6155.49
916.302	6162.95
916.613	6154.81
916.925	6070.29
917.236	6134.25
917.548	6078.65
917.859	6073.68
918.171	6008.15
918.482	5973.57
918.794	5952.78
919.105	5942.61
919.416	5961.14
919.727	5896.74
920.038	5881.14
920.349	5842.28
920.66	5840.02
920.971	5852.44
921.282	5769.06
921.593	5763.41
921.903	5681.15
922.214	5733.8
922.525	5666.91
922.835	5685.22
923.146	5615.39
923.456	5590.08
923.767	5595.95
924.077	5591.89
924.387	5610.42
924.697	5501.49
925.008	5521.61
925.318	5463.08
925.628	5475.28
925.938	5442.51
926.248	5445.45
926.558	5394.15
926.867	5370.2
927.177	5349.86
927.487	5316.19
927.796	5288.17
928.106	5248.62
928.416	5278.67
928.725	5243.2
929.034	5224.21
929.344	5222.63
929.653	5179.47
929.962	5103.54
930.271	5137.89
930.581	5068.51
930.89	5056.53
931.199	5061.51
931.508	5032.58
931.817	5043.65
932.125	5010.89
932.434	5006.82
932.743	4924.56
933.051	4914.16
933.36	4875.97
933.669	4862.19
933.977	4911.68
934.286	4849.76
934.594	4846.14
934.902	4756.88
935.21	4756.88
935.519	4773.83
935.827	4747.84
936.135	4753.72
936.443	4715.75
936.751	4709.88
937.059	4650.44
937.367	4634.17
937.674	4645.7
937.982	4620.84
938.29	4586.72
938.597	4612.48
938.905	4519.15
939.213	4511.46
939.52	4514.85
939.827	4488.41
940.135	4465.14
940.442	4490.67
940.749	4422.2
941.056	4421.07
941.363	4371.13
941.67	4359.83
941.977	4308.76
942.284	4295.42
942.591	4314.41
942.898	4327.51
943.205	4325.03
943.511	4250.23
943.818	4234.18
944.125	4153.73
944.431	4186.95
944.738	4228.31
945.044	4152.15
945.35	4121.64
945.657	4086.62
945.963	4091.36
946.269	4109.67
946.575	4090.68
946.881	4090.01
947.187	4038.93
947.493	4032.61
947.799	4003.23
948.105	4024.92
948.41	4003.45
948.716	3975.66
949.022	3953.96
949.327	3944.02
949.633	3936.79
949.938	3935.89
950.244	3887.75
950.549	3855.44
950.854	3861.99
951.16	3875.55
951.465	3824.48
951.77	3832.84
952.075	3762.78
952.38	3803.01
952.685	3782.67
952.99	3719.39
953.294	3723.24
953.599	3725.95
953.904	3675.55
954.209	3663.8
954.513	3670.36
954.818	3688.43
955.122	3658.38
955.426	3615.22
955.731	3644.59
956.035	3592.39
956.339	3563.24
956.643	3551.94
956.948	3583.35
957.252	3558.72
957.556	3530.92
957.86	3497.7
958.163	3502.45
958.467	3516.91
958.771	3462.23
959.075	3437.82
959.378	3403.7
959.682	3420.42
959.985	3372.28
960.289	3380.87
960.592	3361.21
960.896	3340.65
961.199	3349.91
961.502	3344.71
961.805	3322.34
962.108	3268.56
962.411	3295.22
962.714	3269.46
963.017	3258.16
963.32	3230.14
963.623	3195.79
963.926	3236.47
964.228	3204.15
964.531	3170.71
964.833	3199.63
965.136	3141.56
965.438	3180.2
965.741	3133.42
966.043	3130.93
966.345	3105.17
966.648	3132.97
966.95	3039.19
967.252	3019.98
967.554	3050.71
967.856	3013.88
968.158	3003.03
968.46	3039.19
968.761	3007.32
969.063	2982.69
969.365	2977.04
969.666	3011.39
969.968	2958.06
970.269	2929.13
970.571	2904.73
970.872	2928
971.174	2900.88
971.475	2888.68
971.776	2874.22
972.077	2835.12
972.378	2895.91
972.679	2862.92
972.98	2825.63
973.281	2847.33
973.582	2807.1
973.883	2839.87
974.183	2786.76
974.484	2786.76
974.785	2739.08
975.085	2747.67
975.386	2750.83
975.686	2682.81
975.986	2699.76
976.287	2720.32
976.587	2656.37
976.887	2669.7
977.187	2655.69
977.487	2651.85
977.787	2650.95
978.087	2630.16
978.387	2603.72
978.687	2603.94
978.987	2588.35
979.286	2582.02
979.586	2569.37
979.885	2553.77
980.185	2547
980.484	2581.8
980.784	2530.05
981.083	2531.85
981.382	2507.9
981.682	2513.1
981.981	2469.71
982.28	2478.75
982.579	2448.69
982.878	2427.68
983.177	2408.24
983.475	2451.18
983.774	2443.72
984.073	2410.73
984.372	2399.2
984.67	2407.34
984.969	2409.15
985.267	2374.57
985.566	2351.29
985.864	2359.66
986.162	2326.89
986.461	2316.04
986.759	2326.44
987.057	2315.14
987.355	2274.91
987.653	2304.29
987.951	2256.83
988.249	2258.64
988.547	2265.87
988.844	2229.26
989.142	2227
989.44	2193.33
989.737	2215.93
990.035	2183.61
990.332	2193.11
990.63	2196.72
990.927	2172.54
991.224	2140.23
991.521	2145.2
991.819	2158.76
992.116	2150.4
992.413	2132.09
992.71	2093.67
993.006	2094.8
993.303	2115.82
993.6	2105.65
993.897	2071.75
994.193	2060.91
994.49	2060
994.787	2023.85
995.083	2043.28
995.379	2020.23
995.676	2022.49
995.972	2020.46
996.268	2006.44
996.565	1979.1
996.861	1996.05
997.157	1960.8
997.453	1965.32
997.749	1933.9
998.044	1942.49
998.34	1943.17
998.636	1935.03
998.932	1918.09
999.227	1939.78
999.523	1900.01
999.818	1875.6
1000.114	1862.72
1000.409	1880.57
1000.704	1869.5
1001	1857.97
1001.295	1847.13
1001.59	1853.91
1001.885	1826.34
1002.18	1813.68
1002.475	1794.47
1002.77	1810.29
1003.065	1768.94
1003.359	1784.3
1003.654	1749.5
1003.949	1757.86
1004.243	1751.54
1004.538	1763.29
1004.832	1714.25
1005.127	1733.46
1005.421	1739.11
1005.715	1714.47
1006.009	1690.97
1006.304	1681.71
1006.598	1661.14
1006.892	1659.11
1007.186	1654.82
1007.48	1650.3
1007.773	1657.3
1008.067	1615.04
1008.361	1603.07
1008.655	1610.75
1008.948	1635.83
1009.242	1611.43
1009.535	1613.91
1009.829	1581.14
1010.122	1553.57
1010.415	1563.52
1010.708	1549.06
1011.001	1527.36
1011.295	1526.01
1011.588	1512.67
1011.881	1489.4
1012.173	1514.25
1012.466	1494.59
1012.759	1455.72
1013.052	1462.96
1013.344	1457.76
1013.637	1445.56
1013.93	1468.38
1014.222	1452.11
1014.514	1453.46
1014.807	1444.2
1015.099	1426.35
1015.391	1429.51
1015.683	1422.5
1015.976	1384.77
1016.268	1394.26
1016.56	1360.81
1016.851	1370.08
1017.143	1344.09
1017.435	1368.5
1017.727	1375.27
1018.018	1356.07
1018.31	1365.33
1018.602	1327.82
1018.893	1323.75
1019.185	1297.76
1019.476	1303.64
1019.767	1282.85
1020.058	1294.15
1020.35	1291.21
1020.641	1260.25
1020.932	1248.05
1021.223	1230.42
1021.514	1265.9
1021.804	1251.89
1022.095	1224.77
1022.386	1217.99
1022.677	1232.91
1022.967	1225
1023.258	1194.71
1023.548	1197.2
1023.839	1193.13
1024.129	1177.99
1024.419	1203.75
1024.709	1162.85
1025	1144.77
1025.29	1169.86
1025.58	1141.83
1025.87	1154.49
1026.16	1151.78
1026.449	1132.12
1026.739	1110.2
1027.029	1099.58
1027.319	1108.61
1027.608	1116.98
1027.898	1079.46
1028.187	1085.79
1028.477	1073.59
1028.766	1091.44
1029.055	1058.45
1029.344	1050.54
1029.634	1054.61
1029.923	1029.07
1030.212	1033.36
1030.501	1049.41
1030.79	1012.12
1031.078	1033.59
1031.367	1007.6
1031.656	1024.55
1031.945	1000.82
1032.233	1018.9
1032.522	984.32
1032.81	976.42
1033.099	957.21
1033.387	991.78
1033.675	975.29
1033.963	964.44
1034.251	942.97
1034.54	966.47
1034.828	931.44
1035.116	937.55
1035.403	917.21
1035.691	948.62
1035.979	906.81
1036.267	899.81
1036.554	913.82
1036.842	898.22
1037.129	873.82
1037.417	871.11
1037.704	883.31
1037.992	887.83
1038.279	870.66
1038.566	874.04
1038.853	874.04
1039.14	874.04
