Data from hue_320_FLMS001491_78.txt Node
Date: Mon Feb 06 15:47:41 GMT 2017
User: dcchb
Spectrometer: FLMS00149
Trigger mode: 0
Integration Time (sec): 2.000000E-2
Scans to average: 10
Electric dark correction enabled: true
Nonlinearity correction enabled: false
Boxcar width: 0
XAxis mode: Wavelengths
Number of Pixels in Spectrum: 2048
>>>>>Begin Spectral Data<<<<<
341.393	-3.39
341.776	-3.39
342.16	-3.39
342.543	-56.72
342.927	-58.3
343.31	-72.09
343.693	-74.12
344.077	-55.59
344.46	-48.13
344.843	-61.47
345.226	-44.97
345.61	-31.41
345.993	-20.79
346.376	5.88
346.759	11.75
347.142	30.96
347.525	35.25
347.908	48.36
348.291	71.86
348.674	98.98
349.057	105.53
349.44	126.78
349.823	148.7
350.206	155.25
350.588	190.28
350.971	199.77
351.354	225.3
351.737	242.25
352.119	250.16
352.502	253.55
352.884	311.86
353.267	285.64
353.65	281.8
354.032	309.6
354.414	314.12
354.797	299.88
355.179	319.77
355.562	314.79
355.944	327.22
356.326	320.9
356.709	340.56
357.091	338.07
357.473	344.17
357.855	329.71
358.238	354.79
358.62	346.21
359.002	334.23
359.384	336.71
359.766	326.77
360.148	343.49
360.53	323.83
360.912	332.87
361.294	348.01
361.676	356.37
362.057	331.06
362.439	318.64
362.821	347.11
363.203	311.4
363.584	313.44
363.966	304.4
364.348	317.05
364.729	315.7
365.111	308.69
365.493	323.16
365.874	333.78
366.256	322.7
366.637	319.99
367.019	316.6
367.4	310.05
367.781	327.22
368.163	303.72
368.544	312.08
368.925	296.26
369.306	313.89
369.688	300.56
370.069	323.16
370.45	288.81
370.831	318.18
371.212	320.67
371.593	310.73
371.974	284.96
372.355	302.59
372.736	319.77
373.117	311.4
373.498	303.04
373.879	327.9
374.26	312.76
374.641	306.43
375.021	326.77
375.402	323.61
375.783	327.22
376.163	330.39
376.544	331.52
376.925	318.41
377.305	332.87
377.686	330.61
378.066	320.22
378.447	327.45
378.827	323.38
379.208	319.99
379.588	322.03
379.968	312.53
380.349	344.17
380.729	344.85
381.109	326.77
381.489	333.32
381.87	333.1
382.25	336.26
382.63	326.32
383.01	337.84
383.39	353.21
383.77	343.95
384.15	339.43
384.53	358.86
384.91	327.9
385.29	342.82
385.67	352.76
386.049	349.82
386.429	324.51
386.809	353.44
387.189	354.34
387.568	342.36
387.948	333.55
388.328	366.09
388.707	368.58
389.087	370.84
389.466	362.7
389.846	359.76
390.225	345.75
390.605	363.38
390.984	340.1
391.363	371.74
391.743	378.97
392.122	374.23
392.501	355.02
392.881	385.75
393.26	347.79
393.639	353.66
394.018	355.47
394.397	364.96
394.776	384.4
395.155	374
395.534	377.84
395.913	370.39
396.292	377.39
396.671	368.8
397.05	369.71
397.429	369.93
397.808	392.08
398.186	388.01
398.565	385.3
398.944	369.03
399.323	400.67
399.701	415.58
400.08	373.1
400.458	411.06
400.837	412.64
401.215	387.79
401.594	407.9
401.972	407.67
402.351	382.81
402.729	413.55
403.107	378.75
403.486	421.23
403.864	415.13
404.242	419.42
404.62	430.95
404.999	393.21
405.377	419.2
405.755	411.06
406.133	441.8
406.511	428.69
406.889	443.38
407.267	442.02
407.645	445.64
408.023	438.41
408.401	463.26
408.779	439.31
409.156	449.48
409.534	466.65
409.912	472.76
410.29	464.17
410.667	477.28
411.045	475.69
411.422	488.12
411.8	469.59
412.178	496.48
412.555	498.97
412.933	497.39
413.31	509.59
413.687	526.77
414.065	517.05
414.442	525.86
414.819	529.7
415.197	519.99
415.574	526.77
415.951	541.68
416.328	549.14
416.705	557.73
417.082	565.41
417.46	585.52
417.837	560.21
418.214	571.28
418.591	587.78
418.967	585.97
419.344	582.36
419.721	600.21
420.098	630.04
420.475	615.13
420.852	609.25
421.228	618.97
421.605	634.11
421.982	640.21
422.358	640.66
422.735	644.05
423.111	634.79
423.488	678.17
423.864	677.5
424.241	666.88
424.617	668.23
424.994	673.65
425.37	696.7
425.746	682.24
426.123	686.76
426.499	701.9
426.875	691.51
427.251	726.76
427.627	724.73
428.003	735.12
428.379	744.16
428.756	738.29
429.132	772.86
429.507	761.34
429.883	795.01
430.259	790.71
430.635	797.72
431.011	802.24
431.387	795.01
431.763	839.3
432.138	792.3
432.514	824.39
432.89	838.85
433.265	821
433.641	857.38
434.016	875.91
434.392	880.88
434.767	864.84
435.143	897.38
435.518	896.93
435.894	924.04
436.269	915
436.644	931.73
437.02	933.31
437.395	933.99
437.77	969.01
438.145	960.2
438.52	979.18
438.895	978.73
439.271	977.6
439.646	980.99
440.021	985.28
440.395	1010.14
440.77	1005.62
441.145	1016.47
441.52	1013.53
441.895	1016.92
442.27	1033.65
442.645	1020.31
443.019	1051.05
443.394	1049.69
443.769	1060.09
444.143	1051.72
444.518	1058.05
444.892	1053.98
445.267	1051.05
445.641	1055.34
446.016	1075.9
446.39	1074.1
446.764	1073.42
447.139	1071.38
447.513	1099.86
447.887	1075.23
448.262	1093.08
448.636	1100.99
449.01	1097.15
449.384	1109.58
449.758	1092.63
450.132	1114.55
450.506	1112.74
450.88	1110.48
451.254	1131.5
451.628	1132.4
452.002	1167.43
452.376	1138.28
452.75	1171.72
453.123	1146.86
453.497	1192.06
453.871	1203.58
454.244	1180.31
454.618	1167.43
454.992	1209.01
455.365	1179.63
455.739	1209.91
456.112	1226.18
456.486	1259.63
456.859	1243.58
457.232	1253.98
457.606	1222.79
457.979	1248.1
458.352	1285.16
458.725	1301.66
459.099	1300.98
459.472	1283.81
459.845	1325.84
460.218	1348.21
460.591	1354.99
460.964	1339.63
461.337	1361.55
461.71	1344.6
462.083	1414.88
462.456	1410.13
462.829	1408.1
463.201	1371.72
463.574	1402.22
463.947	1422.79
464.32	1464.37
464.692	1444.48
465.065	1439.28
465.438	1445.61
465.81	1467.76
466.183	1498.72
466.555	1478.38
466.928	1531.49
467.3	1500.07
467.672	1522.22
468.045	1578.94
468.417	1552.28
468.789	1557.25
469.161	1600.18
469.534	1555.44
469.906	1641.09
470.278	1633.63
470.65	1649.9
471.022	1672.5
471.394	1688.77
471.766	1714.08
472.138	1719.5
472.51	1712.05
472.882	1742.55
473.253	1750.24
473.625	1767.86
473.997	1833.85
474.369	1818.03
474.74	1824.81
475.112	1833.17
475.484	1853.06
475.855	1910.01
476.227	1889.22
476.598	1947.75
476.97	1946.84
477.341	2011.25
477.713	2012.6
478.084	2000.63
478.455	2050.57
478.827	2050.12
479.198	2085.59
479.569	2122.43
479.94	2153.62
480.311	2187.06
480.682	2207.63
481.053	2260.73
481.424	2243.1
481.795	2277.23
482.166	2295.53
482.537	2330.33
482.908	2362.88
483.279	2365.81
483.65	2404.23
484.021	2414.63
484.391	2462.76
484.762	2459.37
485.133	2474.29
485.503	2512.93
485.874	2561.97
486.244	2599.71
486.615	2569.42
486.985	2592.93
487.356	2655.75
487.726	2713.15
488.097	2721.28
488.467	2693.49
488.837	2784.79
489.207	2787.27
489.578	2798.57
489.948	2794.5
490.318	2872.69
490.688	2898.45
491.058	2908.62
491.428	2943.43
491.798	2941.62
492.168	2997.66
492.538	3008.51
492.908	3031.78
493.278	3030.88
493.648	3084.21
494.017	3114.04
494.387	3097.09
494.757	3123.99
495.126	3143.65
495.496	3158.34
495.866	3175.96
496.235	3222.06
496.605	3240.82
496.974	3220.48
497.344	3264.55
497.713	3231.33
498.082	3333.47
498.452	3292.57
498.821	3299.8
499.19	3320.36
499.559	3400.36
499.928	3376.86
500.298	3384.32
500.667	3410.08
501.036	3435.16
501.405	3431.1
501.774	3422.51
502.143	3425.9
502.512	3452.79
502.88	3484.2
503.249	3483.07
503.618	3492.11
503.987	3495.5
504.356	3537.31
504.724	3553.58
505.093	3534.14
505.462	3567.36
505.83	3567.82
506.199	3634.25
506.567	3660.92
506.936	3638.55
507.304	3629.74
507.672	3613.24
508.041	3679.23
508.409	3685.1
508.777	3700.47
509.145	3679.9
509.514	3692.78
509.882	3749.28
510.25	3732.11
510.618	3766.23
510.986	3761.48
511.354	3770.52
511.722	3807.81
512.09	3795.15
512.458	3842.16
512.826	3818.66
513.193	3851.42
513.561	3821.14
513.929	3860.92
514.297	3867.69
514.664	3890.52
515.032	3898.43
515.4	3921.25
515.767	3899.78
516.135	3973.68
516.502	3874.93
516.869	3982.72
517.237	3946.79
517.604	3944.76
517.972	3983.62
518.339	3986.56
518.706	3982.49
519.073	3947.92
519.44	3997.18
519.808	4050.06
520.175	4006.45
520.542	4045.77
520.909	4067.24
521.276	4095.03
521.643	4084.64
522.009	4105.43
522.376	4119.21
522.743	4152.89
523.11	4145.88
523.477	4207.12
523.843	4198.53
524.21	4255.93
524.577	4276.27
524.943	4260.45
525.31	4257.29
525.676	4290.73
526.043	4338.42
526.409	4308.59
526.776	4356.72
527.142	4345.2
527.508	4374.8
527.874	4438.08
528.241	4388.81
528.607	4427.23
528.973	4474.46
529.339	4478.98
529.705	4511.52
530.071	4581.8
530.437	4589.94
530.803	4593.78
531.169	4611.63
531.535	4585.87
531.901	4657.96
532.267	4660.89
532.632	4664.28
532.998	4714.45
533.364	4742.93
533.73	4747.9
534.095	4758.07
534.461	4791.96
534.826	4815.69
535.192	4749.71
535.557	4840.78
535.923	4853.66
536.288	4858.86
536.653	4883.94
537.019	4906.31
537.384	4884.17
537.749	4910.83
538.114	4937.95
538.479	4961.9
538.845	4988.34
539.21	5002.81
539.575	5006.42
539.94	5051.17
540.305	5071.05
540.67	5068.57
541.034	5104.95
541.399	5142.69
541.764	5125.74
542.129	5145.85
542.494	5167.55
542.858	5203.48
543.223	5213.65
543.587	5226.53
543.952	5257.26
544.316	5248.9
544.681	5250.71
545.045	5287.32
545.41	5310.14
545.774	5353.31
546.138	5346.75
546.503	5431.27
546.867	5404.83
547.231	5472.62
547.595	5434.66
547.959	5427.65
548.324	5507.65
548.688	5474.43
549.052	5478.27
549.416	5569.8
549.779	5544.04
550.143	5513.75
550.507	5617.48
550.871	5593.98
551.235	5696.12
551.599	5666.07
551.962	5693.86
552.326	5762.11
552.689	5696.35
553.053	5709
553.417	5709.91
553.78	5799.62
554.143	5765.5
554.507	5800.98
554.87	5765.72
555.234	5851.37
555.597	5797.14
555.96	5815.67
556.323	5882.11
556.686	5866.06
557.05	5890.01
557.413	5881.2
557.776	5937.47
558.139	6010.92
558.502	5994.19
558.865	6019.5
559.228	6018.6
559.59	6053.4
559.953	6034.64
560.316	6109.22
560.679	6081.2
561.041	6131.14
561.404	6110.8
561.767	6163.23
562.129	6197.8
562.492	6210.68
562.854	6244.81
563.217	6251.59
563.579	6241.87
563.941	6294.3
564.304	6279.61
564.666	6274.86
565.028	6304.24
565.39	6373.17
565.753	6370.91
566.115	6386.5
566.477	6430.57
566.839	6394.63
567.201	6423.33
567.563	6497
567.925	6534.74
568.287	6537.46
568.648	6525.25
569.01	6581.75
569.372	6627.4
569.734	6665.36
570.095	6692.93
570.457	6677.34
570.819	6744.91
571.18	6769.09
571.542	6803.89
571.903	6835.75
572.265	6829.65
572.626	6857.67
572.987	6890.67
573.349	6930.44
573.71	7010.21
574.071	7053.83
574.432	7056.99
574.794	7134.05
575.155	7178.79
575.516	7156.42
575.877	7299.24
576.238	7337.89
576.599	7408.39
576.96	7428.96
577.32	7426.25
577.681	7590.76
578.042	7691.55
578.403	7781.72
578.763	7854.71
579.124	7869.4
579.485	7971.32
579.845	8122.72
580.206	8155.27
580.566	8287.24
580.927	8382.83
581.287	8528.59
581.648	8609.72
582.008	8708.92
582.368	8865.3
582.728	9031.63
583.089	9117.73
583.449	9268.91
583.809	9441.79
584.169	9592.97
584.529	9731.95
584.889	9979.85
585.249	10169.45
585.609	10121.54
585.969	10514.98
586.329	10664.35
586.688	10945.7
587.048	11104.57
587.408	11231.57
587.768	11361.96
588.127	11684.89
588.487	11879.91
588.846	12222.73
589.206	12361.71
589.565	12597.86
589.925	12851.41
590.284	13171.63
590.643	13388.35
591.003	13700.66
591.362	13928.22
591.721	14154.88
592.08	14450.47
592.44	14720.29
592.799	14987.4
593.158	15259.49
593.517	15476.66
593.876	15849.98
594.235	16041.61
594.593	16401.15
594.952	16679.56
595.311	16959.55
595.67	17260.56
596.029	17603.15
596.387	17971.28
596.746	18216.24
597.104	18392.96
597.463	18733.29
597.822	19135.77
598.18	19258.7
598.538	19551.58
598.897	19891.45
599.255	20049.64
599.613	20676.07
599.972	20742.96
600.33	21095.72
600.688	21228.82
601.046	21622.03
601.404	21942.25
601.762	22100.89
602.12	22467.43
602.478	22629.24
602.836	22971.37
603.194	23141.09
603.552	23424.69
603.91	23656.1
604.268	24050.22
604.625	24158.23
604.983	24426.7
605.341	24615.4
605.698	24972.68
606.056	25260.58
606.413	25459.44
606.771	25770.62
607.128	25932.88
607.485	26104.62
607.843	26361.79
608.2	26653.54
608.557	26937.6
608.914	27145.05
609.272	27351.6
609.629	27557.02
609.986	27966.95
610.343	28032.71
610.7	28429.99
611.057	28465.92
611.414	28540.27
611.771	28780.71
612.127	29190.87
612.484	29276.52
612.841	29569.39
613.198	29662.27
613.554	29781.36
613.911	29966.67
614.267	30156.72
614.624	30318.52
614.98	30444.17
615.337	30812.07
615.693	30818.17
616.05	30981.11
616.406	31279.18
616.762	31310.82
617.118	31476.46
617.475	31520.75
617.831	31750.35
618.187	31871.25
618.543	32044.13
618.899	32323.22
619.255	32404.57
619.611	32529.77
619.967	32751.23
620.323	32867.38
620.678	32830.78
621.034	32927.95
621.39	33072.58
621.746	33135.4
622.101	33596.4
622.457	33450.19
622.812	33577.65
623.168	33646.57
623.523	33742.62
623.879	33987.35
624.234	33724.99
624.589	34065.54
624.945	34314.13
625.3	34273.68
625.655	34321.58
626.01	34432.77
626.365	34475.03
626.72	34463.95
627.075	34509.83
627.43	34659.65
627.785	34550.5
628.14	34719.99
628.495	34887.67
628.85	34795.92
629.205	34802.25
629.559	35029.14
629.914	34999.76
630.269	35006.31
630.623	35041.11
630.978	34917.5
631.332	35082.92
631.687	35386.87
632.041	35137.38
632.396	35246.3
632.75	35290.37
633.104	35229.81
633.459	35124.27
633.813	35263.03
634.167	35282.46
634.521	35256.47
634.875	35419.41
635.229	35325.85
635.583	35199.75
635.937	35332.86
636.291	35277.49
636.645	35204.5
636.999	35332.86
637.352	35388.9
637.706	35356.81
638.06	35358.84
638.413	35320.88
638.767	35311.16
639.121	35384.61
639.474	35322.46
639.828	35190.71
640.181	35218.73
640.534	35386.41
640.888	35228.68
641.241	35121.79
641.594	35202.46
641.947	35375.12
642.301	35239.07
642.654	35208.11
643.007	35317.94
643.36	35264.84
643.713	35159.53
644.066	35406.07
644.419	35166.31
644.771	35009.7
645.124	34646.09
645.477	34587.11
645.83	34385.76
646.182	34239.33
646.535	34113
646.888	34368.81
647.24	34124.07
647.593	34348.7
647.945	34332.2
648.298	34116.84
648.65	34058.77
649.002	33988.03
649.355	34255.82
649.707	34122.04
650.059	34237.07
650.411	34609.49
650.763	34778.07
651.115	34926.54
651.467	34932.64
651.819	34822.14
652.171	34889.48
652.523	34828.69
652.875	34838.63
653.227	34686.77
653.578	35011.28
653.93	34943.71
654.282	34758.86
654.633	34686.77
654.985	34836.6
655.337	34774.45
655.688	34683.38
656.039	34865.07
656.391	34596.38
656.742	34614.01
657.094	34682.25
657.445	34736.71
657.796	34664.4
658.147	34647.45
658.498	34651.52
658.849	34710.73
659.2	34644.06
659.551	34441.35
659.902	34569.49
660.253	34581.69
660.604	34578.75
660.955	34472.54
661.306	34613.33
661.656	34566.1
662.007	34595.93
662.358	34579.88
662.708	34444.29
663.059	34359.1
663.409	34315.26
663.76	34636.38
664.11	34408.59
664.461	34564.74
664.811	34614.91
665.161	34545.76
665.511	34417.4
665.862	34542.82
666.212	34601.8
666.562	34751.85
666.912	34510.05
667.262	34421.69
667.612	34554.8
667.962	34520.67
668.312	34418.98
668.662	34642.48
669.011	34502.6
669.361	34606.55
669.711	34452.88
670.06	34348.02
670.41	34488.81
670.76	34456.04
671.109	34446.33
671.459	34433.9
671.808	34278.65
672.157	34531.07
672.507	34208.14
672.856	34228.48
673.205	34327.23
673.554	34264.18
673.904	34244.52
674.253	34415.37
674.602	34162.04
674.951	33813.57
675.3	33830.97
675.649	34223.05
675.998	34225.09
676.346	34066.9
676.695	34400.45
677.044	33961.14
677.393	34143.96
677.741	34197.52
678.09	33993
678.438	33971.54
678.787	34125.43
679.135	34039.1
679.484	33721.37
679.832	33955.04
680.181	33717.76
680.529	33963.85
680.877	33745.55
681.225	33698.55
681.573	34011.08
681.922	33797.53
682.27	33607.25
682.618	33687.93
682.966	33477.54
683.314	33557.99
683.661	33617.42
684.009	33387.6
684.357	33204.32
684.705	33328.84
685.053	33347.15
685.4	33289.07
685.748	33079.13
686.095	33082.75
686.443	33069.19
686.79	32809.08
687.138	33115.29
687.485	33129.52
687.832	32918
688.18	32896.08
688.527	32722.53
688.874	32694.51
689.221	32598.24
689.568	32538.35
689.915	32444.34
690.262	32561.4
690.609	32476.43
690.956	32288.42
691.303	32353.95
691.65	32124.35
691.997	32022.89
692.344	31904.02
692.69	31988.54
693.037	31948.76
693.383	31697.47
693.73	31797.13
694.077	31550.58
694.423	31624.71
694.769	31463.58
695.116	31370.25
695.462	31413.41
695.808	31280.08
696.155	31258.61
696.501	31129.8
696.847	31096.58
697.193	30808.91
697.539	31033.53
697.885	30775.46
698.231	30686.65
698.577	30747.67
698.923	30619.76
699.269	30533.43
699.614	30388.13
699.96	30291.41
700.306	30271.07
700.651	30137.96
700.997	30164.18
701.342	30110.17
701.688	29937.74
702.033	29881.25
702.379	29894.81
702.724	29850.06
703.069	29775.71
703.415	29573.46
703.76	29569.39
704.105	29549.28
704.45	29483.97
704.795	29320.36
705.14	29304.54
705.485	29188.16
705.83	29130.76
706.175	29270.87
706.52	29189.06
706.865	28923.53
707.209	28915.62
707.554	28881.73
707.899	28961.72
708.243	28798.56
708.588	28678.79
708.932	28651.9
709.277	28547.05
709.621	28528.97
709.966	28438.35
710.31	28485.58
710.654	28178.02
710.998	28267.28
711.342	28163.33
711.687	28163.33
712.031	28022.31
712.375	27896.22
712.719	28054.18
713.063	27921.3
713.407	28035.2
713.75	27797.46
714.094	27744.81
714.438	27707.97
714.782	27682.44
715.125	27613.74
715.469	27610.35
715.812	27419.39
716.156	27266.18
716.499	27333.29
716.843	27427.3
717.186	27220.75
717.53	27369
717.873	27330.35
718.216	27230.7
718.559	27100.08
718.902	26938.95
719.246	27062.57
719.589	26903.25
719.932	26877.03
720.275	26809.46
720.617	26707.77
720.96	26875.45
721.303	26789.8
721.646	26772.4
721.989	26589.13
722.331	26691.05
722.674	26491.05
723.016	26547.55
723.359	26409.7
723.701	26449.93
724.044	26306.2
724.386	26164.06
724.729	26349.82
725.071	26208.12
725.413	26178.07
725.755	26199.99
726.097	26038.19
726.439	25986.66
726.782	25996.15
727.124	25985.08
727.465	25910.28
727.807	25794.12
728.149	25810.17
728.491	25822.37
728.833	25834.57
729.175	25699.21
729.516	25643.39
729.858	25629.83
730.199	25688.14
730.541	25592.55
730.882	25683.17
731.224	25615.15
731.565	25498.09
731.906	25484.75
732.248	25484.75
732.589	25332.67
732.93	25299.67
733.271	25307.58
733.612	25310.52
733.953	25239.34
734.294	25239.11
734.635	25082.5
734.976	25164.54
735.317	25066.46
735.658	25028.04
735.999	24968.16
736.339	24958.67
736.68	25055.39
737.021	24891.55
737.361	24806.58
737.702	24946.46
738.042	24838.44
738.383	24794.38
738.723	24834.38
739.063	24706.69
739.404	24796.64
739.744	24651.33
740.084	24520.03
740.424	24567.72
740.764	24551.67
741.104	24480.71
741.444	24511.22
741.784	24423.99
742.124	24394.16
742.464	24443.43
742.804	24319.36
743.143	24261.28
743.483	24407.72
743.823	24200.72
744.162	24245.01
744.502	24237.33
744.841	23978.8
745.181	24206.82
745.52	24132.92
745.86	24046.83
746.199	23996.66
746.538	23963.44
746.877	23907.62
747.216	23985.81
747.556	23978.58
747.895	23784.91
748.234	23695.42
748.573	23762.54
748.911	23715.53
749.25	23689.09
749.589	23566.61
749.928	23593.5
750.267	23643.9
750.605	23555.99
750.944	23412.72
751.283	23405.71
751.621	23418.14
751.96	23348.99
752.298	23265.38
752.636	23293.17
752.975	23180.41
753.313	23116.45
753.651	23199.84
753.989	23036.23
754.327	23122.56
754.666	22934.99
755.004	23109.22
755.342	22911.71
755.679	22890.47
756.017	22774.99
756.355	22834.43
756.693	22667.43
757.031	22697.93
757.368	22663.81
757.706	22550.82
758.044	22528.9
758.381	22460.43
758.719	22491.61
759.056	22368.23
759.394	22281.45
759.731	22185.86
760.068	22182.24
760.405	22114.22
760.743	22192.64
761.08	22009.59
761.417	21887.79
761.754	21925.07
762.091	21768.02
762.428	21737.96
762.765	21668.36
763.102	21700.9
763.438	21451.41
763.775	21457.06
764.112	21414.35
764.449	21445.54
764.785	21308.14
765.122	21177.75
765.458	21246
765.795	21155.6
766.131	21010.07
766.467	20990.41
766.804	20923.29
767.14	20737.76
767.476	20782.5
767.812	20720.36
768.148	20734.82
768.485	20476.3
768.821	20559.91
769.157	20424.77
769.492	20434.04
769.828	20362.18
770.164	20198.79
770.5	20164.22
770.836	20136.42
771.171	20005.58
771.507	19966.48
771.842	19890.55
772.178	19817.11
772.513	19766.94
772.849	19744.34
773.184	19669.31
773.519	19702.98
773.855	19563.55
774.19	19456.21
774.525	19398.59
774.86	19403.33
775.195	19340.96
775.53	19258.02
775.865	19166.73
776.2	19033.62
776.535	18966.28
776.87	18853.52
777.205	18846.74
777.539	18718.6
777.874	18836.57
778.209	18614.88
778.543	18604.03
778.878	18379.86
779.212	18401.32
779.547	18398.61
779.881	18373.98
780.215	18218.96
780.55	18204.72
780.884	18122.24
781.218	18068.23
781.552	18023.25
781.886	17886.76
782.22	17837.5
782.554	17886.99
782.888	17727.9
783.222	17596.6
783.556	17594.11
783.889	17432.99
784.223	17339.66
784.557	17342.14
784.89	17312.54
785.224	17158.19
785.557	17223.95
785.891	17201.13
786.224	17081.36
786.558	17072.32
786.891	16811.54
787.224	16850.18
787.557	16835.49
787.891	16833.91
788.224	16757.07
788.557	16729.28
788.89	16631.2
789.223	16564.54
789.556	16411.55
789.888	16446.35
790.221	16263.75
790.554	16269.4
790.887	16240.48
791.219	16235.28
791.552	16144.43
791.884	16161.16
792.217	16155.28
792.549	15996.19
792.882	15915.29
793.214	15794.61
793.546	15820.15
793.879	15809.08
794.211	15652.92
794.543	15723.65
794.875	15671.9
795.207	15654.96
795.539	15572.02
795.871	15572.47
796.203	15460.61
796.535	15340.61
796.867	15334.74
797.198	15330.22
797.53	15323.66
797.862	15090.45
798.193	15192.14
798.525	15049.1
798.856	15072.37
799.188	14897.91
799.519	14909.44
799.85	14806.84
800.182	14804.58
800.513	14835.32
800.844	14676
801.175	14772.04
801.506	14679.16
801.837	14653.85
802.168	14606.85
802.499	14541.76
802.83	14477.59
803.161	14360.75
803.491	14471.48
803.822	14340.87
804.153	14299.74
804.483	14187.88
804.814	14167.09
805.145	14158.5
805.475	14169.8
805.805	14086.18
806.136	14101.78
806.466	14084.6
806.796	14032.63
807.126	13938.39
807.457	13949.24
807.787	13839.64
808.117	13795.57
808.447	13803.48
808.777	13813.2
809.107	13715.35
809.436	13673.99
809.766	13637.61
810.096	13581.11
810.426	13604.84
810.755	13589.02
811.085	13540.21
811.414	13540.43
811.744	13307.45
812.073	13328.24
812.403	13361.23
812.732	13289.14
813.061	13285.53
813.39	13178.64
813.719	13184.06
814.049	13229.26
814.378	13173.66
814.707	13104.06
815.036	13046.44
815.365	13017.96
815.693	12883.05
816.022	12978.42
816.351	12905.2
816.68	12785.43
817.008	12845.09
817.337	12742.72
817.665	12728.7
817.994	12714.47
818.322	12775.03
818.651	12725.32
818.979	12631.98
819.307	12669.5
819.636	12636.73
819.964	12564.87
820.292	12677.41
820.62	12616.62
820.948	12498.43
821.276	12539.11
821.604	12475.15
821.932	12545.66
822.259	12461.82
822.587	12471.76
822.915	12478.32
823.243	12444.64
823.57	12421.14
823.898	12504.53
824.225	12419.56
824.553	12473.12
824.88	12460.92
825.207	12455.27
825.535	12434.7
825.862	12396.74
826.189	12413.01
826.516	12517.86
826.843	12495.94
827.17	12453.68
827.497	12468.6
827.824	12441.03
828.151	12486
828.478	12362.61
828.805	12444.87
829.131	12352.44
829.458	12435.38
829.785	12345.66
830.111	12400.13
830.438	12441.25
830.764	12358.55
831.09	12341.82
831.417	12312.22
831.743	12320.13
832.069	12361.48
832.395	12365.32
832.722	12368.04
833.048	12245.55
833.374	12391.76
833.7	12267.7
834.026	12238.55
834.351	12319.68
834.677	12302.05
835.003	12302.73
835.329	12253.46
835.654	12224.09
835.98	12200.13
836.306	12175.27
836.631	12171.88
836.956	12256.63
837.282	12142.73
837.607	12067.03
837.932	12073.13
838.258	12154.71
838.583	12046.46
838.908	12049.4
839.233	12056.41
839.558	11953.81
839.883	11981.61
840.208	11947.48
840.533	11896.41
840.858	11970.76
841.182	11895.51
841.507	11863.87
841.832	11749.75
842.156	11761.95
842.481	11797.88
842.805	11792.46
843.13	11782.29
843.454	11740.26
843.778	11670.88
844.103	11624.55
844.427	11589.3
844.751	11662.52
845.075	11557.66
845.399	11563.76
845.723	11446.7
846.047	11519.92
846.371	11364.45
846.695	11385.01
847.019	11397.67
847.343	11279.25
847.666	11216.43
847.99	11142.31
848.313	11131.46
848.637	11114.74
848.96	11022.99
849.284	10982.08
849.607	10933.05
849.931	10975.3
850.254	10848.98
850.577	10798.13
850.9	10766.27
851.223	10712.94
851.546	10663.67
851.869	10532.83
852.192	10632.49
852.515	10457.8
852.838	10526.95
853.161	10494.41
853.483	10431.36
853.806	10399.95
854.129	10381.42
854.451	10390.46
854.774	10277.24
855.096	10237.47
855.419	10215.78
855.741	10240.63
856.063	10152.05
856.385	10094.42
856.708	10016.46
857.03	10079.96
857.352	10056.01
857.674	10019.4
857.996	9986.86
858.318	9936.01
858.64	9979.62
858.961	9948.44
859.283	9908.44
859.605	9797.48
859.926	9847.88
860.248	9821.44
860.57	9751.83
860.891	9789.57
861.212	9756.13
861.534	9675.9
861.855	9646.98
862.176	9644.72
862.498	9696.24
862.819	9610.14
863.14	9583.48
863.461	9618.05
863.782	9526.98
864.103	9537.6
864.424	9599.3
864.745	9511.39
865.065	9515.68
865.386	9468.45
865.707	9383.26
866.027	9523.82
866.348	9446.98
866.668	9452.86
866.989	9396.59
867.309	9392.07
867.63	9288.8
867.95	9319.53
868.27	9313.88
868.59	9340.32
868.91	9343.26
869.23	9284.95
869.55	9239.53
869.87	9282.69
870.19	9219.42
870.51	9272.98
870.83	9196.59
871.15	9173.77
871.469	9139.87
871.789	9204.96
872.109	9138.97
872.428	9082.47
872.748	9172.41
873.067	9174
873.386	9084.73
873.706	9093.55
874.025	9061.68
874.344	9001.57
874.663	9075.02
874.982	9036.37
875.301	9003.15
875.62	8997.73
875.939	8965.41
876.258	8970.16
876.577	8924.06
876.896	8938.52
877.214	8810.16
877.533	8893.78
877.852	8812.2
878.17	8900.1
878.489	8843.38
878.807	8813.1
879.125	8813.33
879.444	8880.22
879.762	8800.67
880.08	8788.24
880.398	8738.3
880.716	8810.84
881.034	8687.91
881.352	8728.81
881.67	8706.66
881.988	8722.48
882.306	8652.2
882.624	8644.74
882.941	8624.41
883.259	8640.68
883.577	8525.43
883.894	8590.28
884.212	8541.7
884.529	8507.35
884.846	8468.25
885.164	8454.92
885.481	8405.43
885.798	8463.51
886.115	8399.33
886.432	8449.27
886.75	8443.85
887.067	8438.42
887.383	8295.83
887.7	8341.25
888.017	8331.53
888.334	8294.47
888.651	8255.83
888.967	8245.43
889.284	8212.44
889.6	8257.86
889.917	8197.3
890.233	8146.9
890.55	8120.01
890.866	8152.33
891.182	8091.54
891.498	8027.81
891.815	7999.79
892.131	7975.84
892.447	7935.84
892.763	7928.61
893.079	7923.86
893.395	7945.1
893.71	7913.69
894.026	7867.59
894.342	7877.08
894.657	7757.08
894.973	7706.69
895.289	7769.74
895.604	7734.49
895.92	7636.18
896.235	7666.92
896.55	7672.34
896.865	7648.39
897.181	7620.59
897.496	7593.02
897.811	7560.25
898.126	7544.43
898.441	7525.68
898.756	7510.54
899.071	7469.63
899.386	7489.75
899.7	7369.52
900.015	7386.02
900.33	7320.71
900.644	7329.07
900.959	7308.06
901.273	7292.24
901.588	7188.74
901.902	7202.52
902.216	7169.3
902.531	7179.02
902.845	7192.58
903.159	7106.93
903.473	7034.62
903.787	7045.69
904.101	7081.62
904.415	7020.61
904.729	7019.02
905.042	6947.39
905.356	6901.51
905.67	6890.67
905.984	6920.72
906.297	6872.81
906.611	6770.44
906.924	6800.73
907.237	6763.66
907.551	6740.39
907.864	6671.69
908.177	6713.95
908.491	6705.13
908.804	6694.74
909.117	6683.67
909.43	6585.82
909.743	6582.88
910.056	6531.35
910.368	6521.18
910.681	6479.83
910.994	6534.97
911.307	6456.33
911.619	6424.69
911.932	6368.65
912.244	6326.84
912.557	6356.89
912.869	6305.37
913.181	6292.04
913.494	6304.47
913.806	6240.51
914.118	6231.47
914.43	6182.21
914.742	6189.44
915.054	6132.27
915.366	6151.25
915.678	6119.16
915.99	6073.96
916.302	6017.02
916.613	6002.78
916.925	6024.7
917.236	6009.33
917.548	5951.48
917.859	5970.92
918.171	5900.18
918.482	5850.24
918.794	5809.56
919.105	5840.52
919.416	5795.1
919.727	5737.25
920.038	5762.11
920.349	5713.75
920.66	5711.71
920.971	5729.57
921.282	5724.82
921.593	5608.89
921.903	5646.63
922.214	5629
922.525	5541.32
922.835	5580.87
923.146	5508.56
923.456	5493.41
923.767	5469.69
924.077	5465.17
924.387	5432.85
924.697	5429.91
925.008	5382.68
925.318	5396.92
925.628	5363.02
925.938	5382.01
926.248	5225.63
926.558	5251.84
926.867	5227.66
927.177	5264.95
927.487	5195.12
927.796	5148.34
928.106	5147.21
928.416	5161.67
928.725	5086.65
929.034	5067.44
929.344	5085.74
929.653	5022.92
929.962	5027.89
930.271	4984.28
930.581	5016.37
930.89	4997.83
931.199	4947.21
931.508	4898.4
931.817	4919.87
932.125	4925.75
932.434	4872.19
932.743	4829.48
933.051	4823.83
933.36	4819.31
933.669	4769.82
933.977	4780.44
934.286	4754.45
934.594	4695.7
934.902	4682.59
935.21	4610.95
935.519	4696.15
935.827	4693.89
936.135	4587.45
936.443	4590.61
936.751	4577.73
937.059	4589.94
937.367	4537.06
937.674	4555.59
937.982	4537.73
938.29	4513.78
938.597	4485.98
938.905	4446.21
939.213	4420.67
939.52	4405.76
939.827	4446.21
940.135	4381.81
940.442	4337.51
940.749	4372.31
941.056	4337.74
941.363	4276.5
941.67	4302.94
941.977	4262.71
942.284	4226.33
942.591	4205.09
942.898	4205.99
943.205	4180.46
943.511	4169.83
943.818	4154.24
944.125	4147.46
944.431	4123.28
944.738	4131.64
945.044	4104.07
945.35	4090.29
945.657	4048.93
945.963	4040.57
946.269	4039.44
946.575	4020.69
946.881	3994.47
947.187	3997.63
947.493	3974.36
947.799	3945.88
948.105	3915.83
948.41	3897.07
948.716	3899.11
949.022	3859.33
949.327	3874.93
949.633	3839.67
949.938	3830.63
950.244	3833.57
950.549	3768.26
950.854	3749.51
951.16	3828.6
951.465	3739.56
951.77	3690.75
952.075	3705.67
952.38	3741.37
952.685	3690.98
952.99	3641.71
953.294	3615.5
953.599	3648.27
953.904	3613.24
954.209	3614.14
954.513	3571.66
954.818	3608.94
955.122	3560.13
955.426	3557.19
955.731	3516.74
956.035	3502.28
956.339	3537.76
956.643	3470.42
956.948	3447.37
957.252	3451.21
957.556	3459.57
957.86	3424.09
958.163	3370.08
958.467	3374.37
958.771	3408.27
959.075	3362.62
959.378	3310.87
959.682	3332.12
959.985	3322.17
960.289	3292.79
960.592	3283.08
960.896	3312.46
961.199	3284.21
961.502	3248.95
961.805	3194.72
962.108	3230.2
962.411	3138.45
962.714	3192.68
963.017	3183.65
963.32	3205.57
963.623	3179.8
963.926	3142.74
964.228	3119.01
964.531	3089.41
964.833	3073.14
965.136	3087.6
965.438	3074.72
965.741	3040.15
966.043	3069.07
966.345	3036.98
966.648	3006.25
966.95	3016.87
967.252	3021.16
967.554	2970.09
967.856	2962.63
968.158	2920.38
968.46	2922.18
968.761	2951.11
969.063	2903.65
969.365	2871.11
969.666	2903.43
969.968	2853.48
970.269	2879.25
970.571	2834.5
970.872	2859.36
971.174	2820.72
971.475	2829.3
971.776	2814.16
972.077	2816.42
972.378	2763.77
972.679	2757.44
972.98	2775.29
973.281	2741.62
973.582	2756.31
973.883	2733.94
974.183	2680.61
974.484	2705.47
974.785	2697.78
975.085	2682.42
975.386	2705.24
975.686	2649.87
975.986	2629.54
976.287	2608.52
976.587	2600.16
976.887	2632.7
977.187	2594.06
977.487	2605.58
977.787	2559.25
978.087	2571.46
978.387	2562.19
978.687	2542.98
978.987	2550.44
979.286	2526.71
979.586	2530.1
979.885	2486.26
980.185	2492.82
980.484	2498.69
980.784	2455.98
981.083	2429.09
981.382	2479.03
981.682	2410.33
981.981	2449.43
982.28	2383.67
982.579	2399.03
982.878	2404.46
983.177	2389.09
983.475	2415.76
983.774	2353.38
984.073	2358.36
984.372	2341.41
984.67	2335.31
984.969	2338.02
985.267	2317.68
985.566	2295.31
985.864	2288.53
986.162	2278.13
986.461	2267.96
986.759	2256.21
987.057	2255.99
987.355	2252.14
987.653	2254.4
987.951	2237
988.249	2215.99
988.547	2207.85
988.844	2188.42
989.142	2218.7
989.44	2165.59
989.737	2129.21
990.035	2141.86
990.332	2125.14
990.63	2123.79
990.927	2140.73
991.224	2108.87
991.521	2110.23
991.819	2096.89
992.116	2072.49
992.413	2076.56
992.71	2052.15
993.006	2063.45
993.303	2040.85
993.6	2058.25
993.897	2037.46
994.193	2038.82
994.49	2022.55
994.787	2016.67
995.083	1998.59
995.379	1988.87
995.676	1993.62
995.972	1997.46
996.268	1972.38
996.565	1954.3
996.861	1935.99
997.157	1927.63
997.453	1892.15
997.749	1895.09
998.044	1897.8
998.34	1923.11
998.636	1895.77
998.932	1865.49
999.227	1860.29
999.523	1853.06
999.818	1844.02
1000.114	1835.66
1000.409	1844.25
1000.704	1851.02
1001	1800.18
1001.295	1772.16
1001.59	1813.29
1001.885	1761.54
1002.18	1781.65
1002.475	1770.57
1002.77	1778.26
1003.065	1741.88
1003.359	1733.74
1003.654	1723.34
1003.949	1731.25
1004.243	1698.71
1004.538	1690.35
1004.832	1705.49
1005.127	1691.93
1005.421	1673.85
1005.715	1666.85
1006.009	1681.54
1006.304	1653.97
1006.598	1630.01
1006.892	1634.08
1007.186	1625.95
1007.48	1622.78
1007.773	1588.88
1008.067	1585.27
1008.361	1597.92
1008.655	1599.51
1008.948	1542.33
1009.242	1579.17
1009.535	1569.68
1009.829	1546.85
1010.122	1566.29
1010.415	1526.97
1010.708	1530.58
1011.001	1516.8
1011.295	1519.06
1011.588	1485.16
1011.881	1503.46
1012.173	1485.38
1012.466	1470.7
1012.759	1452.62
1013.052	1470.47
1013.344	1457.14
1013.637	1447.65
1013.93	1418.72
1014.222	1437.25
1014.514	1436.8
1014.807	1434.99
1015.099	1403.58
1015.391	1369.46
1015.683	1390.47
1015.976	1379.85
1016.268	1380.75
1016.56	1340.76
1016.851	1364.71
1017.143	1346.41
1017.435	1351.15
1017.727	1317.25
1018.018	1333.07
1018.31	1323.13
1018.602	1334.88
1018.893	1324.26
1019.185	1289.68
1019.476	1276.35
1019.767	1267.76
1020.058	1264.6
1020.35	1259.85
1020.641	1263.7
1020.932	1259.18
1021.223	1250.14
1021.514	1250.36
1021.804	1213.08
1022.095	1192.51
1022.386	1206.97
1022.677	1167.43
1022.967	1191.83
1023.258	1192.51
1023.548	1167.43
1023.839	1186.86
1024.129	1187.31
1024.419	1169.91
1024.709	1151.61
1025	1128.11
1025.29	1122.91
1025.58	1134.89
1025.87	1138.73
1026.16	1094.21
1026.449	1094.43
1026.739	1112.51
1027.029	1092.85
1027.319	1106.86
1027.608	1090.37
1027.898	1065.51
1028.187	1065.28
1028.477	1057.37
1028.766	1098.28
1029.055	1047.2
1029.344	1046.53
1029.634	1023.25
1029.923	1014.21
1030.212	1037.71
1030.501	1020.31
1030.79	996.36
1031.078	1023.25
1031.367	1008.79
1031.656	1013.76
1031.945	986.19
1032.233	982.35
1032.522	982.35
1032.81	971.05
1033.099	966.75
1033.387	952.29
1033.675	948.45
1033.963	953.2
1034.251	956.13
1034.54	943.7
1034.828	920.2
1035.116	910.94
1035.403	915.23
1035.691	886.76
1035.979	909.35
1036.267	913.42
1036.554	912.74
1036.842	892.41
1037.129	873.42
1037.417	882.24
1037.704	871.16
1037.992	863.03
1038.279	856.02
1038.566	868.9
1038.853	868.9
1039.14	868.9
