Data from hue_120_FLMS001491_00091.txt Node
Date: Tue Feb 07 17:00:16 GMT 2017
User: dcchb
Spectrometer: FLMS00149
Trigger mode: 0
Integration Time (sec): 2.000000E-2
Scans to average: 10
Electric dark correction enabled: true
Nonlinearity correction enabled: false
Boxcar width: 0
XAxis mode: Wavelengths
Number of Pixels in Spectrum: 2048
>>>>>Begin Spectral Data<<<<<
341.393	-17.84
341.776	-17.84
342.16	-17.84
342.543	-61.23
342.927	-59.87
343.31	-66.88
343.693	-77.27
344.077	-61.23
344.46	-68.46
344.843	-30.95
345.226	-45.41
345.61	-30.72
345.993	-16.26
346.376	-16.71
346.759	16.51
347.142	35.04
347.525	36.4
347.908	51.99
348.291	79.79
348.674	84.98
349.057	109.16
349.44	127.24
349.823	137.64
350.206	163.17
350.588	196.39
350.971	225.09
351.354	231.42
351.737	249.73
352.119	245.66
352.502	246.79
352.884	287.69
353.267	269.16
353.65	277.52
354.032	286.33
354.414	291.31
354.797	316.62
355.179	298.99
355.562	315.71
355.944	313.45
356.326	326.56
356.709	333.11
357.091	318.88
357.473	324.3
357.855	324.53
358.238	351.87
358.62	340.57
359.002	343.96
359.384	344.64
359.766	332.66
360.148	334.02
360.53	333.79
360.912	333.11
361.294	318.65
361.676	332.66
362.057	331.3
362.439	315.49
362.821	309.16
363.203	337.86
363.584	315.49
363.966	308.25
364.348	328.59
364.729	319.55
365.111	322.04
365.493	321.81
365.874	321.81
366.256	303.28
366.637	316.84
367.019	322.72
367.4	334.47
367.781	310.06
368.163	304.41
368.544	304.64
368.925	305.54
369.306	309.16
369.688	320.46
370.069	291.31
370.45	323.62
370.831	320.46
371.212	298.76
371.593	321.14
371.974	306.45
372.355	304.64
372.736	334.24
373.117	308.25
373.498	308.03
373.879	316.39
374.26	306.9
374.641	298.99
375.021	308.25
375.402	331.76
375.783	305.54
376.163	327.24
376.544	338.31
376.925	313.23
377.305	316.39
377.686	327.46
378.066	324.53
378.447	318.42
378.827	297.41
379.208	318.2
379.588	320.23
379.968	330.63
380.349	325.43
380.729	338.54
381.109	348.03
381.489	330.85
381.87	343.28
382.25	346.45
382.63	334.92
383.01	329.5
383.39	339.44
383.77	336.28
384.15	334.69
384.53	357.52
384.91	347.8
385.29	347.58
385.67	343.51
386.049	348.93
386.429	349.84
386.809	364.52
387.189	371.3
387.568	353.9
387.948	336.73
388.328	350.06
388.707	330.4
389.087	363.62
389.466	369.95
389.846	364.75
390.225	351.42
390.605	369.5
390.984	376.95
391.363	378.99
391.743	364.52
392.122	376.95
392.501	373.11
392.881	387.8
393.26	357.74
393.639	370.85
394.018	389.16
394.397	387.12
394.776	361.13
395.155	383.96
395.534	376.28
395.913	379.21
396.292	387.12
396.671	385.09
397.05	392.77
397.429	390.74
397.808	378.31
398.186	388.25
398.565	385.99
398.944	387.8
399.323	399.1
399.701	394.58
400.08	406.33
400.458	365.65
400.837	403.62
401.215	404.75
401.594	415.14
401.972	411.3
402.351	428.03
402.729	400.46
403.107	427.35
403.486	428.25
403.864	418.99
404.242	421.25
404.62	441.58
404.999	430.96
405.377	429.83
405.755	430.29
406.133	423.51
406.511	434.8
406.889	421.92
407.267	443.84
407.645	425.77
408.023	443.39
408.401	437.97
408.779	449.27
409.156	432.09
409.534	458.08
409.912	448.59
410.29	447.91
410.667	446.33
411.045	467.57
411.422	470.28
411.8	449.95
412.178	477.74
412.555	474.8
412.933	489.27
413.31	510.06
413.687	500.34
414.065	488.59
414.442	487.91
414.819	489.94
415.197	491.53
415.574	498.98
415.951	496.27
416.328	503.73
416.705	499.89
417.082	492.66
417.46	504.86
417.837	517.29
418.214	500.57
418.591	516.61
418.967	522.49
419.344	524.75
419.721	555.71
420.098	522.94
420.475	537.63
420.852	531.07
421.228	539.21
421.605	555.71
421.982	533.11
422.358	536.27
422.735	565.87
423.111	557.74
423.488	573.78
423.864	561.58
424.241	581.69
424.617	562.71
424.994	586.67
425.37	574.46
425.746	591.41
426.123	591.86
426.499	603.61
426.875	604.29
427.251	602.71
427.627	606.78
428.003	626.21
428.379	630.96
428.756	621.24
429.132	638.87
429.507	616.5
429.883	651.75
430.259	655.14
430.635	652.43
431.011	667.34
431.387	669.6
431.763	682.93
432.138	680.9
432.514	689.26
432.89	680.9
433.265	688.58
433.641	706.44
434.016	714.35
434.392	714.35
434.767	721.13
435.143	727
435.518	739.43
435.894	743.95
436.269	735.14
436.644	748.7
437.02	739.43
437.395	767
437.77	761.58
438.145	771.75
438.52	779.2
438.895	768.13
439.271	789.82
439.646	795.93
440.021	798.86
440.395	828.01
440.77	804.29
441.145	795.7
441.52	807.22
441.895	813.55
442.27	814
442.645	828.92
443.019	835.47
443.394	848.81
443.769	857.17
444.143	872.99
444.518	865.98
444.892	858.52
445.267	864.62
445.641	858.52
446.016	867.56
446.39	885.64
446.764	899.88
447.139	882.48
447.513	908.46
447.887	879.54
448.262	894.91
448.636	888.8
449.01	913.21
449.384	944.62
449.758	963.6
450.132	950.72
450.506	943.04
450.88	950.5
451.254	967.9
451.628	956.83
452.002	989.14
452.376	974.9
452.75	1010.16
453.123	1007.45
453.497	1003.6
453.871	1017.61
454.244	1043.15
454.618	1042.02
454.992	1057.39
455.365	1049.93
455.739	1088.12
456.112	1096.48
456.486	1104.84
456.859	1122.02
457.232	1121.57
457.606	1126.76
457.979	1147.33
458.352	1172.41
458.725	1197.95
459.099	1199.08
459.472	1202.69
459.845	1216.93
460.218	1242.69
460.591	1252.64
460.964	1241.11
461.337	1274.33
461.71	1321.34
462.083	1294.22
462.456	1325.63
462.829	1320.66
463.201	1359.07
463.574	1351.84
463.947	1400.2
464.32	1393.2
464.692	1421.67
465.065	1460.77
465.438	1474.1
465.81	1498.05
466.183	1515
466.555	1525.17
466.928	1543.7
467.3	1566.75
467.672	1583.25
468.045	1599.97
468.417	1600.65
468.789	1636.36
469.161	1695.56
469.534	1726.07
469.906	1752.28
470.278	1797.26
470.65	1856.46
471.022	1865.95
471.394	1874.99
471.766	1891.49
472.138	1923.58
472.51	1978.49
472.882	2006.97
473.253	2058.27
473.625	2099.39
473.997	2156.79
474.369	2191.59
474.74	2206.51
475.112	2300.97
475.484	2325.6
475.855	2377.58
476.227	2415.09
476.598	2501.19
476.97	2560.62
477.341	2608.53
477.713	2691.24
478.084	2724.69
478.455	2802.65
478.827	2855.76
479.198	2961.52
479.569	3026.38
479.94	3107.05
480.311	3154.96
480.682	3300.72
481.053	3395.41
481.424	3495.06
481.795	3550.88
482.166	3688.73
482.537	3693.48
482.908	3825.9
483.279	3942.96
483.65	4034.94
484.021	4152
484.391	4271.31
484.762	4352.22
485.133	4415.72
485.503	4563.96
485.874	4659.1
486.244	4826.55
486.615	4918.08
486.985	5043.95
487.356	5186.77
487.726	5307.9
488.097	5508.57
488.467	5524.39
488.837	5709.24
489.207	5852.06
489.578	6057.93
489.948	6091.38
490.318	6194.65
490.688	6308.55
491.058	6518.94
491.428	6641.87
491.798	6780.63
492.168	6991.69
492.538	7018.81
492.908	7182.2
493.278	7319.82
493.648	7422.87
494.017	7577.22
494.387	7753.93
494.757	7893.82
495.126	7967.04
495.496	8106.92
495.866	8166.35
496.235	8346.01
496.605	8525.44
496.974	8625.32
497.344	8748.26
497.713	8830.29
498.082	8965.43
498.452	9103.96
498.821	9175.59
499.19	9262.14
499.559	9448.58
499.928	9566.09
500.298	9601.12
500.667	9705.07
501.036	9778.51
501.405	9911.17
501.774	9958.62
502.143	10135.79
502.512	10161.78
502.88	10306.18
503.249	10286.07
503.618	10430.93
503.987	10547.53
504.356	10589.79
504.724	10670.92
505.093	10728.09
505.462	10809.67
505.83	10961.31
506.199	11002.44
506.567	11183.9
506.936	11187.06
507.304	11300.73
507.672	11350.9
508.041	11444.23
508.409	11514.74
508.777	11530.33
509.145	11734.85
509.514	11735.75
509.882	11765.58
510.25	11857.56
510.618	11869.31
510.986	11931.45
511.354	12073.59
511.722	12107.04
512.09	12173.25
512.458	12149.3
512.826	12309.29
513.193	12408.05
513.561	12386.36
513.929	12468.16
514.297	12562.85
514.664	12586.8
515.032	12679.68
515.4	12667.25
515.767	12674.26
516.135	12815.04
516.502	12679.23
516.869	12890.97
517.237	12925.78
517.604	12849.39
517.972	13050.74
518.339	13033.12
518.706	12973.01
519.073	13015.27
519.44	13037.86
519.808	13181.59
520.175	13147.69
520.542	13308.82
520.909	13336.84
521.276	13246.9
521.643	13366.67
522.009	13416.84
522.376	13506.33
522.743	13439.89
523.11	13522.37
523.477	13530.51
523.843	13649.15
524.21	13734.12
524.577	13829.93
524.943	13749.94
525.31	13821.12
525.676	13906.32
526.043	13911.74
526.409	13912.64
526.776	14079.42
527.142	13963.26
527.508	13958.29
527.874	14023.37
528.241	14034.9
528.607	14102.92
528.973	14123.71
529.339	14059.98
529.705	14108.12
530.071	14168.68
530.437	14231.96
530.803	14245.52
531.169	14200.09
531.535	14214.1
531.901	14086.88
532.267	14168.91
532.632	14109.7
532.998	14212.97
533.364	14244.39
533.73	14137.04
534.095	14189.47
534.461	14187.89
534.826	14263.14
535.192	14193.09
535.557	14196.25
535.923	14105.41
536.288	14109.25
536.653	14211.17
537.019	14072.41
537.384	14111.96
537.749	14046.42
538.114	14089.36
538.479	14024.73
538.845	13983.38
539.21	13887.78
539.575	14034.22
539.94	13936.37
540.305	13927.33
540.67	13868.12
541.034	13966.65
541.399	14056.59
541.764	13850.72
542.129	13859.54
542.494	13785.41
542.858	13824.74
543.223	13731.63
543.587	13783.38
543.952	13721.24
544.316	13736.83
544.681	13696.38
545.045	13658.41
545.41	13692.31
545.774	13629.26
546.138	13547.45
546.503	13572.54
546.867	13528.92
547.231	13535.03
547.595	13546.78
547.959	13435.14
548.324	13454.8
548.688	13299.33
549.052	13362.83
549.416	13381.81
549.779	13269.95
550.143	13290.96
550.507	13312.21
550.871	13258.65
551.235	13242.15
551.599	13288.03
551.962	13194.7
552.326	13197.63
552.689	13225.66
553.053	13140.01
553.417	13080.57
553.78	13250.06
554.143	13032.67
554.507	13055.04
554.87	13065.89
555.234	13170.06
555.597	12990.41
555.96	13072.89
556.323	13111.76
556.686	13026.79
557.05	13013.01
557.413	13043.51
557.776	13001.71
558.139	13150.4
558.502	12998.09
558.865	12976.4
559.228	13056.85
559.59	13026.34
559.953	13021.37
560.316	13104.98
560.679	13081.25
561.041	13135.04
561.404	13078.09
561.767	13110.63
562.129	13059.78
562.492	13109.5
562.854	13144.75
563.217	13072.66
563.579	13092.55
563.941	13191.76
564.304	13122.38
564.666	13119.9
565.028	13113.12
565.39	13126
565.753	13138.88
566.115	13233.56
566.477	13266.33
566.839	13249.38
567.201	13275.6
567.563	13299.33
567.925	13233.79
568.287	13279.44
568.648	13299.33
569.01	13407.8
569.372	13392.88
569.734	13347.46
570.095	13372.09
570.457	13380.23
570.819	13396.95
571.18	13385.2
571.542	13480.56
571.903	13511.98
572.265	13502.03
572.626	13533.9
572.987	13545.42
573.349	13447.8
573.71	13552.65
574.071	13490.96
574.432	13568.7
574.794	13619.77
575.155	13601.92
575.516	13488.92
575.877	13628.81
576.238	13569.15
576.599	13640.79
576.96	13657.96
577.32	13659.32
577.681	13674.91
578.042	13674.23
578.403	13630.39
578.763	13482.37
579.124	13596.49
579.485	13698.19
579.845	13684.85
580.206	13619.77
580.566	13663.38
580.927	13543.61
581.287	13674.23
581.648	13594.46
582.008	13725.53
582.368	13561.47
582.728	13651.86
583.089	13610.28
583.449	13576.83
583.809	13568.02
584.169	13638.75
584.529	13544.06
584.889	13694.34
585.249	13570.05
585.609	13509.94
585.969	13592.43
586.329	13543.16
586.688	13566.21
587.048	13603.72
587.408	13542.71
587.768	13474.46
588.127	13510.39
588.487	13453.22
588.846	13620.67
589.206	13411.86
589.565	13462.49
589.925	13569.15
590.284	13458.42
590.643	13463.16
591.003	13484.41
591.362	13544.52
591.721	13505.87
592.08	13468.59
592.44	13454.8
592.799	13467.46
593.158	13415.25
593.517	13429.04
593.876	13425.42
594.235	13355.82
594.593	13387.01
594.952	13416.16
595.311	13341.13
595.67	13323.05
596.029	13451.64
596.387	13454.58
596.746	13414.58
597.104	13305.88
597.463	13344.52
597.822	13338.42
598.18	13277.86
598.538	13356.73
598.897	13420
599.255	13340.45
599.613	13464.74
599.972	13322.15
600.33	13310.17
600.688	13333.45
601.046	13386.78
601.404	13430.17
601.762	13365.99
602.12	13362.6
602.478	13445.99
602.836	13376.61
603.194	13324.18
603.552	13457.06
603.91	13307.91
604.268	13368.7
604.625	13337.29
604.983	13306.1
605.341	13290.74
605.698	13417.74
606.056	13467.23
606.413	13448.7
606.771	13344.52
607.128	13426.78
607.485	13302.72
607.843	13307.46
608.2	13492.09
608.557	13494.57
608.914	13470.85
609.272	13418.19
609.629	13532.77
609.986	13564.18
610.343	13431.07
610.7	13622.93
611.057	13470.85
611.414	13555.14
611.771	13521.01
612.127	13580.45
612.484	13583.84
612.841	13563.5
613.198	13461.13
613.554	13565.76
613.911	13688.92
614.267	13592.65
614.624	13550.39
614.98	13649.6
615.337	13652.08
615.693	13681.46
616.05	13586.32
616.406	13692.54
616.762	13648.69
617.118	13681.69
617.475	13644.63
617.831	13677.17
618.187	13697.96
618.543	13711.97
618.899	13792.42
619.255	13780.22
619.611	13746.32
619.967	13848.92
620.323	13785.19
620.678	13821.12
621.034	13757.84
621.39	13738.86
621.746	13747.22
622.101	13853.66
622.457	13660.67
622.812	13738.86
623.168	13748.13
623.523	13779.99
623.879	13779.09
624.234	13777.5
624.589	13877.84
624.945	13721.69
625.3	13771.86
625.655	13799.88
626.01	13760.56
626.365	13835.58
626.72	13732.99
627.075	13784.96
627.43	13737.05
627.785	13657.06
628.14	13757.84
628.495	13793.32
628.85	13729.6
629.205	13787
629.559	13761.69
629.914	13736.15
630.269	13723.95
630.623	13696.15
630.978	13681.24
631.332	13762.82
631.687	13726.21
632.041	13727.56
632.396	13668.13
632.75	13594.68
633.104	13670.39
633.459	13556.49
633.813	13607.34
634.167	13632.2
634.521	13629.49
634.875	13511.07
635.229	13527.34
635.583	13458.64
635.937	13493.9
636.291	13483.28
636.645	13492.31
636.999	13459.32
637.352	13376.84
637.706	13391.53
638.06	13428.59
638.413	13410.28
638.767	13412.77
639.121	13388.14
639.474	13327.35
639.828	13248.71
640.181	13324.64
640.534	13284.64
640.888	13304.75
641.241	13153.11
641.594	13288.25
641.947	13317.86
642.301	13192.66
642.654	13209.61
643.007	13280.57
643.36	13228.59
643.713	13163.96
644.066	13238.31
644.419	13104.98
644.771	13099.56
645.124	12968.03
645.477	12919.9
645.83	12942.5
646.182	12893.69
646.535	12801.94
646.888	12816.17
647.24	12775.5
647.593	12778.89
647.945	12768.72
648.298	12758.77
648.65	12750.41
649.002	12747.93
649.355	12752.67
649.707	12818.66
650.059	12831.99
650.411	12985.44
650.763	12967.58
651.115	13069.28
651.467	13019.78
651.819	13046.68
652.171	12954.48
652.523	12994.25
652.875	13027.47
653.227	12949.96
653.578	13074.7
653.93	13014.59
654.282	12857.53
654.633	12935.04
654.985	12999.22
655.337	12943.85
655.688	13033.8
656.039	13009.84
656.391	12920.8
656.742	12981.37
657.094	12967.13
657.445	13008.94
657.796	13014.36
658.147	12958.77
658.498	12962.61
658.849	12997.64
659.2	13022.95
659.551	12966.45
659.902	13101.59
660.253	13067.02
660.604	13059.33
660.955	13022.04
661.306	13030.18
661.656	12970.75
662.007	13078.77
662.358	13054.13
662.708	13037.86
663.059	13041.48
663.409	12943.63
663.76	13112.21
664.11	13133.23
664.461	13002.61
664.811	13100.01
665.161	13009.39
665.511	13080.8
665.862	13052.1
666.212	13095.04
666.562	13102.04
666.912	13072.21
667.262	13022.72
667.612	13025.66
667.962	13089.16
668.312	13021.82
668.662	13072.21
669.011	13062.04
669.361	12896.85
669.711	12975.27
670.06	13031.99
670.41	12963.06
670.76	12899.34
671.109	12987.92
671.459	13016.85
671.808	12953.35
672.157	12967.13
672.507	12955.61
672.856	12857.98
673.205	12874.25
673.554	12965.1
673.904	12949.96
674.253	12970.52
674.602	13006.9
674.951	12717.87
675.3	12709.74
675.649	12920.58
675.998	12873.35
676.346	12834.93
676.695	12872.9
677.044	12862.73
677.393	12802.62
677.741	12822.5
678.09	12827.47
678.438	12714.71
678.787	12790.41
679.135	12831.77
679.484	12575.28
679.832	12683.07
680.181	12615.5
680.529	12624.77
680.877	12610.08
681.225	12575.95
681.573	12649.85
681.922	12547.93
682.27	12578.89
682.618	12591.1
682.966	12540.7
683.314	12495.5
683.661	12494.6
684.009	12402.85
684.357	12325.79
684.705	12309.52
685.053	12396.75
685.4	12339.35
685.748	12262.74
686.095	12267.94
686.443	12268.17
686.79	12271.1
687.138	12260.71
687.485	12265.68
687.832	12229.98
688.18	12246.25
688.527	12208.73
688.874	12075.85
689.221	12061.39
689.568	11969.19
689.915	11971
690.262	11996.08
690.609	11961.73
690.956	11895.07
691.303	11895.07
691.65	11802.64
691.997	11831.34
692.344	11722.42
692.69	11749.54
693.037	11663.89
693.383	11644.23
693.73	11724
694.077	11553.83
694.423	11531.69
694.769	11511.12
695.116	11393.84
695.462	11417.12
695.808	11458.24
696.155	11402.65
696.501	11331.69
696.847	11267.06
697.193	11158.59
697.539	11206.95
697.885	11141.19
698.231	11076.56
698.577	11150
698.923	11008.76
699.269	11011.25
699.614	10922.66
699.96	10931.25
700.306	10888.09
700.651	10885.38
700.997	10830.92
701.342	10838.83
701.688	10811.71
702.033	10670.92
702.379	10708.89
702.724	10639.73
703.069	10643.12
703.415	10447.2
703.76	10591.15
704.105	10510.92
704.45	10460.3
704.795	10387.99
705.14	10402.45
705.485	10267.99
705.83	10320.87
706.175	10348.67
706.52	10224.38
706.865	10286.07
707.209	10288.56
707.554	10202.91
707.899	10138.73
708.243	10097.6
708.588	10141.22
708.932	10012.41
709.277	10005.17
709.621	10035.46
709.966	9943.48
710.31	9993.2
710.654	9925.85
710.998	9848.34
711.342	9908.68
711.687	9849.02
712.031	9797.72
712.375	9700.78
712.719	9795.46
713.063	9736.48
713.407	9785.75
713.75	9675.69
714.094	9697.61
714.438	9673.88
714.782	9700.55
715.125	9599.99
715.469	9659.87
715.812	9599.99
716.156	9569.71
716.499	9536.26
716.843	9576.03
717.186	9574.9
717.53	9577.39
717.873	9568.8
718.216	9577.39
718.559	9495.58
718.902	9408.58
719.246	9447.9
719.589	9439.31
719.932	9442.93
720.275	9416.49
720.617	9367.23
720.96	9381.91
721.303	9389.15
721.646	9345.76
721.989	9326.1
722.331	9384.17
722.674	9318.64
723.016	9301.92
723.359	9304.4
723.701	9342.59
724.044	9268.25
724.386	9218.75
724.729	9249.26
725.071	9284.29
725.413	9295.59
725.755	9236.61
726.097	9179.89
726.439	9167.46
726.782	9167
727.124	9208.59
727.465	9174.46
727.807	9223.05
728.149	9134.46
728.491	9128.81
728.833	9157.97
729.175	9170.62
729.516	9093.79
729.858	9150.06
730.199	9138.76
730.541	9091.53
730.882	9077.06
731.224	9111.19
731.565	9045.88
731.906	9094.24
732.248	9092.88
732.589	9088.36
732.93	9022.6
733.271	9020.79
733.612	9077.29
733.953	9090.17
734.294	9086.33
734.635	9072.54
734.976	9101.92
735.317	9040.68
735.658	9094.46
735.999	9122.03
736.339	9047.46
736.68	9087.23
737.021	9038.65
737.361	9102.37
737.702	9117.29
738.042	9059.66
738.383	9064.86
738.723	9161.36
739.063	9057.86
739.404	9163.61
739.744	9117.29
740.084	9187.57
740.424	9174.69
740.764	9151.19
741.104	9237.96
741.444	9221.69
741.784	9128.36
742.124	9214.91
742.464	9200.68
742.804	9253.56
743.143	9248.81
743.483	9302.14
743.823	9300.11
744.162	9255.82
744.502	9289.94
744.841	9314.35
745.181	9420.11
745.52	9408.81
745.86	9413.1
746.199	9430.05
746.538	9473.66
746.877	9579.65
747.216	9561.57
747.556	9671.17
747.895	9657.39
748.234	9726.76
748.573	9750.49
748.911	9837.5
749.25	9877.04
749.589	9875.91
749.928	10039.3
750.267	10111.84
750.605	10133.98
750.944	10250.37
751.283	10280.42
751.621	10370.14
751.96	10397.48
752.298	10464.15
752.636	10609.23
752.975	10606.74
753.313	10721.31
753.651	10880.63
753.989	10917.02
754.327	11044.47
754.666	11135.09
755.004	11330.34
755.342	11470
755.679	11530.33
756.017	11587.73
756.355	11792.02
756.693	11810.1
757.031	12029.75
757.368	12139.13
757.706	12250.31
758.044	12416.86
758.381	12506.35
758.719	12739.11
759.056	12822.95
759.394	13064.3
759.731	13170.06
760.068	13271.08
760.405	13468.13
760.743	13560.34
761.08	13782.93
761.417	13733.21
761.754	14001.91
762.091	14179.08
762.428	14369.58
762.765	14456.81
763.102	14620.87
763.438	14740.64
763.775	14901.54
764.112	15103.35
764.449	15260.63
764.785	15296.79
765.122	15431.47
765.458	15594.41
765.795	15836.66
766.131	15924.79
766.467	16001.18
766.804	16241.62
767.14	16190.55
767.476	16355.52
767.812	16539.47
768.148	16644.32
768.485	16675.06
768.821	16783.08
769.157	16983.52
769.492	17027.59
769.828	17123.18
770.164	17170.41
770.5	17326.34
770.836	17396.62
771.171	17435.04
771.507	17554.13
771.842	17563.62
772.178	17680.23
772.513	17749.6
772.849	17921.12
773.184	17935.59
773.519	18046.77
773.855	17997.73
774.19	18075.47
774.525	18119.76
774.86	18338.06
775.195	18220.55
775.53	18329.93
775.865	18293.32
776.2	18328.12
776.535	18278.63
776.87	18316.37
777.205	18373.09
777.539	18345.52
777.874	18465.97
778.209	18499.41
778.543	18462.13
778.878	18477.27
779.212	18463.48
779.547	18465.29
779.881	18488.79
780.215	18500.77
780.55	18616.93
780.884	18549.36
781.218	18457.61
781.552	18595.01
781.886	18605.85
782.22	18514.33
782.554	18586.64
782.888	18458.74
783.222	18426.65
783.556	18310.49
783.889	18361.79
784.223	18390.04
784.557	18338.29
784.89	18410.83
785.224	18365.18
785.557	18286.31
785.891	18234.11
786.224	18254
786.558	18393.88
786.891	18208.35
787.224	18184.62
787.557	18205.86
787.891	18061.69
788.224	18049.26
788.557	18145.3
788.89	18219.87
789.223	18142.81
789.556	18138.52
789.888	18042.25
790.221	17960.9
790.554	17896.04
790.887	17806.55
791.219	17914.8
791.552	17795.7
791.884	17811.75
792.217	17709.15
792.549	17684.97
792.882	17687.23
793.214	17502.83
793.546	17642.94
793.879	17414.7
794.211	17493.79
794.543	17489.05
794.875	17472.1
795.207	17454.7
795.539	17457.41
795.871	17424.19
796.203	17220.8
796.535	17162.5
796.867	17213.57
797.198	17120.02
797.53	17169.96
797.862	16991.43
798.193	17046.12
798.525	16965.44
798.856	17046.8
799.188	16889.29
799.519	16796.41
799.85	16780.14
800.182	16878.44
800.513	16710.76
800.844	16668.5
801.175	16759.8
801.506	16767.48
801.837	16602.74
802.168	16608.84
802.499	16520.03
802.83	16456.98
803.161	16447.49
803.491	16560.71
803.822	16375.4
804.153	16289.3
804.483	16217.44
804.814	16104.22
805.145	16202.3
805.475	16153.49
805.805	16127.73
806.136	16118.69
806.466	16113.04
806.796	16084.11
807.126	16007.73
807.457	15860.84
807.787	15945.58
808.117	15784.01
808.447	15780.16
808.777	15886.83
809.107	15787.85
809.436	15596.89
809.766	15716.89
810.096	15573.16
810.426	15628.98
810.755	15565.25
811.085	15627.85
811.414	15573.39
811.744	15416.78
812.073	15379.95
812.403	15384.24
812.732	15392.38
813.061	15337.46
813.39	15230.35
813.719	15144.7
814.049	15311.93
814.378	15203
814.707	15181.99
815.036	15122.1
815.365	15051.82
815.693	14993.29
816.022	15086.17
816.351	14944.03
816.68	14889.34
817.008	14982.22
817.337	14825.84
817.665	14797.37
817.994	14832.39
818.322	14852.05
818.651	14798.72
818.979	14788.1
819.307	14803.01
819.636	14722.56
819.964	14640.99
820.292	14728.21
820.62	14723.02
820.948	14670.36
821.276	14709.91
821.604	14638.05
821.932	14753.3
822.259	14708.78
822.587	14688.67
822.915	14583.36
823.243	14661.55
823.57	14563.02
823.898	14700.64
824.225	14563.25
824.553	14609.57
824.88	14564.83
825.207	14600.08
825.535	14603.02
825.862	14675.79
826.189	14541.55
826.516	14708.1
826.843	14577.94
827.17	14664.71
827.497	14691.83
827.824	14651.83
828.151	14711.49
828.478	14685.05
828.805	14720.08
829.131	14625.39
829.458	14539.97
829.785	14556.92
830.111	14629.69
830.438	14637.14
830.764	14599.4
831.09	14699.97
831.417	14510.59
831.743	14628.78
832.069	14612.29
832.395	14581.1
832.722	14647.09
833.048	14590.14
833.374	14494.77
833.7	14498.39
834.026	14498.39
834.351	14532.29
834.677	14506.3
835.003	14619.06
835.329	14412.97
835.654	14435.34
835.98	14427.66
836.306	14424.27
836.631	14414.1
836.956	14440.76
837.282	14460.88
837.607	14367.09
837.932	14289.81
838.258	14306.76
838.583	14222.92
838.908	14201.22
839.233	14217.95
839.558	14198.51
839.883	14217.72
840.208	14052.53
840.533	14121.68
840.858	14068.8
841.182	14147.89
841.507	14151.05
841.832	13972.3
842.156	13992.41
842.481	14011.85
842.805	13881.23
843.13	13896.82
843.454	13852.31
843.778	13845.07
844.103	13797.17
844.427	13812.53
844.751	13771.86
845.075	13793.1
845.399	13679.65
845.723	13606.44
846.047	13639.88
846.371	13472.43
846.695	13582.93
847.019	13423.62
847.343	13385.42
847.666	13267.46
847.99	13341.36
848.313	13300
848.637	13157.18
848.96	13154.24
849.284	13107.01
849.607	13084.42
849.931	12993.34
850.254	12977.98
850.577	12808.72
850.9	12812.33
851.223	12753.8
851.546	12770.3
851.869	12556.52
852.192	12653.69
852.515	12511.32
852.838	12415.96
853.161	12517.65
853.483	12436.52
853.806	12331.89
854.129	12328.05
854.451	12358.79
854.774	12218.45
855.096	12185.46
855.419	12125.35
855.741	12085.12
856.063	12082.86
856.385	12004.22
856.708	12025.91
857.03	12006.93
857.352	11947.5
857.674	11929.64
857.996	11940.72
858.318	11767.39
858.64	11744.34
858.961	11785.01
859.283	11626.6
859.605	11627.73
859.926	11690.55
860.248	11742.53
860.57	11636.09
860.891	11592.48
861.212	11570.11
861.534	11494.4
861.855	11505.25
862.176	11544.8
862.498	11493.27
862.819	11563.55
863.14	11379.15
863.461	11419.83
863.782	11354.29
864.103	11424.35
864.424	11397
864.745	11274.75
865.065	11295.31
865.386	11304.8
865.707	11232.26
866.027	11251.02
866.348	11179.61
866.668	11175.77
866.989	11195.65
867.309	11072.49
867.63	11090.57
867.95	11099.38
868.27	10979.39
868.59	11071.59
868.91	11023
869.23	11031.59
869.55	10960.86
869.87	10961.08
870.19	11011.93
870.51	10978.93
870.83	11003.11
871.15	10898.71
871.469	10915.66
871.789	10921.76
872.109	10918.37
872.428	10821.88
872.748	10882.89
873.067	10802.44
873.386	10853.51
873.706	10805.61
874.025	10710.92
874.344	10703.46
874.663	10745.72
874.982	10696.68
875.301	10661.43
875.62	10704.82
875.939	10694.42
876.258	10662.56
876.577	10659.17
876.896	10676.34
877.214	10564.93
877.533	10571.04
877.852	10545.73
878.17	10608.32
878.489	10559.74
878.807	10511.38
879.125	10533.3
879.444	10485.84
879.762	10526.74
880.08	10439.74
880.398	10375.33
880.716	10438.61
881.034	10356.13
881.352	10387.09
881.67	10342.57
881.988	10338.5
882.306	10248.33
882.624	10308.22
882.941	10203.59
883.259	10220.54
883.577	10310.25
883.894	10143.93
884.212	10119.97
884.529	10200.42
884.846	10148.45
885.164	10095.57
885.481	10076.59
885.798	10111.39
886.115	9997.94
886.432	9958.4
886.75	9909.81
887.067	10016.02
887.383	9925.4
887.7	9966.76
888.017	9932.86
888.334	9873.65
888.651	9842.69
888.967	9779.64
889.284	9813.09
889.6	9724.96
889.917	9624.85
890.233	9724.73
890.55	9535.81
890.866	9658.52
891.182	9641.12
891.498	9503.04
891.815	9567.67
892.131	9536.49
892.447	9470.5
892.763	9405.42
893.079	9424.85
893.395	9453.1
893.71	9414
894.026	9391.86
894.342	9330.84
894.657	9248.58
894.973	9218.75
895.289	9238.42
895.604	9250.62
895.92	9150.06
896.235	9103.5
896.55	9079.78
896.865	9052.21
897.181	9046.78
897.496	9076.61
897.811	9061.24
898.126	8921.81
898.441	8878.65
898.756	8921.81
899.071	8805.43
899.386	8854.47
899.7	8751.87
900.015	8705.77
900.33	8638.21
900.644	8726.11
900.959	8692.21
901.273	8646.79
901.588	8593.69
901.902	8555.72
902.216	8523.41
902.531	8484.08
902.845	8447.7
903.159	8463.75
903.473	8384.43
903.787	8380.58
904.101	8317.31
904.415	8276.41
904.729	8271.89
905.042	8178.56
905.356	8192.79
905.67	8207.93
905.984	8160.48
906.297	8167.26
906.611	8029.18
906.924	8079.58
907.237	8103.98
907.551	8035.96
907.864	7945.12
908.177	7956.42
908.491	7980.37
908.804	7866.47
909.117	7794.16
909.43	7741.96
909.743	7729.98
910.056	7697.89
910.368	7720.72
910.681	7725.23
910.994	7634.16
911.307	7624.22
911.619	7555.75
911.932	7584.45
912.244	7470.55
912.557	7526.37
912.869	7463.32
913.181	7459.03
913.494	7391.68
913.806	7312.36
914.118	7384.23
914.43	7283.44
914.742	7292.25
915.054	7231.24
915.366	7222.42
915.678	7262.65
915.99	7149.2
916.302	7129.54
916.613	7091.81
916.925	7071.92
917.236	7010.45
917.548	6988.98
917.859	7058.81
918.171	6928.42
918.482	6878.03
918.794	6895.65
919.105	6879.38
919.416	6798.48
919.727	6772.72
920.038	6832.6
920.349	6741.98
920.66	6754.64
920.971	6706.05
921.282	6695.66
921.593	6652.72
921.903	6636.9
922.214	6594.64
922.525	6574.08
922.835	6561.88
923.146	6569.11
923.456	6465.83
923.767	6450.01
924.077	6463.35
924.387	6427.19
924.697	6385.38
925.008	6371.15
925.318	6322.33
925.628	6267.87
925.938	6267.65
926.248	6220.42
926.558	6205.95
926.867	6166.86
927.177	6192.39
927.487	6137.71
927.796	6163.92
928.106	6095.45
928.416	6074.2
928.725	6048.22
929.034	5966.18
929.344	6000.31
929.653	5988.56
929.962	5904.27
930.271	5924.6
930.581	5928.67
930.89	5890.48
931.199	5793.99
931.508	5821.78
931.817	5780.2
932.125	5796.02
932.434	5717.38
932.743	5711.5
933.051	5728
933.36	5670.37
933.669	5681.22
933.977	5669.47
934.286	5614.78
934.594	5576.59
934.902	5521
935.21	5531.85
935.519	5567.33
935.827	5511.73
936.135	5466.76
936.443	5468.8
936.751	5406.88
937.059	5443.26
937.367	5339.31
937.674	5383.15
937.982	5370.27
938.29	5342.02
938.597	5324.17
938.905	5280.55
939.213	5261.34
939.52	5224.74
939.827	5214.57
940.135	5153.32
940.442	5141.12
940.749	5131.4
941.056	5189.93
941.363	5108.81
941.67	5058.19
941.977	5101.57
942.284	5027.45
942.591	4971.86
942.898	4991.07
943.205	4929.15
943.511	4914.24
943.818	5011.41
944.125	4892.77
944.431	4851.64
944.738	4910.39
945.044	4788.59
945.35	4806.44
945.657	4784.75
945.963	4712.88
946.269	4784.07
946.575	4705.43
946.881	4729.38
947.187	4665.2
947.493	4672.89
947.799	4688.7
948.105	4638.76
948.41	4651.19
948.716	4617.07
949.022	4597.41
949.327	4554.47
949.633	4538.43
949.938	4545.21
950.244	4556.05
950.549	4450.52
950.854	4453.91
951.16	4450.74
951.465	4454.81
951.77	4393.8
952.075	4372.78
952.38	4388.15
952.685	4372.55
952.99	4331.43
953.294	4312.44
953.599	4282.16
953.904	4257.53
954.209	4258.43
954.513	4224.08
954.818	4195.84
955.122	4197.87
955.426	4211.65
955.731	4175.95
956.035	4175.72
956.339	4110.19
956.643	4105.44
956.948	4122.17
957.252	4108.15
957.556	4014.82
957.86	4068.61
958.163	4029.96
958.467	4026.12
958.771	3993.36
959.075	3995.16
959.378	3953.81
959.682	3901.15
959.985	3907.03
960.289	3896.86
960.592	3906.58
960.896	3862.29
961.199	3878.1
961.502	3794.04
961.805	3824.09
962.108	3792.68
962.411	3774.38
962.714	3767.6
963.017	3776.86
963.32	3743.19
963.623	3754.72
963.926	3726.24
964.228	3678.79
964.531	3676.98
964.833	3657.77
965.136	3641.5
965.438	3591.56
965.741	3616.19
966.043	3586.81
966.345	3578.68
966.648	3593.59
966.95	3539.81
967.252	3559.69
967.554	3547.49
967.856	3537.77
968.158	3456.65
968.46	3470.43
968.761	3458.45
969.063	3467.72
969.365	3473.82
969.666	3432.69
969.968	3405.12
970.269	3350.21
970.571	3371.68
970.872	3371.45
971.174	3354.05
971.475	3372.81
971.776	3287.84
972.077	3301.17
972.378	3278.57
972.679	3323.77
972.98	3267.05
973.281	3223.43
973.582	3249.65
973.883	3210.78
974.183	3186.37
974.484	3191.12
974.785	3226.6
975.085	3123.77
975.386	3178.01
975.686	3133.72
975.986	3125.13
976.287	3093.27
976.587	3087.16
976.887	3053.72
977.187	3041.29
977.487	3059.59
977.787	3040.61
978.087	2995.42
978.387	3005.58
978.687	2996.55
978.987	2987.73
979.286	2977.79
979.586	2931.24
979.885	2922.88
980.185	2921.97
980.484	2912.25
980.784	2888.98
981.083	2920.84
981.382	2897.57
981.682	2862.09
981.981	2825.25
982.28	2846.27
982.579	2844.23
982.878	2838.13
983.177	2826.61
983.475	2814.4
983.774	2773.27
984.073	2791.81
984.372	2743.44
984.67	2716.55
984.969	2745.93
985.267	2739.15
985.566	2701.41
985.864	2704.8
986.162	2688.98
986.461	2665.93
986.759	2654.18
987.057	2632.71
987.355	2597.46
987.653	2624.8
987.951	2605.37
988.249	2613.5
988.547	2583.68
988.844	2552.94
989.142	2602.66
989.44	2562.43
989.737	2535.77
990.035	2515.2
990.332	2507.74
990.63	2507.07
990.927	2502.1
991.224	2462.1
991.521	2453.51
991.819	2437.24
992.116	2466.16
992.413	2436.11
992.71	2427.07
993.006	2385.26
993.303	2401.76
993.6	2401.53
993.897	2399.73
994.193	2377.8
994.49	2367.18
994.787	2341.42
995.083	2334.42
995.379	2318.15
995.676	2309.56
995.972	2320.86
996.268	2289.67
996.565	2299.84
996.861	2241.76
997.157	2247.41
997.453	2240.41
997.749	2265.27
998.044	2212.61
998.34	2198.15
998.636	2243.12
998.932	2210.35
999.227	2181.43
999.523	2154.08
999.818	2157.25
1000.114	2145.72
1000.409	2098.49
1000.704	2096.68
1001	2079.96
1001.295	2106.17
1001.59	2094.42
1001.885	2065.72
1002.18	2027.31
1002.475	2027.53
1002.77	2031.6
1003.065	2006.97
1003.359	1991.37
1003.654	2008.77
1003.949	1975.78
1004.243	1981.43
1004.538	1999.51
1004.832	1950.47
1005.127	1961.54
1005.421	1938.49
1005.715	1924.03
1006.009	1908.66
1006.304	1874.09
1006.598	1896.91
1006.892	1868.89
1007.186	1841.77
1007.48	1812.17
1007.773	1874.32
1008.067	1851.72
1008.361	1840.19
1008.655	1831.6
1008.948	1826.86
1009.242	1806.75
1009.535	1834.09
1009.829	1791.61
1010.122	1757.03
1010.415	1774.43
1010.708	1750.93
1011.001	1724.94
1011.295	1738.27
1011.588	1705.73
1011.881	1727.88
1012.173	1691.04
1012.466	1718.84
1012.759	1682
1013.052	1658.73
1013.344	1681.78
1013.637	1661.67
1013.93	1638.16
1014.222	1649.24
1014.514	1631.16
1014.807	1625.28
1015.099	1560.43
1015.391	1597.26
1015.683	1606.3
1015.976	1568.56
1016.268	1568.79
1016.56	1589.12
1016.851	1553.87
1017.143	1530.82
1017.435	1527.21
1017.727	1487.88
1018.018	1553.87
1018.31	1497.6
1018.602	1500.31
1018.893	1488.34
1019.185	1472.74
1019.476	1462.8
1019.767	1450.37
1020.058	1457.6
1020.35	1437.49
1020.641	1449.92
1020.932	1413.08
1021.223	1446.98
1021.514	1377.83
1021.804	1387.55
1022.095	1365.85
1022.386	1368.57
1022.677	1346.42
1022.967	1355.01
1023.258	1373.31
1023.548	1349.58
1023.839	1349.58
1024.129	1331.05
1024.419	1318.85
1024.709	1310.49
1025	1296.48
1025.29	1291.28
1025.58	1279.08
1025.87	1274.1
1026.16	1232.98
1026.449	1239.98
1026.739	1247.44
1027.029	1242.47
1027.319	1250.38
1027.608	1223.94
1027.898	1219.19
1028.187	1211.06
1028.477	1190.72
1028.766	1199.3
1029.055	1180.55
1029.344	1154.33
1029.634	1170.38
1029.923	1159.31
1030.212	1143.03
1030.501	1126.54
1030.79	1135.35
1031.078	1146.88
1031.367	1121.57
1031.656	1117.72
1031.945	1117.05
1032.233	1112.08
1032.522	1105.97
1032.81	1098.52
1033.099	1098.74
1033.387	1077.05
1033.675	1076.6
1033.963	1055.81
1034.251	1056.94
1034.54	1068.46
1034.828	1031.17
1035.116	1028.69
1035.403	1042.92
1035.691	1036.15
1035.979	1023.72
1036.267	1004.73
1036.554	989.82
1036.842	996.15
1037.129	970.84
1037.417	1008.12
1037.704	982.59
1037.992	973.55
1038.279	954.57
1038.566	973.55
1038.853	973.55
1039.14	973.55
