Data from hue_38_FLMS001491_00074.txt Node
Date: Tue Feb 07 17:31:57 GMT 2017
User: dcchb
Spectrometer: FLMS00149
Trigger mode: 0
Integration Time (sec): 2.000000E-2
Scans to average: 10
Electric dark correction enabled: true
Nonlinearity correction enabled: false
Boxcar width: 0
XAxis mode: Wavelengths
Number of Pixels in Spectrum: 2048
>>>>>Begin Spectral Data<<<<<
341.393	-9.51
341.776	-9.51
342.16	-9.51
342.543	-59.9
342.927	-52.44
343.31	-64.65
343.693	-78.88
344.077	-72.33
344.46	-76.62
344.843	-47.24
345.226	-30.52
345.61	-21.71
345.993	-23.74
346.376	-7.25
346.759	5.86
347.142	26.2
347.525	31.4
347.908	71.4
348.291	84.73
348.674	105.97
349.057	97.38
349.44	120.66
349.823	136.93
350.206	155.91
350.588	200.43
350.971	211.05
351.354	206.31
351.737	238.85
352.119	278.62
352.502	264.61
352.884	281.56
353.267	310.26
353.65	283.82
354.032	277.94
354.414	294.89
354.797	299.19
355.179	326.53
355.562	324.05
355.944	319.53
356.326	334.67
356.709	340.32
357.091	324.72
357.473	359.75
357.855	351.16
358.238	346.64
358.62	338.06
359.002	358.39
359.384	349.58
359.766	352.97
360.148	346.87
360.53	368.34
360.912	319.3
361.294	325.85
361.676	328.79
362.057	351.62
362.439	340.54
362.821	334.67
363.203	342.35
363.584	332.18
363.966	323.59
364.348	335.57
364.729	319.3
365.111	320.2
365.493	328.56
365.874	314.55
366.256	325.63
366.637	324.05
367.019	318.4
367.4	322.01
367.781	329.47
368.163	305.74
368.544	300.99
368.925	319.53
369.306	320.43
369.688	327.21
370.069	301.9
370.45	332.18
370.831	294.67
371.212	320.66
371.593	316.36
371.974	346.19
372.355	328.11
372.736	299.41
373.117	310.49
373.498	311.84
373.879	326.3
374.26	318.17
374.641	328.79
375.021	320.2
375.402	339.41
375.783	319.75
376.163	331.95
376.544	324.27
376.925	325.4
377.305	334.21
377.686	343.48
378.066	324.72
378.447	333.76
378.827	331.95
379.208	351.84
379.588	335.8
379.968	318.85
380.349	341.9
380.729	346.64
381.109	312.29
381.489	345.51
381.87	325.18
382.25	328.11
382.63	338.73
383.01	342.12
383.39	346.64
383.77	364.95
384.15	339.19
384.53	342.8
384.91	348
385.29	350.26
385.67	328.34
386.049	349.81
386.429	361.56
386.809	354.1
387.189	369.24
387.568	355
387.948	347.55
388.328	373.54
388.707	344.16
389.087	370.82
389.466	374.67
389.846	357.72
390.225	371.5
390.605	368.11
390.984	355
391.363	374.21
391.743	377.6
392.122	376.7
392.501	374.21
392.881	354.33
393.26	401.33
393.639	364.72
394.018	345.97
394.397	360.43
394.776	382.57
395.155	363.14
395.534	378.51
395.913	396.81
396.292	390.48
396.671	399.52
397.05	391.16
397.429	399.98
397.808	385.51
398.186	392.52
398.565	391.39
398.944	386.42
399.323	383.03
399.701	391.16
400.08	396.59
400.458	411.5
400.837	414.21
401.215	409.01
401.594	428.9
401.972	413.31
402.351	407.21
402.729	399.07
403.107	404.95
403.486	406.98
403.864	424.61
404.242	422.57
404.62	431.61
404.999	436.13
405.377	421.22
405.755	452.18
406.133	415.12
406.511	430.48
406.889	420.54
407.267	431.84
407.645	417.38
408.023	415.79
408.401	428.9
408.779	424.16
409.156	473.42
409.534	473.65
409.912	475.45
410.29	462.12
410.667	468
411.045	453.08
411.422	443.82
411.8	475
412.178	505.28
412.555	474.32
412.933	478.17
413.31	487.66
413.687	469.35
414.065	470.93
414.442	471.84
414.819	500.76
415.197	517.71
415.574	494.21
415.951	492.85
416.328	488.11
416.705	499.86
417.082	500.09
417.46	513.42
417.837	510.48
418.214	526.98
418.591	535.34
418.967	489.46
419.344	507.54
419.721	523.36
420.098	507.09
420.475	520.65
420.852	523.81
421.228	521.33
421.605	523.59
421.982	544.38
422.358	522.68
422.735	555.68
423.111	549.58
423.488	559.07
423.864	574.43
424.241	575.79
424.617	571.72
424.994	583.47
425.37	599.52
425.746	578.28
426.123	576.69
426.499	591.16
426.875	583.47
427.251	599.74
427.627	599.07
428.003	606.52
428.379	613.53
428.756	605.39
429.132	627.54
429.507	606.98
429.883	618.27
430.259	635.9
430.635	653.3
431.011	616.69
431.387	663.02
431.763	641.78
432.138	667.99
432.514	639.29
432.89	675.9
433.265	686.75
433.641	678.39
434.016	682
434.392	686.3
434.767	715
435.143	691.04
435.518	677.71
435.894	700.53
436.269	717.03
436.644	733.07
437.02	738.27
437.395	733.07
437.77	729.91
438.145	720.87
438.52	747.99
438.895	772.85
439.271	774.65
439.646	773.52
440.021	761.55
440.395	775.56
440.77	760.64
441.145	766.07
441.52	795.45
441.895	791.83
442.27	802.22
442.645	799.29
443.019	801.09
443.394	806.97
443.769	816.91
444.143	820.08
444.518	806.29
444.892	799.51
445.267	815.33
445.641	839.29
446.016	832.28
446.39	817.59
446.764	836.35
447.139	821.43
447.513	853.52
447.887	865.95
448.262	840.87
448.636	879.74
449.01	900.75
449.384	856.23
449.758	873.86
450.132	874.77
450.506	906.85
450.88	906.63
451.254	917.93
451.628	898.49
452.002	919.96
452.376	947.98
452.75	939.17
453.123	963.58
453.497	944.14
453.871	948.44
454.244	983.01
454.618	963.8
454.992	973.97
455.365	983.24
455.739	1028.21
456.112	1019.17
456.486	1023.46
456.859	1041.54
457.232	1035.21
457.606	1036.12
457.979	1078.6
458.352	1080.64
458.725	1102.1
459.099	1093.74
459.472	1103.69
459.845	1121.31
460.218	1153.85
460.591	1152.05
460.964	1125.15
461.337	1151.59
461.71	1164.7
462.083	1170.12
462.456	1211.03
462.829	1234.76
463.201	1239.28
463.574	1254.64
463.947	1252.38
464.32	1291.03
464.692	1309.56
465.065	1303.45
465.438	1318.37
465.81	1340.29
466.183	1364.24
466.555	1360.85
466.928	1393.62
467.3	1406.05
467.672	1439.27
468.045	1467.97
468.417	1451.02
468.789	1476.33
469.161	1510
469.534	1499.38
469.906	1542.77
470.278	1562.88
470.65	1576.44
471.022	1636.78
471.394	1671.13
471.766	1671.35
472.138	1718.58
472.51	1778.92
472.882	1768.53
473.253	1772.82
473.625	1841.29
473.997	1875.42
474.369	1901.4
474.74	1909.31
475.112	1964.45
475.484	2037.45
475.855	2079.48
476.227	2082.64
476.598	2160.83
476.97	2163.77
477.341	2246.48
477.713	2280.38
478.084	2341.39
478.455	2413.71
478.827	2443.31
479.198	2498.23
479.569	2565.34
479.94	2650.99
480.311	2698.45
480.682	2765.56
481.053	2852.57
481.424	2931.21
481.795	2975.05
482.166	3058.44
482.537	3125.33
482.908	3201.71
483.279	3283.29
483.65	3356.51
484.021	3457.52
484.391	3529.84
484.762	3606.44
485.133	3662.71
485.503	3725.09
485.874	3837.17
486.244	3956.27
486.615	4081.46
486.985	4115.58
487.356	4269.93
487.726	4332.53
488.097	4473.54
488.467	4509.47
488.837	4646.42
489.207	4747.21
489.578	4835.79
489.948	4959.86
490.318	5104.48
490.688	5114.43
491.058	5233.75
491.428	5366.17
491.798	5505.38
492.168	5592.38
492.538	5680.29
492.908	5856.78
493.278	5947.17
493.648	5965.25
494.017	6144.91
494.387	6283.66
494.757	6322.08
495.126	6414.05
495.496	6493.6
495.866	6595.97
496.235	6670.32
496.605	6818.11
496.974	6947.15
497.344	7005
497.713	7069.86
498.082	7228.27
498.452	7307.82
498.821	7360.24
499.19	7473.91
499.559	7571.54
499.928	7633.01
500.298	7701.03
500.667	7891.53
501.036	7884.98
501.405	8004.97
501.774	7996.61
502.143	8155.25
502.512	8204.52
502.88	8339.65
503.249	8418.3
503.618	8472.53
503.987	8559.53
504.356	8663.94
504.724	8716.82
505.093	8751.17
505.462	8797.95
505.83	9010.14
506.199	8992.07
506.567	9130.37
506.936	9138.73
507.304	9277.03
507.672	9427.99
508.041	9399.96
508.409	9593.41
508.777	9632.5
509.145	9733.52
509.514	9718.15
509.882	9835.66
510.25	9904.13
510.618	9939.61
510.986	9974.19
511.354	10124.24
511.722	10178.93
512.09	10258.7
512.458	10319.71
512.826	10432.71
513.193	10533.27
513.561	10490.56
513.929	10612.81
514.297	10710.89
514.664	10804.67
515.032	10840.38
515.4	10933.48
515.767	11006.25
516.135	11072.01
516.502	11025.01
516.869	11218.22
517.237	11279.01
517.604	11187.71
517.972	11442.4
518.339	11507.03
518.706	11459.8
519.073	11526.91
519.44	11618.89
519.808	11782.73
520.175	11736.63
520.542	11841.93
520.909	11943.17
521.276	12003.29
521.643	12049.16
522.009	12128.48
522.376	12210.06
522.743	12289.15
523.11	12432.65
523.477	12583.61
523.843	12562.59
524.21	12616.6
524.577	12832.64
524.943	12843.26
525.31	12954.45
525.676	12994.22
526.043	13140.66
526.409	13108.79
526.776	13344.49
527.142	13323.25
527.508	13419.29
527.874	13534.09
528.241	13586.75
528.607	13649.34
528.973	13696.12
529.339	13739.96
529.705	13936.34
530.071	14027.41
530.437	14062.44
530.803	14129.56
531.169	14234.87
531.535	14238.71
531.901	14335.65
532.267	14366.39
532.632	14486.16
532.998	14565.7
533.364	14625.14
533.73	14602.54
534.095	14812.93
534.461	14818.58
534.826	14840.95
535.192	14962.08
535.557	15133.83
535.923	15078.01
536.288	15144.22
536.653	15131.57
537.019	15174.28
537.384	15239.59
537.749	15321.84
538.114	15466.92
538.479	15482.97
538.845	15470.31
539.21	15421.28
539.575	15525.68
539.94	15677.54
540.305	15757.09
540.67	15745.56
541.034	15840.25
541.399	15823.75
541.764	15917.31
542.129	16035.04
542.494	16096.06
542.858	16062.84
543.223	16164.31
543.587	16297.41
543.952	16249.05
544.316	16399.78
544.681	16376.73
545.045	16469.84
545.41	16547.12
545.774	16632.54
546.138	16677.97
546.503	16635.93
546.867	16643.62
547.231	16925.87
547.595	16937.85
547.959	16975.81
548.324	16975.13
548.688	17015.58
549.052	17084.96
549.416	17150.72
549.779	17262.13
550.143	17225.52
550.507	17322.47
550.871	17442.92
551.235	17494.89
551.599	17553.87
551.962	17538.73
552.326	17581.22
552.689	17764.04
553.053	17618.51
553.417	17710.93
553.78	17930.14
554.143	17783.93
554.507	18010.81
554.87	18038.83
555.234	18299.17
555.597	18138.49
555.96	18232.95
556.323	18339.62
556.686	18462.1
557.05	18413.96
557.413	18497.13
557.776	18491.25
558.139	18714.3
558.502	18617.58
558.865	18862.54
559.228	18841.3
559.59	18865.7
559.953	18879.26
560.316	19098.47
560.679	19056.89
561.041	19267.28
561.404	19292.36
561.767	19368.52
562.129	19383.66
562.492	19532.13
562.854	19577.32
563.217	19494.39
563.579	19584.1
563.941	19744.55
564.304	19748.17
564.666	19897.99
565.028	19867.94
565.39	20112.9
565.753	20058.22
566.115	20181.6
566.477	20275.61
566.839	20284.2
567.201	20461.14
567.563	20527.58
567.925	20607.13
568.287	20654.58
568.648	20740.01
569.01	20949.49
569.372	20962.37
569.734	20905.2
570.095	21025.87
570.457	21113.1
570.819	21179.77
571.18	21271.52
571.542	21375.47
571.903	21469.03
572.265	21571.4
572.626	21630.6
572.987	21707.21
573.349	21797.15
573.71	21907.66
574.071	21957.6
574.432	22086.86
574.794	22137.93
575.155	22450.92
575.516	22354.65
575.877	22416.12
576.238	22546.96
576.599	22752.61
576.96	22841.42
577.32	22919.84
577.681	23118.02
578.042	23111.02
578.403	23376.55
578.763	23357.11
579.124	23546.49
579.485	23734.05
579.845	23905.12
580.206	23985.8
580.566	24125.45
580.927	24240.48
581.287	24557.53
581.648	24501.71
582.008	24756.17
582.368	24912.55
582.728	25128.36
583.089	25187.57
583.449	25340.79
583.809	25574.45
584.169	25710.5
584.529	25951.85
584.889	26248.56
585.249	26298.28
585.609	26390.7
585.969	26655.1
586.329	26865.27
586.688	27128.09
587.048	27217.35
587.408	27420.96
587.768	27679.26
588.127	27842.64
588.487	27958.35
588.846	28290.09
589.206	28328.05
589.565	28666.8
589.925	29019.56
590.284	29129.62
590.643	29295.49
591.003	29472.21
591.362	29817.51
591.721	29961.01
592.08	30105.63
592.44	30321.67
592.799	30538.84
593.158	30847.54
593.517	30941.32
593.876	31226.74
594.235	31277.81
594.593	31550.79
594.952	31818.58
595.311	31906.49
595.67	32131.57
596.029	32528.4
596.387	32705.34
596.746	32853.81
597.104	32935.39
597.463	33160.24
597.822	33593
598.18	33562.95
598.538	33704.64
598.897	34115.7
599.255	33945.53
599.613	34592.52
599.972	34501.23
600.33	34760.2
600.688	34830.71
601.046	35180.53
601.404	35333.07
601.762	35417.59
602.12	35692.83
602.478	35989.1
602.836	36014.41
603.194	36016.89
603.552	36320.16
603.91	36334.85
604.268	36474.96
604.625	36575.97
604.983	36890.77
605.341	36828.85
605.698	37092.34
606.056	37255.96
606.413	37400.58
606.771	37546.57
607.128	37745.89
607.485	37618.43
607.843	37792.66
608.2	38211.41
608.557	38367.56
608.914	38241.47
609.272	38539.54
609.629	38639.42
609.986	38727.1
610.343	38839.19
610.7	39249.12
611.057	39161.67
611.414	39312.4
611.771	39379.97
612.127	39722.78
612.484	39611.37
612.841	39869.9
613.198	40028.09
613.554	39970.01
613.911	40278.93
614.267	40263.11
614.624	40457.91
614.98	40440.28
615.337	40834.39
615.693	40540.84
616.05	40877.33
616.406	41143.31
616.762	40979.47
617.118	41068.06
617.475	41034.84
617.831	41369.75
618.187	41405.22
618.543	41511.44
618.899	41636.86
619.255	41654.26
619.611	41701.94
619.967	41879.56
620.323	41929.28
620.678	41818.32
621.034	41956.85
621.39	41940.58
621.746	41939.9
622.101	42355.71
622.457	42049.05
622.812	42210.63
623.168	42253.11
623.523	42426.44
623.879	42532.43
624.234	42215.83
624.589	42420.57
624.945	42709.15
625.3	42668.02
625.655	42694.46
626.01	42742.59
626.365	42829.59
626.72	42725.87
627.075	42807.22
627.43	42783.04
627.785	42666.66
628.14	42898.29
628.495	42874.34
628.85	42931.51
629.205	42724.96
629.559	42988.01
629.914	42937.61
630.269	42952.3
630.623	42838.41
630.978	42856.03
631.332	43076.59
631.687	43139.87
632.041	42889.71
632.396	43002.47
632.75	42815.81
633.104	43025.75
633.459	42840.22
633.813	42878.18
634.167	42826.43
634.521	42837.28
634.875	42986.2
635.229	42816.26
635.583	42741.69
635.937	42717.96
636.291	42744.85
636.645	42749.82
636.999	42665.98
637.352	42803.83
637.706	42686.77
638.06	42814.45
638.413	42682.48
638.767	42630.28
639.121	42607
639.474	42353
639.828	42458.98
640.181	42598.41
640.534	42543.73
640.888	42372.88
641.241	42384.18
641.594	42373.79
641.947	42564.06
642.301	42414.69
642.654	42384.18
643.007	42571.52
643.36	42413.79
643.713	42222.15
644.066	42531.52
644.419	42247.24
644.771	42050.18
645.124	41653.13
645.477	41536.07
645.83	41543.3
646.182	41275.74
646.535	40974.95
646.888	41252.91
647.24	41102.86
647.593	41187.83
647.945	41031
648.298	40841.17
648.65	40831
649.002	40730.44
649.355	40985.8
649.707	40946.93
650.059	41096.76
650.411	41510.98
650.763	41615.61
651.115	41956.17
651.467	41784.2
651.819	41848.83
652.171	41729.96
652.523	41597.54
652.875	41724.99
653.227	41512.57
653.578	41837.08
653.93	41622.17
654.282	41576.29
654.633	41470.08
654.985	41559.57
655.337	41551.66
655.688	41662.85
656.039	41694.03
656.391	41316.41
656.742	41392.57
657.094	41424.66
657.445	41628.72
657.796	41392.8
658.147	41447.71
658.498	41324.1
658.849	41537.88
659.2	41404.55
659.551	41338.79
659.902	41441.16
660.253	41377.2
660.604	41426.47
660.955	41141.73
661.306	41349.18
661.656	41224.21
662.007	41269.64
662.358	41238.45
662.708	41159.58
663.059	41398.67
663.409	40991
663.76	41341.72
664.11	41293.82
664.461	41369.52
664.811	41348.28
665.161	41187.83
665.511	41158.68
665.862	41210.43
666.212	41319.8
666.562	41349.18
666.912	41179.02
667.262	41116.64
667.612	41159.36
667.962	41239.58
668.312	41147.15
668.662	41470.08
669.011	41154.38
669.361	41197.55
669.711	41137.66
670.06	41030.09
670.41	40963.65
670.76	41011.34
671.109	41124.33
671.459	40961.85
671.808	40866.48
672.157	41090.43
672.507	40805.24
672.856	40834.17
673.205	40835.07
673.554	41037.32
673.904	40814.51
674.253	40949.42
674.602	40885.24
674.951	40510.11
675.3	40144.69
675.649	40814.05
675.998	40798.46
676.346	40827.84
676.695	40909.19
677.044	40586.04
677.393	40758.69
677.741	40740.38
678.09	40557.11
678.438	40524.57
678.787	40630.33
679.135	40579.94
679.484	40492.93
679.832	40546.04
680.181	40296.33
680.529	40396.66
680.877	40183.11
681.225	40248.42
681.573	40506.94
681.922	40222.88
682.27	40055.88
682.618	40015.66
682.966	40010.69
683.314	40045.03
683.661	40030.35
684.009	39720.52
684.357	39778.37
684.705	39640.75
685.053	39704.48
685.4	39608.44
685.748	39558.95
686.095	39516.91
686.443	39261.33
686.79	39255.45
687.138	39291.83
687.485	39304.26
687.832	39184.04
688.18	39102.01
688.527	39002.58
688.874	39047.32
689.221	38916.25
689.568	38909.47
689.915	38822.24
690.262	38765.75
690.609	38591.06
690.956	38585.41
691.303	38657.95
691.65	38369.82
691.997	38320.11
692.344	38138.87
692.69	38128.7
693.037	37974.35
693.383	37685.55
693.73	37890.29
694.077	37731.2
694.423	37759.45
694.769	37732.1
695.116	37511.54
695.462	37492.11
695.808	37291.89
696.155	37371.66
696.501	37185.45
696.847	37071.33
697.193	36780.71
697.539	37091.67
697.885	36724.22
698.231	36694.16
698.577	36676.31
698.923	36594.28
699.269	36373.27
699.614	36123.56
699.96	36286.94
700.306	36175.76
700.651	35998.81
700.997	36051.69
701.342	35992.71
701.688	35878.14
702.033	35702.55
702.379	35658.03
702.724	35610.57
703.069	35692.61
703.415	35285.16
703.76	35238.83
704.105	35286.74
704.45	35162.68
704.795	34905.28
705.14	34926.53
705.485	35019.4
705.83	34774.66
706.175	34914.1
706.52	34616.48
706.865	34655.12
707.209	34531.73
707.554	34350.5
707.899	34465.75
708.243	34203.15
708.588	34170.39
708.932	33956.38
709.277	34028.24
709.621	34061.46
709.966	33694.02
710.31	33898.98
710.654	33719.55
710.998	33682.94
711.342	33661.93
711.687	33551.42
712.031	33436.17
712.375	33353.01
712.719	33278.88
713.063	33292.44
713.407	33396.85
713.75	33193.69
714.094	33212.67
714.438	32969.51
714.782	33019.91
715.125	32860.14
715.469	32853.59
715.812	32697.66
716.156	32530.2
716.499	32646.59
716.843	32726.13
717.186	32422.41
717.53	32452.92
717.873	32453.6
718.216	32371.56
718.559	32387.83
718.902	32112.59
719.246	32219.03
719.589	32039.6
719.932	32007.28
720.275	32002.08
720.617	31791.47
720.96	31886.38
721.303	31760.05
721.646	31793.5
721.989	31765.93
722.331	31793.05
722.674	31704.69
723.016	31671.47
723.359	31679.38
723.701	31635.99
724.044	31355.77
724.386	31263.57
724.729	31450.46
725.071	31285.04
725.413	31290.69
725.755	31349.22
726.097	31067.87
726.439	31051.37
726.782	31128.21
727.124	30984.93
727.465	30947.19
727.807	30815.22
728.149	30867.65
728.491	30805.05
728.833	30737.26
729.175	30752.62
729.516	30645.51
729.858	30654.77
730.199	30739.52
730.541	30483.48
730.882	30420.88
731.224	30573.42
731.565	30400.99
731.906	30304.5
732.248	30311.05
732.589	30230.6
732.93	30156.71
733.271	30198.74
733.612	30163.26
733.953	30236.48
734.294	30097.05
734.635	29976.15
734.976	30081
735.317	29892.08
735.658	29854.12
735.999	29862.7
736.339	29798.52
736.68	29791.74
737.021	29725.98
737.361	29610.05
737.702	29841.69
738.042	29652.09
738.383	29589.72
738.723	29695.93
739.063	29581.13
739.404	29624.97
739.744	29459.1
740.084	29434.01
740.424	29410.06
740.764	29423.84
741.104	29465.65
741.444	29210.97
741.784	29150.18
742.124	29311.98
742.464	29225.21
742.804	29114.7
743.143	29043.52
743.483	29081.48
743.823	28834.71
744.162	28918.77
744.502	28783.41
744.841	28692.34
745.181	28968.72
745.52	28681.72
745.86	28670.64
746.199	28768.04
746.538	28695.05
746.877	28623.64
747.216	28669.74
747.556	28573.25
747.895	28506.81
748.234	28423.87
748.573	28340.26
748.911	28199.47
749.25	28333.25
749.589	28154.05
749.928	28191.34
750.267	28241.96
750.605	28183.88
750.944	28002.64
751.283	27968.06
751.621	28021.62
751.96	27974.84
752.298	27827.28
752.636	27803.55
752.975	27726.49
753.313	27585.93
753.651	27614.85
753.989	27640.39
754.327	27545.25
754.666	27385.03
755.004	27467.29
755.342	27457.79
755.679	27492.82
756.017	27294.64
756.355	27397.01
756.693	27025.26
757.031	27142.55
757.368	26979.84
757.706	26953.18
758.044	27027.75
758.381	26916.79
758.719	26818.94
759.056	26749.79
759.394	26676.8
759.731	26504.15
760.068	26446.75
760.405	26307.54
760.743	26348.9
761.08	26388.44
761.417	26213.53
761.754	26192.52
762.091	26098.73
762.428	26070.94
762.765	25846.54
763.102	26030.49
763.438	25840.89
763.775	25527.45
764.112	25674.79
764.449	25654
764.785	25536.26
765.122	25385.08
765.458	25335.14
765.795	25211.07
766.131	25235.25
766.467	25018.31
766.804	24967.69
767.14	24897.41
767.476	24854.02
767.812	24825.32
768.148	24843.63
768.485	24629.17
768.821	24568.15
769.157	24492.22
769.492	24436.18
769.828	24426.46
770.164	24240.7
770.5	24144.21
770.836	24091.33
771.171	23950.77
771.507	23934.05
771.842	23685.69
772.178	23681.17
772.513	23606.37
772.849	23608.4
773.184	23509.42
773.519	23492.25
773.855	23386.72
774.19	23244.12
774.525	23192.6
774.86	23174.97
775.195	23091.13
775.53	22880.51
775.865	22928.2
776.2	22794.64
776.535	22666.96
776.87	22584.02
777.205	22572.5
777.539	22469.45
777.874	22373.86
778.209	22331.15
778.543	22238.5
778.878	22093.64
779.212	22111.95
779.547	21924.38
779.881	21950.82
780.215	21909.24
780.55	21906.08
780.884	21757.61
781.218	21648.23
781.552	21658.4
781.886	21584.28
782.22	21364.85
782.554	21395.13
782.888	21174.12
783.222	21022.94
783.556	21014.35
783.889	20929.61
784.223	20770.97
784.557	20702.27
784.89	20758.99
785.224	20606.68
785.557	20611.65
785.891	20534.36
786.224	20441.26
786.558	20505.44
786.891	20272.22
787.224	20229.74
787.557	20086.24
787.891	20078.55
788.224	20088.95
788.557	20053.7
788.89	19922.85
789.223	19920.82
789.556	19806.24
789.888	19778
790.221	19580.94
790.554	19567.38
790.887	19523.54
791.219	19422.07
791.552	19338.23
791.884	19305.69
792.217	19255.07
792.549	19159.26
792.882	18983.89
793.214	18924.01
793.546	18915.42
793.879	18868.42
794.211	18805.14
794.543	18792.49
794.875	18588.42
795.207	18723.56
795.539	18586.62
795.871	18569.22
796.203	18432.5
796.535	18346.4
796.867	18310.01
797.198	18285.61
797.53	18212.16
797.862	18061.43
798.193	18144.37
798.525	18044.71
798.856	18023.24
799.188	17854.21
799.519	17798.84
799.85	17731.72
800.182	17727.2
800.513	17651.5
800.844	17549.35
801.175	17623.48
801.506	17596.13
801.837	17497.15
802.168	17453.99
802.499	17419.19
802.83	17330.15
803.161	17250.61
803.491	17269.36
803.822	17189.14
804.153	17133.09
804.483	17078.18
804.814	16946.66
805.145	16937.17
805.475	16912.99
805.805	16923.38
806.136	16902.14
806.466	16843.61
806.796	16723.84
807.126	16670.96
807.457	16635.71
807.787	16691.75
808.117	16541.92
808.447	16428.03
808.777	16533.79
809.107	16453.79
809.436	16464.86
809.766	16341.25
810.096	16301.03
810.426	16166.57
810.755	16164.98
811.085	16104.2
811.414	16176.51
811.744	15998.89
812.073	16017.19
812.403	15948.49
812.732	15896.07
813.061	15917.76
813.39	15771.32
813.719	15711.66
814.049	15776.75
814.378	15746.92
814.707	15673.47
815.036	15649.97
815.365	15556.64
815.693	15449.52
816.022	15474.83
816.351	15442.97
816.68	15336.08
817.008	15338.57
817.337	15271.22
817.665	15248.17
817.994	15252.24
818.322	15177.89
818.651	15126.14
818.979	15093.83
819.307	15205.01
819.636	15099.25
819.964	15067.61
820.292	15046.14
820.62	15015.86
820.948	14861.29
821.276	14988.29
821.604	14940.84
821.932	14926.15
822.259	14941.06
822.587	14953.04
822.915	14994.85
823.243	14914.85
823.57	14861.06
823.898	14865.81
824.225	14816.32
824.553	14812.03
824.88	14875.98
825.207	14887.96
825.535	14914.85
825.862	14916.88
826.189	14885.92
826.516	14917.33
826.843	14943.32
827.17	14943.1
827.497	14962.76
827.824	14827.17
828.151	14829.43
828.478	14897.9
828.805	14935.86
829.131	14856.54
829.458	14827.62
829.785	14719.82
830.111	14788.52
830.438	14854.96
830.764	14834.85
831.09	14819.94
831.417	14713.5
831.743	14781.97
832.069	14800.95
832.395	14703.78
832.722	14825.36
833.048	14715.08
833.374	14766.15
833.7	14659.04
834.026	14739.49
834.351	14684.8
834.677	14648.64
835.003	14668.3
835.329	14673.05
835.654	14666.72
835.98	14560.51
836.306	14575.65
836.631	14554.63
836.956	14555.31
837.282	14607.51
837.607	14477.8
837.932	14383.79
838.258	14429.44
838.583	14515.54
838.908	14326.16
839.233	14372.72
839.558	14322.32
839.883	14267.41
840.208	14183.79
840.533	14236.67
840.858	14197.35
841.182	14282.32
841.507	14148.54
841.832	14100.63
842.156	14150.12
842.481	14089.33
842.805	13963.23
843.13	14079.16
843.454	13921.88
843.778	13970.92
844.103	13884.82
844.427	13883.91
844.751	13839.4
845.075	13836.01
845.399	13781.54
845.723	13737.48
846.047	13766.4
846.371	13644.82
846.695	13600.98
847.019	13541.55
847.343	13428.56
847.666	13434.21
847.99	13366.64
848.313	13374.32
848.637	13240.54
848.96	13283.93
849.284	13205.97
849.607	13035.35
849.931	13089.59
850.254	12953.54
850.577	12895.01
850.9	12819.31
851.223	12840.55
851.546	12714.45
851.869	12613.21
852.192	12718.97
852.515	12602.14
852.838	12604.85
853.161	12568.92
853.483	12525.31
853.806	12394.46
854.129	12369.83
854.451	12382.49
854.774	12321.7
855.096	12336.61
855.419	12260.23
855.741	12128.48
856.063	12130.97
856.385	12059.78
856.708	12050.97
857.03	12083.06
857.352	11996.51
857.674	12001.48
857.996	11896.85
858.318	11849.84
858.64	11864.98
858.961	11747.7
859.283	11759.9
859.605	11695.05
859.926	11785.89
860.248	11711.54
860.57	11726.91
860.891	11590.64
861.212	11618.21
861.534	11608.95
861.855	11536.18
862.176	11531.43
862.498	11507.93
862.819	11519.23
863.14	11491.89
863.461	11485.79
863.782	11422.96
864.103	11441.72
864.424	11282.18
864.745	11381.83
865.065	11306.13
865.386	11309.97
865.707	11284.43
866.027	11246.02
866.348	11264.55
866.668	11276.3
866.989	11209.18
867.309	11204.44
867.63	11162.63
867.95	11156.98
868.27	11078.56
868.59	11165.12
868.91	11098.9
869.23	11028.62
869.55	11004.89
869.87	11074.04
870.19	11093.48
870.51	11039.02
870.83	11017.78
871.15	10968.06
871.469	10904.56
871.789	10973.03
872.109	10913.82
872.428	10878.34
872.748	10909.08
873.067	10868.63
873.386	10863.43
873.706	10786.37
874.025	10743.21
874.344	10709.99
874.663	10776.2
874.982	10764.45
875.301	10738.23
875.62	10733.26
875.939	10745.47
876.258	10701.63
876.577	10659.14
876.896	10603.77
877.214	10596.32
877.533	10587.73
877.852	10659.14
878.17	10584.11
878.489	10549.31
878.807	10519.26
879.125	10485.36
879.444	10559.93
879.762	10447.17
880.08	10469.54
880.398	10369.2
880.716	10479.26
881.034	10368.53
881.352	10439.03
881.67	10321.52
881.988	10346.61
882.306	10297.12
882.624	10206.5
882.941	10189.32
883.259	10202.88
883.577	10206.5
883.894	10185.48
884.212	10202.43
884.529	10108.42
884.846	10096.44
885.164	10032.49
885.481	10000.85
885.798	10120.4
886.115	10049.44
886.432	10004.69
886.75	10017.8
887.067	10035.65
887.383	9928.99
887.7	9929.89
888.017	9931.48
888.334	9941.42
888.651	9938.03
888.967	9860.97
889.284	9752.72
889.6	9755.21
889.917	9695.32
890.233	9683.35
890.55	9632.05
890.866	9716.34
891.182	9689.45
891.498	9595.44
891.815	9594.08
892.131	9545.72
892.447	9497.82
892.763	9480.64
893.079	9391.83
893.395	9436.12
893.71	9490.13
894.026	9336.24
894.342	9380.08
894.657	9310.48
894.973	9277.03
895.289	9296.01
895.604	9289.46
895.92	9208.56
896.235	9133.76
896.55	9131.5
896.865	9148.22
897.181	9070.93
897.496	9057.37
897.811	9010.82
898.126	8998.62
898.441	8929.24
898.756	8915.01
899.071	8893.99
899.386	8834.78
899.7	8818.51
900.015	8794.33
900.33	8716.14
900.644	8686.54
900.959	8716.82
901.273	8670.72
901.588	8624.39
901.902	8619.19
902.216	8557.27
902.531	8550.72
902.845	8501.91
903.159	8438.86
903.473	8512.3
903.787	8409.71
904.101	8357.05
904.415	8334.91
904.729	8358.41
905.042	8296.94
905.356	8242.48
905.67	8239.54
905.984	8191.86
906.297	8175.36
906.611	8136.27
906.924	8190.05
907.237	8100.11
907.551	8059.66
907.864	7984.86
908.177	8030.06
908.491	8019.21
908.804	7959.78
909.117	7891.53
909.43	7842.72
909.743	7826.22
910.056	7770.85
910.368	7752.32
910.681	7753.68
910.994	7695.38
911.307	7641.82
911.619	7556.4
911.932	7619.45
912.244	7542.84
912.557	7591.88
912.869	7508.94
913.181	7480.47
913.494	7433.91
913.806	7360.92
914.118	7404.08
914.43	7379.68
914.742	7314.82
915.054	7344.2
915.366	7258.55
915.678	7193.02
915.99	7142.85
916.302	7180.36
916.613	7103.08
916.925	7084.32
917.236	7092.91
917.548	7031.21
917.859	7053.59
918.171	7043.87
918.482	6937.66
918.794	6906.7
919.105	6898.56
919.416	6880.26
919.727	6845
920.038	6809.98
920.349	6814.72
920.66	6722.07
920.971	6769.3
921.282	6709.19
921.593	6620.6
921.903	6603.65
922.214	6598.91
922.525	6632.13
922.835	6549.42
923.146	6494.5
923.456	6487.72
923.767	6497.44
924.077	6466.71
924.387	6418.57
924.697	6405.02
925.008	6406.6
925.318	6353.49
925.628	6334.06
925.938	6385.81
926.248	6229.65
926.558	6282.76
926.867	6193.5
927.177	6190.78
927.487	6133.84
927.796	6136.55
928.106	6135.42
928.416	6052.71
928.725	6072.14
929.034	6049.32
929.344	6021.97
929.653	5989.21
929.962	5999.15
930.271	5901.75
930.581	5881.64
930.89	5882.32
931.199	5879.38
931.508	5833.5
931.817	5807.06
932.125	5807.06
932.434	5707.63
932.743	5701.3
933.051	5660.18
933.36	5645.04
933.669	5625.15
933.977	5675.99
934.286	5653.17
934.594	5556.22
934.902	5500.41
935.21	5472.84
935.519	5514.87
935.827	5524.36
936.135	5504.7
936.443	5420.41
936.751	5447.75
937.059	5422.89
937.367	5384.03
937.674	5359.84
937.982	5351.71
938.29	5308.32
938.597	5316.46
938.905	5237.59
939.213	5264.48
939.52	5201.88
939.827	5224.48
940.135	5156.01
940.442	5181.77
940.749	5123.24
941.056	5157.59
941.363	5080.08
941.67	5098.16
941.977	5059.51
942.284	4988.33
942.591	4968.22
942.898	4973.41
943.205	5010.7
943.511	4963.92
943.818	4960.53
944.125	4853.64
944.431	4850.93
944.738	4822.46
945.044	4851.84
945.35	4803.25
945.657	4752.86
945.963	4752.18
946.269	4742.46
946.575	4733.65
946.881	4709.69
947.187	4715.79
947.493	4656.36
947.799	4634.89
948.105	4632.86
948.41	4554.44
948.716	4592.63
949.022	4587.66
949.327	4513.31
949.633	4504.73
949.938	4493.88
950.244	4495.69
950.549	4428.8
950.854	4411.62
951.16	4417.72
951.465	4405.29
951.77	4367.1
952.075	4327.56
952.38	4346.31
952.685	4298.63
952.99	4297.27
953.294	4296.37
953.599	4288.01
953.904	4216.15
954.209	4231.51
954.513	4184.28
954.818	4204.62
955.122	4196.49
955.426	4186.54
955.731	4130.72
956.035	4106.77
956.339	4097.51
956.643	4088.01
956.948	4082.82
957.252	4041.69
957.556	4049.82
957.86	4048.24
958.163	3995.59
958.467	3999.43
958.771	3978.19
959.075	3965.53
959.378	3886.44
959.682	3940
959.985	3921.69
960.289	3854.35
960.592	3823.16
960.896	3834.01
961.199	3822.71
961.502	3837.63
961.805	3796.5
962.108	3780.9
962.411	3799.66
962.714	3761.24
963.017	3753.79
963.32	3730.96
963.623	3739.77
963.926	3688.48
964.228	3688.48
964.531	3662.71
964.833	3642.6
965.136	3613.9
965.438	3601.02
965.741	3587.24
966.043	3557.18
966.345	3579.55
966.648	3578.87
966.95	3531.87
967.252	3515.83
967.554	3523.74
967.856	3488.48
968.158	3465.88
968.46	3439.67
968.761	3433.57
969.063	3413
969.365	3463.62
969.666	3406.22
969.968	3357.86
970.269	3370.29
970.571	3353.12
970.872	3357.86
971.174	3335.49
971.475	3308.37
971.776	3281.03
972.077	3311.09
972.378	3290.75
972.679	3266.79
972.98	3255.95
973.281	3208.04
973.582	3220.47
973.883	3191.99
974.183	3229.51
974.484	3148.15
974.785	3162.84
975.085	3187.92
975.386	3188.6
975.686	3118.32
975.986	3074.93
976.287	3098.21
976.587	3059.11
976.887	3065.67
977.187	3045.33
977.487	3032.9
977.787	3034.26
978.087	3016.18
978.387	2998.1
978.687	2999
978.987	2961.49
979.286	2910.19
979.586	2951.09
979.885	2927.59
980.185	2911.55
980.484	2915.62
980.784	2862.74
981.083	2892.34
981.382	2845.11
981.682	2873.36
981.981	2832.45
982.28	2822.96
982.579	2852.11
982.878	2787.03
983.177	2776.18
983.475	2770.53
983.774	2754.49
984.073	2786.13
984.372	2740.25
984.67	2721.72
984.969	2718.78
985.267	2718.33
985.566	2689.86
985.864	2657.54
986.162	2653.25
986.461	2646.47
986.759	2643.76
987.057	2608.73
987.355	2609.63
987.653	2590.2
987.951	2642.85
988.249	2577.09
988.547	2562.18
988.844	2573.25
989.142	2607.6
989.44	2535.96
989.737	2474.95
990.035	2506.59
990.332	2540.26
990.63	2468.85
990.927	2478.34
991.224	2469.98
991.521	2462.97
991.819	2455.97
992.116	2450.09
992.413	2410.77
992.71	2430.43
993.006	2424.1
993.303	2382.75
993.6	2369.19
993.897	2376.42
994.193	2378.23
994.49	2356.08
994.787	2305.24
995.083	2310.21
995.379	2281.28
995.676	2305.46
995.972	2287.61
996.268	2282.41
996.565	2232.7
996.861	2275.63
997.157	2230.89
997.453	2235.86
997.749	2219.14
998.044	2224.33
998.34	2215.07
998.636	2200.38
998.932	2172.58
999.227	2131.46
999.523	2146.82
999.818	2109.99
1000.114	2120.61
1000.409	2131.46
1000.704	2096.43
1001	2091
1001.295	2098.01
1001.59	2105.69
1001.885	2088.52
1002.18	2035.19
1002.475	2032.7
1002.77	2055.98
1003.065	2043.1
1003.359	1998.13
1003.654	1980.27
1003.949	1982.98
1004.243	1979.82
1004.538	1966.94
1004.832	1995.64
1005.127	1957.9
1005.421	1959.71
1005.715	1902.99
1006.009	1916.77
1006.304	1949.31
1006.598	1894.85
1006.892	1889.43
1007.186	1848.75
1007.48	1872.03
1007.773	1860.5
1008.067	1841.29
1008.361	1844.46
1008.655	1829.32
1008.948	1798.36
1009.242	1781.86
1009.535	1811.46
1009.829	1752.71
1010.122	1759.49
1010.415	1749.77
1010.708	1750
1011.001	1757.23
1011.295	1723.56
1011.588	1712.48
1011.881	1716.32
1012.173	1700.05
1012.466	1688.3
1012.759	1685.14
1013.052	1657.12
1013.344	1656.44
1013.637	1665.03
1013.93	1647.4
1014.222	1649.89
1014.514	1630.68
1014.807	1640.85
1015.099	1583.9
1015.391	1600.17
1015.683	1580.51
1015.976	1561.53
1016.268	1559.04
1016.56	1548.87
1016.851	1566.5
1017.143	1543.67
1017.435	1547.74
1017.727	1534.63
1018.018	1516.1
1018.31	1475.2
1018.602	1510.23
1018.893	1478.82
1019.185	1476.78
1019.476	1464.13
1019.767	1463
1020.058	1444.47
1020.35	1431.36
1020.641	1430
1020.932	1428.87
1021.223	1439.95
1021.514	1392.72
1021.804	1367.63
1022.095	1376.67
1022.386	1373.96
1022.677	1368.76
1022.967	1344.81
1023.258	1324.47
1023.548	1357.01
1023.839	1326.96
1024.129	1330.57
1024.419	1310.91
1024.709	1321.53
1025	1283.79
1025.29	1289.44
1025.58	1288.99
1025.87	1284.7
1026.16	1264.36
1026.449	1236.11
1026.739	1235.66
1027.029	1249.9
1027.319	1249.67
1027.608	1204.25
1027.898	1213.97
1028.187	1191.82
1028.477	1186.17
1028.766	1184.14
1029.055	1185.94
1029.344	1152.05
1029.634	1182.78
1029.923	1150.01
1030.212	1152.95
1030.501	1142.55
1030.79	1127.87
1031.078	1126.06
1031.367	1122.67
1031.656	1137.58
1031.945	1097.58
1032.233	1103.91
1032.522	1093.74
1032.81	1079.96
1033.099	1094.65
1033.387	1065.04
1033.675	1083.57
1033.963	1064.36
1034.251	1067.08
1034.54	1036.57
1034.828	1041.54
1035.116	1053.29
1035.403	1037.02
1035.691	1002.9
1035.979	1015.78
1036.267	1007.87
1036.554	1007.19
1036.842	987.76
1037.129	1009.45
1037.417	993.41
1037.704	985.04
1037.992	969.9
1038.279	954.76
1038.566	962.67
1038.853	962.67
1039.14	962.67
