Data from hue_200_FLMS001491_00062.txt Node
Date: Tue Feb 07 16:43:46 GMT 2017
User: dcchb
Spectrometer: FLMS00149
Trigger mode: 0
Integration Time (sec): 2.000000E-2
Scans to average: 10
Electric dark correction enabled: true
Nonlinearity correction enabled: false
Boxcar width: 0
XAxis mode: Wavelengths
Number of Pixels in Spectrum: 2048
>>>>>Begin Spectral Data<<<<<
341.393	-9.38
341.776	-9.38
342.16	-9.38
342.543	-70.85
342.927	-61.81
343.31	-65.42
343.693	-61.35
344.077	-88.47
344.46	-55.93
344.843	-38.76
345.226	-55.7
345.61	-51.41
345.993	4.18
346.376	-24.52
346.759	6.67
347.142	17.97
347.525	49.15
347.908	49.83
348.291	89.38
348.674	90.28
349.057	134.12
349.44	138.87
349.823	128.47
350.206	173.44
350.588	203.95
350.971	221.35
351.354	226.55
351.737	245.98
352.119	267
352.502	245.76
352.884	268.81
353.267	296.83
353.65	275.81
354.032	290.95
354.414	305.42
354.797	311.74
355.179	319.65
355.562	322.82
355.944	324.85
356.326	339.99
356.709	350.61
357.091	329.37
357.473	337.73
357.855	353.1
358.238	325.53
358.62	343.83
359.002	335.25
359.384	319.2
359.766	358.97
360.148	334.34
360.53	344.28
360.912	318.75
361.294	323.72
361.676	333.89
362.057	330.5
362.439	346.09
362.821	327.11
363.203	346.77
363.584	335.47
363.966	320.56
364.348	329.37
364.729	320.33
365.111	315.58
365.493	325.3
365.874	328.01
366.256	329.14
366.637	317.39
367.019	324.17
367.4	316.49
367.781	324.4
368.163	314.23
368.544	326.66
368.925	342.25
369.306	337.96
369.688	325.53
370.069	310.84
370.45	308.13
370.831	329.6
371.212	317.62
371.593	310.84
371.974	313.33
372.355	325.08
372.736	309.26
373.117	327.34
373.498	329.37
373.879	322.59
374.26	337.51
374.641	317.17
375.021	310.16
375.402	332.76
375.783	337.51
376.163	320.56
376.544	336.15
376.925	339.99
377.305	340.89
377.686	344.96
378.066	334.12
378.447	339.99
378.827	333.44
379.208	337.05
379.588	326.21
379.968	332.53
380.349	346.54
380.729	350.39
381.109	352.19
381.489	355.13
381.87	351.29
382.25	370.27
382.63	344.06
383.01	329.37
383.39	350.39
383.77	347.67
384.15	357.39
384.53	360.56
384.91	355.81
385.29	335.02
385.67	377.73
386.049	362.14
386.429	377.73
386.809	350.61
387.189	370.72
387.568	370.72
387.948	355.36
388.328	377.73
388.707	380.89
389.087	373.89
389.466	376.15
389.846	380.89
390.225	383.61
390.605	384.51
390.984	372.08
391.363	393.32
391.743	386.77
392.122	395.36
392.501	398.52
392.881	396.49
393.26	398.07
393.639	420.44
394.018	410.27
394.397	395.36
394.776	411.85
395.155	407.56
395.534	411.18
395.913	391.52
396.292	421.8
396.671	416.37
397.05	438.07
397.429	419.31
397.808	426.77
398.186	412.53
398.565	447.11
398.944	418.18
399.323	439.88
399.701	447.11
400.08	437.39
400.458	428.58
400.837	437.62
401.215	462.02
401.594	445.98
401.972	447.11
402.351	457.05
402.729	444.17
403.107	460.89
403.486	451.85
403.864	460.44
404.242	479.87
404.62	483.72
404.999	482.81
405.377	499.31
405.755	501.34
406.133	506.54
406.511	517.61
406.889	497.28
407.267	527.78
407.645	514.9
408.023	514.68
408.401	519.87
408.779	541.34
409.156	529.59
409.534	559.19
409.912	551.96
410.29	561.23
410.667	595.13
411.045	580.21
411.422	609.36
411.8	618.4
412.178	605.07
412.555	662.92
412.933	624.73
413.31	648.23
413.687	656.14
414.065	666.54
414.442	680.77
414.819	702.92
415.197	697.72
415.574	697.27
415.951	726.2
416.328	727.78
416.705	731.39
417.082	749.47
417.46	741.11
417.837	786.31
418.214	784.27
418.591	814.33
418.967	792.41
419.344	791.5
419.721	808.23
420.098	845.29
420.475	845.51
420.852	869.69
421.228	895.23
421.605	870.6
421.982	890.71
422.358	904.04
422.735	925.06
423.111	941.11
423.488	994.21
423.864	982.23
424.241	987.21
424.617	1028.79
424.994	1060.42
425.37	1056.81
425.746	1071.27
426.123	1091.16
426.499	1075.11
426.875	1106.3
427.251	1143.59
427.627	1132.06
428.003	1148.56
428.379	1182.68
428.756	1169.8
429.132	1203.47
429.507	1220.87
429.883	1257.93
430.259	1226.3
430.635	1269.68
431.011	1260.64
431.387	1293.64
431.763	1330.25
432.138	1323.47
432.514	1371.15
432.89	1389
433.265	1405.05
433.641	1431.26
434.016	1474.2
434.392	1478.27
434.767	1554.87
435.143	1525.04
435.518	1533.86
435.894	1590.35
436.269	1616.34
436.644	1644.82
437.02	1681.42
437.395	1657.92
437.77	1745.6
438.145	1721.88
438.52	1792.16
438.895	1804.59
439.271	1844.81
439.646	1897.69
440.021	1907.18
440.395	1903.57
440.77	1921.87
441.145	1933.85
441.52	1999.16
441.895	1999.83
442.27	2057.01
442.645	2041.42
443.019	2103.56
443.394	2082.77
443.769	2120.51
444.143	2146.95
444.518	2155.76
444.892	2163.22
445.267	2189.89
445.641	2245.25
446.016	2243.44
446.39	2260.84
446.764	2295.87
447.139	2271.69
447.513	2323.44
447.887	2324.57
448.262	2376.77
448.636	2357.79
449.01	2365.25
449.384	2427.85
449.758	2408.64
450.132	2471.46
450.506	2503.1
450.88	2492.7
451.254	2507.62
451.628	2560.72
452.002	2589.65
452.376	2620.84
452.75	2602.08
453.123	2635.98
453.497	2688.18
453.871	2682.3
454.244	2777.44
454.618	2775.41
454.992	2838.23
455.365	2833.94
455.739	2896.76
456.112	2947.83
456.486	2915.74
456.859	2964.33
457.232	3058.79
457.606	3033.48
457.979	3067.15
458.352	3138.34
458.725	3184.21
459.099	3177.66
459.472	3216.53
459.845	3235.73
460.218	3359.12
460.591	3308.95
460.964	3328.39
461.337	3416.97
461.71	3489.96
462.083	3528.16
462.456	3504.88
462.829	3559.57
463.201	3626.46
463.574	3630.53
463.947	3678.66
464.32	3721.15
464.692	3796.85
465.065	3860.35
465.438	3889.28
465.81	3915.49
466.183	3976.96
466.555	4076.16
466.928	4078.65
467.3	4095.37
467.672	4148.93
468.045	4255.59
468.417	4219.21
468.789	4250.85
469.161	4380.34
469.534	4407.45
469.906	4550.5
470.278	4507.79
470.65	4599.77
471.022	4661.01
471.394	4687.9
471.766	4790.72
472.138	4814.9
472.51	4903.94
472.882	4960.66
473.253	5005.41
473.625	5100.32
473.997	5179.64
474.369	5249.01
474.74	5297.15
475.112	5390.93
475.484	5486.75
475.855	5556.35
476.227	5599.06
476.598	5722.22
476.97	5784.37
477.341	5872.73
477.713	5975.1
478.084	5994.31
478.455	6149.33
478.827	6225.03
479.198	6338.93
479.569	6392.26
479.94	6564.91
480.311	6620.96
480.682	6742.31
481.053	6872.02
481.424	6951.79
481.795	7012.36
482.166	7138.46
482.537	7171.22
482.908	7334.16
483.279	7438.56
483.65	7526.47
484.021	7675.84
484.391	7732.79
484.762	7792.68
485.133	7909.51
485.503	7993.12
485.874	8161.25
486.244	8207.81
486.615	8320.57
486.985	8401.93
487.356	8521.47
487.726	8631.3
488.097	8706.1
488.467	8782.03
488.837	8955.36
489.207	9057.5
489.578	9196.93
489.948	9274.45
490.318	9394.67
490.688	9432.63
491.058	9511.05
491.428	9658.39
491.798	9699.97
492.168	9845.5
492.538	9872.17
492.908	10020.87
493.278	10125.27
493.648	10193.52
494.017	10279.16
494.387	10307.41
494.757	10349.67
495.126	10475.32
495.496	10507.63
495.866	10576.11
496.235	10620.62
496.605	10713.5
496.974	10667.63
497.344	10746.05
497.713	10869.21
498.082	10959.6
498.452	11022.42
498.821	10986.94
499.19	11009.09
499.559	11172.7
499.928	11167.73
500.298	11240.27
500.667	11294.96
501.036	11310.32
501.405	11426.93
501.774	11374.05
502.143	11484.56
502.512	11545.35
502.88	11638.68
503.249	11593.71
503.618	11628.06
503.987	11670.09
504.356	11726.36
504.724	11752.57
505.093	11781.05
505.462	11712.8
505.83	11835.73
506.199	11929.97
506.567	12067.14
506.936	11955.96
507.304	12113.24
507.672	12079.34
508.041	12125.67
508.409	12198.21
508.777	12280.92
509.145	12253.35
509.514	12212
509.882	12302.39
510.25	12288.6
510.618	12386
510.986	12391.2
511.354	12489.73
511.722	12527.47
512.09	12633.91
512.458	12507.81
512.826	12526.34
513.193	12623.06
513.561	12672.1
513.929	12705.54
514.297	12702.6
514.664	12786.9
515.032	12786.44
515.4	12851.75
515.767	12768.36
516.135	12887.01
516.502	12770.17
516.869	12892.66
517.237	12903.73
517.604	12806.1
517.972	12945.31
518.339	12987.12
518.706	12919.77
519.073	13089.03
519.44	13106.44
519.808	13108.69
520.175	13024.18
520.542	13161.12
520.909	13158.19
521.276	13181.01
521.643	13227.34
522.009	13209.26
522.376	13261.01
522.743	13311.63
523.11	13349.14
523.477	13490.15
523.843	13375.81
524.21	13428.01
524.577	13430.72
524.943	13404.28
525.31	13489.7
525.676	13576.71
526.043	13528.8
526.409	13519.31
526.776	13663.03
527.142	13599.53
527.508	13489.7
527.874	13629.81
528.241	13599.76
528.607	13586.42
528.973	13632.75
529.339	13613.09
529.705	13708.23
530.071	13703.93
530.437	13667.78
530.803	13665.74
531.169	13732.18
531.535	13552.98
531.901	13577.38
532.267	13570.38
532.632	13606.08
532.998	13498.29
533.364	13577.61
533.73	13612.64
534.095	13610.6
534.461	13535.58
534.826	13592.75
535.192	13493.09
535.557	13617.38
535.923	13477.72
536.288	13431.17
536.653	13426.43
537.019	13286.54
537.384	13350.72
537.749	13305.98
538.114	13274.79
538.479	13263.27
538.845	13186.43
539.21	13103.05
539.575	13136.72
539.94	13197.05
540.305	13058.98
540.67	13035.25
541.034	13034.12
541.399	12995.7
541.764	12988.25
542.129	12904.63
542.494	12836.16
542.858	12869.61
543.223	12868.7
543.587	12832.54
543.952	12722.94
544.316	12740.79
544.681	12639.78
545.045	12668.93
545.41	12715.94
545.774	12625.32
546.138	12510.29
546.503	12543.96
546.867	12447.7
547.231	12398.66
547.595	12444.76
547.959	12354.59
548.324	12371.31
548.688	12269.62
549.052	12283.18
549.416	12225.1
549.779	12274.82
550.143	12053.13
550.507	12164.09
550.871	12062.62
551.235	12081.6
551.599	12162.28
551.962	12044.99
552.326	11979.23
552.689	11933.36
553.053	11864.21
553.417	11878.9
553.78	11981.94
554.143	11876.18
554.507	11810.88
554.87	11785.79
555.234	11818.33
555.597	11766.13
555.96	11702.18
556.323	11762.06
556.686	11720.03
557.05	11732.01
557.413	11666.25
557.776	11710.54
558.139	11680.48
558.502	11623.54
558.865	11591.67
559.228	11722.97
559.59	11616.3
559.953	11567.04
560.316	11648.62
560.679	11626.02
561.041	11618.11
561.404	11639.35
561.767	11665.34
562.129	11527.04
562.492	11663.99
562.854	11627.15
563.217	11558
563.579	11593.71
563.941	11681.39
564.304	11594.38
564.666	11676.42
565.028	11663.31
565.39	11539.02
565.753	11598.68
566.115	11673.7
566.477	11700.14
566.839	11680.03
567.201	11768.17
567.563	11674.16
567.925	11726.81
568.287	11708.73
568.648	11739.92
569.01	11759.13
569.372	11743.53
569.734	11708.96
570.095	11731.33
570.457	11749.41
570.819	11839.8
571.18	11753.93
571.542	11779.69
571.903	11799.8
572.265	11837.54
572.626	11816.98
572.987	11807.94
573.349	11891.33
573.71	11855.85
574.071	11913.7
574.432	11894.94
574.794	11948.95
575.155	11957.09
575.516	11829.86
575.877	11870.54
576.238	11922.51
576.599	11901.27
576.96	11930.19
577.32	11901.95
577.681	11912.12
578.042	11955.96
578.403	11965.67
578.763	11910.76
579.124	12021.72
579.485	11981.04
579.845	12001.15
580.206	11980.59
580.566	11968.61
580.927	11934.04
581.287	12058.78
581.648	11906.92
582.008	11986.01
582.368	11868.5
582.728	11919.57
583.089	11930.42
583.449	11940.36
583.809	11924.32
584.169	11952.34
584.529	11958.44
584.889	12042.96
585.249	11975.84
585.609	11896.98
585.969	11977.43
586.329	11827.37
586.688	11950.31
587.048	11880.93
587.408	11864.43
587.768	11905.56
588.127	11852.23
588.487	11898.56
588.846	11942.85
589.206	11931.78
589.565	11789.63
589.925	11864.43
590.284	11874.83
590.643	11890.2
591.003	11893.81
591.362	11875.28
591.721	11819.01
592.08	11798.22
592.44	11802.51
592.799	11835.28
593.158	11818.79
593.517	11755.06
593.876	11839.58
594.235	11766.58
594.593	11768.62
594.952	11781.5
595.311	11740.6
595.67	11847.26
596.029	11869.18
596.387	11859.69
596.746	11797.77
597.104	11771.33
597.463	11714.38
597.822	11733.14
598.18	11783.98
598.538	11725.45
598.897	11756.87
599.255	11647.04
599.613	11825.34
599.972	11727.26
600.33	11780.82
600.688	11729.75
601.046	11689.75
601.404	11761.39
601.762	11744.44
602.12	11785.11
602.478	11863.53
602.836	11779.24
603.194	11741.27
603.552	11701.27
603.91	11659.24
604.268	11776.98
604.625	11680.71
604.983	11729.07
605.341	11641.39
605.698	11754.61
606.056	11809.29
606.413	11711.9
606.771	11809.97
607.128	11762.74
607.485	11773.59
607.843	11772.91
608.2	11707.15
608.557	11878.67
608.914	11722.97
609.272	11803.87
609.629	11758
609.986	11896.98
610.343	11812.46
610.7	11901.49
611.057	11853.59
611.414	11776.75
611.771	11884.09
612.127	11964.77
612.484	11886.81
612.841	11876.41
613.198	11902.4
613.554	11862.85
613.911	11974.49
614.267	11987.37
614.624	11889.97
614.98	11910.53
615.337	11900.37
615.693	11916.86
616.05	12046.58
616.406	11927.48
616.762	11974.94
617.118	11949.86
617.475	11979.69
617.831	11984.2
618.187	12023.53
618.543	12013.36
618.899	12101.72
619.255	12008.61
619.611	12015.62
619.967	12052
620.323	12073.92
620.678	12047.03
621.034	11982.4
621.39	12068.72
621.746	11928.61
622.101	12113.47
622.457	12041.15
622.812	12047.71
623.168	12039.57
623.523	12062.17
623.879	12082.73
624.234	11992.79
624.589	12040.93
624.945	12037.54
625.3	12011.1
625.655	12010.64
626.01	12044.77
626.365	12023.3
626.72	12057.42
627.075	11972.91
627.43	11962.51
627.785	11936.75
628.14	12008.38
628.495	12036.86
628.85	11991.44
629.205	11876.41
629.559	11943.53
629.914	11905.56
630.269	11978.33
630.623	11901.27
630.978	11871.44
631.332	11928.39
631.687	11938.33
632.041	11907.14
632.396	11841.84
632.75	11880.7
633.104	11881.38
633.459	11787.15
633.813	11695.4
634.167	11782.18
634.521	11710.09
634.875	11796.64
635.229	11724.1
635.583	11643.42
635.937	11645.91
636.291	11702.86
636.645	11643.87
636.999	11584.22
637.352	11628.73
637.706	11587.38
638.06	11640.94
638.413	11614.27
638.767	11550.54
639.121	11564.55
639.474	11434.16
639.828	11533.14
640.181	11478.23
640.534	11552.8
640.888	11560.26
641.241	11506.48
641.594	11421.06
641.947	11456.08
642.301	11509.41
642.654	11478
643.007	11444.78
643.36	11362.53
643.713	11432.58
644.066	11536.76
644.419	11384.45
644.771	11306.48
645.124	11237.11
645.477	11198.69
645.83	11111.69
646.182	11053.16
646.535	11055.19
646.888	11049.54
647.24	10980.16
647.593	11057.45
647.945	11014.29
648.298	10975.64
648.65	10939.71
649.002	10923.22
649.355	10964.8
649.707	11008.19
650.059	11076.43
650.411	11202.3
650.763	11188.75
651.115	11271.46
651.467	11234.62
651.819	11241.85
652.171	11259.93
652.523	11205.92
652.875	11236.2
653.227	11160.72
653.578	11219.93
653.93	11275.52
654.282	11177.22
654.633	11214.73
654.985	11243.66
655.337	11251.12
655.688	11255.18
656.039	11326.14
656.391	11143.77
656.742	11267.16
657.094	11249.76
657.445	11254.51
657.796	11244.79
658.147	11228.74
658.498	11224.22
658.849	11249.99
659.2	11235.52
659.551	11278.46
659.902	11235.07
660.253	11264.9
660.604	11288.4
660.955	11280.27
661.306	11260.16
661.656	11228.07
662.007	11257.22
662.358	11315.97
662.708	11207.5
663.059	11280.27
663.409	11169.08
663.76	11288.86
664.11	11296.54
664.461	11253.15
664.811	11336.99
665.161	11271
665.511	11279.36
665.862	11256.77
666.212	11326.14
666.562	11291.12
666.912	11294.51
667.262	11265.58
667.612	11288.18
667.962	11254.73
668.312	11217.22
668.662	11297.22
669.011	11219.25
669.361	11187.62
669.711	11216.77
670.06	11261.29
670.41	11262.64
670.76	11195.98
671.109	11211.8
671.459	11191.46
671.808	11139.48
672.157	11192.36
672.507	11069.65
672.856	11140.61
673.205	11111.01
673.554	11096.77
673.904	11150.78
674.253	11190.1
674.602	11220.16
674.951	10984
675.3	10934.97
675.649	11058.13
675.998	11051.35
676.346	11066.26
676.695	11155.98
677.044	11016.32
677.393	11066.26
677.741	11071.23
678.09	11023.78
678.438	11034.63
678.787	11072.82
679.135	10948.53
679.484	10855.19
679.832	10903.1
680.181	10925.93
680.529	10921.41
680.877	10931.13
681.225	10877.34
681.573	10891.13
681.922	10828.53
682.27	10885.02
682.618	10745.82
682.966	10723.9
683.314	10760.06
683.661	10765.71
684.009	10667.86
684.357	10670.57
684.705	10677.8
685.053	10709.66
685.4	10667.86
685.748	10576.11
686.095	10525.71
686.443	10501.98
686.79	10477.13
687.138	10463.79
687.485	10532.27
687.832	10432.16
688.18	10431.03
688.527	10383.79
688.874	10367.3
689.221	10368.88
689.568	10334.53
689.915	10251.37
690.262	10313.51
690.609	10197.81
690.956	10219.96
691.303	10207.98
691.65	10160.52
691.997	10106.74
692.344	10028.78
692.69	10128.66
693.037	10023.13
693.383	9894.32
693.73	10008.21
694.077	9920.08
694.423	9869.46
694.769	9838.27
695.116	9877.14
695.462	9826.75
695.808	9692.51
696.155	9759.86
696.501	9699.29
696.847	9669.92
697.193	9640.31
697.539	9584.04
697.885	9593.53
698.231	9432.63
698.577	9502.69
698.923	9515.79
699.269	9374.33
699.614	9392.41
699.96	9302.47
700.306	9352.18
700.651	9219.53
700.997	9268.12
701.342	9302.92
701.688	9249.36
702.033	9170.72
702.379	9154.45
702.724	9164.39
703.069	9140.21
703.415	9010.05
703.76	9005.53
704.105	8970.5
704.45	9004.85
704.795	8892.53
705.14	8817.28
705.485	8902.7
705.83	8775.48
706.175	8810.05
706.52	8744.52
706.865	8745.87
707.209	8688.92
707.554	8707
707.899	8685.76
708.243	8622.26
708.588	8663.16
708.932	8553.33
709.277	8586.78
709.621	8552.66
709.966	8532.32
710.31	8523.5
710.654	8463.62
710.998	8453.22
711.342	8398.54
711.687	8410.29
712.031	8365.09
712.375	8359.44
712.719	8343.62
713.063	8355.37
713.407	8406.9
713.75	8353.57
714.094	8305.66
714.438	8259.33
714.782	8296.17
715.125	8203.06
715.469	8248.26
715.812	8184.76
716.156	8157.41
716.499	8204.42
716.843	8125.1
717.186	8092.1
717.53	8221.82
717.873	8203.06
718.216	8100.01
718.559	8113.57
718.902	8081.71
719.246	8067.47
719.589	8090.97
719.932	8010.3
720.275	8049.62
720.617	7999.45
720.96	8015.04
721.303	8003.29
721.646	8014.59
721.989	7918.55
722.331	7987.93
722.674	7958.55
723.016	7951.09
723.359	7923.52
723.701	7871.32
724.044	7861.83
724.386	7876.29
724.729	7897.76
725.071	7912.67
725.413	7843.07
725.755	7932.56
726.097	7799.68
726.439	7778.89
726.782	7814.37
727.124	7864.99
727.465	7823.86
727.807	7825.9
728.149	7807.82
728.491	7806.46
728.833	7836.74
729.175	7846.23
729.516	7770.3
729.858	7774.15
730.199	7736.63
730.541	7770.98
730.882	7765.33
731.224	7783.19
731.565	7726.01
731.906	7780.25
732.248	7794.71
732.589	7808.72
732.93	7732.79
733.271	7766.46
733.612	7787.7
733.953	7736.18
734.294	7743.19
734.635	7811.43
734.976	7779.34
735.317	7774.82
735.658	7733.69
735.999	7784.77
736.339	7824.77
736.68	7822.05
737.021	7845.1
737.361	7745.9
737.702	7834.48
738.042	7792.45
738.383	7785.22
738.723	7779.12
739.063	7790.64
739.404	7826.57
739.744	7839.91
740.084	7836.07
740.424	7817.08
740.764	7846.23
741.104	7908.61
741.444	7865.67
741.784	7896.85
742.124	7878.78
742.464	7896.85
742.804	7910.19
743.143	7959.45
743.483	7955.38
743.823	7985.44
744.162	7942.5
744.502	8035.16
744.841	8025.21
745.181	8088.94
745.52	8083.97
745.86	8126.23
746.199	8154.02
746.538	8213.46
746.877	8231.31
747.216	8308.14
747.556	8312.66
747.895	8359.89
748.234	8391.53
748.573	8507.91
748.911	8497.52
749.25	8567.35
749.589	8640.11
749.928	8682.6
750.267	8788.58
750.605	8854.57
750.944	8922.36
751.283	8953.55
751.621	9107.22
751.96	9122.13
752.298	9246.65
752.636	9357.83
752.975	9495.23
753.313	9467.89
753.651	9689.58
753.989	9732.29
754.327	9819.52
754.666	9922.79
755.004	10091.6
755.342	10241.2
755.679	10304.02
756.017	10487.75
756.355	10608.2
756.693	10746.27
757.031	10878.92
757.368	11014.06
757.706	11173.6
758.044	11212.47
758.381	11534.72
758.719	11569.75
759.056	11847.71
759.394	12008.16
759.731	12081.15
760.068	12298.09
760.405	12417.41
760.743	12513.23
761.08	12800.91
761.417	12909.15
761.754	13159.32
762.091	13303.04
762.428	13525.41
762.765	13676.82
763.102	13871.39
763.438	13977.6
763.775	14142.34
764.112	14461.2
764.449	14630.69
764.785	14771.93
765.122	14886.95
765.458	14967.18
765.795	15158.36
766.131	15374.62
766.467	15502.98
766.804	15631.34
767.14	15837.89
767.476	15962.18
767.812	16101.84
768.148	16351.55
768.485	16330.08
768.821	16497.98
769.157	16742.72
769.492	16860.01
769.828	16978.65
770.164	17047.12
770.5	17159.89
770.836	17296.38
771.171	17324.63
771.507	17494.57
771.842	17481.91
772.178	17688.46
772.513	17765.3
772.849	17893.88
773.184	18011.16
773.519	18046.87
773.855	18201.22
774.19	18188.11
774.525	18355.11
774.86	18423.36
775.195	18454.99
775.53	18544.71
775.865	18520.53
776.2	18612.5
776.535	18596.23
776.87	18660.41
777.205	18735.89
777.539	18772.05
777.874	18948.32
778.209	18833.74
778.543	18873.97
778.878	18866.06
779.212	19001.65
779.547	18931.82
779.881	19193.51
780.215	19046.84
780.55	19146.5
780.884	19143.34
781.218	19170
781.552	19210.46
781.886	19124.36
782.22	19009.78
782.554	19298.14
782.888	19054.08
783.222	19151.47
783.556	19036.45
783.889	19004.59
784.223	18988.54
784.557	19010.01
784.89	19025.38
785.224	18975.21
785.557	19009.33
785.891	18990.8
786.224	18975.66
786.558	19093.4
786.891	18957.58
787.224	18900.86
787.557	18911.48
787.891	18965.26
788.224	19005.94
788.557	19008.43
788.89	18913.06
789.223	18938.6
789.556	18802.33
789.888	18831.48
790.221	18799.62
790.554	18726.85
790.887	18710.36
791.219	18673.07
791.552	18750.35
791.884	18689.34
792.217	18639.85
792.549	18657.25
792.882	18565.95
793.214	18474.2
793.546	18525.95
793.879	18442.34
794.211	18291.16
794.543	18372.06
794.875	18443.47
795.207	18388.1
795.539	18403.24
795.871	18244.61
796.203	18269.46
796.535	18121.9
796.867	18199.18
797.198	18092.74
797.53	17981.56
797.862	18103.37
798.193	18065.4
798.525	17957.38
798.856	18003.48
799.188	17779.08
799.519	17725.75
799.85	17675.35
800.182	17698.4
800.513	17666.09
800.844	17548.58
801.175	17709.48
801.506	17622.47
801.837	17626.77
802.168	17548.13
802.499	17445.08
802.83	17428.58
803.161	17352.65
803.491	17393.55
803.822	17402.59
804.153	17214.12
804.483	17175.48
804.814	17116.05
805.145	17111.75
805.475	17140.91
805.805	17027.01
806.136	17057.52
806.466	17046.44
806.796	17099.32
807.126	16937.75
807.457	16909.05
807.787	16834.25
808.117	16807.81
808.447	16857.52
808.777	16852.1
809.107	16761.48
809.436	16630.86
809.766	16678.54
810.096	16594.03
810.426	16480.13
810.755	16521.49
811.085	16551.54
811.414	16479.68
811.744	16390.64
812.073	16434.71
812.403	16381.15
812.732	16250.53
813.061	16329.4
813.39	16297.76
813.719	16196.07
814.049	16323.53
814.378	16278.78
814.707	16099.8
815.036	16197.2
815.365	16105.45
815.693	16000.82
816.022	16050.76
816.351	15893.03
816.68	15932.35
817.008	15966.02
817.337	15812.13
817.665	15714.95
817.994	15748.4
818.322	15792.47
818.651	15627.05
818.979	15636.31
819.307	15730.77
819.636	15689.42
819.964	15601.74
820.292	15578.69
820.62	15606.48
820.948	15647.61
821.276	15696.65
821.604	15545.69
821.932	15666.82
822.259	15628.63
822.587	15593.83
822.915	15605.8
823.243	15637.44
823.57	15526.26
823.898	15616.88
824.225	15569.42
824.553	15548.4
824.88	15534.39
825.207	15652.13
825.535	15549.99
825.862	15631.79
826.189	15496.88
826.516	15628.63
826.843	15660.49
827.17	15630.44
827.497	15687.84
827.824	15627.27
828.151	15719.47
828.478	15694.84
828.805	15643.09
829.131	15729.87
829.458	15601.96
829.785	15554.51
830.111	15582.3
830.438	15681.96
830.764	15658.01
831.09	15655.75
831.417	15597.89
831.743	15657.78
832.069	15690.55
832.395	15603.54
832.722	15648.52
833.048	15493.04
833.374	15598.8
833.7	15598.12
834.026	15502.53
834.351	15523.77
834.677	15566.48
835.003	15596.54
835.329	15511.8
835.654	15571.68
835.98	15415.07
836.306	15488.75
836.631	15355.64
836.956	15466.6
837.282	15436.09
837.607	15321.97
837.932	15258.24
838.258	15328.07
838.583	15244.23
838.908	15133.73
839.233	15301.63
839.558	15256.21
839.883	15129.66
840.208	15087.85
840.533	15127.85
840.858	15190.22
841.182	15180.05
841.507	15179.15
841.832	15045.82
842.156	14992.94
842.481	15019.83
842.805	14960.62
843.13	14911.81
843.454	14871.36
843.778	14825.71
844.103	14823
844.427	14759.05
844.751	14714.75
845.075	14674.3
845.399	14696.9
845.723	14601.99
846.047	14653.29
846.371	14458.49
846.695	14428.66
847.019	14395.44
847.343	14406.74
847.666	14290.13
847.99	14259.4
848.313	14248.1
848.637	14115.9
848.96	14119.06
849.284	14027.54
849.607	13985.28
849.931	13915.68
850.254	13920.2
850.577	13665.74
850.9	13738.06
851.223	13659.41
851.546	13610.6
851.869	13552.75
852.192	13571.06
852.515	13419.42
852.838	13367.9
853.161	13465.07
853.483	13261.69
853.806	13224.17
854.129	13211.97
854.451	13166.77
854.774	13102.59
855.096	13134.46
855.419	13044.97
855.741	12945.76
856.063	12973.33
856.385	12901.69
856.708	12846.1
857.03	12828.93
857.352	12856.27
857.674	12803.62
857.996	12761.59
858.318	12678.42
858.64	12668.03
858.961	12550.52
859.283	12593.68
859.605	12410.41
859.926	12566.79
860.248	12501.48
860.57	12452.89
860.891	12468.26
861.212	12369.73
861.534	12394.14
861.855	12341.26
862.176	12390.3
862.498	12297.64
862.819	12328.6
863.14	12292.67
863.461	12229.17
863.782	12216.29
864.103	12233.46
864.424	12172.45
864.745	12180.81
865.065	12034.37
865.386	12074.37
865.707	12050.64
866.027	12055.16
866.348	12009.29
866.668	12075.5
866.989	11901.04
867.309	11851.78
867.63	11963.41
867.95	11876.18
868.27	11863.3
868.59	11788.96
868.91	11833.7
869.23	11880.93
869.55	11717.77
869.87	11826.02
870.19	11785.79
870.51	11811.78
870.83	11798.22
871.15	11668.28
871.469	11735.85
871.789	11729.07
872.109	11685.23
872.428	11643.87
872.748	11661.5
873.067	11652.91
873.386	11574.72
873.706	11572.46
874.025	11492.47
874.344	11445.24
874.663	11574.27
874.982	11520.04
875.301	11451.11
875.62	11452.69
875.939	11411.56
876.258	11558.91
876.577	11427.16
876.896	11426.93
877.214	11382.86
877.533	11358.23
877.852	11389.19
878.17	11314.39
878.489	11291.34
878.807	11306.71
879.125	11278.91
879.444	11273.94
879.762	11177.22
880.08	11252.25
880.398	11173.83
880.716	11175.19
881.034	11139.03
881.352	11154.17
881.67	11076.66
881.988	11036.43
882.306	11017
882.624	10993.04
882.941	10980.39
883.259	10918.7
883.577	10958.92
883.894	10876.89
884.212	10893.39
884.529	10870.34
884.846	10868.98
885.164	10846.38
885.481	10747.63
885.798	10678.25
886.115	10704.01
886.432	10703.56
886.75	10685.93
887.067	10725.03
887.383	10688.19
887.7	10605.48
888.017	10576.56
888.334	10631.25
888.651	10516.67
888.967	10563.23
889.284	10519.16
889.6	10496.33
889.917	10370.69
890.233	10382.21
890.55	10318.49
890.866	10335.89
891.182	10328.65
891.498	10254.08
891.815	10246.17
892.131	10223.35
892.447	10193.29
892.763	10090.47
893.079	10076.91
893.395	10108.32
893.71	10042.11
894.026	10091.15
894.342	9919.63
894.657	9848.67
894.973	9896.35
895.289	9866.75
895.604	9931.15
895.92	9786.97
896.235	9774.09
896.55	9688.67
896.865	9702.68
897.181	9666.53
897.496	9641.44
897.811	9611.84
898.126	9585.85
898.441	9502.24
898.756	9584.49
899.071	9470.82
899.386	9443.03
899.7	9406.87
900.015	9394.44
900.33	9249.81
900.644	9295.01
900.959	9225.18
901.273	9298.85
901.588	9216.82
901.902	9095.24
902.216	9191.96
902.531	9122.58
902.845	9091.17
903.159	9031.06
903.473	8986.54
903.787	9015.92
904.101	8949.26
904.415	8920.1
904.729	8942.93
905.042	8788.13
905.356	8765.76
905.67	8831.97
905.984	8730.28
906.297	8729.15
906.611	8663.61
906.924	8661.35
907.237	8588.36
907.551	8582.49
907.864	8552.66
908.177	8553.11
908.491	8504.07
908.804	8422.04
909.117	8353.34
909.43	8362.38
909.743	8328.26
910.056	8319.22
910.368	8236.05
910.681	8225.89
910.994	8210.29
911.307	8164.19
911.619	8104.31
911.932	8123.29
912.244	8017.98
912.557	8041.03
912.869	7917.87
913.181	7951.32
913.494	7965.1
913.806	7875.16
914.118	7861.15
914.43	7797.42
914.742	7827.7
915.054	7804.88
915.366	7747.71
915.678	7702.28
915.99	7664.32
916.302	7585
916.613	7568.28
916.925	7503.19
917.236	7632.91
917.548	7533.47
917.859	7548.62
918.171	7418.45
918.482	7411.22
918.794	7359.47
919.105	7337.77
919.416	7310.88
919.727	7279.02
920.038	7322.86
920.349	7238.11
920.66	7185.01
920.971	7172.35
921.282	7181.62
921.593	7117.89
921.903	7082.86
922.214	7037.89
922.525	7029.08
922.835	7003.09
923.146	6966.03
923.456	6968.52
923.767	6909.76
924.077	6946.6
924.387	6844
924.697	6806.26
925.008	6793.15
925.318	6726.26
925.628	6750.67
925.938	6700.5
926.248	6676.77
926.558	6652.37
926.867	6656.89
927.177	6620.28
927.487	6581.86
927.796	6539.83
928.106	6482.43
928.416	6492.6
928.725	6448.53
929.034	6420.06
929.344	6434.75
929.653	6384.13
929.962	6331.92
930.271	6284.47
930.581	6296.9
930.89	6274.98
931.199	6268.42
931.508	6290.34
931.817	6259.38
932.125	6211.02
932.434	6127.64
932.743	6120.86
933.051	6097.58
933.36	6075.89
933.669	6055.55
933.977	6032.72
934.286	6028.2
934.594	5992.5
934.902	5931.03
935.21	5929.9
935.519	5957.7
935.827	5843.8
936.135	5893.97
936.443	5819.17
936.751	5842.45
937.059	5792.96
937.367	5757.02
937.674	5769.68
937.982	5678.16
938.29	5711.6
938.597	5697.59
938.905	5634.99
939.213	5606.97
939.52	5585.5
939.827	5618.72
940.135	5537.14
940.442	5522.23
940.749	5523.13
941.056	5476.13
941.363	5435
941.67	5390.48
941.977	5436.81
942.284	5382.8
942.591	5355.68
942.898	5361.78
943.205	5345.51
943.511	5286.53
943.818	5294.89
944.125	5232.52
944.431	5235
944.738	5235.91
945.044	5229.35
945.35	5115.46
945.657	5119.98
945.963	5132.63
946.269	5095.8
946.575	5082.69
946.881	5039.08
947.187	4989.59
947.493	4961.34
947.799	5002.69
948.105	4929.47
948.41	4870.49
948.716	4888.8
949.022	4917.95
949.327	4892.41
949.633	4849.93
949.938	4846.99
950.244	4863.49
950.549	4762.25
950.854	4817.84
951.16	4791.17
951.465	4729.03
951.77	4713.89
952.075	4682.93
952.38	4705.07
952.685	4698.52
952.99	4609.26
953.294	4601.57
953.599	4555.25
953.904	4585.53
954.209	4531.52
954.513	4535.13
954.818	4534.91
955.122	4471.18
955.426	4489.71
955.731	4439.32
956.035	4473.67
956.339	4440.9
956.643	4416.95
956.948	4437.28
957.252	4364.52
957.556	4341.24
957.86	4306.67
958.163	4294.69
958.467	4283.62
958.771	4317.29
959.075	4264.63
959.378	4226.22
959.682	4235.26
959.985	4170.62
960.289	4154.81
960.592	4188.48
960.896	4164.75
961.199	4142.38
961.502	4124.98
961.805	4064.64
962.108	4070.97
962.411	4028.48
962.714	3973.34
963.017	3995.26
963.32	3990.97
963.623	4012.66
963.926	3953.68
964.228	3954.36
964.531	3920.24
964.833	3922.27
965.136	3849.05
965.438	3845.89
965.741	3873.91
966.043	3849.28
966.345	3825.1
966.648	3805.89
966.95	3806.79
967.252	3786.68
967.554	3766.57
967.856	3792.56
968.158	3745.1
968.46	3712.11
968.761	3718.66
969.063	3676.4
969.365	3657.64
969.666	3653.35
969.968	3638.21
970.269	3652.67
970.571	3630.53
970.872	3567.7
971.174	3561.6
971.475	3570.19
971.776	3560.92
972.077	3522.28
972.378	3558.66
972.679	3528.61
972.98	3507.14
973.281	3456.29
973.582	3468.72
973.883	3419.91
974.183	3431.21
974.484	3397.09
974.785	3404.09
975.085	3401.61
975.386	3412.45
975.686	3373.81
975.986	3377.2
976.287	3329.74
976.587	3290.87
976.887	3295.62
977.187	3308.95
977.487	3267.15
977.787	3244.77
978.087	3247.94
978.387	3212.01
978.687	3188.05
978.987	3197.32
979.286	3137.21
979.586	3173.36
979.885	3129.52
980.185	3144.89
980.484	3107.15
980.784	3112.8
981.083	3099.69
981.382	3048.39
981.682	3081.16
981.981	3012.24
982.28	3029.86
982.579	2983.76
982.878	3007.27
983.177	2978.57
983.475	2999.36
983.774	2978.34
984.073	2911.67
984.372	2948.28
984.67	2943.99
984.969	2889.3
985.267	2916.19
985.566	2906.48
985.864	2862.86
986.162	2866.03
986.461	2820.15
986.759	2844.56
987.057	2841.17
987.355	2783.09
987.653	2799.81
987.951	2769.08
988.249	2778.57
988.547	2748.52
988.844	2769.53
989.142	2729.98
989.44	2684.56
989.737	2712.36
990.035	2704.22
990.332	2650.66
990.63	2669.65
990.927	2648.86
991.224	2642.53
991.521	2629.2
991.819	2580.16
992.116	2644.79
992.413	2603.43
992.71	2574.28
993.006	2551.68
993.303	2539.71
993.6	2533.15
993.897	2504.23
994.193	2535.87
994.49	2531.12
994.787	2466.71
995.083	2497.67
995.379	2491.12
995.676	2451.12
995.972	2433.5
996.268	2445.25
996.565	2451.8
996.861	2421.97
997.157	2404.57
997.453	2379.26
997.749	2365.47
998.044	2362.08
998.34	2358.24
998.636	2331.58
998.932	2292.71
999.227	2313.05
999.523	2296.78
999.818	2272.82
1000.114	2290
1000.409	2249.77
1000.704	2268.98
1001	2238.7
1001.295	2229.43
1001.59	2219.26
1001.885	2210.68
1002.18	2179.94
1002.475	2200.06
1002.77	2169.1
1003.065	2145.59
1003.359	2140.62
1003.654	2168.87
1003.949	2112.6
1004.243	2111.02
1004.538	2081.64
1004.832	2079.15
1005.127	2051.36
1005.421	2049.32
1005.715	2037.8
1006.009	2022.43
1006.304	2022.88
1006.598	2045.48
1006.892	2022.88
1007.186	1976.11
1007.48	1974.75
1007.773	1960.97
1008.067	1940.17
1008.361	1959.61
1008.655	1925.03
1008.948	1931.81
1009.242	1907.63
1009.535	1927.07
1009.829	1914.64
1010.122	1892.04
1010.415	1875.54
1010.708	1850.46
1011.001	1850.69
1011.295	1824.92
1011.588	1856.11
1011.881	1824.25
1012.173	1798.48
1012.466	1808.65
1012.759	1798.03
1013.052	1753.97
1013.344	1753.51
1013.637	1776.34
1013.93	1738.82
1014.222	1718.71
1014.514	1774.98
1014.807	1727.98
1015.099	1718.49
1015.391	1706.28
1015.683	1680.29
1015.976	1684.14
1016.268	1650.47
1016.56	1660.63
1016.851	1643.69
1017.143	1632.84
1017.435	1618.15
1017.727	1606.62
1018.018	1597.81
1018.31	1605.49
1018.602	1564.82
1018.893	1529.34
1019.185	1559.62
1019.476	1557.59
1019.767	1537.93
1020.058	1515.78
1020.35	1504.71
1020.641	1500.86
1020.932	1484.59
1021.223	1470.58
1021.514	1469.45
1021.804	1469.68
1022.095	1455.89
1022.386	1438.49
1022.677	1424.71
1022.967	1416.57
1023.258	1419.74
1023.548	1415.89
1023.839	1423.13
1024.129	1398.27
1024.419	1353.3
1024.709	1377.48
1025	1366.86
1025.29	1354.2
1025.58	1394.88
1025.87	1326.86
1026.16	1351.72
1026.449	1319.63
1026.739	1304.71
1027.029	1310.14
1027.319	1289.34
1027.608	1309.01
1027.898	1279.18
1028.187	1270.36
1028.477	1282.34
1028.766	1262.45
1029.055	1268.33
1029.344	1228.78
1029.634	1237.14
1029.923	1229.91
1030.212	1213.19
1030.501	1230.82
1030.79	1190.59
1031.078	1195.34
1031.367	1182.45
1031.656	1196.24
1031.945	1186.97
1032.233	1187.88
1032.522	1172.96
1032.81	1151.27
1033.099	1160.08
1033.387	1134.32
1033.675	1124.83
1033.963	1117.82
1034.251	1083.47
1034.54	1088.67
1034.828	1072.4
1035.116	1076.02
1035.403	1086.64
1035.691	1075.79
1035.979	1062.46
1036.267	1039.41
1036.554	1069.01
1036.842	1041.67
1037.129	1030.37
1037.417	1034.66
1037.704	1031.72
1037.992	1027.43
1038.279	1020.65
1038.566	996.02
1038.853	996.02
1039.14	996.02
