Data from hue_10_FLMS001491_7.txt Node
Date: Mon Feb 06 15:31:19 GMT 2017
User: dcchb
Spectrometer: FLMS00149
Trigger mode: 0
Integration Time (sec): 2.000000E-2
Scans to average: 10
Electric dark correction enabled: true
Nonlinearity correction enabled: false
Boxcar width: 0
XAxis mode: Wavelengths
Number of Pixels in Spectrum: 2048
>>>>>Begin Spectral Data<<<<<
341.393	-3.29
341.776	-3.29
342.16	-3.29
342.543	-49.62
342.927	-53.46
343.31	-79
343.693	-75.38
344.077	-68.6
344.46	-42.16
344.843	-42.16
345.226	-32.89
345.61	-31.31
345.993	-21.82
346.376	-17.98
346.759	5.07
347.142	12.3
347.525	33.77
347.908	69.93
348.291	89.59
348.674	85.07
349.057	115.58
349.44	135.24
349.823	151.06
350.206	166.2
350.588	175.91
350.971	219.75
351.354	220.21
351.737	226.76
352.119	232.18
352.502	253.2
352.884	267.21
353.267	284.39
353.65	291.84
354.032	323.03
354.414	300.88
354.797	303.14
355.179	328.68
355.562	317.38
355.944	336.36
356.326	303.82
356.709	343.82
357.091	337.27
357.473	346.08
357.855	363.25
358.238	336.59
358.62	331.62
359.002	343.37
359.384	336.59
359.766	341.33
360.148	334.55
360.53	335.01
360.912	342.46
361.294	320.09
361.676	344.5
362.057	313.76
362.439	353.54
362.821	329.58
363.203	337.94
363.584	332.29
363.966	332.29
364.348	329.13
364.729	331.16
365.111	326.42
365.493	321.67
365.874	307.89
366.256	318.96
366.637	311.96
367.019	315.34
367.4	299.53
367.781	312.63
368.163	324.61
368.544	312.41
368.925	306.53
369.306	333.2
369.688	310.37
370.069	304.5
370.45	306.53
370.831	303.59
371.212	306.76
371.593	317.83
371.974	306.31
372.355	308.11
372.736	311.05
373.117	304.72
373.498	310.83
373.879	330.49
374.26	298.85
374.641	331.84
375.021	324.61
375.402	306.98
375.783	325.29
376.163	329.58
376.544	326.42
376.925	334.1
377.305	318.73
377.686	325.29
378.066	331.39
378.447	324.61
378.827	334.78
379.208	311.73
379.588	335.23
379.968	328.9
380.349	342.01
380.729	327.1
381.109	342.91
381.489	337.72
381.87	335.23
382.25	317.6
382.63	354.67
383.01	342.69
383.39	328.9
383.77	329.36
384.15	328.68
384.53	350.15
384.91	338.4
385.29	346.3
385.67	345.63
386.049	346.76
386.429	320.77
386.809	344.72
387.189	342.46
387.568	352.18
387.948	339.52
388.328	361.9
388.707	367.32
389.087	354.21
389.466	346.08
389.846	339.52
390.225	361.45
390.605	367.32
390.984	348.56
391.363	369.35
391.743	360.09
392.122	354.21
392.501	362.8
392.881	368.22
393.26	371.84
393.639	375.46
394.018	358.73
394.397	399.64
394.776	366.64
395.155	364.16
395.534	366.19
395.913	382.46
396.292	381.56
396.671	382.24
397.05	384.72
397.429	404.16
397.808	384.04
398.186	364.84
398.565	379.07
398.944	360.09
399.323	376.81
399.701	374.78
400.08	363.71
400.458	386.98
400.837	369.35
401.215	393.08
401.594	398.96
401.972	393.53
402.351	375.91
402.729	396.47
403.107	387.43
403.486	379.07
403.864	401.22
404.242	390.82
404.62	400.54
404.999	416.36
405.377	426.08
405.755	413.42
406.133	410.71
406.511	399.41
406.889	417.72
407.267	408.9
407.645	417.72
408.023	435.79
408.401	414.33
408.779	412.74
409.156	404.38
409.534	430.14
409.912	399.18
410.29	431.27
410.667	422.91
411.045	438.96
411.422	435.79
411.8	439.64
412.178	446.64
412.555	441.67
412.933	446.19
413.31	443.93
413.687	455.91
414.065	449.35
414.442	450.71
414.819	460.88
415.197	457.04
415.574	468.11
415.951	471.95
416.328	467.66
416.705	464.04
417.082	461.78
417.46	448
417.837	480.76
418.214	478.05
418.591	509.01
418.967	492.52
419.344	492.06
419.721	491.16
420.098	492.06
420.475	505.17
420.852	504.27
421.228	527.54
421.605	505.62
421.982	519.86
422.358	505.62
422.735	506.07
423.111	520.54
423.488	534.55
423.864	528.45
424.241	542.91
424.617	501.78
424.994	528.67
425.37	526.64
425.746	520.76
426.123	555.79
426.499	533.64
426.875	553.08
427.251	521.89
427.627	564.38
428.003	570.93
428.379	554.43
428.756	544.04
429.132	578.84
429.507	542.46
429.883	582
430.259	574.1
430.635	577.26
431.011	574.32
431.387	579.97
431.763	595.56
432.138	596.24
432.514	597.15
432.89	604.83
433.265	608.9
433.641	629.91
434.016	604.6
434.392	631.27
434.767	617.03
435.143	633.75
435.518	639.86
435.894	634.88
436.269	645.05
436.644	653.87
437.02	638.5
437.395	637.37
437.77	676.24
438.145	661.1
438.52	668.1
438.895	691.38
439.271	677.37
439.646	702.68
440.021	689.35
440.395	726.41
440.77	676.47
441.145	683.47
441.52	702.68
441.895	714.2
442.27	701.55
442.645	717.82
443.019	711.04
443.394	734.54
443.769	730.7
444.143	695.22
444.518	719.85
444.892	689.57
445.267	762.34
445.641	729.35
446.016	725.96
446.39	750.14
446.764	751.04
447.139	734.99
447.513	752.4
447.887	748.55
448.262	765.73
448.636	763.02
449.01	791.26
449.384	753.75
449.758	767.08
450.132	774.77
450.506	783.58
450.88	786.07
451.254	780.42
451.628	802.11
452.002	812.73
452.376	817.48
452.75	815.9
453.123	800.3
453.497	816.8
453.871	840.53
454.244	858.38
454.618	860.42
454.992	845.05
455.365	865.84
455.739	870.81
456.112	869.23
456.486	872.62
456.859	895.89
457.232	880.53
457.606	907.65
457.979	915.1
458.352	926.63
458.725	949
459.099	929.11
459.472	948.32
459.845	961.66
460.218	946.74
460.591	934.54
460.964	984.48
461.337	986.29
461.71	1002.11
462.083	1009.79
462.456	1026.96
462.829	1007.53
463.201	1015.44
463.574	1044.59
463.947	1061.09
464.32	1068.09
464.692	1071.03
465.065	1092.95
465.438	1113.06
465.81	1107.41
466.183	1139.05
466.555	1136.11
466.928	1141.31
467.3	1143.8
467.672	1172.27
468.045	1201.2
468.417	1192.16
468.789	1224.93
469.161	1190.58
469.534	1202.33
469.906	1254.3
470.278	1244.59
470.65	1279.39
471.022	1311.02
471.394	1304.92
471.766	1336.79
472.138	1336.11
472.51	1360.97
472.882	1392.6
473.253	1348.31
473.625	1390.34
473.997	1468.08
474.369	1458.37
474.74	1494.52
475.112	1503.11
475.484	1528.19
475.855	1563.67
476.227	1577.46
476.598	1605.25
476.97	1614.97
477.341	1669.66
477.713	1683.67
478.084	1688.42
478.455	1718.02
478.827	1739.26
479.198	1785.81
479.569	1802.99
479.94	1860.61
480.311	1882.99
480.682	1923.44
481.053	1989.2
481.424	2012.48
481.795	2006.15
482.166	2023.77
482.537	2085.47
482.908	2101.74
483.279	2127.95
483.65	2224.22
484.021	2204.11
484.391	2260.83
484.762	2278.01
485.133	2315.97
485.503	2352.81
485.874	2399.58
486.244	2431.67
486.615	2522.29
486.985	2504.67
487.356	2565.46
487.726	2592.35
488.097	2631.89
488.467	2660.14
488.837	2748.95
489.207	2743.98
489.578	2781.95
489.948	2856.75
490.318	2862.4
490.688	2871.44
491.058	2950.08
491.428	2989.85
491.798	3000.02
492.168	3059
492.538	3048.83
492.908	3103.97
493.278	3178.77
493.648	3193.24
494.017	3209.28
494.387	3221.48
494.757	3281.14
495.126	3323.4
495.496	3372.89
495.866	3404.53
496.235	3432.33
496.605	3443.17
496.974	3473
497.344	3485.88
497.713	3491.98
498.082	3555.71
498.452	3603.39
498.821	3620.57
499.19	3633.45
499.559	3675.71
499.928	3662.83
500.298	3710.96
500.667	3752.32
501.036	3749.38
501.405	3776.5
501.774	3783.5
502.143	3867.79
502.512	3884.74
502.88	3850.85
503.249	3872.09
503.618	3945.08
503.987	3892.2
504.356	3893.56
504.724	3987.79
505.093	3987.34
505.462	3975.14
505.83	4011.97
506.199	4072.08
506.567	4123.15
506.936	4117.5
507.304	4143.04
507.672	4191.4
508.041	4198.41
508.409	4243.15
508.777	4183.04
509.145	4265.3
509.514	4302.58
509.882	4271.85
510.25	4341.91
510.618	4307.33
510.986	4376.25
511.354	4386.42
511.722	4402.69
512.09	4444.28
512.458	4454.22
512.826	4499.42
513.193	4478.17
513.561	4512.52
513.929	4496.7
514.297	4574.89
514.664	4555.01
515.032	4555.91
515.4	4613.54
515.767	4669.13
516.135	4637.49
516.502	4635.91
516.869	4692.4
517.237	4669.13
517.604	4675.68
517.972	4737.6
518.339	4754.32
518.706	4718.62
519.073	4797.49
519.44	4815.34
519.808	4825.96
520.175	4853.3
520.542	4832.74
520.909	4823.25
521.276	4941.21
521.643	4888.78
522.009	4969.69
522.376	4988.67
522.743	5015.79
523.11	5056.46
523.477	5059.85
523.843	5079.29
524.21	5123.13
524.577	5168.78
524.943	5136.24
525.31	5193.41
525.676	5223.69
526.043	5231.83
526.409	5280.86
526.776	5321.31
527.142	5341.43
527.508	5352.5
527.874	5425.04
528.241	5372.61
528.607	5447.64
528.973	5502.1
529.339	5501.88
529.705	5519.28
530.071	5535.09
530.437	5597.92
530.803	5591.14
531.169	5613.74
531.535	5634.75
531.901	5640.63
532.267	5704.36
532.632	5756.56
532.998	5704.58
533.364	5760.4
533.73	5820.96
534.095	5848.53
534.461	5872.94
534.826	5901.19
535.192	5889.66
535.557	5951.58
535.923	5977.34
536.288	5976.21
536.653	5985.93
537.019	6024.8
537.384	6030.9
537.749	6022.99
538.114	6022.31
538.479	6085.36
538.845	6142.08
539.21	6116.77
539.575	6178.92
539.94	6182.54
540.305	6224.57
540.67	6175.3
541.034	6258.01
541.399	6302.98
541.764	6320.38
542.129	6362.42
542.494	6335.53
542.858	6350.67
543.223	6429.99
543.587	6449.42
543.952	6455.07
544.316	6445.58
544.681	6489.19
545.045	6493.71
545.41	6561.96
545.774	6520.83
546.138	6571.23
546.503	6628.63
546.867	6609.19
547.231	6705.69
547.595	6707.04
547.959	6721.73
548.324	6695.06
548.688	6803.76
549.052	6768.06
549.416	6813.93
549.779	6847.15
550.143	6849.41
550.507	6835.85
550.871	6862.52
551.235	6878.11
551.599	6983.19
551.962	7010.76
552.326	7036.3
552.689	7050.08
553.053	7074.72
553.417	7069.29
553.78	7185.67
554.143	7164.2
554.507	7208.95
554.87	7179.12
555.234	7279.91
555.597	7174.6
555.96	7272
556.323	7262.73
556.686	7302.28
557.05	7337.76
557.413	7333.01
557.776	7359.23
558.139	7359.23
558.502	7358.1
558.865	7352.45
559.228	7451.2
559.59	7477.19
559.953	7461.37
560.316	7573.91
560.679	7584.31
561.041	7581.82
561.404	7587.47
561.767	7704.08
562.129	7634.02
562.492	7774.58
562.854	7755.83
563.217	7746.11
563.579	7738.88
563.941	7877.41
564.304	7834.7
564.666	7894.13
565.028	7861.59
565.39	7910.85
565.753	8028.14
566.115	7969.61
566.477	8020.68
566.839	8003.28
567.201	8041.47
567.563	8081.24
567.925	8169.6
568.287	8144.97
568.648	8146.1
569.01	8163.5
569.372	8288.47
569.734	8320.11
570.095	8351.52
570.457	8375.25
570.819	8395.81
571.18	8418.18
571.542	8489.14
571.903	8454.34
572.265	8567.78
572.626	8579.31
572.987	8596.71
573.349	8609.59
573.71	8698.18
574.071	8734.56
574.432	8788.34
574.794	8867.44
575.155	8843.93
575.516	8930.26
575.877	9077.6
576.238	9047.77
576.599	9070.59
576.96	9192.17
577.32	9169.12
577.681	9281.44
578.042	9306.29
578.403	9416.57
578.763	9499.06
579.124	9560.07
579.485	9734.76
579.845	9718.26
580.206	9929.1
580.566	9991.25
580.927	10058.37
581.287	10191.92
581.648	10250
582.008	10484.12
582.368	10532.25
582.728	10630.33
583.089	10820.83
583.449	10893.15
583.809	11078.9
584.169	11180.6
584.529	11339.01
584.889	11563.18
585.249	11677.08
585.609	11816.29
585.969	12039.1
586.329	12264.18
586.688	12427.34
587.048	12547.11
587.408	12780.55
587.768	12974.9
588.127	13165.85
588.487	13413.08
588.846	13676.12
589.206	13873.63
589.565	13972.61
589.925	14316.33
590.284	14524.24
590.643	14822.76
591.003	15042.64
591.362	15394.04
591.721	15624.55
592.08	15823.19
592.44	16126.68
592.799	16465.65
593.158	16610.28
593.517	16838.3
593.876	17156.94
594.235	17459.3
594.593	17706.07
594.952	17992.17
595.311	18252.73
595.67	18491.36
596.029	18911.01
596.387	19301.29
596.746	19511.9
597.104	19675.29
597.463	20011.1
597.822	20413.57
598.18	20564.08
598.538	20840.91
598.897	21251.29
599.255	21381.68
599.613	21906.64
599.972	22124.04
600.33	22396.57
600.688	22586.4
601.046	22957.69
601.404	23270.45
601.762	23648.74
602.12	23941.16
602.478	24049.41
602.836	24483.3
603.194	24507.93
603.552	24896.17
603.91	24923.06
604.268	25370.05
604.625	25506.09
604.983	26037.61
605.341	26154.89
605.698	26421.33
606.056	26751.49
606.413	26988.99
606.771	27378.36
607.128	27490.22
607.485	27568.41
607.843	27942.64
608.2	28219.92
608.557	28421.27
608.914	28640.7
609.272	28897.87
609.629	29172.67
609.986	29437.74
610.343	29715.93
610.7	30001.12
611.057	30228.23
611.414	30371.28
611.771	30515.68
612.127	30904.15
612.484	30927.2
612.841	31289.9
613.198	31343.91
613.554	31419.16
613.911	31829.32
614.267	32034.96
614.624	32212.13
614.98	32395.18
615.337	32653.93
615.693	32675.4
616.05	32879.23
616.406	33161.49
616.762	33116.52
617.118	33344.53
617.475	33452.33
617.831	33693.68
618.187	33871.98
618.543	33957.4
618.899	34346.09
619.255	34366.88
619.611	34431.74
619.967	34654.1
620.323	34687.32
620.678	34809.81
621.034	34870.82
621.39	35005.73
621.746	35114.66
622.101	35502.67
622.457	35299.06
622.812	35546.06
623.168	35705.37
623.523	35857.91
623.879	35941.53
624.234	35787.86
624.589	35911.25
624.945	36041.19
625.3	36192.59
625.655	36257
626.01	36358.69
626.365	36515.75
626.72	36556.43
627.075	36646.59
627.43	36668.06
627.785	36698.79
628.14	36863.08
628.495	36803.2
628.85	36652.24
629.205	36810.43
629.559	36928.39
629.914	36893.37
630.269	36964.78
630.623	37045
630.978	36866.47
631.332	37107.82
631.687	37243.64
632.041	37142.17
632.396	37220.59
632.75	37206.8
633.104	37236.63
633.459	37131.1
633.813	37143.98
634.167	37261.72
634.521	37310.76
634.875	37396.4
635.229	37397.76
635.583	37264.88
635.937	37151.89
636.291	37179.91
636.645	37325.45
636.999	37249.74
637.352	37231.44
637.706	37195.51
638.06	37401.6
638.413	37246.35
638.767	37186.01
639.121	37247.93
639.474	37154.38
639.828	37237.76
640.181	37268.27
640.534	37448.61
640.888	37191.21
641.241	37049.75
641.594	37159.12
641.947	37276.41
642.301	37240.25
642.654	37240.7
643.007	37287.03
643.36	37096.07
643.713	37146.47
644.066	37307.37
644.419	37000.03
644.771	36793.26
645.124	36618.57
645.477	36453.83
645.83	36238.47
646.182	36143.56
646.535	36050.9
646.888	36203.67
647.24	36004.58
647.593	36354.85
647.945	36080.73
648.298	35906.27
648.65	36022.88
649.002	35904.69
649.355	35975.2
649.707	35999.6
650.059	36199.83
650.411	36546.03
650.763	36683.88
651.115	36910.99
651.467	36871.9
651.819	36893.82
652.171	36744.9
652.523	36659.02
652.875	36868.96
653.227	36670.32
653.578	36740.38
653.93	36716.2
654.282	36576.76
654.633	36545.35
654.985	36642.3
655.337	36647.72
655.688	36583.77
656.039	36734.95
656.391	36477.33
656.742	36585.35
657.094	36506.71
657.445	36838.9
657.796	36557.1
658.147	36399.82
658.498	36479.82
658.849	36607.95
659.2	36484.34
659.551	36297
659.902	36473.72
660.253	36535.41
660.604	36452.25
660.955	36247.06
661.306	36469.42
661.656	36370.44
662.007	36480.27
662.358	36396.43
662.708	36479.14
663.059	36309.43
663.409	36218.58
663.76	36390.33
664.11	36326.15
664.461	36397.79
664.811	36360.05
665.161	36339.26
665.511	36261.29
665.862	36320.5
666.212	36503.55
666.562	36433.04
666.912	36322.08
667.262	36222.42
667.612	36322.08
667.962	36265.59
668.312	36245.02
668.662	36450.21
669.011	36338.8
669.361	36252.03
669.711	36198.24
670.06	36196.66
670.41	36260.84
670.76	36128.64
671.109	36319.6
671.459	36122.09
671.808	36012.49
672.157	36104.91
672.507	36008.87
672.856	36021.07
673.205	36135.87
673.554	36249.09
673.904	36076.89
674.253	36285.47
674.602	36217
674.951	35598.03
675.3	35333.86
675.649	35986.27
675.998	35965.93
676.346	36062.88
676.695	35983.11
677.044	35721.19
677.393	35832.83
677.741	35932.71
678.09	35927.29
678.438	35860.62
678.787	35833.05
679.135	35899.95
679.484	35483.69
679.832	35736.33
680.181	35476.23
680.529	35572.27
680.877	35516.91
681.225	35496.11
681.573	35663.34
681.922	35413.18
682.27	35388.77
682.618	35351.49
682.966	35197.82
683.314	35334.76
683.661	35309.23
684.009	35062.45
684.357	35066.97
684.705	35076.24
685.053	35189.91
685.4	34958.28
685.748	34751.05
686.095	34753.54
686.443	34812.29
686.79	34665.4
687.138	34690.94
687.485	34678.74
687.832	34434
688.18	34581.11
688.527	34372.08
688.874	34483.49
689.221	34321.46
689.568	34280.78
689.915	34240.1
690.262	34146.77
690.609	34063.38
690.956	33981.58
691.303	33892.99
691.65	33687.8
691.997	33699.1
692.344	33518.77
692.69	33427.24
693.037	33471.76
693.383	33308.15
693.73	33354.7
694.077	33172.33
694.423	33267.02
694.769	33000.36
695.116	33014.82
695.462	33049.4
695.808	32819.8
696.155	32977.76
696.501	32665.45
696.847	32613.93
697.193	32528.74
697.539	32491.45
697.885	32475.63
698.231	32429.3
698.577	32221.4
698.923	32235.64
699.269	32095.75
699.614	31982.31
699.96	31831.8
700.306	31877.23
700.651	31759.04
700.997	31722.88
701.342	31530.12
701.688	31567.63
702.033	31344.13
702.379	31363.57
702.724	31281.99
703.069	31403.57
703.415	31148.66
703.76	31071.15
704.105	31033.41
704.45	30875.67
704.795	30717.48
705.14	30637.71
705.485	30620.99
705.83	30596.13
706.175	30666.41
706.52	30390.94
706.865	30365.18
707.209	30394.55
707.554	30343.71
707.899	30430.94
708.243	30228.68
708.588	30224.16
708.932	29870.27
709.277	29899.88
709.621	29991.4
709.966	29733.1
710.31	29817.85
710.654	29573.11
710.998	29611.52
711.342	29597.51
711.687	29468.02
712.031	29421.02
712.375	29378.76
712.719	29362.94
713.063	29297.41
713.407	29363.39
713.75	29163.63
714.094	29246.56
714.438	29108.26
714.782	29075.94
715.125	29034.82
715.469	28941.71
715.812	28921.6
716.156	28654.71
716.499	28708.5
716.843	28788.95
717.186	28515.73
717.53	28687.71
717.873	28638.89
718.216	28479.8
718.559	28482.74
718.902	28119.13
719.246	28257.43
719.589	28324.78
719.932	28182.63
720.275	28125.91
720.617	27968.18
720.96	27999.59
721.303	28062.41
721.646	27987.61
721.989	27895.86
722.331	27866.71
722.674	27810.44
723.016	27776.54
723.359	27800.95
723.701	27797.11
724.044	27518.25
724.386	27648.19
724.729	27645.93
725.071	27397.57
725.413	27506.95
725.755	27483.67
726.097	27391.02
726.439	27141.76
726.782	27233.96
727.124	27343.56
727.465	27155.09
727.807	27221.76
728.149	27145.37
728.491	27134.53
728.833	27028.09
729.175	26964.14
729.516	26938.6
729.858	26818.15
730.199	26865.61
730.541	26962.78
730.882	26858.15
731.224	26937.24
731.565	26697.25
731.906	26730.47
732.248	26801.65
732.589	26671.71
732.93	26512.85
733.271	26543.81
733.612	26490.25
733.953	26577.71
734.294	26515.11
734.635	26418.61
734.976	26405.28
735.317	26143.37
735.658	26272.85
735.999	26327.54
736.339	26110.15
736.68	26247.32
737.021	26059.53
737.361	26031.5
737.702	26184.04
738.042	26142.24
738.383	25993.54
738.723	26083.03
739.063	25908.57
739.404	26042.35
739.744	25946.31
740.084	25889.14
740.424	25875.12
740.764	25815.92
741.104	25893.66
741.444	25728.69
741.784	25588.13
742.124	25728.69
742.464	25544.74
742.804	25600.33
743.143	25584.51
743.483	25458.19
743.823	25422.71
744.162	25384.29
744.502	25411.63
744.841	25257.97
745.181	25455.02
745.52	25272.88
745.86	25299.55
746.199	25180
746.538	25087.12
746.877	25187.46
747.216	25133.9
747.556	24974.13
747.895	25176.61
748.234	24822.5
748.573	24875.6
748.911	24904.08
749.25	24947.92
749.589	24699.79
749.928	24853.46
750.267	24772.1
750.605	24692.56
750.944	24682.39
751.283	24617.53
751.621	24815.49
751.96	24596.74
752.298	24518.32
752.636	24479.46
752.975	24439.91
753.313	24390.64
753.651	24526.46
753.989	24338.22
754.327	24363.53
754.666	24147.03
755.004	24159.24
755.342	24188.16
755.679	24144.77
756.017	23961.28
756.355	24137.09
756.693	23983.2
757.031	23973.03
757.368	23861.39
757.706	23866.82
758.044	23761.51
758.381	23724.67
758.719	23594.73
759.056	23725.8
759.394	23643.77
759.731	23495.53
760.068	23361.29
760.405	23326.27
760.743	23260.05
761.08	23145.93
761.417	23182.09
761.754	23205.14
762.091	23031.81
762.428	22920.4
762.765	22905.94
763.102	22978.7
763.438	22710.69
763.775	22731.93
764.112	22667.07
764.449	22757.24
764.785	22583.23
765.122	22432.96
765.458	22285.39
765.795	22329
766.131	22354.54
766.467	22221.21
766.804	22046.3
767.14	22049.24
767.476	21998.16
767.812	21962.91
768.148	21983.48
768.485	21808.79
768.821	21691.51
769.157	21644.28
769.492	21556.14
769.828	21592.98
770.164	21419.42
770.5	21338.29
770.836	21357.05
771.171	21147.79
771.507	21123.16
771.842	21080
772.178	21111.18
772.513	21012.2
772.849	20848.59
773.184	20750.74
773.519	20742.6
773.855	20701.7
774.19	20526.11
774.525	20541.03
774.86	20589.39
775.195	20439.79
775.53	20376.96
775.865	20224.88
776.2	20056.07
776.535	20050.65
776.87	19954.15
777.205	19895.39
777.539	19817.43
777.874	19878.67
778.209	19615.63
778.543	19658.11
778.878	19544.22
779.212	19579.47
779.547	19450.21
779.881	19515.07
780.215	19255.86
780.55	19370.89
780.884	19165.24
781.218	19086.38
781.552	19069.2
781.886	19070.56
782.22	18941.07
782.554	18878.92
782.888	18602.77
783.222	18666.73
783.556	18578.82
783.889	18509.22
784.223	18339.73
784.557	18324.14
784.89	18429.22
785.224	18323.91
785.557	18143.12
785.891	18113.07
786.224	18038.72
786.558	18152.16
786.891	17970.93
787.224	17916.46
787.557	17841.66
787.891	17832.4
788.224	17777.48
788.557	17661.33
788.89	17591.95
789.223	17715.34
789.556	17462.24
789.888	17477.38
790.221	17377.5
790.554	17291.62
790.887	17354.9
791.219	17122.59
791.552	17203.26
791.884	17087.56
792.217	17038.07
792.549	16979.77
792.882	16894.57
793.214	16708.81
793.546	16798.98
793.879	16661.13
794.211	16636.5
794.543	16605.31
794.875	16566.67
795.207	16643.28
795.539	16477.41
795.871	16536.39
796.203	16242.16
796.535	16199.45
796.867	16222.5
797.198	16281.7
797.53	16183.63
797.862	16067.02
798.193	16133.23
798.525	15945.22
798.856	15972.56
799.188	15849.63
799.519	15834.03
799.85	15707.71
800.182	15748.16
800.513	15799.46
800.844	15565.11
801.175	15625
801.506	15579.58
801.837	15437.43
802.168	15428.62
802.499	15475.17
802.83	15241.96
803.161	15277.21
803.491	15277.89
803.822	15249.64
804.153	15112.02
804.483	14979.59
804.814	15013.26
805.145	14936.43
805.475	14923.55
805.805	14928.52
806.136	14910.22
806.466	14860.27
806.796	14745.7
807.126	14784.57
807.457	14620.28
807.787	14768.98
808.117	14515.42
808.447	14522.2
808.777	14550.22
809.107	14461.64
809.436	14436.33
809.766	14423.45
810.096	14391.13
810.426	14380.06
810.755	14393.84
811.085	14296.9
811.414	14234.75
811.744	14178.03
812.073	14206.05
812.403	14128.54
812.732	14024.36
813.061	14039.96
813.39	14013.06
813.719	13944.36
814.049	14012.84
814.378	13855.78
814.707	13838.61
815.036	13878.15
815.365	13828.89
815.693	13672.28
816.022	13703.47
816.351	13637.03
816.68	13562
817.008	13591.61
817.337	13457.15
817.665	13509.35
817.994	13570.36
818.322	13510.7
818.651	13428.9
818.979	13388.22
819.307	13467.09
819.636	13477.94
819.964	13208.57
820.292	13352.52
820.62	13292.4
820.948	13176.93
821.276	13301.22
821.604	13237.94
821.932	13222.12
822.259	13293.08
822.587	13192.07
822.915	13224.38
823.243	13162.69
823.57	13234.1
823.898	13192.75
824.225	13209.24
824.553	13116.36
824.88	13242.69
825.207	13170.15
825.535	13184.84
825.862	13204.5
826.189	13163.37
826.516	13199.3
826.843	13198.4
827.17	13167.66
827.497	13163.14
827.824	13135.57
828.151	13183.71
828.478	13169.02
828.805	13217.38
829.131	13172.41
829.458	13071.62
829.785	13043.82
830.111	13150.71
830.438	13122.47
830.764	13050.83
831.09	13140.77
831.417	13061.68
831.743	13211.05
832.069	13052.41
832.395	13072.3
832.722	13075.01
833.048	13092.18
833.374	13030.94
833.7	13022.36
834.026	13002.69
834.351	13058.74
834.677	12926.99
835.003	13016.93
835.329	12936.26
835.654	13000.21
835.98	12927.44
836.306	12930.15
836.631	12891.06
836.956	12936.93
837.282	12824.39
837.607	12812.87
837.932	12821.46
838.258	12809.48
838.583	12839.54
838.908	12772.19
839.233	12717.05
839.558	12648.81
839.883	12622.82
840.208	12614.68
840.533	12647
840.858	12618.98
841.182	12629.6
841.507	12605.87
841.832	12544.63
842.156	12472.99
842.481	12439.32
842.805	12391.41
843.13	12412.2
843.454	12450.84
843.778	12328.81
844.103	12350.28
844.427	12302.83
844.751	12349.38
845.075	12308.48
845.399	12182.15
845.723	12119.78
846.047	12203.85
846.371	12096.5
846.695	12012.21
847.019	11996.62
847.343	11913.46
847.666	11865.78
847.99	11838.88
848.313	11774.93
848.637	11671.43
848.96	11742.16
849.284	11676.63
849.607	11639.57
849.931	11603.18
850.254	11489.97
850.577	11349.4
850.9	11374.72
851.223	11367.26
851.546	11288.39
851.869	11208.84
852.192	11299.24
852.515	11160.26
852.838	11148.05
853.161	11124.33
853.483	11144.66
853.806	10977.21
854.129	11019.02
854.451	10963.2
854.774	10878.23
855.096	10919.36
855.419	10865.35
855.741	10875.97
856.063	10713.72
856.385	10657.45
856.708	10690.89
857.03	10631.23
857.352	10698.35
857.674	10605.7
857.996	10552.59
858.318	10474.85
858.64	10544.68
858.961	10517.56
859.283	10490.67
859.605	10466.26
859.926	10484.79
860.248	10389.66
860.57	10365.48
860.891	10348.98
861.212	10361.63
861.534	10266.5
861.855	10254.52
862.176	10223.11
862.498	10235.76
862.819	10290.22
863.14	10190.34
863.461	10231.92
863.782	10151.24
864.103	10155.31
864.424	10047.74
864.745	10164.35
865.065	10100.4
865.386	10027.86
865.707	10005.49
866.027	10026.05
866.348	9975.66
866.668	10037.8
866.989	9904.92
867.309	9884.13
867.63	10006.84
867.95	9931.14
868.27	9784.02
868.59	9817.02
868.91	9817.02
869.23	9909.44
869.55	9744.7
869.87	9831.93
870.19	9799.16
870.51	9742.22
870.83	9778.82
871.15	9747.64
871.469	9722.78
871.789	9686.85
872.109	9703.8
872.428	9619.05
872.748	9667.19
873.067	9620.18
873.386	9622.9
873.706	9633.74
874.025	9602.78
874.344	9636.46
874.663	9588.55
874.982	9574.76
875.301	9555.1
875.62	9569.34
875.939	9485.95
876.258	9522.11
876.577	9412.96
876.896	9512.39
877.214	9473.97
877.533	9464.26
877.852	9440.75
878.17	9360.08
878.489	9434.65
878.807	9378.38
879.125	9356.46
879.444	9341.32
879.762	9305.16
880.08	9334.32
880.398	9213.42
880.716	9271.49
881.034	9245.51
881.352	9192.85
881.67	9209.12
881.988	9252.96
882.306	9197.82
882.624	9166.86
882.941	9146.98
883.259	9115.11
883.577	9008.45
883.894	8993.31
884.212	9021.78
884.529	8985.63
884.846	8984.72
885.164	8939.75
885.481	8887.1
885.798	8902.24
886.115	8932.07
886.432	8880.77
886.75	8868.34
887.067	8903.59
887.383	8730.49
887.7	8806.65
888.017	8756.48
888.334	8818.85
888.651	8771.17
888.967	8762.81
889.284	8707.44
889.6	8677.38
889.917	8624.96
890.233	8622.02
890.55	8544.06
890.866	8613.88
891.182	8557.16
891.498	8519.65
891.815	8545.64
892.131	8476.71
892.447	8434
892.763	8367.79
893.079	8416.83
893.395	8377.96
893.71	8369.37
894.026	8378.41
894.342	8257.51
894.657	8207.34
894.973	8276.94
895.289	8240.33
895.604	8216.38
895.92	8137.06
896.235	8151.75
896.55	8120.56
896.865	8146.55
897.181	8042.6
897.496	8085.08
897.811	8020.68
898.126	7969.15
898.441	7944.07
898.756	7914.69
899.071	7928.7
899.386	7886.45
899.7	7846.22
900.015	7763.96
900.33	7709.5
900.644	7742.72
900.959	7831.98
901.273	7703.85
901.588	7697.07
901.902	7612.55
902.216	7626.34
902.531	7579.33
902.845	7580.01
903.159	7523.74
903.473	7488.04
903.787	7481.26
904.101	7410.53
904.415	7451.2
904.729	7414.14
905.042	7395.16
905.356	7338.44
905.67	7307.03
905.984	7295.73
906.297	7277.2
906.611	7199.91
906.924	7243.75
907.237	7178.22
907.551	7201.04
907.864	7087.82
908.177	7121.27
908.491	7071.33
908.804	7001.95
909.117	7010.08
909.43	6983.42
909.743	6939.35
910.056	6946.13
910.368	6904.55
910.681	6898.45
910.994	6841.95
911.307	6801.73
911.619	6768.73
911.932	6804.21
912.244	6700.49
912.557	6730.09
912.869	6676.31
913.181	6657.1
913.494	6651.9
913.806	6633.37
914.118	6566.93
914.43	6579.81
914.742	6543.88
915.054	6489.65
915.366	6403.77
915.678	6425.47
915.99	6424.56
916.302	6390.89
916.613	6386.37
916.925	6326.71
917.236	6342.98
917.548	6281.52
917.859	6315.41
918.171	6257.11
918.482	6244.68
918.794	6181.63
919.105	6229.31
919.416	6098.47
919.727	6121.29
920.038	6064.8
920.349	6039.04
920.66	6038.13
920.971	5985.03
921.282	5980.51
921.593	5928.76
921.903	5912.94
922.214	5886.05
922.525	5873.62
922.835	5847.4
923.146	5822.32
923.456	5831.81
923.767	5822.77
924.077	5774.18
924.387	5774.18
924.697	5728.08
925.008	5752.49
925.318	5660.97
925.628	5653.96
925.938	5651.93
926.248	5631.59
926.558	5584.58
926.867	5563.12
927.177	5556.56
927.487	5545.04
927.796	5457.58
928.106	5461.65
928.416	5448.77
928.725	5422.33
929.034	5375.55
929.344	5394.53
929.653	5350.69
929.962	5322.22
930.271	5275.89
930.581	5298.04
930.89	5272.28
931.199	5226.63
931.508	5209.45
931.817	5217.81
932.125	5208.55
932.434	5133.3
932.743	5111.38
933.051	5078.61
933.36	5081.1
933.669	5048.1
933.977	5012.17
934.286	4973.08
934.594	5003.81
934.902	4969.23
935.21	4971.49
935.519	4948.44
935.827	4906.64
936.135	4872.97
936.443	4843.81
936.751	4778.5
937.059	4823.47
937.367	4771.05
937.674	4831.61
937.982	4750.03
938.29	4728.34
938.597	4762.91
938.905	4699.41
939.213	4683.37
939.52	4686.53
939.827	4694.66
940.135	4662.12
940.442	4613.99
940.749	4562.92
941.056	4618.06
941.363	4533.54
941.67	4505.52
941.977	4500.77
942.284	4486.76
942.591	4473.2
942.898	4391.62
943.205	4458.74
943.511	4402.24
943.818	4373.77
944.125	4377.16
944.431	4353.43
944.738	4354.33
945.044	4338.97
945.35	4318.86
945.657	4257.84
945.963	4304.62
946.269	4233.43
946.575	4243.6
946.881	4173.32
947.187	4216.49
947.493	4161.35
947.799	4188.92
948.105	4168.35
948.41	4132.65
948.716	4145.07
949.022	4102.14
949.327	4059.65
949.633	4017.62
949.938	4040.44
950.244	4016.94
950.549	3971.97
950.854	4000.45
951.16	3985.3
951.465	3909.83
951.77	3947.57
952.075	3917.74
952.38	3901.92
952.685	3916.15
952.99	3866.44
953.294	3852.2
953.599	3865.31
953.904	3785.76
954.209	3798.64
954.513	3790.73
954.818	3781.69
955.122	3752.32
955.426	3752.54
955.731	3683.17
956.035	3710.74
956.339	3625.09
956.643	3693.11
956.948	3690.4
957.252	3625.99
957.556	3643.84
957.86	3641.81
958.163	3578.31
958.467	3526.56
958.771	3602.72
959.075	3571.98
959.378	3563.4
959.682	3538.99
959.985	3522.94
960.289	3499.22
960.592	3454.47
960.896	3482.95
961.199	3442.95
961.502	3411.31
961.805	3417.41
962.108	3416.96
962.411	3358.88
962.714	3354.81
963.017	3329.05
963.32	3349.39
963.623	3302.84
963.926	3321.82
964.228	3282.5
964.531	3246.12
964.833	3295.38
965.136	3266
965.438	3249.73
965.741	3199.79
966.043	3232.1
966.345	3242.27
966.648	3187.36
966.95	3187.13
967.252	3159.11
967.554	3149.85
967.856	3157.08
968.158	3086.12
968.46	3127.47
968.761	3078.89
969.063	3065.55
969.365	3050.87
969.666	3042.28
969.968	3032.11
970.269	2992.79
970.571	3009.96
970.872	3019.45
971.174	2979.46
971.475	2988.95
971.776	2946.01
972.077	2937.65
972.378	2954.6
972.679	2930.87
972.98	2944.2
973.281	2946.91
973.582	2914.37
973.883	2873.47
974.183	2863.07
974.484	2837.54
974.785	2829.85
975.085	2814.49
975.386	2859.91
975.686	2767.48
975.986	2808.16
976.287	2786.24
976.587	2742.85
976.887	2747.15
977.187	2781.95
977.487	2725.22
977.787	2710.99
978.087	2684.77
978.387	2678.9
978.687	2663.98
978.987	2666.47
979.286	2644.1
979.586	2644.55
979.885	2644.32
980.185	2572.23
980.484	2609.3
980.784	2612.46
981.083	2589.64
981.382	2562.29
981.682	2595.74
981.981	2562.29
982.28	2534.04
982.579	2538.56
982.878	2539.47
983.177	2466.93
983.475	2515.06
983.774	2475.51
984.073	2482.97
984.372	2460.83
984.67	2456.76
984.969	2442.52
985.267	2434.61
985.566	2392.8
985.864	2444.1
986.162	2419.24
986.461	2379.92
986.759	2382.64
987.057	2374.95
987.355	2343.09
987.653	2337.66
987.951	2358.23
988.249	2327.5
988.547	2330.43
988.844	2293.37
989.142	2333.14
989.44	2333.6
989.737	2266.25
990.035	2282.75
990.332	2234.16
990.63	2267.16
990.927	2233.49
991.224	2242.75
991.521	2225.13
991.819	2188.29
992.116	2176.31
992.413	2202.98
992.71	2191
993.006	2183.54
993.303	2166.6
993.6	2144.45
993.897	2134.73
994.193	2143.32
994.49	2113.72
994.787	2095.86
995.083	2097.44
995.379	2085.02
995.676	2100.83
995.972	2102.42
996.268	2089.31
996.565	2046.15
996.861	2026.94
997.157	2060.84
997.453	2016.54
997.749	2007.96
998.044	1994.4
998.34	2001.18
998.636	1988.52
998.932	1982.19
999.227	1955.08
999.523	1933.38
999.818	1952.59
1000.114	1925.7
1000.409	1889.09
1000.704	1927.28
1001	1895.87
1001.295	1861.97
1001.59	1892.93
1001.885	1872.14
1002.18	1837.56
1002.475	1846.15
1002.77	1849.54
1003.065	1835.3
1003.359	1822.2
1003.654	1815.42
1003.949	1811.12
1004.243	1794.18
1004.538	1777.91
1004.832	1806.83
1005.127	1777.91
1005.421	1763.44
1005.715	1741.3
1006.009	1777.45
1006.304	1727.96
1006.598	1689.32
1006.892	1730.9
1007.186	1692.03
1007.48	1686.61
1007.773	1675.76
1008.067	1659.04
1008.361	1652.94
1008.655	1656.33
1008.948	1661.07
1009.242	1644.58
1009.535	1593.5
1009.829	1600.28
1010.122	1612.26
1010.415	1613.62
1010.708	1607.51
1011.001	1584.46
1011.295	1577.46
1011.588	1609.77
1011.881	1544.24
1012.173	1549.21
1012.466	1534.75
1012.759	1538.14
1013.052	1526.61
1013.344	1509.89
1013.637	1523.22
1013.93	1495.43
1014.222	1464.24
1014.514	1491.81
1014.807	1496.56
1015.099	1485.48
1015.391	1474.41
1015.683	1434.64
1015.976	1425.82
1016.268	1430.12
1016.56	1426.95
1016.851	1398.03
1017.143	1447.07
1017.435	1411.14
1017.727	1369.78
1018.018	1373.4
1018.31	1367.97
1018.602	1364.13
1018.893	1382.89
1019.185	1346.5
1019.476	1324.13
1019.767	1332.27
1020.058	1297.47
1020.35	1322.32
1020.641	1296.56
1020.932	1309.89
1021.223	1281.42
1021.514	1306.51
1021.804	1288.2
1022.095	1287.97
1022.386	1264.47
1022.677	1236.9
1022.967	1249.11
1023.258	1231.7
1023.548	1235.77
1023.839	1229.22
1024.129	1200.52
1024.419	1201.65
1024.709	1217.69
1025	1195.1
1025.29	1207.98
1025.58	1177.92
1025.87	1166.62
1026.16	1145.61
1026.449	1171.59
1026.739	1149.22
1027.029	1152.84
1027.319	1136.34
1027.608	1156.68
1027.898	1104.48
1028.187	1094.99
1028.477	1092.05
1028.766	1108.09
1029.055	1095.21
1029.344	1085.04
1029.634	1056.34
1029.923	1068.55
1030.212	1089.11
1030.501	1065.16
1030.79	1053.18
1031.078	1038.26
1031.367	1047.08
1031.656	1025.83
1031.945	1039.85
1032.233	1029.9
1032.522	1000.98
1032.81	996.91
1033.099	994.42
1033.387	997.81
1033.675	994.65
1033.963	990.81
1034.251	990.58
1034.54	984.93
1034.828	953.52
1035.116	938.61
1035.403	942.9
1035.691	943.35
1035.979	928.89
1036.267	954.88
1036.554	924.14
1036.842	928.89
1037.129	943.58
1037.417	906.74
1037.704	925.95
1037.992	903.13
1038.279	877.36
1038.566	893.41
1038.853	893.41
1039.14	893.41
