Data from hue_100_FLMS001491_00021.txt Node
Date: Tue Feb 07 17:02:55 GMT 2017
User: dcchb
Spectrometer: FLMS00149
Trigger mode: 0
Integration Time (sec): 2.000000E-2
Scans to average: 10
Electric dark correction enabled: true
Nonlinearity correction enabled: false
Boxcar width: 0
XAxis mode: Wavelengths
Number of Pixels in Spectrum: 2048
>>>>>Begin Spectral Data<<<<<
341.393	-8.49
341.776	-8.49
342.16	-8.49
342.543	-59.79
342.927	-57.3
343.31	-65.44
343.693	-62.5
344.077	-83.06
344.46	-42.61
344.843	-49.84
345.226	-45.55
345.61	-35.38
345.993	-6.45
346.376	5.97
346.759	7.33
347.142	20.21
347.525	55.69
347.908	41
348.291	64.5
348.674	81.68
349.057	114.45
349.44	113.54
349.823	141.79
350.206	155.35
350.588	206.42
350.971	201.9
351.354	224.27
351.737	244.16
352.119	235.12
352.502	278.51
352.884	272.41
353.267	289.36
353.65	292.97
354.032	314.21
354.414	306.53
354.797	311.5
355.179	301.33
355.562	333.2
355.944	340.43
356.326	318.51
356.709	343.14
357.091	347.43
357.473	340.2
357.855	336.59
358.238	351.28
358.62	380.43
359.002	359.19
359.384	349.47
359.766	341.56
360.148	342.01
360.53	359.19
360.912	340.43
361.294	318.96
361.676	338.17
362.057	339.52
362.439	331.16
362.821	329.58
363.203	338.17
363.584	355.57
363.966	336.81
364.348	329.58
364.729	353.99
365.111	325.06
365.493	337.04
365.874	308.79
366.256	319.41
366.637	314.44
367.019	316.93
367.4	341.33
367.781	334.55
368.163	334.55
368.544	315.57
368.925	301.33
369.306	323.93
369.688	337.72
370.069	329.81
370.45	322.35
370.831	311.96
371.212	335.01
371.593	316.93
371.974	317.38
372.355	315.57
372.736	322.8
373.117	332.52
373.498	345.85
373.879	318.51
374.26	320.54
374.641	299.98
375.021	327.77
375.402	329.58
375.783	323.93
376.163	348.79
376.544	330.03
376.925	349.02
377.305	312.18
377.686	321.67
378.066	347.21
378.447	327.32
378.827	328
379.208	351.28
379.588	356.93
379.968	362.12
380.349	345.4
380.729	348.11
381.109	351.73
381.489	363.71
381.87	344.04
382.25	346.98
382.63	371.84
383.01	360.09
383.39	346.98
383.77	354.89
384.15	353.08
384.53	374.1
384.91	359.86
385.29	369.13
385.67	355.34
386.049	359.64
386.429	358.96
386.809	379.52
387.189	376.59
387.568	349.02
387.948	360.99
388.328	380.43
388.707	357.6
389.087	369.58
389.466	359.86
389.846	367.77
390.225	371.16
390.605	375.91
390.984	387.43
391.363	368.22
391.743	385.17
392.122	417.94
392.501	375
392.881	391.5
393.26	394.66
393.639	408.45
394.018	412.97
394.397	387.21
394.776	398.51
395.155	392.63
395.534	401.22
395.913	405.06
396.292	417.72
396.671	423.36
397.05	400.54
397.429	422.69
397.808	418.84
398.186	406.19
398.565	406.64
398.944	438.73
399.323	441.44
399.701	422.91
400.08	429.69
400.458	432.4
400.837	430.37
401.215	433.53
401.594	405.74
401.972	427.21
402.351	431.5
402.729	420.2
403.107	448.45
403.486	435.34
403.864	439.41
404.242	450.93
404.62	444.61
404.999	459.75
405.377	450.71
405.755	456.13
406.133	448
406.511	442.35
406.889	460.88
407.267	471.05
407.645	491.84
408.023	479.63
408.401	454.78
408.779	486.87
409.156	487.09
409.534	473.53
409.912	484.15
410.29	496.36
410.667	485.28
411.045	495.91
411.422	496.36
411.8	507.43
412.178	522.8
412.555	502.46
412.933	527.32
413.31	513.53
413.687	530.03
414.065	539.97
414.442	532.51
414.819	538.62
415.197	528.22
415.574	557.82
415.951	544.94
416.328	558.5
416.705	544.27
417.082	561.44
417.46	560.76
417.837	552.63
418.214	572.74
418.591	586.52
418.967	588.56
419.344	593.98
419.721	577.26
420.098	586.3
420.475	594.21
420.852	598.28
421.228	605.73
421.605	595.56
421.982	612.06
422.358	600.31
422.735	603.47
423.111	617.03
423.488	635.11
423.864	642.34
424.241	639.63
424.617	645.96
424.994	634.21
425.37	638.05
425.746	650.03
426.123	651.16
426.499	658.16
426.875	655.45
427.251	678.27
427.627	689.8
428.003	681.44
428.379	703.36
428.756	689.12
429.132	697.26
429.507	708.78
429.883	704.26
430.259	727.09
430.635	715.56
431.011	726.63
431.387	734.09
431.763	745.84
432.138	749.01
432.514	742.23
432.89	766.18
433.265	777.93
433.641	771.83
434.016	765.28
434.392	797.14
434.767	791.26
435.143	802.79
435.518	820.42
435.894	823.13
436.269	807.54
436.644	833.75
437.02	843.69
437.395	844.82
437.77	843.47
438.145	863.13
438.52	902.67
438.895	865.16
439.271	866.29
439.646	882.11
440.021	898.15
440.395	907.42
440.77	919.85
441.145	917.14
441.52	923.46
441.895	925.05
442.27	927.08
442.645	928.21
443.019	972.28
443.394	946.51
443.769	963.46
444.143	971.15
444.518	981.54
444.892	974.76
445.267	987.42
445.641	964.37
446.016	974.31
446.39	1019.28
446.764	1007.53
447.139	995.33
447.513	1018.83
447.887	1021.31
448.262	1031.94
448.636	1032.84
449.01	1013.63
449.384	1067.64
449.758	1052.05
450.132	1066.96
450.506	1060.86
450.88	1106.28
451.254	1109
451.628	1118.26
452.002	1109.67
452.376	1131.59
452.75	1144.7
453.123	1143.57
453.497	1141.31
453.871	1163.46
454.244	1177.47
454.618	1171.37
454.992	1198.49
455.365	1194.87
455.739	1234.87
456.112	1245.04
456.486	1241.2
456.859	1267.86
457.232	1276.9
457.606	1306.73
457.979	1312.83
458.352	1319.84
458.725	1333.85
459.099	1356
459.472	1393.06
459.845	1373.62
460.218	1409.1
460.591	1443.22
460.964	1436.67
461.337	1484.35
461.71	1460.63
462.083	1502.66
462.456	1515.54
462.829	1539.27
463.201	1570
463.574	1581.3
463.947	1597.12
464.32	1611.81
464.692	1595.76
465.065	1645.25
465.438	1678.47
465.81	1718.47
466.183	1710.56
466.555	1756.89
466.928	1778.13
467.3	1788.3
467.672	1797.57
468.045	1859.49
468.417	1874.17
468.789	1912.82
469.161	1953.72
469.534	1966.83
469.906	2028.75
470.278	2054.28
470.65	2067.84
471.022	2118.01
471.394	2155.07
471.766	2167.95
472.138	2223.32
472.51	2253.37
472.882	2333.6
473.253	2364.1
473.625	2436.87
473.997	2494.27
474.369	2517.77
474.74	2592.8
475.112	2618.34
475.484	2640.48
475.855	2803.19
476.227	2817.65
476.598	2903.98
476.97	2963.64
477.341	3026.69
477.713	3131.77
478.084	3133.35
478.455	3288.37
478.827	3299.22
479.198	3461.93
479.569	3516.39
479.94	3633.68
480.311	3677.29
480.682	3811.75
481.053	3907.11
481.424	3998.41
481.795	4149.59
482.166	4200.89
482.537	4274.34
482.908	4422.13
483.279	4534.44
483.65	4670.48
484.021	4825.96
484.391	4877.26
484.762	4977.14
485.133	5106.86
485.503	5250.36
485.874	5407.87
486.244	5537.35
486.615	5696.22
486.985	5830.23
487.356	5986.38
487.726	6115.42
488.097	6277.45
488.467	6404.22
488.837	6611.68
489.207	6732.13
489.578	6936.64
489.948	7053.25
490.318	7257.76
490.688	7334.37
491.058	7535.27
491.428	7637.41
491.798	7866.33
492.168	8009.61
492.538	8173.67
492.908	8258.64
493.278	8500.44
493.648	8615.24
494.017	8744.28
494.387	8975
494.757	9060.43
495.126	9205.05
495.496	9318.05
495.866	9494.31
496.235	9591.49
496.605	9828.32
496.974	9942.44
497.344	10002.55
497.713	10197.34
498.082	10314.4
498.452	10510.11
498.821	10624
499.19	10670.78
499.559	10902.86
499.928	10981.96
500.298	11167.94
500.667	11195.51
501.036	11295.62
501.405	11464.2
501.774	11528.84
502.143	11725.21
502.512	11714.14
502.88	11899
503.249	11975.6
503.618	12064.41
503.987	12149.38
504.356	12263.28
504.724	12330.17
505.093	12459.66
505.462	12561.8
505.83	12733.1
506.199	12849.48
506.567	12909.59
506.936	13032.52
507.304	13088.79
507.672	13237.72
508.041	13272.07
508.409	13368.33
508.777	13474.32
509.145	13625.05
509.514	13630.25
509.882	13723.35
510.25	13722.9
510.618	13840.64
510.986	13886.29
511.354	14040.41
511.722	14142.1
512.09	14254.19
512.458	14276.56
512.826	14349.1
513.193	14379.16
513.561	14343.45
513.929	14564.46
514.297	14614.18
514.664	14684.68
515.032	14742.54
515.4	14837.9
515.767	14906.83
516.135	14930.33
516.502	14818.47
516.869	15035.86
517.237	15116.54
517.604	15057.56
517.972	15197.44
518.339	15274.05
518.706	15214.39
519.073	15296.65
519.44	15385.68
519.808	15516.53
520.175	15517.88
520.542	15617.54
520.909	15646.69
521.276	15587.71
521.643	15717.65
522.009	15804.2
522.376	15890.75
522.743	15921.94
523.11	15952.22
523.477	16064.76
523.843	16095.27
524.21	16232.21
524.577	16253.23
524.943	16283.29
525.31	16394.24
525.676	16470.63
526.043	16470.4
526.409	16452.77
526.776	16594.92
527.142	16576.61
527.508	16608.93
527.874	16663.84
528.241	16579.32
528.607	16752.65
528.973	16769.83
529.339	16747.91
529.705	16910.61
530.071	16877.17
530.437	16861.8
530.803	16932.99
531.169	16957.62
531.535	16848.02
531.901	16771.41
532.267	16878.53
532.632	16979.54
532.998	16901.35
533.364	17027.67
533.73	16982.7
534.095	17074.9
534.461	17029.93
534.826	17090.27
535.192	16967.79
535.557	17099.99
535.923	16889.82
536.288	16966.43
536.653	16975.02
537.019	16926.43
537.384	16989.03
537.749	17042.59
538.114	16974.34
538.479	16829.94
538.845	17019.09
539.21	16764.4
539.575	16818.87
539.94	16871.75
540.305	16836.72
540.67	16768.02
541.034	16747.91
541.399	16815.48
541.764	16739.09
542.129	16687.57
542.494	16766.21
542.858	16724.18
543.223	16710.62
543.587	16664.97
543.952	16605.99
544.316	16579.55
544.681	16591.53
545.045	16543.39
545.41	16570.96
545.774	16531.87
546.138	16411.87
546.503	16453.9
546.867	16420.91
547.231	16483.96
547.595	16420.23
547.959	16449.84
548.324	16318.31
548.688	16289.16
549.052	16257.75
549.416	16206.23
549.779	16267.24
550.143	16164.42
550.507	16288.94
550.871	16222.5
551.235	16186.34
551.599	16199.45
551.962	16167.58
552.326	16148.83
552.689	16173.91
553.053	15993.12
553.417	15984.31
553.78	16222.05
554.143	15966.68
554.507	16071.54
554.87	16002.16
555.234	16205.55
555.597	15903.64
555.96	15906.57
556.323	15968.72
556.686	15997.87
557.05	16080.58
557.413	15947.25
557.776	15970.53
558.139	15999
558.502	16002.39
558.865	15997.42
559.228	15956.97
559.59	15975.72
559.953	16004.42
560.316	16134.36
560.679	16097.53
561.041	16090.52
561.404	16164.65
561.767	16139.56
562.129	16075.83
562.492	16146.57
562.854	16095.72
563.217	16092.56
563.579	16101.14
563.941	16088.04
564.304	16112.67
564.666	16181.14
565.028	16144.31
565.39	16161.71
565.753	16290.97
566.115	16334.36
566.477	16213.01
566.839	16335.26
567.201	16394.7
567.563	16365.32
567.925	16436.95
568.287	16391.76
568.648	16468.59
569.01	16480.34
569.372	16527.12
569.734	16496.84
570.095	16563.96
570.457	16608.48
570.819	16455.71
571.18	16513.56
571.542	16570.74
571.903	16622.03
572.265	16652.09
572.626	16544.75
572.987	16654.35
573.349	16638.08
573.71	16721.47
574.071	16607.8
574.432	16704.52
574.794	16873.78
575.155	16695.93
575.516	16603.96
575.877	16722.82
576.238	16856.38
576.599	16789.49
576.96	16820.9
577.32	16809.37
577.681	16841.92
578.042	16925.76
578.403	16784.29
578.763	16927.56
579.124	16847.79
579.485	16952.2
579.845	16920.78
580.206	16864.97
580.566	16882.14
580.927	16885.76
581.287	16971.86
581.648	16819.54
582.008	16906.32
582.368	16769.38
582.728	16872.42
583.089	16784.29
583.449	16753.33
583.809	16787
584.169	16921.24
584.529	16776.38
584.889	16834.01
585.249	16703.39
585.609	16736.38
585.969	16725.08
586.329	16720.34
586.688	16780
587.048	16686.44
587.408	16768.25
587.768	16724.63
588.127	16650.51
588.487	16741.81
588.846	16724.4
589.206	16629.04
589.565	16585.65
589.925	16719.89
590.284	16617.97
590.643	16703.39
591.003	16677.63
591.362	16688.25
591.721	16688.93
592.08	16578.65
592.44	16692.54
592.799	16602.6
593.158	16596.72
593.517	16553.11
593.876	16568.25
594.235	16514.69
594.593	16531.87
594.952	16528.25
595.311	16533.9
595.67	16610.51
596.029	16691.86
596.387	16624.97
596.746	16666.55
597.104	16582.04
597.463	16467.24
597.822	16521.7
598.18	16490.74
598.538	16500.68
598.897	16613.67
599.255	16351.08
599.613	16589.95
599.972	16508.14
600.33	16469.04
600.688	16483.28
601.046	16506.78
601.404	16614.58
601.762	16567.8
602.12	16571.19
602.478	16504.07
602.836	16589.27
603.194	16444.64
603.552	16500
603.91	16462.49
604.268	16667.46
604.625	16554.24
604.983	16547.01
605.341	16448.93
605.698	16515.14
606.056	16603.05
606.413	16624.75
606.771	16591.98
607.128	16525.77
607.485	16633.11
607.843	16537.74
608.2	16595.82
608.557	16650.96
608.914	16558.76
609.272	16614.35
609.629	16758.98
609.986	16824.29
610.343	16617.74
610.7	16786.32
611.057	16737.29
611.414	16736.38
611.771	16737.96
612.127	16809.15
612.484	16743.61
612.841	16847.11
613.198	16772.77
613.554	16805.76
613.911	16895.02
614.267	16876.94
614.624	16876.49
614.98	16895.93
615.337	16909.71
615.693	16953.78
616.05	16887.79
616.406	16944.51
616.762	16893.44
617.118	16939.31
617.475	16913.1
617.831	17029.03
618.187	16963.49
618.543	17007.34
618.899	17010.5
619.255	17059.76
619.611	17016.6
619.967	17129.59
620.323	17155.81
620.678	17090.95
621.034	17046.66
621.39	17030.84
621.746	17041.01
622.101	17128.01
622.457	17173.66
622.812	17038.75
623.168	17014.57
623.523	17168.01
623.879	17132.76
624.234	17085.3
624.589	17078.75
624.945	17010.27
625.3	17117.16
625.655	17081.68
626.01	17041.23
626.365	16972.53
626.72	16973.21
627.075	17134.11
627.43	17012.31
627.785	17065.64
628.14	17099.08
628.495	17050.27
628.85	17091.4
629.205	17022.25
629.559	17060.22
629.914	17050.95
630.269	17065.41
630.623	16923.04
630.978	16896.38
631.332	17006.88
631.687	16995.81
632.041	16861.35
632.396	16976.6
632.75	16791.52
633.104	16798.98
633.459	16850.96
633.813	16789.04
634.167	16807.34
634.521	16740.45
634.875	16793.1
635.229	16684.41
635.583	16663.39
635.937	16684.18
636.291	16708.81
636.645	16579.1
636.999	16580.45
637.352	16700.68
637.706	16542.71
638.06	16670.62
638.413	16602.37
638.767	16573.67
639.121	16426.56
639.474	16480.57
639.828	16405.32
640.181	16443.96
640.534	16458.42
640.888	16446.67
641.241	16378.43
641.594	16341.14
641.947	16346.56
642.301	16360.57
642.654	16415.03
643.007	16385.66
643.36	16378.2
643.713	16299.33
644.066	16365.32
644.419	16267.47
644.771	16135.49
645.124	16037.64
645.477	16003.52
645.83	15879.68
646.182	15910.41
646.535	15805.56
646.888	15846.01
647.24	15778.89
647.593	15810.08
647.945	15715.17
648.298	15648.05
648.65	15580.93
649.002	15727.14
649.355	15718.33
649.707	15765.33
650.059	15778.44
650.411	15983.63
650.763	16042.84
651.115	16191.76
651.467	16058.89
651.819	16216.17
652.171	16079.22
652.523	16116.06
652.875	16076.06
653.227	15946.35
653.578	16124.87
653.93	16070.86
654.282	16120.35
654.633	16046.91
654.985	15965.78
655.337	16043.97
655.688	16143.63
656.039	16099.34
656.391	16010.53
656.742	16106.12
657.094	16081.26
657.445	16184.98
657.796	16107.92
658.147	16066.57
658.498	16040.81
658.849	16134.14
659.2	16128.71
659.551	16057.3
659.902	16138.43
660.253	16147.24
660.604	16104.99
660.955	16119.9
661.306	16022.05
661.656	16109.73
662.007	16115.38
662.358	16099.34
662.708	16163.06
663.059	16168.26
663.409	15968.94
663.76	16154.93
664.11	16129.39
664.461	16132.56
664.811	16179.11
665.161	16163.29
665.511	16108.15
665.862	16141.82
666.212	16222.05
666.562	16165.1
666.912	16168.49
667.262	16099.34
667.612	16220.01
667.962	16195.38
668.312	16168.04
668.662	16230.18
669.011	16082.84
669.361	16043.74
669.711	16159.67
670.06	16139.79
670.41	16106.34
670.76	16033.58
671.109	16113.8
671.459	16045.78
671.808	16047.13
672.157	16027.7
672.507	16009.4
672.856	15968.49
673.205	15966.68
673.554	16002.16
673.904	15938.21
674.253	16084.2
674.602	15965.78
674.951	15739.12
675.3	15711.55
675.649	15882.85
675.998	15840.13
676.346	15927.59
676.695	15914.71
677.044	15762.85
677.393	15849.63
677.741	15885.33
678.09	15824.54
678.438	15789.97
678.787	15844.88
679.135	15837.87
679.484	15619.58
679.832	15697.54
680.181	15660.03
680.529	15704.09
680.877	15539.13
681.225	15545.9
681.573	15675.17
681.922	15572.57
682.27	15476.98
682.618	15527.15
682.966	15468.39
683.314	15499.58
683.661	15429.98
684.009	15267.95
684.357	15256.42
684.705	15260.71
685.053	15281.73
685.4	15221.85
685.748	15075.63
686.095	15148.18
686.443	15137.1
686.79	15137.1
687.138	15078.12
687.485	15141.4
687.832	14991.57
688.18	15107.95
688.527	14913.83
688.874	14904.34
689.221	14868.41
689.568	14782.54
689.915	14765.59
690.262	14754.74
690.609	14732.59
690.956	14706.15
691.303	14702.54
691.65	14597
691.997	14546.16
692.344	14419.83
692.69	14461.87
693.037	14417.57
693.383	14246.28
693.73	14387.29
694.077	14213.28
694.423	14221.19
694.769	14258.26
695.116	14125.15
695.462	14152.5
695.808	14083.34
696.155	14020.75
696.501	13909.79
696.847	13930.58
697.193	13883.8
697.539	13883.58
697.885	13647.88
698.231	13710.25
698.577	13703.92
698.923	13646.97
699.269	13574.43
699.614	13578.95
699.96	13460.31
700.306	13430.71
700.651	13369.46
700.997	13323.14
701.342	13261.22
701.688	13344.83
702.033	13237.04
702.379	13197.72
702.724	13116.59
703.069	13183.03
703.415	13014.45
703.76	13051.96
704.105	12951.17
704.45	12982.81
704.795	12879.76
705.14	12818.74
705.485	12702.36
705.83	12764.96
706.175	12708.69
706.52	12734.68
706.865	12681.57
707.209	12627.79
707.554	12550.73
707.899	12562.03
708.243	12498.98
708.588	12469.6
708.932	12366.78
709.277	12344.41
709.621	12327.23
709.966	12200.68
710.31	12327.01
710.654	12145.99
710.998	12188.93
711.342	12183.28
711.687	12189.16
712.031	12145.77
712.375	11989.39
712.719	12033.68
713.063	12036.17
713.407	12061.7
713.75	11963.4
714.094	11988.26
714.438	11833.23
714.782	11878.66
715.125	11800.47
715.469	11865.78
715.812	11794.14
716.156	11778.55
716.499	11783.29
716.843	11748.04
717.186	11629.17
717.53	11770.86
717.873	11766.34
718.216	11646.8
718.559	11668.49
718.902	11645.44
719.246	11745.55
719.589	11580.59
719.932	11579.46
720.275	11589.4
720.617	11581.49
720.96	11540.59
721.303	11530.42
721.646	11504.88
721.989	11441.83
722.331	11503.75
722.674	11473.47
723.016	11461.04
723.359	11386.01
723.701	11472.11
724.044	11351.44
724.386	11300.59
724.729	11414.71
725.071	11357.77
725.413	11344.66
725.755	11320.03
726.097	11230.31
726.439	11234.83
726.782	11299.01
727.124	11284.55
727.465	11249.07
727.807	11217.66
728.149	11243.65
728.491	11173.59
728.833	11271.89
729.175	11166.13
729.516	11167.04
729.858	11278.9
730.199	11230.76
730.541	11207.26
730.882	11207.71
731.224	11183.99
731.565	11156.64
731.906	11205.68
732.248	11235.96
732.589	11156.87
732.93	11144.44
733.271	11177.43
733.612	11178.11
733.953	11219.24
734.294	11131.33
734.635	11188.51
734.976	11138.11
735.317	11136.98
735.658	11141.73
735.999	11107.6
736.339	11027.15
736.68	11117.77
737.021	11186.47
737.361	11054.05
737.702	11143.76
738.042	11093.14
738.383	11082.52
738.723	11172.91
739.063	11137.43
739.404	11200.93
739.744	11181.73
740.084	11225.79
740.424	11236.19
740.764	11187.83
741.104	11210.65
741.444	11294.49
741.784	11247.71
742.124	11329.07
742.464	11328.84
742.804	11294.49
743.143	11304.43
743.483	11407.93
743.823	11337.2
744.162	11359.35
744.502	11384.88
744.841	11430.98
745.181	11530.87
745.52	11492.45
745.86	11576.29
746.199	11534.48
746.538	11506.24
746.877	11659.91
747.216	11754.59
747.556	11763.18
747.895	11815.38
748.234	11779
748.573	11822.39
748.911	11957.75
749.25	12019.44
749.589	12067.13
749.928	12266.89
750.267	12231.87
750.605	12381.92
750.944	12324.75
751.283	12447.46
751.621	12600.67
751.96	12675.47
752.298	12812.19
752.636	12838.86
752.975	12910.04
753.313	13046.31
753.651	13153.65
753.989	13224.38
754.327	13327.21
754.666	13461.44
755.004	13515
755.342	13755.22
755.679	13887.19
756.017	13870.47
756.355	14212.61
756.693	14287.18
757.031	14497.57
757.368	14510.9
757.706	14690.79
758.044	14905.7
758.381	15031.57
758.719	15169.42
759.056	15396.76
759.394	15462.29
759.731	15602.85
760.068	15817.99
760.405	15953.13
760.743	16099.11
761.08	16290.52
761.417	16436.05
761.754	16532.77
762.091	16742.71
762.428	16822.71
762.765	17052.76
763.102	17219.53
763.438	17345.86
763.775	17481.67
764.112	17666.08
764.449	17963.24
764.785	18032.17
765.122	18118.49
765.458	18215.67
765.795	18395.55
766.131	18543.79
766.467	18733.84
766.804	18816.33
767.14	18853.39
767.476	19148.97
767.812	19158.47
768.148	19339.7
768.485	19328.63
768.821	19447.95
769.157	19580.37
769.492	19762.97
769.828	19781.05
770.164	19867.83
770.5	19990.53
770.836	20090.64
771.171	20131.09
771.507	20268.94
771.842	20249.51
772.178	20389.62
772.513	20460.13
772.849	20471.2
773.184	20623.29
773.519	20665.32
773.855	20703.51
774.19	20651.76
774.525	20786.44
774.86	20932.2
775.195	20883.62
775.53	20953.67
775.865	20915.48
776.2	20997.74
776.535	20920
776.87	20972.65
777.205	20991.19
777.539	20954.12
777.874	21099.88
778.209	21007.91
778.543	21078.19
778.878	21060.79
779.212	21059.66
779.547	20953.67
779.881	21044.07
780.215	21009.94
780.55	21121.35
780.884	21133.55
781.218	21102.82
781.552	21178.75
781.886	21087.91
782.22	20952.32
782.554	21007
782.888	20936.5
783.222	20991.19
783.556	20947.12
783.889	20826.44
784.223	20642.04
784.557	20675.49
784.89	20859.44
785.224	20776.28
785.557	20677.52
785.891	20639.78
786.224	20685.43
786.558	20763.17
786.891	20507.36
787.224	20524.76
787.557	20501.25
787.891	20508.94
788.224	20469.17
788.557	20436.4
788.89	20531.08
789.223	20506.23
789.556	20352.11
789.888	20417.64
790.221	20233.69
790.554	20067.37
790.887	20141.26
791.219	20182.85
791.552	20134.03
791.884	20049.29
792.217	20030.31
792.549	20013.13
792.882	19928.84
793.214	19798.9
793.546	19979.23
793.879	19764.32
794.211	19712.57
794.543	19637.32
794.875	19761.16
795.207	19782.86
795.539	19540.38
795.871	19673.93
796.203	19460.38
796.535	19379.48
796.867	19262.64
797.198	19391.23
797.53	19278.24
797.862	19293.6
798.193	19264.9
798.525	19103.1
798.856	19118.47
799.188	18979.26
799.519	19013.61
799.85	18805.71
800.182	18925.93
800.513	18858.81
800.844	18725.48
801.175	18830.34
801.506	18746.72
801.837	18766.84
802.168	18694.75
802.499	18582.89
802.83	18634.86
803.161	18571.36
803.491	18518.71
803.822	18537.01
804.153	18407.75
804.483	18242.78
804.814	18245.04
805.145	18212.28
805.475	18116.01
805.805	18130.92
806.136	18083.47
806.466	18169.11
806.796	18099.51
807.126	17963.92
807.457	17943.13
807.787	17916.24
808.117	17845.73
808.447	17735.9
808.777	17820.2
809.107	17830.36
809.436	17709.01
809.766	17629.69
810.096	17614.1
810.426	17608.68
810.755	17544.95
811.085	17573.65
811.414	17491.16
811.744	17348.12
812.073	17379.98
812.403	17311.51
812.732	17386.08
813.061	17282.13
813.39	17186.54
813.719	17099.54
814.049	17234.67
814.378	17222.92
814.707	17095.69
815.036	17063.38
815.365	17014.11
815.693	16916.94
816.022	16891.18
816.351	16836.72
816.68	16855.47
817.008	16883.95
817.337	16674.24
817.665	16580.45
817.994	16688.25
818.322	16634.92
818.651	16552.88
818.979	16494.35
819.307	16608.25
819.636	16621.36
819.964	16477.86
820.292	16556.73
820.62	16459.55
820.948	16371.19
821.276	16486.45
821.604	16417.97
821.932	16449.61
822.259	16486.45
822.587	16452.55
822.915	16323.96
823.243	16429.95
823.57	16341.59
823.898	16359.44
824.225	16390.18
824.553	16362.83
824.88	16446.45
825.207	16443.51
825.535	16354.02
825.862	16439.89
826.189	16307.47
826.516	16428.59
826.843	16548.14
827.17	16412.55
827.497	16504.07
827.824	16543.84
828.151	16521.7
828.478	16491.19
828.805	16468.82
829.131	16537.74
829.458	16403.74
829.785	16429.27
830.111	16382.04
830.438	16440.34
830.764	16365.54
831.09	16436.95
831.417	16309.27
831.743	16380.69
832.069	16434.69
832.395	16350.4
832.722	16321.7
833.048	16332.55
833.374	16277.19
833.7	16237.41
834.026	16315.38
834.351	16347.01
834.677	16243.74
835.003	16213.68
835.329	16298.65
835.654	16291.42
835.98	16145.21
836.306	16219.11
836.631	16086.23
836.956	16152.67
837.282	16134.59
837.607	16030.86
837.932	16000.58
838.258	16082.61
838.583	16077.42
838.908	15895.05
839.233	15966.68
839.558	15981.15
839.883	15794.26
840.208	15888.04
840.533	15874.03
840.858	15905.44
841.182	15802.62
841.507	15815.5
841.832	15695.05
842.156	15638.56
842.481	15709.52
842.805	15629.74
843.13	15650.08
843.454	15640.37
843.778	15469.97
844.103	15523.08
844.427	15438.34
844.751	15486.02
845.075	15413.25
845.399	15326.25
845.723	15182.98
846.047	15358.11
846.371	15167.84
846.695	15178.91
847.019	15074.5
847.343	15002.19
847.666	14935.75
847.99	14849.88
848.313	14877.45
848.637	14732.59
848.96	14668.41
849.284	14646.04
849.607	14564.01
849.931	14505.25
850.254	14416.67
850.577	14417.8
850.9	14213.28
851.223	14283.11
851.546	14277.69
851.869	14098.49
852.192	14166.51
852.515	14036.79
852.838	14012.16
853.161	14013.29
853.483	13891.94
853.806	13816.23
854.129	13833.63
854.451	13781.21
854.774	13766.06
855.096	13696.91
855.419	13614.2
855.741	13616.24
856.063	13542.12
856.385	13562.23
856.708	13531.04
857.03	13462.8
857.352	13415.11
857.674	13420.99
857.996	13318.62
858.318	13266.42
858.64	13269.81
858.961	13091.28
859.283	13149.58
859.605	13080.88
859.926	13147.78
860.248	13073.65
860.57	12992.53
860.891	13005.63
861.212	13029.59
861.534	12873.88
861.855	12816.49
862.176	12913.88
862.498	12819.42
862.819	12833.43
863.14	12864.62
863.461	12784.85
863.782	12717.73
864.103	12773.32
864.424	12677.51
864.745	12751.63
865.065	12643.83
865.386	12593.21
865.707	12587.11
866.027	12571.52
866.348	12524.74
866.668	12501.01
866.989	12473.44
867.309	12393.45
867.63	12526.55
867.95	12473.67
868.27	12382.37
868.59	12403.16
868.91	12337.18
869.23	12262.38
869.55	12256.27
869.87	12324.97
870.19	12287.69
870.51	12283.84
870.83	12339.66
871.15	12270.96
871.469	12324.52
871.789	12289.04
872.109	12160.01
872.428	12100.35
872.748	12162.04
873.067	12099.22
873.386	12142.83
873.706	12053.34
874.025	12012.44
874.344	11942.61
874.663	12034.36
874.982	12014.02
875.301	11996.39
875.62	11960.46
875.939	11969.95
876.258	11879.79
876.577	11906.23
876.896	11943.29
877.214	11860.13
877.533	11838.43
877.852	11895.15
878.17	11771.09
878.489	11794.59
878.807	11818.55
879.125	11729.73
879.444	11758.43
879.762	11652.67
880.08	11743.74
880.398	11643.63
880.716	11644.31
881.034	11646.8
881.352	11609.29
881.67	11560.02
881.988	11554.82
882.306	11513.47
882.624	11498.78
882.941	11389.4
883.259	11427.14
883.577	11384.66
883.894	11416.3
884.212	11338.33
884.529	11348.95
884.846	11291.33
885.164	11296.07
885.481	11217.43
885.798	11276.41
886.115	11185.12
886.432	11236.41
886.75	11207.04
887.067	11162.74
887.383	11095.4
887.7	11119.13
888.017	11063.54
888.334	11015.4
888.651	11006.59
888.967	10995.74
889.284	10918.23
889.6	10937.44
889.917	10786.26
890.233	10816.99
890.55	10775.63
890.866	10809.98
891.182	10730.89
891.498	10675.52
891.815	10639.14
892.131	10624.23
892.447	10586.49
892.763	10556.66
893.079	10574.06
893.395	10506.04
893.71	10528.86
894.026	10437.11
894.342	10409.77
894.657	10302.43
894.973	10317.79
895.289	10335.65
895.604	10326.16
895.92	10278.7
896.235	10165.26
896.55	10178.36
896.865	10106.73
897.181	10101.98
897.496	10160.28
897.811	10061.98
898.126	10031.7
898.441	9955.32
898.756	9923
899.071	9852.95
899.386	9912.15
899.7	9804.81
900.015	9779.73
900.33	9686.62
900.644	9746.51
900.959	9740.41
901.273	9640.07
901.588	9537.02
901.902	9550.13
902.216	9541.99
902.531	9533.18
902.845	9511.04
903.159	9406.86
903.473	9332.73
903.787	9372.28
904.101	9359.85
904.415	9294.77
904.729	9283.47
905.042	9202.34
905.356	9177.03
905.67	9193.3
905.984	9132.29
906.297	9132.74
906.611	9057.71
906.924	8988.34
907.237	8972.97
907.551	8920.99
907.864	8893.42
908.177	8873.54
908.491	8920.77
908.804	8839.19
909.117	8709.02
909.43	8716.48
909.743	8655.92
910.056	8633.09
910.368	8626.54
910.681	8560.78
910.994	8588.8
911.307	8521
911.619	8481.91
911.932	8512.64
912.244	8390.61
912.557	8410.95
912.869	8389.93
913.181	8314.91
913.494	8303.16
913.806	8241.92
914.118	8221.13
914.43	8146.1
914.742	8172.54
915.054	8104.29
915.366	8071.07
915.678	8068.14
915.99	7970.06
916.302	7955.14
916.613	7973.9
916.925	7934.81
917.236	7904.52
917.548	7863.62
917.859	7853.9
918.171	7764.64
918.482	7749.27
918.794	7731.2
919.105	7781.82
919.416	7618.43
919.727	7619.56
920.038	7582.95
920.349	7551.31
920.66	7535.95
920.971	7473.57
921.282	7432.9
921.593	7387.25
921.903	7356.97
922.214	7404.65
922.525	7355.84
922.835	7280.36
923.146	7248.5
923.456	7286.91
923.767	7193.58
924.077	7161.49
924.387	7169.63
924.697	7101.38
925.008	7091.66
925.318	7029.07
925.628	7060.48
925.938	7006.02
926.248	6943.87
926.558	6929.63
926.867	6906.58
927.177	6849.41
927.487	6860.03
927.796	6772.8
928.106	6826.59
928.416	6777.77
928.725	6780.94
929.034	6674.05
929.344	6698.91
929.653	6637.44
929.962	6623.43
930.271	6538.46
930.581	6579.81
930.89	6550.66
931.199	6494.62
931.508	6429.31
931.817	6462.08
932.125	6468.63
932.434	6405.13
932.743	6340.5
933.051	6311.57
933.36	6319.25
933.669	6309.54
933.977	6261.63
934.286	6215.08
934.594	6279.71
934.902	6184.57
935.21	6161.74
935.519	6140.05
935.827	6128.53
936.135	6052.14
936.443	6043.1
936.751	6052.82
937.059	6052.37
937.367	6038.13
937.674	6011.24
937.982	5928.08
938.29	5891.02
938.597	5853.05
938.905	5874.07
939.213	5785.03
939.52	5839.49
939.827	5830.23
940.135	5677.69
940.442	5790.91
940.749	5688.76
941.056	5694.19
941.363	5636.11
941.67	5672.04
941.977	5611.7
942.284	5583.23
942.591	5590.91
942.898	5549.11
943.205	5555.43
943.511	5492.16
943.818	5501.65
944.125	5457.13
944.431	5471.59
944.738	5453.51
945.044	5432.05
945.35	5370.81
945.657	5342.56
945.963	5305.5
946.269	5293.07
946.575	5278.6
946.881	5254.88
947.187	5224.59
947.493	5255.55
947.799	5194.31
948.105	5137.36
948.41	5109.12
948.716	5158.61
949.022	5121.77
949.327	5079.97
949.633	5040.19
949.938	5032.51
950.244	5042.45
950.549	4983.92
950.854	4952.96
951.16	4950.7
951.465	4933.98
951.77	4896.92
952.075	4940.08
952.38	4870.71
952.685	4846.07
952.99	4790.48
953.294	4781.22
953.599	4777.37
953.904	4739.18
954.209	4719.97
954.513	4676.59
954.818	4721.33
955.122	4633.65
955.426	4629.58
955.731	4618.51
956.035	4556.59
956.339	4583.03
956.643	4588.23
956.948	4518.4
957.252	4538.96
957.556	4506.2
957.86	4505.74
958.163	4448.12
958.467	4468.68
958.771	4443.6
959.075	4431.62
959.378	4381.23
959.682	4445.63
959.985	4334.45
960.289	4343.49
960.592	4339.65
960.896	4294.45
961.199	4261.68
961.502	4305.75
961.805	4265.75
962.108	4254
962.411	4202.25
962.714	4168.35
963.017	4112.53
963.32	4192.53
963.623	4174.68
963.926	4113.66
964.228	4107.79
964.531	4081.35
964.833	4074.12
965.136	4049.26
965.438	4000.67
965.741	4044.06
966.043	3961.35
966.345	4000.67
966.648	3934.46
966.95	3953.22
967.252	3913.44
967.554	3864.18
967.856	3889.71
968.158	3852.2
968.46	3852.88
968.761	3845.87
969.063	3804.74
969.365	3776.04
969.666	3773.56
969.968	3766.1
970.269	3752.77
970.571	3757.97
970.872	3732.66
971.174	3679.32
971.475	3683.39
971.776	3713.67
972.077	3646.78
972.378	3657.63
972.679	3636.84
972.98	3603.17
973.281	3607.46
973.582	3555.26
973.883	3597.29
974.183	3579.89
974.484	3529.72
974.785	3531.53
975.085	3491.08
975.386	3484.75
975.686	3489.72
975.986	3485.66
976.287	3469.39
976.587	3403.17
976.887	3370.18
977.187	3390.52
977.487	3363.63
977.787	3372.44
978.087	3344.64
978.387	3338.32
978.687	3348.26
978.987	3290.41
979.286	3271.43
979.586	3269.39
979.885	3269.17
980.185	3249.96
980.484	3204.53
980.784	3250.18
981.083	3210.64
981.382	3194.37
981.682	3162.73
981.981	3181.26
982.28	3163.18
982.579	3100.58
982.878	3100.58
983.177	3093.58
983.475	3125.21
983.774	3040.24
984.073	3036.63
984.372	3036.4
984.67	2992.34
984.969	3034.14
985.267	3036.18
985.566	2988.04
985.864	2977.2
986.162	2965.67
986.461	2940.59
986.759	2954.37
987.057	2896.07
987.355	2912.56
987.653	2914.82
987.951	2863.07
988.249	2811.1
988.547	2837.54
988.844	2824.88
989.142	2842.74
989.44	2809.74
989.737	2786.01
990.035	2808.84
990.332	2775.39
990.63	2726.81
990.927	2750.99
991.224	2747.15
991.521	2733.81
991.819	2700.37
992.116	2699.91
992.413	2659.46
992.71	2639.58
993.006	2653.14
993.303	2678.22
993.6	2642.74
993.897	2607.04
994.193	2597.77
994.49	2599.35
994.787	2558.45
995.083	2578.56
995.379	2562.97
995.676	2543.31
995.972	2520.94
996.268	2501.73
996.565	2540.15
996.861	2474.61
997.157	2492.24
997.453	2474.61
997.749	2465.34
998.044	2445.91
998.34	2412.24
998.636	2442.29
998.932	2419.7
999.227	2399.36
999.523	2367.27
999.818	2371.34
1000.114	2345.8
1000.409	2318.23
1000.704	2310.09
1001	2302.41
1001.295	2309.87
1001.59	2301.28
1001.885	2273.26
1002.18	2252.92
1002.475	2238.91
1002.77	2235.29
1003.065	2240.49
1003.359	2232.13
1003.654	2215.63
1003.949	2218.35
1004.243	2198.69
1004.538	2157.1
1004.832	2159.14
1005.127	2114.85
1005.421	2143.77
1005.715	2124.11
1006.009	2142.42
1006.304	2089.54
1006.598	2088.86
1006.892	2113.26
1007.186	2044.56
1007.48	2059.71
1007.773	2031.01
1008.067	2044.11
1008.361	2033.27
1008.655	2026.71
1008.948	2009.99
1009.242	1972.93
1009.535	1993.04
1009.829	1920.05
1010.122	1935.19
1010.415	1962.99
1010.708	1943.55
1011.001	1917.56
1011.295	1922.76
1011.588	1875.53
1011.881	1889.54
1012.173	1871.46
1012.466	1887.05
1012.759	1829.66
1013.052	1856.77
1013.344	1829.43
1013.637	1786.04
1013.93	1824.46
1014.222	1797.57
1014.514	1799.37
1014.807	1788.3
1015.099	1741.3
1015.391	1767.51
1015.683	1741.3
1015.976	1743.1
1016.268	1736.55
1016.56	1707.4
1016.851	1711.92
1017.143	1677.34
1017.435	1685.48
1017.727	1648.87
1018.018	1678.47
1018.31	1647.06
1018.602	1654.97
1018.893	1630.56
1019.185	1598.02
1019.476	1616.55
1019.767	1585.37
1020.058	1570
1020.35	1581.3
1020.641	1533.39
1020.932	1536.1
1021.223	1530.91
1021.514	1515.31
1021.804	1513.96
1022.095	1514.18
1022.386	1514.18
1022.677	1480.06
1022.967	1463.11
1023.258	1481.19
1023.548	1486.16
1023.839	1468.31
1024.129	1417.69
1024.419	1430.34
1024.709	1421.98
1025	1409.1
1025.29	1415.2
1025.58	1381.08
1025.87	1375.88
1026.16	1375.43
1026.449	1376.33
1026.739	1371.81
1027.029	1363.68
1027.319	1327.52
1027.608	1315.54
1027.898	1343.34
1028.187	1320.29
1028.477	1296.34
1028.766	1299.27
1029.055	1293.17
1029.344	1273.74
1029.634	1271.93
1029.923	1277.13
1030.212	1266.73
1030.501	1270.8
1030.79	1251.37
1031.078	1238.26
1031.367	1248.88
1031.656	1208.43
1031.945	1214.76
1032.233	1211.14
1032.522	1181.08
1032.81	1161.88
1033.099	1178.37
1033.387	1172.5
1033.675	1175.66
1033.963	1155.55
1034.251	1149.9
1034.54	1144.93
1034.828	1124.82
1035.116	1136.57
1035.403	1114.65
1035.691	1111.93
1035.979	1094.99
1036.267	1088.21
1036.554	1081.88
1036.842	1076.45
1037.129	1100.18
1037.417	1076.68
1037.704	1066.51
1037.992	1060.41
1038.279	1050.01
1038.566	1043.01
1038.853	1043.01
1039.14	1043.01
