Data from hue_32_FLMS001491_00007.txt Node
Date: Tue Feb 07 17:22:50 GMT 2017
User: dcchb
Spectrometer: FLMS00149
Trigger mode: 0
Integration Time (sec): 2.000000E-2
Scans to average: 10
Electric dark correction enabled: true
Nonlinearity correction enabled: false
Boxcar width: 0
XAxis mode: Wavelengths
Number of Pixels in Spectrum: 2048
>>>>>Begin Spectral Data<<<<<
341.393	3.47
341.776	3.47
342.16	3.47
342.543	-73.36
342.927	-78.11
343.31	-68.16
343.693	-88.5
344.077	-57.99
344.46	-62.74
344.843	-52.57
345.226	-21.84
345.61	-41.95
345.993	0.54
346.376	-11.89
346.759	2.8
347.142	8.22
347.525	55.45
347.908	47.09
348.291	93.64
348.674	80.76
349.057	117.14
349.44	113.08
349.823	134.77
350.206	177.71
350.588	196.92
350.971	213.86
351.354	235.78
351.737	239.63
352.119	255.67
352.502	275.56
352.884	271.26
353.267	302.22
353.65	298.38
354.032	289.34
354.414	327.08
354.797	300.64
355.179	302.9
355.562	330.92
355.944	342.22
356.326	336.8
356.709	337.7
357.091	322.79
357.473	351.26
357.855	332.73
358.238	336.57
358.62	367.53
359.002	317.59
359.384	340.87
359.766	335.67
360.148	350.58
360.53	354.65
360.912	345.39
361.294	336.35
361.676	340.41
362.057	333.41
362.439	320.98
362.821	346.29
363.203	340.41
363.584	344.48
363.966	335.67
364.348	338.61
364.729	347.19
365.111	299.74
365.493	317.36
365.874	326.86
366.256	328.66
366.637	318.04
367.019	338.15
367.4	306.74
367.781	312.17
368.163	318.04
368.544	324.6
368.925	318.04
369.306	331.15
369.688	311.71
370.069	329.34
370.45	332.05
370.831	328.21
371.212	338.15
371.593	320.75
371.974	311.94
372.355	310.81
372.736	323.24
373.117	326.86
373.498	323.01
373.879	314.2
374.26	306.97
374.641	311.49
375.021	330.7
375.402	340.41
375.783	342.9
376.163	326.86
376.544	338.83
376.925	337.93
377.305	334.99
377.686	352.17
378.066	326.63
378.447	332.73
378.827	326.4
379.208	329.79
379.588	326.18
379.968	353.52
380.349	331.83
380.729	322.11
381.109	351.04
381.489	332.28
381.87	330.92
382.25	329.12
382.63	356.23
383.01	338.38
383.39	373.63
383.77	345.39
384.15	360.53
384.53	345.16
384.91	360.08
385.29	361.66
385.67	358.49
386.049	352.39
386.429	329.57
386.809	369.34
387.189	360.75
387.568	355.33
387.948	361.43
388.328	356.23
388.707	366.85
389.087	380.19
389.466	361.88
389.846	354.88
390.225	367.31
390.605	375.44
390.984	390.58
391.363	385.39
391.743	366.4
392.122	388.32
392.501	388.32
392.881	383.8
393.26	372.73
393.639	384.03
394.018	392.16
394.397	387.87
394.776	384.71
395.155	384.71
395.534	392.62
395.913	383.35
396.292	388.1
396.671	388.78
397.05	376.35
397.429	393.52
397.808	389.91
398.186	414.76
398.565	389
398.944	399.17
399.323	410.02
399.701	399.62
400.08	402.33
400.458	417.25
400.837	390.36
401.215	421.99
401.594	401.2
401.972	421.09
402.351	421.99
402.729	425.16
403.107	425.16
403.486	418.83
403.864	440.53
404.242	423.58
404.62	427.42
404.999	428.77
405.377	417.02
405.755	422.22
406.133	413.86
406.511	430.36
406.889	438.94
407.267	454.08
407.645	419.28
408.023	448.66
408.401	451.15
408.779	425.84
409.156	465.38
409.534	446.85
409.912	456.8
410.29	465.16
410.667	476
411.045	451.15
411.422	470.13
411.8	456.12
412.178	482.78
412.555	500.18
412.933	499.96
413.31	510.81
413.687	482.56
414.065	478.49
414.442	477.36
414.819	479.39
415.197	494.54
415.574	520.3
415.951	481.2
416.328	490.24
416.705	519.17
417.082	522.78
417.46	524.82
417.837	516.46
418.214	501.54
418.591	521.88
418.967	517.81
419.344	530.47
419.721	518.49
420.098	525.72
420.475	551.48
420.852	525.95
421.228	560.07
421.605	527.98
421.982	551.93
422.358	527.75
422.735	526.17
423.111	571.82
423.488	554.87
423.864	581.76
424.241	574.98
424.617	549.9
424.994	590.13
425.37	588.54
425.746	575.66
426.123	571.37
426.499	590.35
426.875	609.56
427.251	635.1
427.627	605.72
428.003	602.33
428.379	623.12
428.756	617.7
429.132	616.79
429.507	621.99
429.883	620.63
430.259	618.6
430.635	624.93
431.011	640.07
431.387	657.24
431.763	657.24
432.138	654.53
432.514	659.05
432.89	678.03
433.265	682.78
433.641	702.44
434.016	695.66
434.392	687.3
434.767	690.24
435.143	708.31
435.518	692.95
435.894	711.93
436.269	710.57
436.644	709.9
437.02	728.88
437.395	742.66
437.77	747.41
438.145	747.41
438.52	749.44
438.895	742.44
439.271	740.4
439.646	763.23
440.021	773.17
440.395	785.15
440.77	763
441.145	780.63
441.52	788.99
441.895	814.07
442.27	794.64
442.645	800.06
443.019	813.62
443.394	819.05
443.769	834.19
444.143	815.88
444.518	827.63
444.892	853.62
445.267	823.34
445.641	828.54
446.016	838.48
446.39	875.99
446.764	842.1
447.139	844.36
447.513	853.62
447.887	828.76
448.262	878.71
448.636	878.71
449.01	880.29
449.384	880.74
449.758	894.3
450.132	879.16
450.506	918.93
450.88	911.47
451.254	912.6
451.628	911.25
452.002	914.64
452.376	914.41
452.75	925.71
453.123	948.76
453.497	958.03
453.871	986.73
454.244	976.1
454.618	1000.96
454.992	973.17
455.365	986.27
455.739	1007.29
456.112	1025.82
456.486	1021.98
456.859	1048.42
457.232	1049.1
457.606	1060.62
457.979	1082.77
458.352	1052.49
458.725	1073.73
459.099	1127.29
459.472	1131.35
459.845	1149.89
460.218	1121.41
460.591	1153.95
460.964	1157.57
461.337	1156.44
461.71	1179.49
462.083	1202.31
462.456	1198.92
462.829	1229.43
463.201	1240.28
463.574	1235.53
463.947	1281.86
464.32	1273.95
464.692	1268.3
465.065	1305.81
465.438	1298.81
465.81	1340.84
466.183	1362.76
466.555	1375.19
466.928	1397.11
467.3	1385.59
467.672	1405.92
468.045	1444.79
468.417	1451.8
468.789	1455.41
469.161	1489.31
469.534	1506.71
469.906	1526.15
470.278	1555.3
470.65	1564.34
471.022	1580.38
471.394	1658.8
471.766	1666.03
472.138	1676.42
472.51	1706.48
472.882	1734.95
473.253	1750.55
473.625	1788.51
473.997	1810.43
474.369	1854.05
474.74	1874.39
475.112	1903.54
475.484	1950.99
475.855	1998.22
476.227	2046.81
476.598	2097.43
476.97	2110.99
477.341	2152.12
477.713	2187.37
478.084	2258.78
478.455	2318.22
478.827	2342.85
479.198	2440.25
479.569	2443.86
479.94	2467.36
480.311	2536.29
480.682	2609.96
481.053	2722.05
481.424	2751.65
481.795	2821.48
482.166	2874.59
482.537	2934.24
482.908	3027.35
483.279	3010.18
483.65	3079.55
484.021	3199.1
484.391	3261.47
484.762	3295.82
485.133	3370.17
485.503	3450.84
485.874	3536.26
486.244	3618.97
486.615	3717.73
486.985	3794.79
487.356	3859.19
487.726	3953.43
488.097	4042.24
488.467	4056.7
488.837	4182.8
489.207	4257.37
489.578	4350.48
489.948	4368.78
490.318	4544.82
490.688	4591.15
491.058	4677.25
491.428	4769.22
491.798	4858.94
492.168	4962.67
492.538	5049.9
492.908	5082.21
493.278	5217.8
493.648	5280.85
494.017	5400.62
494.387	5404.46
494.757	5471.81
495.126	5622.08
495.496	5634.06
495.866	5762.87
496.235	5812.59
496.605	5850.33
496.974	5918.8
497.344	6022.07
497.713	6073.15
498.082	6126.7
498.452	6265.68
498.821	6389.3
499.19	6387.49
499.559	6472.91
499.928	6542.51
500.298	6594.04
500.667	6660.7
501.036	6712.22
501.405	6805.1
501.774	6869.96
502.143	6965.55
502.512	6986.12
502.88	7096.62
503.249	7104.08
503.618	7179.56
503.987	7200.8
504.356	7285.54
504.724	7290.06
505.093	7457.52
505.462	7471.3
505.83	7547
506.199	7598.98
506.567	7678.53
506.936	7705.42
507.304	7852.53
507.672	7852.31
508.041	7959.65
508.409	8018.4
508.777	8061.57
509.145	8132.07
509.514	8122.36
509.882	8295.46
510.25	8165.97
510.618	8254.11
510.986	8345.85
511.354	8490.93
511.722	8541.78
512.09	8556.02
512.458	8560.54
512.826	8608.9
513.193	8731.61
513.561	8727.54
513.929	8772.51
514.297	8900.19
514.664	8924.37
515.032	8927.08
515.4	9120.75
515.767	9103.35
516.135	9179.28
516.502	9104.93
516.869	9240.52
517.237	9316.22
517.604	9212.95
517.972	9408.42
518.339	9439.84
518.706	9454.07
519.073	9506.95
519.44	9537.91
519.808	9696.78
520.175	9658.59
520.542	9742.2
520.909	9801.18
521.276	9835.08
521.643	9887.51
522.009	9993.49
522.376	10007.05
522.743	10104.9
523.11	10118.24
523.477	10280.49
523.843	10289.08
524.21	10457.66
524.577	10468.51
524.943	10492.69
525.31	10544.89
525.676	10589.64
526.043	10649.97
526.409	10772
526.776	10803.19
527.142	10833.7
527.508	10932.23
527.874	10989.17
528.241	11037.76
528.607	11081.83
528.973	11219.22
529.339	11174.71
529.705	11247.92
530.071	11415.15
530.437	11396.62
530.803	11522.95
531.169	11544.19
531.535	11546.9
531.901	11557.07
532.267	11625.09
532.632	11697.86
532.998	11718.42
533.364	11838.87
533.73	11921.58
534.095	11947.34
534.461	12018.98
534.826	12032.54
535.192	12033.89
535.557	12241.8
535.923	12188.01
536.288	12219.2
536.653	12306.65
537.019	12310.27
537.384	12374.45
537.749	12411.74
538.114	12370.15
538.479	12503.26
538.845	12599.75
539.21	12535.12
539.575	12644.05
539.94	12708.68
540.305	12812.86
540.67	12802.46
541.034	12870.71
541.399	12889.24
541.764	12954.32
542.129	13026.41
542.494	12984.83
542.858	13134.43
543.223	13125.39
543.587	13204.71
543.952	13208.33
544.316	13318.6
544.681	13329.23
545.045	13331.49
545.41	13463.46
545.774	13446.28
546.138	13486.06
546.503	13651.7
546.867	13521.09
547.231	13721.76
547.595	13741.42
547.959	13793.17
548.324	13774.86
548.688	13836.78
549.052	13930.79
549.416	14046.72
549.779	14023.22
550.143	14022.09
550.507	14114.29
550.871	14174.85
551.235	14051.69
551.599	14197.45
551.962	14347.5
552.326	14300.5
552.689	14448.74
553.053	14405.36
553.417	14462.3
553.78	14623.88
554.143	14514.51
554.507	14641.28
554.87	14653.48
555.234	14829.75
555.597	14677.89
555.96	14787.94
556.323	14786.36
556.686	14833.14
557.05	14959.01
557.413	14991.55
557.776	15049.86
558.139	15159.46
558.502	15215.28
558.865	15278.55
559.228	15341.38
559.59	15322.17
559.953	15361.04
560.316	15509.06
560.679	15484.88
561.041	15595.15
561.404	15620.01
561.767	15761.7
562.129	15690.29
562.492	15867.69
562.854	15784.75
563.217	15865.2
563.579	15839.22
563.941	16037.4
564.304	16057.97
564.666	16270.17
565.028	16176.16
565.39	16116.27
565.753	16272.88
566.115	16301.35
566.477	16354.01
566.839	16392.42
567.201	16621.34
567.563	16564.39
567.925	16651.17
568.287	16635.58
568.648	16774.78
569.01	16936.59
569.372	16994.21
569.734	16979.3
570.095	17037.15
570.457	17039.18
570.819	17098.39
571.18	17193.3
571.542	17353.75
571.903	17392.17
572.265	17500.87
572.626	17519.4
572.987	17600.53
573.349	17643.91
573.71	17833.29
574.071	17871.25
574.432	17954.41
574.794	18032.83
575.155	18166.39
575.516	18170.23
575.877	18288.19
576.238	18426.94
576.599	18455.87
576.96	18605.47
577.32	18624.45
577.681	18855.41
578.042	18972.47
578.403	19093.14
578.763	19160.03
579.124	19359.35
579.485	19492
579.845	19788.04
580.206	19810.86
580.566	19935.15
580.927	20016.73
581.287	20305.31
581.648	20398.87
582.008	20624.18
582.368	20754.79
582.728	20944.84
583.089	21030.49
583.449	21284.72
583.809	21369.01
584.169	21679.74
584.529	21832.73
584.889	22151.82
585.249	22286.5
585.609	22363.79
585.969	22812.59
586.329	22917.45
586.688	23208.97
587.048	23392.46
587.408	23617.32
587.768	23761.49
588.127	24079.9
588.487	24273.12
588.846	24721.69
589.206	24627.23
589.565	25006.88
589.925	25364.39
590.284	25445.07
590.643	25872.4
591.003	26141.77
591.362	26403.68
591.721	26763.9
592.08	26853.39
592.44	27080.73
592.799	27456.54
593.158	27783.54
593.517	27961.38
593.876	28110.98
594.235	28250.19
594.593	28607.24
594.952	29063.28
595.311	29146.66
595.67	29381.69
596.029	29806.76
596.387	30172.4
596.746	30364.26
597.104	30609
597.463	30720.86
597.822	31128.76
598.18	31258.7
598.538	31415.3
598.897	31896.65
599.255	31881.73
599.613	32394.04
599.972	32593.8
600.33	32914.02
600.688	32850.07
601.046	33151.3
601.404	33609.37
601.762	33663.83
602.12	34048.23
602.478	34249.13
602.836	34353.53
603.194	34440.99
603.552	34719.4
603.91	34850.69
604.268	35198.48
604.625	35355.99
604.983	35635.76
605.341	35515.31
605.698	35997.56
606.056	36215.4
606.413	36362.74
606.771	36595.73
607.128	36770.42
607.485	36720.25
607.843	37067.36
608.2	37197.75
608.557	37537.63
608.914	37406.78
609.272	37729.94
609.629	37948.24
609.986	38243.37
610.343	38266.88
610.7	38712.74
611.057	38590.71
611.414	38777.6
611.771	38902.56
612.127	39194.99
612.484	39289.22
612.841	39616.67
613.198	39509.1
613.554	39599.72
613.911	39910.67
614.267	39938.92
614.624	40006.94
614.98	40282.87
615.337	40492.58
615.693	40574.16
616.05	40617.55
616.406	40921.72
616.762	40832.46
617.118	40920.82
617.475	41044.66
617.831	41271.32
618.187	41354.93
618.543	41619.56
618.899	41638.54
619.255	41776.16
619.611	41745.43
619.967	41938.87
620.323	42270.61
620.678	42028.81
621.034	42044.18
621.39	42127.34
621.746	42277.62
622.101	42685.06
622.457	42441.91
622.812	42641.9
623.168	42644.84
623.523	42784.95
623.879	42882.8
624.234	42516.71
624.589	42950.14
624.945	42895.68
625.3	43061.1
625.655	43066.07
626.01	43181.1
626.365	43208.89
626.72	42941.55
627.075	43088.67
627.43	43268.33
627.785	43152.62
628.14	43304.26
628.495	43325.95
628.85	43478.26
629.205	43264.03
629.559	43511.94
629.914	43426.29
630.269	43515.32
630.623	43301.55
630.978	43401.43
631.332	43488.21
631.687	43727.75
632.041	43608.66
632.396	43566.17
632.75	43475.78
633.104	43518.71
633.459	43463.57
633.813	43559.39
634.167	43583.12
634.521	43474.42
634.875	43651.59
635.229	43634.87
635.583	43269.91
635.937	43486.85
636.291	43310.36
636.645	43398.49
636.999	43404.59
637.352	43357.36
637.706	43254.54
638.06	43468.77
638.413	43267.42
638.767	43267.2
639.121	43535.66
639.474	43121.66
639.828	43183.81
640.181	43198.72
640.534	43326.18
640.888	43217.48
641.241	43027.2
641.594	43279.4
641.947	43245.28
642.301	43255.44
642.654	43170.93
643.007	43040.53
643.36	43065.39
643.713	42978.62
644.066	43179.97
644.419	43036.92
644.771	42755.12
645.124	42285.98
645.477	42335.02
645.83	42093.89
646.182	41889.6
646.535	41919.89
646.888	41946.55
647.24	41674.24
647.593	42038.08
647.945	41915.59
648.298	41709.04
648.65	41579.33
649.002	41670.63
649.355	41817.06
649.707	41716.28
650.059	41934.35
650.411	42374.11
650.763	42348.35
651.115	42911.72
651.467	42685.29
651.819	42642.81
652.171	42569.81
652.523	42535.69
652.875	42587.44
653.227	42484.84
653.578	42548.12
653.93	42404.39
654.282	42285.3
654.633	42256.15
654.985	42337.28
655.337	42403.72
655.688	42379.76
656.039	42473.54
656.391	42075.36
656.742	42130.05
657.094	42236.26
657.445	42330.27
657.796	42269.93
658.147	42218.86
658.498	42206.21
658.849	42304.74
659.2	42212.08
659.551	42098.64
659.902	42271.74
660.253	42144.97
660.604	42266.77
660.955	41985.42
661.306	42252.76
661.656	42064.97
662.007	42180.44
662.358	42070.39
662.708	42172.31
663.059	42061.8
663.409	42025.87
663.76	42178.64
664.11	42173.21
664.461	42204.4
664.811	42107.45
665.161	42123.72
665.511	42052.09
665.862	41949.49
666.212	42165.08
666.562	42191.07
666.912	42011.18
667.262	41920.34
667.612	41851.19
667.962	42039.43
668.312	41965.53
668.662	42072.42
669.011	41962.6
669.361	41891.19
669.711	41862.71
670.06	41897.51
670.41	41842.83
670.76	41703.17
671.109	42093.67
671.459	41791.53
671.808	41727.58
672.157	41949.72
672.507	41596.96
672.856	41574.81
673.205	41711.98
673.554	41730.74
673.904	41601.48
674.253	41875.37
674.602	41644.41
674.951	41172.11
675.3	40990.19
675.649	41562.16
675.998	41601.7
676.346	41463.63
676.695	41767.12
677.044	41462.72
677.393	41662.72
677.741	41637.86
678.09	41533
678.438	41249.17
678.787	41357.19
679.135	41417.07
679.484	41181.37
679.832	41275.16
680.181	41042.85
680.529	41254.14
680.877	41094.15
681.225	41051.21
681.573	41226.12
681.922	40970.08
682.27	40860.03
682.618	40966.69
682.966	40675.4
683.314	40955.39
683.661	40764.89
684.009	40675.4
684.357	40662.29
684.705	40426.37
685.053	40658.68
685.4	40476.31
685.748	40344.11
686.095	40315.86
686.443	40311.79
686.79	40293.49
687.138	40227.28
687.485	40265.01
687.832	40027.96
688.18	40020.28
688.527	39984.8
688.874	39758.36
689.221	39757.68
689.568	39644.92
689.915	39578.71
690.262	39641.53
690.609	39519.95
690.956	39363.12
691.303	39357.02
691.65	39213.97
691.997	39133.29
692.344	39019.17
692.69	38993.41
693.037	38787.54
693.383	38527.89
693.73	38731.5
694.077	38518.39
694.423	38644.49
694.769	38388.68
695.116	38415.12
695.462	38293.09
695.808	38099.87
696.155	38258.06
696.501	37871.86
696.847	38002.25
697.193	37676.38
697.539	37826.21
697.885	37532.21
698.231	37372.89
698.577	37490.62
698.923	37378.76
699.269	37253.34
699.614	37051.54
699.96	37004.54
700.306	36951.43
700.651	36978.55
700.997	36723.64
701.342	36763.19
701.688	36580.14
702.033	36438.9
702.379	36485.68
702.724	36414.72
703.069	36581.5
703.415	36055.18
703.76	36040.95
704.105	36009.99
704.45	35947.61
704.795	35847.28
705.14	35755.53
705.485	35802.08
705.83	35517.57
706.175	35598.02
706.52	35506.27
706.865	35427.18
707.209	35281.19
707.554	35243.9
707.899	35299.04
708.243	35125.26
708.588	35028.54
708.932	34779.96
709.277	34987.41
709.621	34899.05
709.966	34665.39
710.31	34694.31
710.654	34546.75
710.998	34454.55
711.342	34502.68
711.687	34226.76
712.031	34217.04
712.375	34114.67
712.719	34124.39
713.063	34056.14
713.407	34266.98
713.75	33863.38
714.094	33977.72
714.438	33926.42
714.782	33852.3
715.125	33656.83
715.469	33859.31
715.812	33590.16
716.156	33440.79
716.499	33490.96
716.843	33418.87
717.186	33150.17
717.53	33395.14
717.873	33360.79
718.216	33264.52
718.559	32944.98
718.902	32980.91
719.246	33090.29
719.589	32817.07
719.932	32779.11
720.275	32694.59
720.617	32632.9
720.96	32580.02
721.303	32541.38
721.646	32607.81
721.989	32374.15
722.331	32499.8
722.674	32443.07
723.016	32498.89
723.359	32360.36
723.701	32285.79
724.044	32083.76
724.386	32048.51
724.729	32161.95
725.071	32007.38
725.413	32137.77
725.755	32036.3
726.097	31769.64
726.439	31714.28
726.782	31757.22
727.124	31872.24
727.465	31577.79
727.807	31695.3
728.149	31578.24
728.491	31534.4
728.833	31606.49
729.175	31462.08
729.516	31360.84
729.858	31393.16
730.199	31321.52
730.541	31229.55
730.882	31359.03
731.224	31389.54
731.565	31115.88
731.906	31204.69
732.248	31087.18
732.589	30967.41
732.93	30962.21
733.271	30882.44
733.612	30864.36
733.953	30957.91
734.294	30722.67
734.635	30836.79
734.976	30802.44
735.317	30559.28
735.658	30588.88
735.999	30470.24
736.339	30567.64
736.68	30606.29
737.021	30601.77
737.361	30325.16
737.702	30445.39
738.042	30292.4
738.383	30267.99
738.723	30425.27
739.063	30285.16
739.404	30152.29
739.744	30126.75
740.084	30107.99
740.424	30293.3
740.764	30053.98
741.104	30200.42
741.444	29971.05
741.784	29809.24
742.124	29868.68
742.464	29861.9
742.804	29844.05
743.143	29665.52
743.483	29786.87
743.823	29766.76
744.162	29607.67
744.502	29642.7
744.841	29449.03
745.181	29683.82
745.52	29477.95
745.86	29546.2
746.199	29403.38
746.538	29450.16
746.877	29517.05
747.216	29281.35
747.556	29247.68
747.895	29177.17
748.234	29103.05
748.573	29125.87
748.911	29041.58
749.25	29058.98
749.589	28904.18
749.928	28940.57
750.267	29063.73
750.605	28791.87
750.944	28747.8
751.283	28663.29
751.621	28744.19
751.96	28588.71
752.298	28607.69
752.636	28631.87
752.975	28463.29
753.313	28286.8
753.651	28423.52
753.989	28255.84
754.327	28327.7
754.666	28155.73
755.004	28195.05
755.342	28173.81
755.679	28156.41
756.017	28031.21
756.355	28096.52
756.693	27823.31
757.031	27908.28
757.368	27711.22
757.706	27657.44
758.044	27633.03
758.381	27658.79
758.719	27539.7
759.056	27551.22
759.394	27454.28
759.731	27239.14
760.068	27174.74
760.405	27147.62
760.743	27067.85
761.08	27198.92
761.417	27009.54
761.754	26886.38
762.091	26860.62
762.428	26803.22
762.765	26610.23
763.102	26613.4
763.438	26522.55
763.775	26447.3
764.112	26504.25
764.449	26449.11
764.785	26247.76
765.122	26101.09
765.458	26012.96
765.795	25928.89
766.131	25970.25
766.467	25823.13
766.804	25779.52
767.14	25743.59
767.476	25728.22
767.812	25573.42
768.148	25589.47
768.485	25497.49
768.821	25295.46
769.157	25165.3
769.492	25141.34
769.828	25191.06
770.164	24979.77
770.5	24847.34
770.836	24915.14
771.171	24671.3
771.507	24665.42
771.842	24497.29
772.178	24427.69
772.513	24328.94
772.849	24434.24
773.184	24364.87
773.519	24210.75
773.855	24060.92
774.19	23954.48
774.525	23911.55
774.86	23934.82
775.195	23765.34
775.53	23714.26
775.865	23599.24
776.2	23460.71
776.535	23262.52
776.87	23298.91
777.205	23293.48
777.539	23126.93
777.874	23091.23
778.209	22925.81
778.543	22900.05
778.878	22829.99
779.212	22703.89
779.547	22666.61
779.881	22692.6
780.215	22410.12
780.55	22563.11
780.884	22335.09
781.218	22313.17
781.552	22369.21
781.886	22131.48
782.22	22059.17
782.554	22028.66
782.888	21742.11
783.222	21715.9
783.556	21654.2
783.889	21559.97
784.223	21460.99
784.557	21426.87
784.89	21467.99
785.224	21420.31
785.557	21155.46
785.891	21168.79
786.224	21070.27
786.558	21096.93
786.891	20826.88
787.224	20767.9
787.557	20807.67
787.891	20716.38
788.224	20698.75
788.557	20706.66
788.89	20552.31
789.223	20535.82
789.556	20461.92
789.888	20274.13
790.221	20212.21
790.554	20106
790.887	20123.62
791.219	20042.95
791.552	19941.71
791.884	19910.97
792.217	19753.92
792.549	19818.77
792.882	19655.84
793.214	19547.14
793.546	19632.79
793.879	19422.62
794.211	19267.15
794.543	19365.9
794.875	19320.71
795.207	19306.02
795.539	19142.18
795.871	19200.71
796.203	19014.73
796.535	18986.48
796.867	18992.81
797.198	18901.96
797.53	18860.61
797.862	18694.96
798.193	18748.07
798.525	18511.01
798.856	18658.8
799.188	18449.09
799.519	18320.73
799.85	18268.08
800.182	18307.17
800.513	18311.69
800.844	18145.37
801.175	18198.02
801.506	18132.26
801.837	18040.97
802.168	18021.98
802.499	17865.38
802.83	17852.27
803.161	17836.23
803.491	17761.2
803.822	17785.15
804.153	17720.3
804.483	17528.89
804.814	17546.06
805.145	17481.66
805.475	17546.52
805.805	17399.18
806.136	17309.91
806.466	17301.55
806.796	17283.7
807.126	17128
807.457	17157.15
807.787	17116.47
808.117	17080.09
808.447	16995.57
808.777	17081.22
809.107	16932.52
809.436	16847.78
809.766	16907.89
810.096	16742.02
810.426	16725.52
810.755	16680.55
811.085	16687.33
811.414	16711.28
811.744	16456.6
812.073	16515.81
812.403	16470.16
812.732	16371.63
813.061	16400.56
813.39	16244.63
813.719	16287.57
814.049	16263.84
814.378	16227.68
814.707	16126.44
815.036	16167.34
815.365	16095.93
815.693	15842.61
816.022	16021.36
816.351	15947.01
816.68	15780.46
817.008	15909.95
817.337	15655.49
817.665	15712.44
817.994	15711.31
818.322	15634.02
818.651	15641.93
818.979	15561.03
819.307	15580.47
819.636	15566.46
819.964	15474.48
820.292	15550.41
820.62	15528.72
820.948	15433.35
821.276	15573.69
821.604	15438.55
821.932	15544.76
822.259	15440.36
822.587	15402.39
822.915	15429.74
823.243	15470.86
823.57	15357.65
823.898	15423.18
824.225	15292.56
824.553	15388.61
824.88	15337.31
825.207	15407.36
825.535	15361.26
825.862	15389.06
826.189	15355.84
826.516	15344.09
826.843	15341.6
827.17	15373.47
827.497	15362.62
827.824	15360.81
828.151	15358.32
828.478	15340.92
828.805	15432.67
829.131	15287.14
829.458	15278.78
829.785	15279.23
830.111	15322.85
830.438	15333.24
830.764	15295.5
831.09	15260.47
831.417	15246.92
831.743	15302.96
832.069	15292.79
832.395	15192
832.722	15387.48
833.048	15232.9
833.374	15230.87
833.7	15171.66
834.026	15195.17
834.351	15180.25
834.677	15059.58
835.003	15145.68
835.329	15118.56
835.654	15066.36
835.98	15106.13
836.306	15077.88
836.631	15105.9
836.956	14996.53
837.282	15004.89
837.607	15084.66
837.932	14982.29
838.258	14870.65
838.583	14985.45
838.908	14850.09
839.233	14872.69
839.558	14787.72
839.883	14705.23
840.208	14683.31
840.533	14724.22
840.858	14658
841.182	14667.95
841.507	14773.93
841.832	14536.65
842.156	14578.46
842.481	14570.32
842.805	14480.16
843.13	14472.25
843.454	14488.29
843.778	14424.34
844.103	14409.88
844.427	14252.14
844.751	14456.65
845.075	14257.11
845.399	14241.97
845.723	14229.54
846.047	14129.2
846.371	14034.29
846.695	14027.96
847.019	13875.2
847.343	13883.56
847.666	13778.03
847.99	13790.23
848.313	13741.19
848.637	13659.39
848.96	13717.01
849.284	13540.97
849.607	13460.75
849.931	13453.74
850.254	13435.21
850.577	13369
850.9	13173.75
851.223	13307.76
851.546	13195.44
851.869	13086.52
852.192	13232.28
852.515	13077.48
852.838	13044.94
853.161	13047.43
853.483	12855.57
853.806	12892.4
854.129	12883.36
854.451	12823.48
854.774	12747.32
855.096	12706.64
855.419	12618.96
855.741	12572.18
856.063	12562.47
856.385	12519.08
856.708	12496.25
857.03	12414.45
857.352	12431.85
857.674	12443.15
857.996	12345.75
858.318	12245.19
858.64	12277.73
858.961	12185.08
859.283	12139.88
859.605	12076.6
859.926	12105.98
860.248	12188.69
860.57	12113.21
860.891	12065.53
861.212	11982.59
861.534	11947.34
861.855	11873.22
862.176	11858.3
862.498	11870.73
862.819	11912.31
863.14	11820.34
863.461	11756.61
863.782	11839.32
864.103	11783.05
864.424	11737.63
864.745	11764.97
865.065	11627.35
865.386	11648.14
865.707	11643.17
866.027	11665.99
866.348	11576.28
866.668	11588.93
866.989	11586.67
867.309	11470.97
867.63	11566.33
867.95	11523.62
868.27	11460.57
868.59	11420.8
868.91	11411.08
869.23	11389.16
869.55	11397.53
869.87	11374.93
870.19	11325.89
870.51	11342.39
870.83	11406.56
871.15	11287.7
871.469	11347.58
871.789	11318.43
872.109	11318.88
872.428	11199.79
872.748	11251.09
873.067	11165.67
873.386	11204.76
873.706	11204.31
874.025	11098.78
874.344	11132.9
874.663	11097.65
874.982	11107.82
875.301	11092.22
875.62	11033.92
875.939	10954.37
876.258	11081.83
876.577	10992.11
876.896	11014.94
877.214	10924.09
877.533	10933.58
877.852	10901.49
878.17	10816.3
878.489	10919.8
878.807	10948.05
879.125	10880.25
879.444	10860.36
879.762	10808.84
880.08	10857.2
880.398	10745.56
880.716	10775.17
881.034	10718.9
881.352	10756.41
881.67	10775.39
881.988	10711.22
882.306	10643.42
882.624	10631.22
882.941	10549.19
883.259	10538.11
883.577	10540.6
883.894	10487.04
884.212	10545.34
884.529	10459.7
884.846	10451.79
885.164	10494.95
885.481	10398.68
885.798	10361.39
886.115	10332.69
886.432	10312.36
886.75	10301.28
887.067	10288.18
887.383	10219.93
887.7	10265.8
888.017	10165.24
888.334	10221.74
888.651	10171.34
888.967	10130.89
889.284	10111.46
889.6	10077.56
889.917	9997.34
890.233	9965.02
890.55	9943.55
890.866	9939.48
891.182	9936.55
891.498	9824.01
891.815	9943.78
892.131	9826.04
892.447	9829.43
892.763	9804.57
893.079	9765.25
893.395	9696.1
893.71	9681.64
894.026	9644.35
894.342	9642.54
894.657	9631.24
894.973	9536.56
895.289	9570.91
895.604	9598.93
895.92	9532.94
896.235	9420.4
896.55	9431.48
896.865	9441.42
897.181	9395.09
897.496	9325.26
897.811	9286.62
898.126	9312.38
898.441	9205.04
898.756	9201.42
899.071	9172.05
899.386	9118.04
899.7	9063.35
900.015	9097.02
900.33	9022.67
900.644	8982.9
900.959	8967.76
901.273	8970.47
901.588	8923.47
901.902	8883.69
902.216	8877.37
902.531	8764.83
902.845	8752.85
903.159	8736.13
903.473	8711.95
903.787	8675.34
904.101	8632.17
904.415	8633.53
904.729	8555.57
905.042	8532.74
905.356	8537.26
905.67	8537.04
905.984	8470.14
906.297	8473.31
906.611	8417.72
906.924	8311.28
907.237	8378.62
907.551	8340.2
907.864	8275.12
908.177	8215.69
908.491	8231.96
908.804	8172.07
909.117	8138.18
909.43	8083.94
909.743	8085.07
910.056	7993.77
910.368	8015.24
910.681	7991.97
910.994	7910.39
911.307	7948.58
911.619	7863.83
911.932	7918.52
912.244	7784.74
912.557	7810.5
912.869	7703.61
913.181	7743.38
913.494	7766.21
913.806	7585.65
914.118	7639.43
914.43	7591.98
914.742	7542.03
915.054	7510.17
915.366	7459.1
915.678	7453
915.99	7448.7
916.302	7356.5
916.613	7328.03
916.925	7369.16
917.236	7266.33
917.548	7262.72
917.859	7316.73
918.171	7188.37
918.482	7132.78
918.794	7148.82
919.105	7111.54
919.416	7080.58
919.727	7114.7
920.038	7060.01
920.349	7013.69
920.66	7001.48
920.971	6899.34
921.282	6920.81
921.593	6877.42
921.903	6837.42
922.214	6829.28
922.525	6823.41
922.835	6780.92
923.146	6741.6
923.456	6726.91
923.767	6681.94
924.077	6711.55
924.387	6622.96
924.697	6634.94
925.008	6603.53
925.318	6528.05
925.628	6565.11
925.938	6450.54
926.248	6443.53
926.558	6428.16
926.867	6382.74
927.177	6344.32
927.487	6335.96
927.796	6323.76
928.106	6339.58
928.416	6235.63
928.725	6283.31
929.034	6241.95
929.344	6229.75
929.653	6189.75
929.962	6184.33
930.271	6091.45
930.581	6072.69
930.89	6055.74
931.199	5966.03
931.508	5965.13
931.817	6010.77
932.125	5967.84
932.434	5955.86
932.743	5892.59
933.051	5844.45
933.36	5865.24
933.669	5789.31
933.977	5792.25
934.286	5801.97
934.594	5766.94
934.902	5703.66
935.21	5717.45
935.519	5715.41
935.827	5678.13
936.135	5661.4
936.443	5587.28
936.751	5592.03
937.059	5563.33
937.367	5525.36
937.674	5555.42
937.982	5493.95
938.29	5501.41
938.597	5460.51
938.905	5375.31
939.213	5376.89
939.52	5392.26
939.827	5376.21
940.135	5377.8
940.442	5276.56
940.749	5291.47
941.056	5283.11
941.363	5222.32
941.67	5199.95
941.977	5141.19
942.284	5166.95
942.591	5153.62
942.898	5144.81
943.205	5156.33
943.511	5069.1
943.818	5040.4
944.125	5008.77
944.431	5025.94
944.738	4957.47
945.044	4970.8
945.35	4978.48
945.657	4911.37
945.963	4906.4
946.269	4824.82
946.575	4852.84
946.881	4830.24
947.187	4848.77
947.493	4764.48
947.799	4845.38
948.105	4710.92
948.41	4768.55
948.716	4709.11
949.022	4736.91
949.327	4652.84
949.633	4636.8
949.938	4689.9
950.244	4622.34
950.549	4580.76
950.854	4551.15
951.16	4561.09
951.465	4522.23
951.77	4538.72
952.075	4485.39
952.38	4478.16
952.685	4481.55
952.99	4412.62
953.294	4416.01
953.599	4364.94
953.904	4339.86
954.209	4322.91
954.513	4319.29
954.818	4320.42
955.122	4310.03
955.426	4326.52
955.731	4290.82
956.035	4273.42
956.339	4239.97
956.643	4225.51
956.948	4207.66
957.252	4193.87
957.556	4141.9
957.86	4104.61
958.163	4158.85
958.467	4098.28
958.771	4085.18
959.075	4070.26
959.378	4035.01
959.682	4029.36
959.985	4007.44
960.289	3986.87
960.592	3976.48
960.896	3986.42
961.199	3957.04
961.502	3947.55
961.805	3885.86
962.108	3890.15
962.411	3879.08
962.714	3839.98
963.017	3804.05
963.32	3876.82
963.623	3832.07
963.926	3832.75
964.228	3787.56
964.531	3770.38
964.833	3773.32
965.136	3704.62
965.438	3726.54
965.741	3676.82
966.043	3667.78
966.345	3644.96
966.648	3645.19
966.95	3615.58
967.252	3624.4
967.554	3594.79
967.856	3604.06
968.158	3551.18
968.46	3574
968.761	3530.39
969.063	3556.38
969.365	3477.28
969.666	3505.76
969.968	3462.59
970.269	3485.42
970.571	3458.3
970.872	3425.76
971.174	3424.85
971.475	3338.08
971.776	3404.52
972.077	3387.57
972.378	3377.4
972.679	3355.7
972.98	3347.12
973.281	3318.87
973.582	3314.12
973.883	3290.17
974.183	3265.76
974.484	3251.75
974.785	3221.69
975.085	3245.65
975.386	3240.68
975.686	3213.79
975.986	3197.29
976.287	3205.65
976.587	3132.88
976.887	3107.8
977.187	3147.57
977.487	3173.11
977.787	3091.53
978.087	3081.13
978.387	3068.48
978.687	3084.07
978.987	3055.82
979.286	3037.29
979.586	3029.84
979.885	2994.58
980.185	3019.67
980.484	2983.96
980.784	3004.98
981.083	2976.28
981.382	2941.7
981.682	2963.85
981.981	2959.33
982.28	2916.39
982.579	2913.91
982.878	2915.49
983.177	2893.57
983.475	2819.9
983.774	2865.32
984.073	2840.24
984.372	2814.93
984.67	2793.68
984.969	2822.84
985.267	2782.61
985.566	2761.59
985.864	2734.93
986.162	2757.53
986.461	2736.96
986.759	2720.01
987.057	2688.15
987.355	2673.01
987.653	2667.59
987.951	2673.23
988.249	2629.17
988.547	2640.69
988.844	2586.68
989.142	2625.78
989.44	2563.18
989.737	2583.75
990.035	2576.29
990.332	2602.95
990.63	2568.6
990.927	2569.51
991.224	2494.71
991.521	2570.19
991.819	2520.02
992.116	2484.09
992.413	2487.48
992.71	2463.52
993.006	2477.53
993.303	2468.72
993.6	2475.73
993.897	2420.59
994.193	2442.96
994.49	2386.91
994.787	2428.04
995.083	2387.59
995.379	2390.3
995.676	2356.86
995.972	2366.8
996.268	2362.73
996.565	2345.11
996.861	2310.98
997.157	2306.69
997.453	2313.7
997.749	2302.62
998.044	2259.23
998.34	2251.55
998.636	2244.32
998.932	2225.11
999.227	2194.83
999.523	2208.61
999.818	2193.7
1000.114	2182.63
1000.409	2154.6
1000.704	2153.25
1001	2147.6
1001.295	2115.96
1001.59	2146.69
1001.885	2148.5
1002.18	2113.7
1002.475	2094.04
1002.77	2083.19
1003.065	2069.18
1003.359	2024.66
1003.654	2054.27
1003.949	2035.06
1004.243	2035.51
1004.538	1987.38
1004.832	1998
1005.127	1986.93
1005.421	1999.35
1005.715	1971.33
1006.009	2004.1
1006.304	1963.65
1006.598	1958.45
1006.892	1924.78
1007.186	1931.56
1007.48	1906.7
1007.773	1932.92
1008.067	1896.76
1008.361	1862.63
1008.655	1859.92
1008.948	1880.04
1009.242	1834.39
1009.535	1865.12
1009.829	1847.95
1010.122	1845.46
1010.415	1819.92
1010.708	1796.2
1011.001	1793.94
1011.295	1775.41
1011.588	1753.03
1011.881	1751.68
1012.173	1734.28
1012.466	1734.73
1012.759	1721.62
1013.052	1706.93
1013.344	1709.19
1013.637	1683.66
1013.93	1682.98
1014.222	1658.8
1014.514	1665.13
1014.807	1676.2
1015.099	1661.74
1015.391	1642.08
1015.683	1649.98
1015.976	1622.87
1016.268	1600.04
1016.56	1607.95
1016.851	1606.37
1017.143	1570.44
1017.435	1547.61
1017.727	1545.13
1018.018	1514.85
1018.31	1553.72
1018.602	1552.13
1018.893	1513.49
1019.185	1518.91
1019.476	1519.37
1019.767	1497.67
1020.058	1510.55
1020.35	1482.98
1020.641	1448.86
1020.932	1453.61
1021.223	1445.92
1021.514	1459.71
1021.804	1419.71
1022.095	1417.9
1022.386	1407.96
1022.677	1386.26
1022.967	1399.37
1023.258	1372.93
1023.548	1347.62
1023.839	1340.39
1024.129	1367.51
1024.419	1351.01
1024.709	1344.46
1025	1313.72
1025.29	1338.81
1025.58	1334.29
1025.87	1254.52
1026.16	1269.66
1026.449	1291.12
1026.739	1271.69
1027.029	1293.16
1027.319	1267.85
1027.608	1255.19
1027.898	1207.74
1028.187	1238.02
1028.477	1210.9
1028.766	1222.43
1029.055	1208.64
1029.344	1209.54
1029.634	1213.84
1029.923	1210.67
1030.212	1181.75
1030.501	1173.84
1030.79	1137.91
1031.078	1156.21
1031.367	1151.24
1031.656	1164.8
1031.945	1129.77
1032.233	1137.68
1032.522	1119.6
1032.81	1128.87
1033.099	1111.02
1033.387	1103.33
1033.675	1093.16
1033.963	1078.7
1034.251	1073.5
1034.54	1070.34
1034.828	1061.3
1035.116	1052.03
1035.403	1059.49
1035.691	1063.11
1035.979	1028.76
1036.267	1031.7
1036.554	1025.82
1036.842	991.47
1037.129	1006.61
1037.417	1013.17
1037.704	995.31
1037.992	964.35
1038.279	970.68
1038.566	992.6
1038.853	992.6
1039.14	992.6
