Data from hue_270_FLMS001491_00031.txt Node
Date: Tue Feb 07 15:57:05 GMT 2017
User: dcchb
Spectrometer: FLMS00149
Trigger mode: 0
Integration Time (sec): 2.000000E-2
Scans to average: 10
Electric dark correction enabled: true
Nonlinearity correction enabled: false
Boxcar width: 0
XAxis mode: Wavelengths
Number of Pixels in Spectrum: 2048
>>>>>Begin Spectral Data<<<<<
341.393	-10.64
341.776	-10.64
342.16	-10.64
342.543	-66.23
342.927	-56.96
343.31	-60.35
343.693	-57.64
344.077	-60.8
344.46	-61.26
344.843	-52.67
345.226	-48.37
345.61	-28.04
345.993	-17.87
346.376	-17.19
346.759	9.93
347.142	11.51
347.525	26.65
347.908	58.52
348.291	89.7
348.674	90.15
349.057	117.72
349.44	123.15
349.823	119.53
350.206	148.46
350.588	179.42
350.971	211.28
351.354	227.32
351.737	232.75
352.119	242.01
352.502	257.61
352.884	253.76
353.267	279.98
353.65	263.48
354.032	288.34
354.414	298.06
354.797	287.21
355.179	289.92
355.562	315.23
355.944	308.9
356.326	324.5
356.709	321.56
357.091	326.3
357.473	327.89
357.855	344.61
358.238	309.81
358.62	325.18
359.002	330.37
359.384	315.23
359.766	323.59
360.148	324.27
360.53	326.98
360.912	331.95
361.294	311.39
361.676	305.74
362.057	306.19
362.439	309.13
362.821	336.47
363.203	306.42
363.584	308.23
363.966	322.92
364.348	309.36
364.729	341.67
365.111	296.25
365.493	310.94
365.874	292.86
366.256	307.55
366.637	302.35
367.019	308.45
367.4	325.4
367.781	316.14
368.163	301.45
368.544	311.39
368.925	312.97
369.306	314.1
369.688	307.32
370.069	314.78
370.45	284.95
370.831	299.86
371.212	318.4
371.593	305.51
371.974	296.7
372.355	294.89
372.736	314.1
373.117	308.9
373.498	323.37
373.879	296.02
374.26	300.32
374.641	300.32
375.021	296.7
375.402	295.12
375.783	315.46
376.163	339.41
376.544	300.99
376.925	298.06
377.305	317.04
377.686	293.09
378.066	304.38
378.447	313.88
378.827	327.66
379.208	336.7
379.588	333.31
379.968	304.61
380.349	320.2
380.729	325.63
381.109	323.37
381.489	329.69
381.87	314.78
382.25	312.52
382.63	324.27
383.01	317.94
383.39	338.96
383.77	335.34
384.15	327.66
384.53	325.4
384.91	349.58
385.29	339.41
385.67	345.29
386.049	331.73
386.429	339.19
386.809	346.42
387.189	333.54
387.568	336.7
387.948	351.84
388.328	342.8
388.707	347.1
389.087	345.97
389.466	356.13
389.846	345.06
390.225	360.88
390.605	354.1
390.984	333.31
391.363	381.22
391.743	372.41
392.122	357.49
392.501	365.17
392.881	382.57
393.26	357.94
393.639	366.3
394.018	343.71
394.397	357.94
394.776	377.38
395.155	358.85
395.534	389.35
395.913	374.21
396.292	402.01
396.671	378.28
397.05	381.67
397.429	392.97
397.808	371.5
398.186	391.39
398.565	377.6
398.944	384.61
399.323	387.09
399.701	407.88
400.08	396.36
400.458	410.82
400.837	403.14
401.215	403.59
401.594	415.57
401.972	428.9
402.351	413.76
402.729	416.02
403.107	420.77
403.486	414.44
403.864	414.89
404.242	421.9
404.62	426.64
404.999	418.96
405.377	436.13
405.755	434.1
406.133	428.68
406.511	434.78
406.889	451.27
407.267	447.66
407.645	447.88
408.023	473.87
408.401	462.57
408.779	481.33
409.156	454.66
409.534	473.87
409.912	496.24
410.29	496.92
410.667	497.15
411.045	499.63
411.422	500.09
411.8	516.13
412.178	524.27
412.555	524.27
412.933	519.07
413.31	533.08
413.687	533.31
414.065	555
414.442	560.88
414.819	579.63
415.197	562
415.574	578.28
415.951	600.87
416.328	575.56
416.705	592.29
417.082	586.41
417.46	600.2
417.837	611.27
418.214	617.6
418.591	627.77
418.967	619.18
419.344	620.99
419.721	655.56
420.098	653.3
420.475	658.05
420.852	657.14
421.228	696.01
421.605	685.17
421.982	683.13
422.358	697.37
422.735	707.31
423.111	713.64
423.488	720.87
423.864	740.76
424.241	761.32
424.617	767.2
424.994	760.42
425.37	772.62
425.746	779.63
426.123	798.38
426.499	816.01
426.875	802.9
427.251	834.31
427.627	847.42
428.003	832.96
428.379	852.84
428.756	877.02
429.132	867.31
429.507	920.64
429.883	886.52
430.259	882.22
430.635	890.13
431.011	908.66
431.387	920.64
431.763	972.84
432.138	945.72
432.514	960.86
432.89	984.82
433.265	1006.97
433.641	1046.51
434.016	1034.99
434.392	1032.5
434.767	1072.73
435.143	1091.93
435.518	1092.84
435.894	1101.43
436.269	1107.75
436.644	1131.48
437.02	1145.72
437.395	1144.14
437.77	1184.36
438.145	1216.9
438.52	1186.17
438.895	1217.13
439.271	1215.1
439.646	1265.72
440.021	1267.52
440.395	1277.92
440.77	1271.14
441.145	1276.34
441.52	1317.01
441.895	1340.06
442.27	1332.15
442.645	1359.5
443.019	1367.86
443.394	1377.35
443.769	1406.05
444.143	1365.37
444.518	1397.24
444.892	1393.4
445.267	1405.82
445.641	1428.65
446.016	1421.19
446.39	1434.52
446.764	1441.98
447.139	1424.58
447.513	1496.22
447.887	1502.09
448.262	1454.86
448.636	1486.27
449.01	1534.63
449.384	1513.62
449.758	1507.74
450.132	1532.15
450.506	1556.1
450.88	1521.08
451.254	1544.8
451.628	1574.86
452.002	1599.27
452.376	1589.55
452.75	1623.22
453.123	1632.26
453.497	1614.41
453.871	1666.38
454.244	1668.64
454.618	1685.37
454.992	1694.4
455.365	1717.91
455.739	1747.28
456.112	1757
456.486	1761.52
456.859	1791.35
457.232	1816.21
457.606	1819.37
457.979	1833.16
458.352	1858.47
458.725	1881.74
459.099	1900.95
459.472	1918.81
459.845	1969.2
460.218	1962.19
460.591	1969.88
460.964	1950.9
461.337	2007.84
461.71	2019.59
462.083	2084.45
462.456	2065.92
462.829	2067.5
463.201	2083.77
463.574	2125.81
463.947	2155.18
464.32	2159.48
464.692	2168.06
465.065	2181.17
465.438	2242.41
465.81	2274.5
466.183	2247.61
466.555	2286.48
466.928	2318.79
467.3	2290.77
467.672	2344.33
468.045	2412.13
468.417	2365.12
468.789	2406.48
469.161	2418.91
469.534	2471.11
469.906	2525.8
470.278	2499.81
470.65	2552.69
471.022	2587.71
471.394	2624.55
471.766	2637.2
472.138	2645.11
472.51	2688.28
472.882	2772.34
473.253	2766.47
473.625	2813.92
473.997	2853.7
474.369	2861.61
474.74	2886.69
475.112	2891.44
475.484	2964.88
475.855	3016.63
476.227	2975.73
476.598	3095.05
476.97	3091.88
477.341	3169.39
477.713	3217.98
478.084	3213.69
478.455	3289.16
478.827	3290.75
479.198	3367.81
479.569	3372.78
479.94	3467.24
480.311	3515.15
480.682	3511.98
481.053	3568.03
481.424	3646.9
481.795	3688.25
482.166	3698.19
482.537	3727.35
482.908	3812.09
483.279	3835.37
483.65	3893.67
484.021	3964.18
484.391	4013.89
484.762	4011.41
485.133	4063.61
485.503	4102.48
485.874	4154.68
486.244	4160.33
486.615	4237.39
486.985	4278.52
487.356	4333.21
487.726	4364.84
488.097	4468.57
488.467	4476.48
488.837	4566.87
489.207	4545.63
489.578	4621.79
489.948	4652.29
490.318	4690.26
490.688	4678.51
491.058	4785.62
491.428	4839.18
491.798	4866.52
492.168	4935.9
492.538	4930.25
492.908	4969.8
493.278	5024.71
493.648	4995.33
494.017	5094.77
494.387	5102.45
494.757	5145.16
495.126	5202.79
495.496	5162.34
495.866	5215.89
496.235	5289.79
496.605	5320.3
496.974	5353.74
497.344	5404.14
497.713	5382.9
498.082	5430.13
498.452	5480.29
498.821	5450.24
499.19	5471.25
499.559	5517.58
499.928	5582.89
500.298	5548.31
500.667	5641.87
501.036	5604.81
501.405	5621.98
501.774	5585.15
502.143	5706.5
502.512	5675.54
502.88	5738.14
503.249	5700.85
503.618	5786.5
503.987	5756.67
504.356	5826.27
504.724	5820.4
505.093	5819.27
505.462	5833.73
505.83	5889.55
506.199	5890.68
506.567	5946.95
506.936	5965.25
507.304	5944.46
507.672	6000.28
508.041	5967.29
508.409	5997.57
508.777	6037.12
509.145	6078.92
509.514	6090
509.882	6081.18
510.25	6066.49
510.618	6078.02
510.986	6093.38
511.354	6165.25
511.722	6224.45
512.09	6209.77
512.458	6233.95
512.826	6174.51
513.193	6194.17
513.561	6237.11
513.929	6258.13
514.297	6318.24
514.664	6324.34
515.032	6324.79
515.4	6386.03
515.767	6361.17
516.135	6357.33
516.502	6257.45
516.869	6374.96
517.237	6423.55
517.604	6393.04
517.972	6410.66
518.339	6393.04
518.706	6439.59
519.073	6464.22
519.44	6454.96
519.808	6487.27
520.175	6490.21
520.542	6500.83
520.909	6577.89
521.276	6511
521.643	6533.37
522.009	6562.3
522.376	6552.58
522.743	6600.72
523.11	6619.02
523.477	6718.68
523.843	6701.73
524.21	6701.96
524.577	6742.86
524.943	6732.92
525.31	6752.35
525.676	6803.2
526.043	6823.99
526.409	6779.02
526.776	6844.78
527.142	6850.88
527.508	6908.5
527.874	6836.87
528.241	6867.15
528.607	6897.43
528.973	6906.47
529.339	6892.69
529.705	6941.05
530.071	7031.67
530.437	6966.81
530.803	7041.83
531.169	7054.72
531.535	7017.2
531.901	7046.13
532.267	7032.57
532.632	7110.31
532.998	7098.78
533.364	7139.23
533.73	7040.25
534.095	7126.13
534.461	7155.73
534.826	7147.59
535.192	7154.15
535.557	7171.32
535.923	7141.94
536.288	7166.58
536.653	7121.15
537.019	7073.92
537.384	7194.37
537.749	7179.91
538.114	7223.98
538.479	7136.75
538.845	7202.28
539.21	7190.53
539.575	7142.85
539.94	7194.37
540.305	7205.9
540.67	7189.18
541.034	7195.73
541.399	7208.61
541.764	7222.62
542.129	7259.46
542.494	7256.74
542.858	7231.43
543.223	7246.57
543.587	7255.84
543.952	7259
544.316	7251.77
544.681	7259.23
545.045	7231.43
545.41	7277.08
545.774	7259.68
546.138	7246.57
546.503	7261.72
546.867	7304.2
547.231	7334.71
547.595	7320.47
547.959	7272.56
548.324	7215.84
548.688	7281.15
549.052	7264.2
549.416	7346.46
549.779	7255.61
550.143	7283.64
550.507	7350.3
550.871	7386.46
551.235	7343.07
551.599	7398.44
551.962	7343.75
552.326	7362.05
552.689	7374.71
553.053	7362.28
553.417	7413.35
553.78	7393.01
554.143	7369.28
554.507	7421.49
554.87	7431.2
555.234	7475.72
555.597	7374.93
555.96	7404.76
556.323	7440.47
556.686	7515.04
557.05	7460.13
557.413	7528.15
557.776	7474.59
558.139	7557.08
558.502	7500.35
558.865	7480.92
559.228	7569.96
559.59	7517.08
559.953	7628.71
560.316	7675.49
560.679	7622.84
561.041	7667.35
561.404	7705.09
561.767	7791.87
562.129	7706
562.492	7713
562.854	7732.21
563.217	7833
563.579	7792.55
563.941	7870.06
564.304	7865.32
564.666	7873.9
565.028	7904.86
565.39	7909.16
565.753	7936.05
566.115	7949.16
566.477	8019.66
566.839	8009.94
567.201	8041.36
567.563	8091.75
567.925	8096.72
568.287	8153.9
568.648	8094.46
569.01	8138.98
569.372	8148.02
569.734	8193.44
570.095	8222.14
570.457	8218.53
570.819	8273.89
571.18	8271.63
571.542	8336.72
571.903	8335.36
572.265	8364.06
572.626	8361.57
572.987	8372.87
573.349	8439.31
573.71	8432.76
574.071	8410.39
574.432	8505.07
574.794	8576.03
575.155	8572.19
575.516	8540.33
575.877	8590.72
576.238	8676.14
576.599	8745.29
576.96	8718.85
577.32	8712.3
577.681	8759.3
578.042	8739.87
578.403	8783.71
578.763	8840.66
579.124	8808.79
579.485	8910.03
579.845	8931.05
580.206	8870.71
580.566	8927.89
580.927	8970.37
581.287	9096.24
581.648	8952.97
582.008	9074.78
582.368	9067.77
582.728	9149.8
583.089	9084.27
583.449	9119.07
583.809	9174.43
584.169	9207.65
584.529	9189.35
584.889	9285.62
585.249	9242.45
585.609	9266.86
585.969	9330.36
586.329	9307.54
586.688	9302.57
587.048	9405.84
587.408	9408.55
587.768	9411.94
588.127	9468.44
588.487	9420.3
588.846	9549.34
589.206	9480.64
589.565	9482.67
589.925	9536.68
590.284	9562.9
590.643	9599.28
591.003	9649.68
591.362	9692.39
591.721	9667.98
592.08	9742.33
592.44	9761.99
592.799	9774.42
593.158	9752.72
593.517	9764.25
593.876	9824.59
594.235	9843.12
594.593	9800.63
594.952	9826.85
595.311	9863.68
595.67	9882.89
596.029	10030.46
596.387	9973.73
596.746	9966.5
597.104	9867.97
597.463	9935.32
597.822	10027.97
598.18	9954.3
598.538	10000.85
598.897	10054.18
599.255	9988.42
599.613	10136.89
599.972	10072.72
600.33	10142.77
600.688	10091.92
601.046	10130.11
601.404	10180.74
601.762	10108.87
602.12	10247.17
602.478	10235.2
602.836	10216.89
603.194	10239.72
603.552	10223.22
603.91	10149.78
604.268	10269.55
604.625	10269.32
604.983	10246.95
605.341	10228.64
605.698	10321.3
606.056	10323.1
606.413	10275.65
606.771	10344.8
607.128	10355.42
607.485	10296.44
607.843	10300.05
608.2	10340.05
608.557	10431.8
608.914	10377.34
609.272	10453.27
609.629	10467.06
609.986	10494.4
610.343	10395.19
610.7	10511.12
611.057	10477.9
611.414	10510.9
611.771	10518.13
612.127	10631.8
612.484	10573.49
612.841	10553.15
613.198	10509.09
613.554	10569.88
613.911	10657.78
614.267	10543.21
614.624	10650.33
614.98	10591.8
615.337	10623.21
615.693	10654.39
616.05	10626.83
616.406	10693.04
616.762	10688.29
617.118	10678.58
617.475	10613.72
617.831	10654.85
618.187	10641.97
618.543	10688.07
618.899	10720.61
619.255	10747.05
619.611	10696.2
619.967	10735.07
620.323	10755.41
620.678	10710.21
621.034	10744.11
621.39	10783.21
621.746	10761.74
622.101	10802.87
622.457	10738.91
622.812	10790.89
623.168	10796.76
623.523	10850.1
623.879	10895.97
624.234	10747.73
624.589	10739.36
624.945	10812.36
625.3	10817.78
625.655	10822.53
626.01	10781.4
626.365	10778.46
626.72	10779.82
627.075	10769.42
627.43	10757.9
627.785	10814.84
628.14	10812.36
628.495	10846.93
628.85	10755.64
629.205	10728.29
629.559	10814.84
629.914	10767.84
630.269	10719.93
630.623	10748.18
630.978	10667.73
631.332	10729.87
631.687	10736.88
632.041	10658.24
632.396	10712.25
632.75	10700.04
633.104	10621.4
633.459	10653.94
633.813	10593.15
634.167	10657.56
634.521	10602.19
634.875	10679.93
635.229	10652.36
635.583	10521.74
635.937	10566.26
636.291	10579.37
636.645	10606.03
636.999	10553.61
637.352	10474.96
637.706	10470.9
638.06	10538.47
638.413	10496.89
638.767	10418.24
639.121	10412.14
639.474	10397.23
639.828	10313.16
640.181	10364.69
640.534	10389.32
640.888	10389.32
641.241	10325.36
641.594	10381.63
641.947	10429.77
642.301	10422.31
642.654	10384.57
643.007	10388.87
643.36	10361.97
643.713	10351.35
644.066	10374.85
644.419	10345.02
644.771	10206.05
645.124	10150
645.477	10082.21
645.83	10046.73
646.182	10012.83
646.535	9991.14
646.888	10030.46
647.24	9919.27
647.593	10016.9
647.945	9982.32
648.298	9947.29
648.65	9931.93
649.002	9948.42
649.355	9975.09
649.707	9974.41
650.059	10001.98
650.411	10133.05
650.763	10093.73
651.115	10220.73
651.467	10241.07
651.819	10275.2
652.171	10174.18
652.523	10149.32
652.875	10142.09
653.227	10147.52
653.578	10208.98
653.93	10262.31
654.282	10133.05
654.633	10158.59
654.985	10112.94
655.337	10037.46
655.688	10203.11
656.039	10164.01
656.391	10124.69
656.742	10112.04
657.094	10157.91
657.445	10206.95
657.796	10197.68
658.147	10192.26
658.498	10134.63
658.849	10150.45
659.2	10122.43
659.551	10119.04
659.902	10171.24
660.253	10159.04
660.604	10170.57
660.955	10122.88
661.306	10179.38
661.656	10129.66
662.007	10145.03
662.358	10184.58
662.708	10176.44
663.059	10148.42
663.409	10114.52
663.76	10168.98
664.11	10162.66
664.461	10188.19
664.811	10143.45
665.161	10176.22
665.511	10191.81
665.862	10212.82
666.212	10263.9
666.562	10203.56
666.912	10136.67
667.262	10128.99
667.612	10129.21
667.962	10175.31
668.312	10201.98
668.662	10273.39
669.011	10163.11
669.361	10133.96
669.711	10166.27
670.06	10137.12
670.41	10131.24
670.76	10136.67
671.109	10201.53
671.459	10133.96
671.808	10117.69
672.157	10156.33
672.507	10045.82
672.856	10041.08
673.205	10131.92
673.554	10097.35
673.904	10033.85
674.253	10090.34
674.602	10103.68
674.951	9920.63
675.3	9872.27
675.649	10027.74
675.998	10058.03
676.346	10018.03
676.695	9999.04
677.044	9977.12
677.393	9973.73
677.741	10004.69
678.09	9939.39
678.438	9964.02
678.787	9907.07
679.135	9982.32
679.484	9883.79
679.832	9936.67
680.181	9811.03
680.529	9813.51
680.877	9868.43
681.225	9857.58
681.573	9839.05
681.922	9825.49
682.27	9790.24
682.618	9796.79
682.966	9783.68
683.314	9750.46
683.661	9727.41
684.009	9715.89
684.357	9712.72
684.705	9653.29
685.053	9660.07
685.4	9621.43
685.748	9605.16
686.095	9613.29
686.443	9560.64
686.79	9563.35
687.138	9543.69
687.485	9577.59
687.832	9463.01
688.18	9540.53
688.527	9381.66
688.874	9386.63
689.221	9396.8
689.568	9327.42
689.915	9306.63
690.262	9342.57
690.609	9242.23
690.956	9256.01
691.303	9236.35
691.65	9144.83
691.997	9157.71
692.344	9170.59
692.69	9108.9
693.037	9115.45
693.383	9032.52
693.73	9015.79
694.077	9021.22
694.423	8971.5
694.769	8887.21
695.116	8932.63
695.462	8938.28
695.808	8905.29
696.155	8892.41
696.501	8771.51
696.847	8803.14
697.193	8720.43
697.539	8700.55
697.885	8651.74
698.231	8715.69
698.577	8677.5
698.923	8591.17
699.269	8570.61
699.614	8543.94
699.96	8558.86
700.306	8462.59
700.651	8376.26
700.997	8452.19
701.342	8414.45
701.688	8354.57
702.033	8442.02
702.379	8388.92
702.724	8296.94
703.069	8349.14
703.415	8216.94
703.76	8211.97
704.105	8305.53
704.45	8287
704.795	8238.41
705.14	8197.06
705.485	8102.6
705.83	8088.81
706.175	8084.52
706.52	8035.25
706.865	8054.24
707.209	8048.14
707.554	7962.26
707.899	8038.87
708.243	7974.24
708.588	7995.48
708.932	7891.3
709.277	7887.91
709.621	7905.31
709.966	7833.9
710.31	7855.15
710.654	7684.76
710.998	7747.13
711.342	7737.41
711.687	7779.67
712.031	7703.51
712.375	7670.74
712.719	7661.93
713.063	7612.22
713.407	7700.35
713.75	7603.18
714.094	7645.21
714.438	7588.49
714.782	7691.54
715.125	7581.71
715.469	7560.69
715.812	7607.47
716.156	7540.58
716.499	7496.74
716.843	7529.05
717.186	7412.67
717.53	7506
717.873	7541.03
718.216	7457.64
718.559	7446.34
718.902	7374.26
719.246	7405.21
719.589	7360.24
719.932	7358.89
720.275	7374.26
720.617	7375.39
720.96	7433.46
721.303	7310.3
721.646	7333.8
721.989	7330.41
722.331	7348.04
722.674	7290.64
723.016	7267.59
723.359	7358.21
723.701	7235.28
724.044	7241.83
724.386	7249.96
724.729	7271.43
725.071	7265.78
725.413	7289.29
725.755	7255.84
726.097	7185.56
726.439	7161.61
726.782	7179.68
727.124	7205.22
727.465	7174.26
727.807	7176.75
728.149	7171.32
728.491	7171.55
728.833	7211.1
729.175	7135.84
729.516	7195.95
729.858	7151.89
730.199	7201.6
730.541	7152.57
730.882	7157.31
731.224	7207.48
731.565	7186.01
731.906	7153.24
732.248	7118.67
732.589	7145.79
732.93	7097.88
733.271	7115.73
733.612	7154.6
733.953	7133.36
734.294	7106.24
734.635	7136.07
734.976	7136.75
735.317	7144.2
735.658	7082.96
735.999	7100.59
736.339	7117.76
736.68	7112.12
737.021	7163.87
737.361	7058.56
737.702	7169.97
738.042	7177.42
738.383	7114.15
738.723	7179.23
739.063	7167.03
739.404	7173.36
739.744	7180.81
740.084	7222.62
740.424	7192.57
740.764	7142.4
741.104	7230.08
741.444	7163.64
741.784	7165.22
742.124	7241.15
742.464	7262.62
742.804	7176.07
743.143	7257.2
743.483	7255.16
743.823	7195.28
744.162	7288.83
744.502	7328.83
744.841	7275.05
745.181	7456.29
745.52	7360.92
745.86	7456.29
746.199	7454.71
746.538	7487.47
746.877	7558.88
747.216	7584.42
747.556	7576.96
747.895	7665.77
748.234	7675.49
748.573	7677.52
748.911	7723.85
749.25	7814.02
749.589	7803.62
749.928	7877.97
750.267	7983.73
750.605	8029.15
750.944	8112.31
751.283	8082.03
751.621	8206.1
751.96	8258.07
752.298	8321.12
752.636	8407.45
752.975	8432.53
753.313	8478.63
753.651	8640.66
753.989	8697.84
754.327	8903.03
754.666	8896.25
755.004	9072.06
755.342	9141.89
755.679	9292.85
756.017	9300.08
756.355	9470.02
756.693	9617.81
757.031	9701.65
757.368	9821.87
757.706	9907.52
758.044	10083.56
758.381	10255.08
758.719	10259.15
759.056	10467.06
759.394	10656.88
759.731	10727.61
760.068	10884.67
760.405	10980.71
760.743	11106.59
761.08	11261.38
761.417	11469.74
761.754	11565.11
762.091	11727.14
762.428	11837.64
762.765	12010.52
763.102	12284.41
763.438	12282.6
763.775	12424.29
764.112	12680.1
764.449	12831.29
764.785	12900.44
765.122	12985.18
765.458	13157.38
765.795	13264.72
766.131	13447.54
766.467	13595.11
766.804	13737.25
767.14	13920.07
767.476	14045.94
767.812	14167.75
768.148	14305.6
768.485	14370.23
768.821	14397.12
769.157	14615.19
769.492	14772.93
769.828	14915.53
770.164	14894.51
770.5	15068.74
770.836	15147.16
771.171	15144.45
771.507	15316.65
771.842	15338.57
772.178	15503.31
772.513	15573.59
772.849	15702.62
773.184	15764.32
773.519	15915.73
773.855	15859
774.19	15956.63
774.525	16008.15
774.86	16138.32
775.195	16295.6
775.53	16288.6
775.865	16245.89
776.2	16254.02
776.535	16206.79
776.87	16485.65
777.205	16418.31
777.539	16377.63
777.874	16636.84
778.209	16489.04
778.543	16611.3
778.878	16551.87
779.212	16607.91
779.547	16685.42
779.881	16729.94
780.215	16729.04
780.55	16800.9
780.884	16722.48
781.218	16764.06
781.552	16808.58
781.886	16719.55
782.22	16730.62
782.554	16823.27
782.888	16728.13
783.222	16796.15
783.556	16653.33
783.889	16699.43
784.223	16631.41
784.557	16607.91
784.89	16705.76
785.224	16675.25
785.557	16720.45
785.891	16675.03
786.224	16617.18
786.558	16734.69
786.891	16625.31
787.224	16457.63
787.557	16624.41
787.891	16534.24
788.224	16553.67
788.557	16527.91
788.89	16538.53
789.223	16467.35
789.556	16454.92
789.888	16465.99
790.221	16402.94
790.554	16337.86
790.887	16352.78
791.219	16314.13
791.552	16260.35
791.884	16227.81
792.217	16270.97
792.549	16193.23
792.882	16153.91
793.214	16082.05
793.546	16210.18
793.879	16213.34
794.211	16006.12
794.543	16125.89
794.875	16110.52
795.207	16164.53
795.539	16006.34
795.871	16035.27
796.203	15902.39
796.535	15885.44
796.867	15848.61
797.198	15872.11
797.53	15815.62
797.862	15801.83
798.193	15822.39
798.525	15774.03
798.856	15749.63
799.188	15615.39
799.519	15569.29
799.85	15565.23
800.182	15522.29
800.513	15532.46
800.844	15388.51
801.175	15491.56
801.506	15444.78
801.837	15366.36
802.168	15390.32
802.499	15386.7
802.83	15285.01
803.161	15198.23
803.491	15232.35
803.822	15178.34
804.153	15135.18
804.483	15021.74
804.814	14974.51
805.145	15028.74
805.475	14948.07
805.805	14988.29
806.136	14929.76
806.466	14950.33
806.796	14836.88
807.126	14851.8
807.457	14807.05
807.787	14744.46
808.117	14776.32
808.447	14729.32
808.777	14749.65
809.107	14652.03
809.436	14591.92
809.766	14587.17
810.096	14540.85
810.426	14509.21
810.755	14569.09
811.085	14518.7
811.414	14456.1
811.744	14454.07
812.073	14453.17
812.403	14357.12
812.732	14314.41
813.061	14350.79
813.39	14251.59
813.719	14214.98
814.049	14226.73
814.378	14094.53
814.707	14189.67
815.036	14166.39
815.365	14090.69
815.693	13869.68
816.022	14000.07
816.351	13995.78
816.68	13923.46
817.008	13954.87
817.337	13881.88
817.665	13814.09
817.994	13829
818.322	13829
818.651	13770.47
818.979	13741.09
819.307	13810.92
819.636	13721.43
819.964	13678.04
820.292	13676.46
820.62	13817.48
820.948	13688.89
821.276	13716.69
821.604	13679.63
821.932	13697.93
822.259	13685.95
822.587	13707.2
822.915	13573.64
823.243	13635.11
823.57	13612.96
823.898	13672.17
824.225	13593.98
824.553	13657.25
824.88	13677.59
825.207	13817.93
825.535	13642.79
825.862	13690.02
826.189	13713.98
826.516	13767.53
826.843	13785.39
827.17	13724.37
827.497	13793.97
827.824	13775.44
828.151	13717.82
828.478	13761.66
828.805	13795.1
829.131	13791.04
829.458	13741.32
829.785	13672.62
830.111	13697.93
830.438	13798.04
830.764	13729.79
831.09	13760.75
831.417	13683.02
831.743	13705.61
832.069	13612.06
832.395	13655.22
832.722	13633.3
833.048	13602.34
833.374	13707.42
833.7	13595.33
834.026	13586.3
834.351	13627.88
834.677	13614.54
835.003	13649.57
835.329	13605.5
835.654	13508.33
835.98	13497.94
836.306	13570.93
836.631	13476.92
836.956	13509.01
837.282	13384.72
837.607	13454.1
837.932	13429.69
838.258	13466.07
838.583	13403.48
838.908	13322.57
839.233	13330.03
839.558	13298.62
839.883	13297.94
840.208	13185.18
840.533	13208.23
840.858	13268.56
841.182	13280.99
841.507	13156.93
841.832	13092.52
842.156	13170.04
842.481	13148.57
842.805	13111.28
843.13	13023.37
843.454	13019.3
843.778	12954.67
844.103	12914.45
844.427	12920.55
844.751	12893.66
845.075	12838.97
845.399	12798.97
845.723	12827.9
846.047	12773.21
846.371	12735.7
846.695	12739.76
847.019	12653.66
847.343	12537.51
847.666	12458.64
847.99	12538.19
848.313	12468.13
848.637	12403.73
848.96	12326.89
849.284	12272.66
849.607	12202.6
849.931	12211.19
850.254	12056.17
850.577	12042.83
850.9	11970.29
851.223	12020.23
851.546	11873.12
851.869	11753.12
852.192	11829.96
852.515	11831.31
852.838	11765.55
853.161	11798.55
853.483	11669.51
853.806	11608.04
854.129	11634.93
854.451	11512.45
854.774	11533.02
855.096	11494.82
855.419	11441.49
855.741	11416.18
856.063	11326.24
856.385	11282.4
856.708	11248.28
857.03	11236.07
857.352	11259.12
857.674	11167.15
857.996	11141.61
858.318	11162.18
858.64	11164.44
858.961	11131.44
859.283	11026.36
859.605	11011.67
859.926	11048.73
860.248	10914.5
860.57	10939.59
860.891	10997.66
861.212	10923.31
861.534	10824.11
861.855	10900.26
862.176	10780.49
862.498	10855.97
862.819	10806.48
863.14	10749.76
863.461	10724
863.782	10743.66
864.103	10708.86
864.424	10682.64
864.745	10724.68
865.065	10583.44
865.386	10605.81
865.707	10559.03
866.027	10629.76
866.348	10554.28
866.668	10585.7
866.989	10542.31
867.309	10483.78
867.63	10410.56
867.95	10429.77
868.27	10411.46
868.59	10465.7
868.91	10503.21
869.23	10363.33
869.55	10368.53
869.87	10411.92
870.19	10393.61
870.51	10355.65
870.83	10343.89
871.15	10265.48
871.469	10265.48
871.789	10337.57
872.109	10263.22
872.428	10190.68
872.748	10232.94
873.067	10208.08
873.386	10164.46
873.706	10148.19
874.025	10119.95
874.344	10071.36
874.663	10090.57
874.982	10130.11
875.301	10089.89
875.62	10034.75
875.939	10065.71
876.258	10048.08
876.577	10033.39
876.896	9972.38
877.214	10006.28
877.533	10026.84
877.852	9936.45
878.17	9922.89
878.489	9978.93
878.807	9931.7
879.125	9846.73
879.444	9917.01
879.762	9837.02
880.08	9788.88
880.398	9834.53
880.716	9816.68
881.034	9777.13
881.352	9762.22
881.67	9718.15
881.988	9756.57
882.306	9702.56
882.624	9616
882.941	9642.22
883.259	9606.06
883.577	9604.03
883.894	9545.5
884.212	9588.43
884.529	9582.56
884.846	9522
885.164	9506.63
885.481	9503.24
885.798	9501.2
886.115	9362.45
886.432	9422.34
886.75	9341.66
887.067	9395.67
887.383	9337.59
887.7	9354.99
888.017	9288.1
888.334	9329.68
888.651	9284.49
888.967	9254.43
889.284	9177.37
889.6	9195.45
889.917	9065.74
890.233	9122.91
890.55	9108.9
890.866	9081.55
891.182	9020.09
891.498	8946.64
891.815	8940.99
892.131	8905.74
892.447	8942.58
892.763	8882.24
893.079	8842.01
893.395	8833.88
893.71	8862.35
894.026	8773.09
894.342	8747.33
894.657	8712.98
894.973	8762.02
895.289	8681.34
895.604	8609.25
895.92	8652.41
896.235	8583.94
896.55	8594.34
896.865	8536.71
897.181	8488.8
897.496	8491.06
897.811	8461.91
898.126	8438.63
898.441	8361.57
898.756	8343.04
899.071	8304.17
899.386	8312.76
899.7	8277.96
900.015	8251.29
900.33	8138.08
900.644	8160
900.959	8150.73
901.273	8074.8
901.588	8094.69
901.902	8018.76
902.216	8015.37
902.531	8006.56
902.845	7988.93
903.159	7922.94
903.473	7861.7
903.787	7817.41
904.101	7836.62
904.415	7734.47
904.729	7770.63
905.042	7734.7
905.356	7705.55
905.67	7663.74
905.984	7607.47
906.297	7641.14
906.611	7582.84
906.924	7578.32
907.237	7580.35
907.551	7503.29
907.864	7494.93
908.177	7441.37
908.491	7446.57
908.804	7388.94
909.117	7382.39
909.43	7307.14
909.743	7295.84
910.056	7275.27
910.368	7211.1
910.681	7189.85
910.994	7091.55
911.307	7178.55
911.619	7044.77
911.932	7047.94
912.244	7061.27
912.557	6998.67
912.869	7034.38
913.181	6965.68
913.494	6879.58
913.806	6901.5
914.118	6893.36
914.43	6866.47
914.742	6887.04
915.054	6817.89
915.366	6798.9
915.678	6821.05
915.99	6715.74
916.302	6696.76
916.613	6598.46
916.925	6656.76
917.236	6610.89
917.548	6603.2
917.859	6632.58
918.171	6544.22
918.482	6535.63
918.794	6487.5
919.105	6442.3
919.416	6414.96
919.727	6395.52
920.038	6397.56
920.349	6347.84
920.66	6318.69
920.971	6307.39
921.282	6309.2
921.593	6233.27
921.903	6263.1
922.214	6186.49
922.525	6146.49
922.835	6165.47
923.146	6145.14
923.456	6072.59
923.767	6068.98
924.077	6075.53
924.387	6051.8
924.697	6009.77
925.008	5996.66
925.318	5945.14
925.628	5938.59
925.938	5942.43
926.248	5843.67
926.558	5847.06
926.867	5843.22
927.177	5836.67
927.487	5803
927.796	5771.59
928.106	5699.72
928.416	5738.82
928.725	5712.15
929.034	5683
929.344	5645.26
929.653	5683.23
929.962	5662.21
930.271	5593.06
930.581	5546.96
930.89	5501.08
931.199	5523.23
931.508	5465.38
931.817	5518.48
932.125	5474.87
932.434	5446.62
932.743	5380.86
933.051	5351.71
933.36	5360.3
933.669	5354.42
933.977	5288.43
934.286	5299.28
934.594	5312.84
934.902	5232.62
935.21	5207.31
935.519	5269
935.827	5206.85
936.135	5229
936.443	5155.78
936.751	5087.99
937.059	5072.85
937.367	5087.76
937.674	5062.45
937.982	5085.95
938.29	5052.96
938.597	4988.33
938.905	4935.68
939.213	4946.3
939.52	4904.72
939.827	4942.23
940.135	4899.52
940.442	4830.59
940.749	4840.31
941.056	4823.14
941.363	4863.36
941.67	4813.42
941.977	4781.33
942.284	4760.31
942.591	4731.39
942.898	4721.44
943.205	4680.09
943.511	4668.56
943.818	4651.16
944.125	4610.94
944.431	4615.01
944.738	4582.24
945.044	4561.45
945.35	4518.96
945.657	4475.35
945.963	4530.26
946.269	4466.54
946.575	4459.98
946.881	4386.76
947.187	4425.86
947.493	4456.37
947.799	4385.63
948.105	4320.78
948.41	4351.51
948.716	4347.44
949.022	4351.74
949.327	4302.7
949.633	4248.91
949.938	4271.51
950.244	4233.32
950.549	4198.75
950.854	4192.64
951.16	4189.25
951.465	4166.66
951.77	4125.08
952.075	4169.37
952.38	4125.53
952.685	4076.49
952.99	4050.27
953.294	4077.39
953.599	4010.73
953.904	4010.5
954.209	4026.32
954.513	3996.26
954.818	3957.4
955.122	3940.9
955.426	3981.8
955.731	3917.17
956.035	3878.98
956.339	3865.42
956.643	3907.23
956.948	3895.48
957.252	3847.34
957.556	3828.59
957.86	3797.4
958.163	3817.96
958.467	3730.51
958.771	3752.88
959.075	3766.89
959.378	3731.41
959.682	3723.28
959.985	3683.96
960.289	3710.62
960.592	3659.32
960.896	3624.98
961.199	3639.44
961.502	3607.57
961.805	3576.61
962.108	3599.67
962.411	3568.93
962.714	3535.49
963.017	3580.46
963.32	3540.01
963.623	3529.38
963.926	3514.7
964.228	3466.34
964.531	3524.19
964.833	3465.43
965.136	3443.29
965.438	3448.93
965.741	3426.11
966.043	3414.81
966.345	3382.04
966.648	3394.25
966.95	3359.67
967.252	3307.47
967.554	3316.51
967.856	3295.27
968.158	3323.29
968.46	3298.66
968.761	3289.16
969.063	3249.62
969.365	3250.3
969.666	3205.78
969.968	3212.78
970.269	3240.13
970.571	3190.86
970.872	3155.84
971.174	3130.75
971.475	3163.97
971.776	3138.21
972.077	3117.64
972.378	3079.9
972.679	3105.67
972.98	3081.26
973.281	3074.26
973.582	3057.76
973.883	3049.17
974.183	3044.2
974.484	2991.09
974.785	3002.17
975.085	2976.63
975.386	2978.89
975.686	2993.58
975.986	2960.13
976.287	2952.22
976.587	2932.79
976.887	2913.36
977.187	2942.06
977.487	2872.45
977.787	2879.23
978.087	2875.84
978.387	2861.15
978.687	2859.35
978.987	2802.4
979.286	2801.04
979.586	2769.18
979.885	2758.78
980.185	2736.41
980.484	2745.45
980.784	2742.51
981.083	2722.63
981.382	2719.69
981.682	2713.13
981.981	2673.59
982.28	2697.09
982.579	2680.59
982.878	2707.03
983.177	2639.92
983.475	2628.62
983.774	2574.38
984.073	2609.63
984.372	2602.86
984.67	2604.21
984.969	2580.93
985.267	2585
985.566	2560.82
985.864	2568.73
986.162	2483.54
986.461	2512.46
986.759	2543.87
987.057	2473.59
987.355	2477.89
987.653	2454.61
987.951	2464.33
988.249	2478.79
988.547	2435.63
988.844	2453.48
989.142	2431.79
989.44	2396.98
989.737	2384.56
990.035	2425.46
990.332	2383.2
990.63	2385.69
990.927	2380.71
991.224	2347.27
991.521	2328.06
991.819	2286.93
992.116	2303.43
992.413	2294.39
992.71	2289.19
993.006	2266.82
993.303	2300.26
993.6	2233.83
993.897	2252.58
994.193	2270.66
994.49	2238.57
994.787	2244.67
995.083	2185.92
995.379	2201.74
995.676	2175.52
995.972	2171.23
996.268	2166.26
996.565	2131.68
996.861	2100.72
997.157	2136.43
997.453	2110.44
997.749	2100.72
998.044	2080.38
998.34	2085.81
998.636	2057.56
998.932	2092.13
999.227	2024.11
999.523	2053.94
999.818	2052.14
1000.114	2026.15
1000.409	2008.07
1000.704	1971.01
1001	1973.27
1001.295	1967.84
1001.59	1962.87
1001.885	1965.58
1002.18	1939.6
1002.475	1926.71
1002.77	1914.06
1003.065	1904.34
1003.359	1917
1003.654	1903.44
1003.949	1874.51
1004.243	1852.82
1004.538	1836.1
1004.832	1888.3
1005.127	1833.16
1005.421	1791.35
1005.715	1840.39
1006.009	1843.78
1006.304	1791.13
1006.598	1760.84
1006.892	1777.11
1007.186	1766.72
1007.48	1764.23
1007.773	1738.92
1008.067	1729.43
1008.361	1740.28
1008.655	1719.71
1008.948	1733.05
1009.242	1701.41
1009.535	1684.69
1009.829	1700.73
1010.122	1686.27
1010.415	1657.57
1010.708	1656.21
1011.001	1647.63
1011.295	1626.16
1011.588	1603.11
1011.881	1617.34
1012.173	1596.55
1012.466	1594.97
1012.759	1577.35
1013.052	1607.85
1013.344	1567.85
1013.637	1578.48
1013.93	1561.98
1014.222	1528.99
1014.514	1549.32
1014.807	1515.2
1015.099	1513.62
1015.391	1512.94
1015.683	1481.3
1015.976	1492.38
1016.268	1509.55
1016.56	1455.77
1016.851	1443.79
1017.143	1445.82
1017.435	1458.03
1017.727	1453.96
1018.018	1453.96
1018.31	1422.1
1018.602	1414.64
1018.893	1405.82
1019.185	1383.45
1019.476	1379.61
1019.767	1381.42
1020.058	1356.79
1020.35	1350.46
1020.641	1334.41
1020.932	1322.89
1021.223	1333.28
1021.514	1323.11
1021.804	1338.26
1022.095	1299.61
1022.386	1291.93
1022.677	1290.8
1022.967	1291.7
1023.258	1271.82
1023.548	1268.88
1023.839	1269.78
1024.129	1226.17
1024.419	1250.35
1024.709	1230.24
1025	1239.95
1025.29	1222.55
1025.58	1226.17
1025.87	1179.62
1026.16	1183.01
1026.449	1200.18
1026.739	1158.37
1027.029	1171.71
1027.319	1172.16
1027.608	1180.75
1027.898	1149.11
1028.187	1150.46
1028.477	1105.04
1028.766	1129.67
1029.055	1096.68
1029.344	1107.75
1029.634	1121.76
1029.923	1084.7
1030.212	1093.74
1030.501	1076.34
1030.79	1080.41
1031.078	1085.61
1031.367	1062.1
1031.656	1056.23
1031.945	1043.8
1032.233	1032.28
1032.522	1030.92
1032.81	1022.33
1033.099	1012.16
1033.387	1006.29
1033.675	992.73
1033.963	997.47
1034.251	995.44
1034.54	963.8
1034.828	971.26
1035.116	973.75
1035.403	994.99
1035.691	955.67
1035.979	963.58
1036.267	962.67
1036.554	946.63
1036.842	934.65
1037.129	930.58
1037.417	932.16
1037.704	919.28
1037.992	917.02
1038.279	912.5
1038.566	886.97
1038.853	886.97
1039.14	886.97
