Data from hue_22_FLMS001491_00093.txt Node
Date: Tue Feb 07 17:10:57 GMT 2017
User: dcchb
Spectrometer: FLMS00149
Trigger mode: 0
Integration Time (sec): 2.000000E-2
Scans to average: 10
Electric dark correction enabled: true
Nonlinearity correction enabled: false
Boxcar width: 0
XAxis mode: Wavelengths
Number of Pixels in Spectrum: 2048
>>>>>Begin Spectral Data<<<<<
341.393	-9.77
341.776	-9.77
342.16	-9.77
342.543	-60.39
342.927	-77.79
343.31	-72.6
343.693	-77.79
344.077	-59.94
344.46	-54.29
344.843	-57.46
345.226	-43.9
345.61	-42.09
345.993	-17.68
346.376	-6.84
346.759	19.83
347.142	47.4
347.525	57.12
347.908	55.08
348.291	61.64
348.674	91.01
349.057	100.51
349.44	135.53
349.823	131.69
350.206	154.97
350.588	182.54
350.971	204.01
351.354	211.92
351.737	223.21
352.119	253.5
352.502	270.67
352.884	256.66
353.267	291.69
353.65	276.09
354.032	293.95
354.414	293.95
354.797	300.73
355.179	326.04
355.562	306.6
355.944	326.26
356.326	318.35
356.709	350.67
357.091	318.35
357.473	347.96
357.855	352.02
358.238	303.89
358.62	338.01
359.002	340.05
359.384	336.43
359.766	338.69
360.148	340.95
360.53	325.36
360.912	347.28
361.294	329.2
361.676	318.58
362.057	333.27
362.439	331.69
362.821	328.75
363.203	337.11
363.584	338.69
363.966	309.77
364.348	319.48
364.729	321.07
365.111	308.18
365.493	315.42
365.874	316.32
366.256	317.9
366.637	318.35
367.019	297.56
367.4	300.5
367.781	321.97
368.163	308.18
368.544	312.48
368.925	320.39
369.306	311.12
369.688	303.89
370.069	312.93
370.45	294.4
370.831	328.97
371.212	299.6
371.593	296.88
371.974	297.34
372.355	308.86
372.736	300.27
373.117	315.19
373.498	312.7
373.879	329.2
374.26	315.42
374.641	309.09
375.021	309.99
375.402	316.32
375.783	323.1
376.163	316.55
376.544	326.26
376.925	330.33
377.305	317.68
377.686	303.66
378.066	322.42
378.447	305.02
378.827	316.09
379.208	345.25
379.588	335.75
379.968	334.4
380.349	315.64
380.729	338.01
381.109	324
381.489	325.36
381.87	328.07
382.25	344.12
382.63	321.29
383.01	316.55
383.39	334.85
383.77	347.73
384.15	343.66
384.53	318.13
384.91	333.27
385.29	333.72
385.67	337.56
386.049	345.02
386.429	355.19
386.809	361.74
387.189	340.27
387.568	354.74
387.948	346.83
388.328	338.47
388.707	333.95
389.087	344.57
389.466	352.7
389.846	347.05
390.225	359.48
390.605	362.87
390.984	347.73
391.363	352.48
391.743	357
392.122	362.42
392.501	378.01
392.881	359.48
393.26	381.18
393.639	365.36
394.018	361.29
394.397	373.94
394.776	393.61
395.155	399.48
395.534	346.6
395.913	365.81
396.292	387.05
396.671	378.01
397.05	386.6
397.429	364.91
397.808	375.07
398.186	385.24
398.565	391.57
398.944	371.01
399.323	383.66
399.701	373.72
400.08	380.27
400.458	373.72
400.837	379.14
401.215	386.83
401.594	385.02
401.972	379.37
402.351	395.64
402.729	397.45
403.107	365.58
403.486	383.21
403.864	394.06
404.242	406.26
404.62	400.84
404.999	403.1
405.377	399.26
405.755	406.03
406.133	397.22
406.511	413.72
406.889	430.44
407.267	427.73
407.645	410.78
408.023	424.34
408.401	432.47
408.779	429.99
409.156	445.36
409.534	418.46
409.912	439.48
410.29	422.53
410.667	446.49
411.045	426.6
411.422	426.15
411.8	428.41
412.178	435.19
412.555	451.23
412.933	443.55
413.31	451.68
413.687	447.39
414.065	480.83
414.442	465.24
414.819	453.04
415.197	459.37
415.574	452.81
415.951	473.6
416.328	476.32
416.705	467.73
417.082	458.69
417.46	462.76
417.837	476.09
418.214	473.38
418.591	458.69
418.967	458.01
419.344	512.47
419.721	475.19
420.098	494.62
420.475	492.36
420.852	496.65
421.228	504.79
421.605	503.89
421.982	515.18
422.358	512.02
422.735	514.51
423.111	526.94
423.488	510.66
423.864	520.16
424.241	530.1
424.617	528.74
424.994	509.99
425.37	543.88
425.746	531.68
426.123	536.88
426.499	550.89
426.875	539.82
427.251	555.18
427.627	549.08
428.003	565.8
428.379	538.01
428.756	554.05
429.132	572.13
429.507	551.34
429.883	571.68
430.259	592.24
430.635	587.72
431.011	581.62
431.387	566.93
431.763	591.79
432.138	599.25
432.514	608.97
432.89	618.91
433.265	613.26
433.641	620.94
434.016	611.45
434.392	647.16
434.767	636.76
435.143	653.26
435.518	661.62
435.894	631.57
436.269	660.72
436.644	644.67
437.02	668.17
437.395	663.65
437.77	662.52
438.145	682.19
438.52	675.63
438.895	697.33
439.271	670.89
439.646	700.72
440.021	706.14
440.395	693.48
440.77	678.57
441.145	689.87
441.52	717.44
441.895	723.54
442.27	721.28
442.645	705.24
443.019	735.07
443.394	726.7
443.769	715.63
444.143	736.2
444.518	755.18
444.892	735.29
445.267	747.72
445.641	751.11
446.016	759.7
446.39	754.95
446.764	764.67
447.139	765.8
447.513	732.81
447.887	770.09
448.262	805.8
448.636	799.7
449.01	782.07
449.384	801.96
449.758	789.3
450.132	808.51
450.506	805.8
450.88	826.81
451.254	813.93
451.628	823.2
452.002	823.65
452.376	832.46
452.75	825.01
453.123	856.42
453.497	874.5
453.871	833.59
454.244	869.75
454.618	870.66
454.992	878.34
455.365	884.89
455.739	906.36
456.112	945.68
456.486	901.16
456.859	938
457.232	935.06
457.606	940.03
457.979	940.26
458.352	941.39
458.725	957.66
459.099	978.67
459.472	969.18
459.845	994.72
460.218	982.74
460.591	1017.54
460.964	1003.08
461.337	1029.97
461.71	1027.04
462.083	1043.31
462.456	1066.13
462.829	1028.62
463.201	1053.7
463.574	1091.44
463.947	1105.68
464.32	1113.81
464.692	1108.39
465.065	1122.4
465.438	1137.99
465.81	1133.25
466.183	1204.21
466.555	1214.6
466.928	1193.81
467.3	1210.53
467.672	1207.14
468.045	1210.08
468.417	1239.46
468.789	1266.58
469.161	1286.24
469.534	1277.2
469.906	1324.43
470.278	1358.78
470.65	1327.59
471.022	1357.65
471.394	1361.04
471.766	1400.36
472.138	1416.86
472.51	1451.43
472.882	1472
473.253	1474.48
473.625	1518.1
473.997	1547.7
474.369	1546.34
474.74	1570.52
475.112	1614.14
475.484	1634.48
475.855	1643.29
476.227	1692.33
476.598	1741.14
476.97	1746.34
477.341	1783.4
477.713	1789.27
478.084	1848.71
478.455	1879.67
478.827	1911.31
479.198	1952.43
479.569	1936.84
479.94	2022.72
480.311	2030.4
480.682	2090.96
481.053	2140.9
481.424	2173.45
481.795	2211.41
482.166	2219.55
482.537	2267.23
482.908	2335.48
483.279	2359.88
483.65	2390.62
484.021	2463.38
484.391	2480.56
484.762	2520.33
485.133	2549.71
485.503	2576.15
485.874	2663.83
486.244	2710.83
486.615	2748.57
486.985	2800.1
487.356	2847.33
487.726	2860.43
488.097	2958.51
488.467	2983.82
488.837	3053.2
489.207	3046.19
489.578	3104.04
489.948	3165.51
490.318	3210.03
490.688	3217.49
491.058	3302.46
491.428	3336.8
491.798	3393.07
492.168	3464.03
492.538	3484.82
492.908	3557.14
493.278	3598.72
493.648	3577.25
494.017	3674.42
494.387	3704.7
494.757	3728.21
495.126	3780.18
495.496	3814.76
495.866	3819.96
496.235	3857.47
496.605	3921.87
496.974	3918.48
497.344	3977.01
497.713	4031.25
498.082	4051.81
498.452	4101.98
498.821	4132.49
499.19	4136.11
499.559	4206.84
499.928	4212.26
500.298	4194.64
500.667	4287.74
501.036	4298.81
501.405	4322.77
501.774	4327.06
502.143	4373.61
502.512	4413.84
502.88	4426.72
503.249	4457.91
503.618	4478.02
503.987	4560.05
504.356	4536.1
504.724	4555.08
505.093	4548.75
505.462	4595.53
505.83	4640.95
506.199	4692.93
506.567	4740.16
506.936	4686.15
507.304	4748.29
507.672	4800.95
508.041	4811.12
508.409	4879.36
508.777	4846.6
509.145	4852.25
509.514	4911.45
509.882	4853.38
510.25	4918.23
510.618	4990.09
510.986	4958.46
511.354	4985.58
511.722	5073.93
512.09	5054.95
512.458	5048.17
512.826	5146.93
513.193	5120.03
513.561	5155.06
513.929	5196.87
514.297	5242.97
514.664	5227.15
515.032	5216.76
515.4	5282.06
515.767	5249.97
516.135	5306.92
516.502	5310.76
516.869	5399.35
517.237	5376.3
517.604	5346.92
517.972	5431.89
518.339	5471.21
518.706	5458.56
519.073	5515.73
519.44	5488.39
519.808	5457.43
520.175	5550.53
520.542	5578.1
520.909	5587.59
521.276	5620.36
521.643	5625.56
522.009	5703.3
522.376	5663.75
522.743	5724.54
523.11	5703.97
523.477	5804.54
523.843	5840.69
524.21	5855.61
524.577	5868.72
524.943	5943.74
525.31	5901.71
525.676	5997.3
526.043	6015.38
526.409	6049.73
526.776	6057.86
527.142	6114.58
527.508	6156.84
527.874	6172.89
528.241	6198.42
528.607	6212.66
528.973	6230.97
529.339	6219.89
529.705	6320
530.071	6356.16
530.437	6324.52
530.803	6397.29
531.169	6466.67
531.535	6407.46
531.901	6469.6
532.267	6510.51
532.632	6484.52
532.998	6563.16
533.364	6574.46
533.73	6580.11
534.095	6647.9
534.461	6729.71
534.826	6747.11
535.192	6817.39
535.557	6795.47
535.923	6736.49
536.288	6827.79
536.653	6879.76
537.019	6866.2
537.384	6879.31
537.749	6954.34
538.114	6872.31
538.479	6910.5
538.845	6942.81
539.21	6929.93
539.575	7003.15
539.94	7047.67
540.305	7096.48
540.67	7057.84
541.034	7137.61
541.399	7165.4
541.764	7157.27
542.129	7206.08
542.494	7231.39
542.858	7254.44
543.223	7314.33
543.587	7278.85
543.952	7332.18
544.316	7426.87
544.681	7376.47
545.045	7449.92
545.41	7488.33
545.774	7488.79
546.138	7497.15
546.503	7560.2
546.867	7607.88
547.231	7658.05
547.595	7601.33
547.959	7654.21
548.324	7767.87
548.688	7708.44
549.052	7712.96
549.416	7747.08
549.779	7839.06
550.143	7786.41
550.507	7893.75
550.871	7875.67
551.235	7934.65
551.599	7967.87
551.962	7966.51
552.326	7949.34
552.689	8026.17
553.053	7970.36
553.417	8017.59
553.78	8140.29
554.143	8047.19
554.507	8140.07
554.87	8178.26
555.234	8223.68
555.597	8252.61
555.96	8218.94
556.323	8296.9
556.686	8267.97
557.05	8353.85
557.413	8367.86
557.776	8353.85
558.139	8417.8
558.502	8434.52
558.865	8424.81
559.228	8496.67
559.59	8474.52
559.953	8515.2
560.316	8576.44
560.679	8653.05
561.041	8610.34
561.404	8613.73
561.767	8721.07
562.129	8672.03
562.492	8778.7
562.854	8732.6
563.217	8759.49
563.579	8842.87
563.941	8825.7
564.304	8874.96
564.666	8957.67
565.028	8978.69
565.39	9022.31
565.753	8992.93
566.115	9027.5
566.477	9127.84
566.839	9193.15
567.201	9153.6
567.563	9213.71
567.925	9200.38
568.287	9206.93
568.648	9324.67
569.01	9342.52
569.372	9414.84
569.734	9406.7
570.095	9479.92
570.457	9545.23
570.819	9558.11
571.18	9549.52
571.542	9554.27
571.903	9640.59
572.265	9686.02
572.626	9730.99
572.987	9758.78
573.349	9773.02
573.71	9920.81
574.071	9876.97
574.432	10015.05
574.794	10101.6
575.155	10131.43
575.516	10229.96
575.877	10268.83
576.238	10278.32
576.599	10355.83
576.96	10462.04
577.32	10488.48
577.681	10661.36
578.042	10684.18
578.403	10790.17
578.763	10878.98
579.124	10968.92
579.485	11135.24
579.845	11177.5
580.206	11326.43
580.566	11460.66
580.927	11573.88
581.287	11831.95
581.648	11799.18
582.008	12005.05
582.368	12145.61
582.728	12276
583.089	12530.91
583.449	12644.13
583.809	12827.4
584.169	13003.67
584.529	13124.12
584.889	13427.39
585.249	13473.71
585.609	13756.64
585.969	14017.65
586.329	14211.1
586.688	14459.68
587.048	14691.76
587.408	14820.34
587.768	15086.1
588.127	15438.41
588.487	15705.07
588.846	16028.67
589.206	16127.43
589.565	16580.98
589.925	16850.8
590.284	17103.9
590.643	17381.41
591.003	17768.52
591.362	18060.26
591.721	18300.25
592.08	18632.45
592.44	19081.7
592.799	19367.57
593.158	19676.94
593.517	19883.26
593.876	20325.96
594.235	20664.26
594.593	20972.95
594.952	21297.46
595.311	21626.72
595.67	22000.49
596.029	22447.04
596.387	22729.74
596.746	23169.5
597.104	23346.22
597.463	23722.48
597.822	24173.55
598.18	24395.69
598.538	24759.29
598.897	25299.62
599.255	25367.64
599.613	26049.2
599.972	26244.23
600.33	26572.58
600.688	26970.08
601.046	27371.2
601.404	27736.16
601.762	27894.8
602.12	28378.86
602.478	28743.37
602.836	29088.9
603.194	29148.1
603.552	29579.73
603.91	29836.45
604.268	30237.79
604.625	30470.1
604.983	30843.88
605.341	31036.87
605.698	31421.94
606.056	31759.79
606.413	32016.95
606.771	32541.01
607.128	32918.4
607.485	32839.53
607.843	33158.62
608.2	33643.58
608.557	33994.08
608.914	34069.56
609.272	34444.69
609.629	34763.1
609.986	35123.54
610.343	35143.88
610.7	35623.64
611.057	35745.67
611.414	36011.2
611.771	36098.66
612.127	36551.52
612.484	36819.54
612.841	37158.97
613.198	37047.78
613.554	37388.11
613.911	37650.03
614.267	37861.55
614.624	38077.36
614.98	38236.23
615.337	38562.77
615.693	38737.91
616.05	38917.79
616.406	39216.09
616.762	39260.83
617.118	39406.82
617.475	39550.54
617.831	39887.48
618.187	40134.26
618.543	40234.14
618.899	40559.33
619.255	40535.15
619.611	40725.43
619.967	40897.63
620.323	41206.54
620.678	40994.8
621.034	41138.52
621.39	41364.96
621.746	41314.11
622.101	41915.68
622.457	41726.53
622.812	41924.49
623.168	42024.6
623.523	42215.78
623.879	42531.93
624.234	42359.06
624.589	42442.44
624.945	42614.19
625.3	42625.04
625.655	42748.2
626.01	42927.63
626.365	43022.09
626.72	42962.43
627.075	43001.07
627.43	42869.55
627.785	43077.68
628.14	43277.45
628.495	43330.1
628.85	43394.73
629.205	43292.36
629.559	43648.97
629.914	43397.67
630.269	43653.26
630.623	43530.1
630.978	43298.47
631.332	43782.3
631.687	43725.12
632.041	43566.03
632.396	43809.87
632.75	43700.72
633.104	43716.31
633.459	43667.04
633.813	43724.44
634.167	43809.41
634.521	43774.84
634.875	43925.57
635.229	43821.16
635.583	43803.76
635.937	43768.74
636.291	43789.3
636.645	43700.94
636.999	43773.03
637.352	43771
637.706	43760.15
638.06	43709.08
638.413	43775.74
638.767	43764.22
639.121	43779.58
639.474	43630.89
639.828	43660.94
640.181	43846.7
640.534	43796.08
640.888	43686.48
641.241	43542.53
641.594	43563.54
641.947	43743.65
642.301	43569.87
642.654	43594.96
643.007	43698.91
643.36	43627.95
643.713	43661.39
644.066	43856.87
644.419	43625.92
644.771	43121.52
645.124	42952.49
645.477	42817.57
645.83	42677.24
646.182	42542.55
646.535	42460.52
646.888	42582.1
647.24	42262.79
647.593	42638.82
647.945	42522.67
648.298	42382.11
648.65	42320.64
649.002	42104.83
649.355	42303.92
649.707	42365.84
650.059	42454.87
650.411	43071.81
650.763	42999.26
651.115	43366.49
651.467	43285.36
651.819	43316.32
652.171	43226.83
652.523	43073.61
652.875	43091.47
653.227	42920.4
653.578	43152.48
653.93	43058.47
654.282	42959.04
654.633	42928.08
654.985	43094.63
655.337	43065.48
655.688	43093.05
656.039	43235.64
656.391	42860.96
656.742	43026.61
657.094	42903.9
657.445	42983.45
657.796	42914.07
658.147	42814.86
658.498	42803.34
658.849	42915.2
659.2	42847.18
659.551	42738.25
659.902	42944.58
660.253	42861.64
660.604	42829.1
660.955	42659.39
661.306	42959.72
661.656	42781.42
662.007	42885.14
662.358	42729.67
662.708	42888.08
663.059	42705.26
663.409	42599.28
663.76	42883.56
664.11	42732.83
664.461	42787.75
664.811	42890.34
665.161	42703.68
665.511	42579.39
665.862	42604.7
666.212	42773.51
666.562	42739.61
666.912	42655.55
667.262	42760.18
667.612	42657.13
667.962	42794.07
668.312	42701.42
668.662	42775.09
669.011	42769.67
669.361	42602.67
669.711	42513.63
670.06	42623.23
670.41	42443.35
670.76	42539.16
671.109	42608.09
671.459	42372.39
671.808	42506.17
672.157	42555.43
672.507	42306.85
672.856	42354.54
673.205	42316.34
673.554	42490.35
673.904	42373.07
674.253	42648.31
674.602	42388.89
674.951	41855.11
675.3	41750.71
675.649	42435.44
675.998	42346.17
676.346	42355.21
676.695	42543.23
677.044	41980.31
677.393	42279.06
677.741	42404.48
678.09	42218.49
678.438	42032.28
678.787	42045.84
679.135	42124.26
679.484	41872.97
679.832	41995.22
680.181	41699.86
680.529	41858.28
680.877	41697.6
681.225	41659.19
681.573	41944.38
681.922	41527.89
682.27	41536.03
682.618	41558.4
682.966	41407.89
683.314	41406.99
683.661	41333.55
684.009	41254
684.357	41070.5
684.705	41128.81
685.053	41158.64
685.4	41070.28
685.748	40863.73
686.095	40935.14
686.443	40846.33
686.79	40747.35
687.138	40827.34
687.485	40744.41
687.832	40700.12
688.18	40630.29
688.527	40489.27
688.874	40446.56
689.221	40412.89
689.568	40349.62
689.915	40418.32
690.262	40336.74
690.609	40162.96
690.956	39975.39
691.303	39985.33
691.65	39804.55
691.997	39824.43
692.344	39461.28
692.69	39492.01
693.037	39513.48
693.383	39234.17
693.73	39446.14
694.077	39132.02
694.423	39162.76
694.769	38964.34
695.116	38902.88
695.462	38884.8
695.808	38612.49
696.155	38779.94
696.501	38419.95
696.847	38544.24
697.193	38419.95
697.539	38307.18
697.885	38061.32
698.231	38001.88
698.577	38179.96
698.923	38098.38
699.269	37847.31
699.614	37530.03
699.96	37716.47
700.306	37589.46
700.651	37552.63
700.997	37438.51
701.342	37282.13
701.688	37191.51
702.033	37106.99
702.379	37205.97
702.724	36901.35
703.069	37043.26
703.415	36662.93
703.76	36604.4
704.105	36726.21
704.45	36622.94
704.795	36395.82
705.14	36370.06
705.485	36245.77
705.83	36095.94
706.175	36087.58
706.52	35941.82
706.865	35975.72
707.209	35957.19
707.554	35775.05
707.899	35851.2
708.243	35694.15
708.588	35589.74
708.932	35162.63
709.277	35322.18
709.621	35332.8
709.966	35083.77
710.31	35226.36
710.654	34972.81
710.998	34978.01
711.342	34995.41
711.687	34820.27
712.031	34782.76
712.375	34667.51
712.719	34721.06
713.063	34614.17
713.407	34714.51
713.75	34489.21
714.094	34471.81
714.438	34341.41
714.782	34378.25
715.125	34107.3
715.469	34268.87
715.812	34048.99
716.156	33838.38
716.499	33893.74
716.843	33983.91
717.186	33732.39
717.53	33722.45
717.873	33718.6
718.216	33662.34
718.559	33513.86
718.902	33376.47
719.246	33501.89
719.589	33275.68
719.932	33158.85
720.275	33209.47
720.617	33239.52
720.96	33129.69
721.303	33153.2
721.646	33233.19
721.989	32904.84
722.331	32964.5
722.674	32811.74
723.016	32875.46
723.359	32799.99
723.701	32820.1
724.044	32601.8
724.386	32529.48
724.729	32677.5
725.071	32596.83
725.413	32528.13
725.755	32483.38
726.097	32267.57
726.439	32149.83
726.782	32201.36
727.124	32315.25
727.465	32123.39
727.807	32125.43
728.149	32111.87
728.491	31919.56
728.833	31975.6
729.175	31840.24
729.516	31885.66
729.858	31877.98
730.199	31881.14
730.541	31733.12
730.882	31684.76
731.224	31712.56
731.565	31569.28
731.906	31454.03
732.248	31523.18
732.589	31287.48
732.93	31366.12
733.271	31350.08
733.612	31253.81
733.953	31434.82
734.294	31139.69
734.635	31095.62
734.976	31199.58
735.317	31029.41
735.658	31039.81
735.999	31071.89
736.339	30977.66
736.68	31032.12
737.021	31070.09
737.361	30760.94
737.702	30871
738.042	30833.94
738.383	30731.79
738.723	30768.17
739.063	30557.33
739.404	30668.06
739.744	30525.47
740.084	30415.41
740.424	30569.54
740.764	30542.64
741.104	30522.53
741.444	30350.56
741.784	30212.48
742.124	30353.72
742.464	30336.32
742.804	30303.1
743.143	30100.85
743.483	30175.87
743.823	29989.66
744.162	30061.75
744.502	30082.99
744.841	29994.64
745.181	30056.1
745.52	29922.32
745.86	29972.49
746.199	29833.74
746.538	29756.68
746.877	29904.47
747.216	29733.62
747.556	29695.66
747.895	29843.9
748.234	29661.76
748.573	29467.42
748.911	29509.22
749.25	29519.62
749.589	29419.73
749.928	29374.09
750.267	29376.8
750.605	29238.04
750.944	29095.45
751.283	29116.92
751.621	29193.75
751.96	28799.64
752.298	29020.88
752.636	29051.83
752.975	28750.37
753.313	28704.05
753.651	28926.41
753.989	28647.33
754.327	28702.92
754.666	28395.13
755.004	28546.76
755.342	28589.25
755.679	28550.83
756.017	28467.22
756.355	28410.04
756.693	28324.62
757.031	28277.17
757.368	28248.01
757.706	28195.13
758.044	28110.16
758.381	28117.17
758.719	28000.34
759.056	27947.01
759.394	27808.93
759.731	27734.36
760.068	27599.9
760.405	27585.88
760.743	27499.56
761.08	27536.39
761.417	27359
761.754	27283.75
762.091	27241.71
762.428	27157.65
762.765	27037.88
763.102	27050.98
763.438	26840.59
763.775	26803.76
764.112	26857.54
764.449	26775.28
764.785	26824.55
765.122	26528.06
765.458	26376.65
765.795	26468.4
766.131	26343.43
766.467	26341.62
766.804	26199.25
767.14	26060.28
767.476	26103.89
767.812	25902.54
768.148	26017.79
768.485	25737.12
768.821	25547.52
769.157	25509.78
769.492	25502.78
769.828	25512.04
770.164	25160.64
770.5	25121.77
770.836	25220.52
771.171	25027.31
771.507	24966.74
771.842	24830.48
772.178	24841.55
772.513	24830.7
772.849	24706.86
773.184	24590.71
773.519	24585.51
773.855	24409.25
774.19	24298.51
774.525	24262.81
774.86	24159.08
775.195	24153.43
775.53	24074.56
775.865	23968.58
776.2	23739.43
776.535	23666.89
776.87	23607.46
777.205	23512.55
777.539	23494.47
777.874	23514.58
778.209	23225.77
778.543	23257.41
778.878	22993.46
779.212	23156.17
779.547	22917.08
779.881	23008.38
780.215	22864.43
780.55	22786.46
780.884	22729.74
781.218	22666.92
781.552	22692.68
781.886	22495.4
782.22	22225.8
782.554	22313.71
782.888	22126.37
783.222	22149.42
783.556	21980.61
783.889	21907.39
784.223	21791.23
784.557	21751.46
784.89	21732.71
785.224	21570.45
785.557	21530.68
785.891	21370.23
786.224	21424.24
786.558	21467.63
786.891	21155.77
787.224	21039.16
787.557	21137.01
787.891	21027.41
788.224	21007.3
788.557	20957.81
788.89	20739.29
789.223	20803.92
789.556	20739.96
789.888	20646.18
790.221	20558.95
790.554	20372.52
790.887	20437.6
791.219	20237.6
791.552	20226.3
791.884	20163.71
792.217	20153.54
792.549	19983.15
792.882	20008
793.214	19765.53
793.546	19816.37
793.879	19708.35
794.211	19622.93
794.543	19679.65
794.875	19579.54
795.207	19547.68
795.539	19514.46
795.871	19419.09
796.203	19275.82
796.535	19196.05
796.867	19196.05
797.198	19038.76
797.53	19212.77
797.862	18998.54
798.193	18962.61
798.525	18872.89
798.856	18879.9
799.188	18625.67
799.519	18622.5
799.85	18530.76
800.182	18552.22
800.513	18491.21
800.844	18382.06
801.175	18520.36
801.506	18464.54
801.837	18273.81
802.168	18311.1
802.499	18227.71
802.83	18122.86
803.161	18053.93
803.491	18034.27
803.822	17989.98
804.153	17920.38
804.483	17758.12
804.814	17762.41
805.145	17692.36
805.475	17646.49
805.805	17653.49
806.136	17565.58
806.466	17690.33
806.796	17448.3
807.126	17411.46
807.457	17328.3
807.787	17397.9
808.117	17264.8
808.447	17222.99
808.777	17220.06
809.107	17082.43
809.436	17114.75
809.766	17219.6
810.096	17046.95
810.426	16952.49
810.755	16963.79
811.085	16877.92
811.414	16951.81
811.744	16779.84
812.073	16748.88
812.403	16724.93
812.732	16636.57
813.061	16651.48
813.39	16527.87
813.719	16463.92
814.049	16525.84
814.378	16432.28
814.707	16378.04
815.036	16358.38
815.365	16245.84
815.693	16068
816.022	16134.21
816.351	16076.81
816.68	15987.77
817.008	16065.74
817.337	15972.4
817.665	15833.88
817.994	15846.53
818.322	15895.8
818.651	15907.32
818.979	15791.84
819.307	15904.16
819.636	15788.68
819.964	15635.01
820.292	15744.16
820.62	15717.27
820.948	15673.43
821.276	15682.47
821.604	15622.13
821.932	15614.67
822.259	15631.62
822.587	15623.04
822.915	15621.45
823.243	15618.74
823.57	15567.67
823.898	15556.14
824.225	15541.68
824.553	15478.63
824.88	15583.26
825.207	15650.38
825.535	15615.35
825.862	15709.36
826.189	15539.2
826.516	15621.23
826.843	15690.83
827.17	15488.12
827.497	15520.67
827.824	15504.39
828.151	15542.81
828.478	15554.34
828.805	15665.97
829.131	15537.39
829.458	15530.83
829.785	15435.24
830.111	15485.41
830.438	15628.01
830.764	15568.35
831.09	15560.21
831.417	15403.38
831.743	15482.25
832.069	15517.05
832.395	15456.71
832.722	15514.11
833.048	15431.63
833.374	15443.83
833.7	15401.35
834.026	15416.71
834.351	15441.57
834.677	15326.09
835.003	15378.52
835.329	15291.52
835.654	15319.77
835.98	15233.89
836.306	15275.25
836.631	15277.51
836.956	15276.83
837.282	15244.51
837.607	15164.06
837.932	15176.95
838.258	15136.27
838.583	15147.79
838.908	15013.33
839.233	15010.17
839.558	15030.28
839.883	14943.73
840.208	14987.35
840.533	14875.48
840.858	14941.47
841.182	14878.87
841.507	14810.63
841.832	14775.15
842.156	14738.99
842.481	14802.49
842.805	14741.02
843.13	14657.41
843.454	14652.89
843.778	14566.34
844.103	14495.61
844.427	14526.79
844.751	14545.32
845.075	14461.26
845.399	14471.88
845.723	14347.36
846.047	14355.95
846.371	14233.92
846.695	14279.57
847.019	14155.28
847.343	14016.3
847.666	14054.72
847.99	13955.51
848.313	13978.11
848.637	13913.25
848.96	13845.23
849.284	13845
849.607	13648.62
849.931	13686.36
850.254	13646.59
850.577	13525.69
850.9	13459.02
851.223	13403.21
851.546	13381.51
851.869	13261.06
852.192	13324.56
852.515	13189.2
852.838	13174.51
853.161	13142.87
853.483	13061.75
853.806	12977
854.129	12972.48
854.451	12962.77
854.774	12904.01
855.096	12824.69
855.419	12839.83
855.741	12768.2
856.063	12704.02
856.385	12636
856.708	12644.13
857.03	12651.81
857.352	12605.04
857.674	12568.43
857.996	12564.81
858.318	12453.85
858.64	12487.07
858.961	12355.55
859.283	12326.17
859.605	12243.69
859.926	12252.73
860.248	12272.84
860.57	12166.18
860.891	12210.92
861.212	12101.55
861.534	12045.95
861.855	12104.03
862.176	12138.61
862.498	12127.31
862.819	12079.17
863.14	11881.44
863.461	11971.83
863.782	11936.8
864.103	11943.13
864.424	11900.65
864.745	11879.86
865.065	11820.2
865.386	11777.26
865.707	11771.16
866.027	11741.33
866.348	11766.41
866.668	11708.11
866.989	11727.09
867.309	11685.29
867.63	11660.2
867.95	11652.07
868.27	11601.67
868.59	11593.99
868.91	11549.02
869.23	11580.88
869.55	11512.18
869.87	11530.26
870.19	11488.68
870.51	11521.22
870.83	11513.54
871.15	11433.77
871.469	11416.59
871.789	11397.38
872.109	11443.48
872.428	11362.58
872.748	11362.81
873.067	11321.68
873.386	11372.07
873.706	11346.09
874.025	11235.81
874.344	11256.6
874.663	11239.65
874.982	11207.11
875.301	11198.52
875.62	11150.84
875.939	11168.69
876.258	11180.89
876.577	11108.13
876.896	11141.8
877.214	11090.05
877.533	11061.12
877.852	11022.25
878.17	11079.43
878.489	11027.9
878.807	11007.79
879.125	10920.79
879.444	10985.42
879.762	10946.1
880.08	10957.4
880.398	10938.64
880.716	10944.97
881.034	10941.8
881.352	10922.59
881.67	10826.78
881.988	10834.46
882.306	10796.5
882.624	10726.89
882.941	10741.13
883.259	10648.03
883.577	10635.6
883.894	10671.75
884.212	10643.96
884.529	10640.79
884.846	10626.1
885.164	10559.21
885.481	10535.71
885.798	10621.81
886.115	10460.91
886.432	10469.05
886.75	10410.07
887.067	10443.28
887.383	10385.21
887.7	10426.34
888.017	10348.6
888.334	10371.2
888.651	10306.11
888.967	10307.92
889.284	10240.35
889.6	10165.33
889.917	10114.48
890.233	10203.52
890.55	10051.88
890.866	10134.37
891.182	10071.32
891.498	10015.95
891.815	10041.49
892.131	9972.56
892.447	10011.43
892.763	9854.6
893.079	9831.1
893.395	9854.15
893.71	9818.89
894.026	9796.97
894.342	9709.07
894.657	9679.01
894.973	9692.34
895.289	9694.38
895.604	9720.59
895.92	9596.3
896.235	9574.38
896.55	9582.97
896.865	9498.68
897.181	9492.12
897.496	9525.34
897.811	9397.44
898.126	9378.23
898.441	9374.16
898.756	9343.88
899.071	9259.36
899.386	9249.64
899.7	9231.34
900.015	9171
900.33	9125.35
900.644	9067.5
900.959	9082.19
901.273	9080.61
901.588	9055.07
901.902	9001.74
902.216	9021.18
902.531	8907.05
902.845	8901.86
903.159	8818.69
903.473	8799.26
903.787	8854.63
904.101	8749.32
904.415	8793.38
904.729	8737.57
905.042	8716.78
905.356	8632.48
905.67	8626.61
905.984	8627.29
906.297	8579.15
906.611	8530.57
906.924	8531.24
907.237	8524.69
907.551	8496.9
907.864	8368.09
908.177	8354.75
908.491	8278.6
908.804	8274.3
909.117	8233.85
909.43	8263.68
909.743	8220.07
910.056	8212.38
910.368	8098.71
910.681	8101.43
910.994	8109.11
911.307	8038.83
911.619	7980.98
911.932	8042.44
912.244	7935.78
912.557	7922.9
912.869	7829.57
913.181	7800.64
913.494	7767.87
913.806	7770.13
914.118	7750.25
914.43	7688.78
914.742	7621.66
915.054	7658.27
915.366	7623.92
915.678	7580.76
915.99	7556.35
916.302	7474.32
916.613	7430.48
916.925	7456.47
917.236	7449.47
917.548	7386.87
917.859	7334.44
918.171	7256.25
918.482	7274.78
918.794	7250.83
919.105	7267.78
919.416	7191.17
919.727	7152.07
920.038	7215.8
920.349	7083.37
920.66	7072.75
920.971	7030.27
921.282	7044.96
921.593	7004.51
921.903	6967.44
922.214	6924.96
922.525	6934.45
922.835	6846.32
923.146	6789.14
923.456	6772.19
923.767	6767.9
924.077	6756.6
924.387	6777.17
924.697	6723.16
925.008	6644.29
925.318	6586.21
925.628	6609.26
925.938	6618.53
926.248	6528.81
926.558	6471.19
926.867	6511.18
927.177	6482.94
927.487	6468.93
927.796	6382.6
928.106	6402.71
928.416	6364.3
928.725	6298.31
929.034	6308.03
929.344	6303.73
929.653	6272.55
929.962	6201.81
930.271	6222.38
930.581	6164.75
930.89	6103.51
931.199	6083.17
931.508	6102.16
931.817	6106
932.125	6073
932.434	6019.45
932.743	5950.75
933.051	5965.21
933.36	5969.5
933.669	5867.36
933.977	5898.09
934.286	5864.42
934.594	5850.19
934.902	5777.87
935.21	5768.83
935.519	5741.71
935.827	5772.45
936.135	5694.48
936.443	5612.23
936.751	5653.81
937.059	5612.68
937.367	5597.08
937.674	5603.41
937.982	5622.62
938.29	5503.53
938.597	5566.8
938.905	5476.41
939.213	5412
939.52	5437.09
939.827	5479.57
940.135	5431.21
940.442	5391.44
940.749	5368.84
941.056	5379.24
941.363	5325.68
941.67	5243.87
941.977	5225.12
942.284	5177.89
942.591	5222.18
942.898	5205.68
943.205	5198.9
943.511	5136.08
943.818	5131.79
944.125	5134.72
944.431	5094.05
944.738	5038.68
945.044	5043.65
945.35	5012.02
945.657	4992.35
945.963	4973.37
946.269	4931.11
946.575	4927.5
946.881	4879.82
947.187	4879.59
947.493	4874.17
947.799	4790.55
948.105	4829.65
948.41	4772.25
948.716	4786.48
949.022	4776.99
949.327	4772.02
949.633	4753.04
949.938	4694.06
950.244	4630.78
950.549	4629.43
950.854	4651.35
951.16	4618.81
951.465	4601.63
951.77	4549.43
952.075	4548.07
952.38	4553.5
952.685	4539.94
952.99	4481.86
953.294	4464.01
953.599	4445.7
953.904	4436.66
954.209	4422.2
954.513	4389.88
954.818	4312.6
955.122	4350.56
955.426	4310.11
955.731	4278.25
956.035	4297.68
956.339	4273.96
956.643	4301.75
956.948	4198.25
957.252	4164.35
957.556	4240.74
957.86	4181.53
958.163	4181.98
958.467	4168.42
958.771	4127.29
959.075	4114.19
959.378	4117.58
959.682	4125.94
959.985	4113.51
960.289	4089.78
960.592	3999.16
960.896	4000.74
961.199	4003.91
961.502	3983.12
961.805	3947.86
962.108	3931.59
962.411	3945.83
962.714	3906.51
963.017	3890.69
963.32	3832.39
963.623	3836
963.926	3839.84
964.228	3814.76
964.531	3780.86
964.833	3753.74
965.136	3772.27
965.438	3746.96
965.741	3743.35
966.043	3716
966.345	3690.02
966.648	3714.2
966.95	3678.04
967.252	3646.85
967.554	3675.78
967.856	3663.8
968.158	3607.53
968.46	3564.37
968.761	3600.98
969.063	3585.39
969.365	3534.31
969.666	3511.72
969.968	3489.8
970.269	3497.03
970.571	3513.98
970.872	3439.18
971.174	3447.76
971.475	3438.05
971.776	3422.45
972.077	3430.14
972.378	3388.55
972.679	3375.22
972.98	3353.75
973.281	3379.29
973.582	3342.45
973.883	3326.86
974.183	3303.59
974.484	3294.77
974.785	3254.32
975.085	3308.78
975.386	3244.83
975.686	3248.45
975.986	3239.63
976.287	3255.45
976.587	3176.36
976.887	3205.28
977.187	3171.61
977.487	3174.78
977.787	3136.81
978.087	3174.78
978.387	3114.21
978.687	3143.14
978.987	3034.44
979.286	3059.75
979.586	3057.72
979.885	3043.03
980.185	3011.84
980.484	3051.61
980.784	3005.97
981.083	2972.07
981.382	2954.89
981.682	2971.62
981.981	2926.42
982.28	2932.97
982.579	2921.22
982.878	2910.6
983.177	2869.92
983.475	2914.9
983.774	2890.26
984.073	2855.01
984.372	2831.06
984.67	2815.01
984.969	2818.63
985.267	2799.64
985.566	2784.5
985.864	2765.52
986.162	2772.98
986.461	2774.79
986.759	2763.03
987.057	2706.76
987.355	2697.5
987.653	2690.72
987.951	2694.79
988.249	2683.49
988.547	2662.25
988.844	2636.26
989.142	2659.76
989.44	2604.85
989.737	2642.13
990.035	2611.17
990.332	2565.53
990.63	2577.28
990.927	2562.14
991.224	2570.72
991.521	2534.57
991.819	2522.36
992.116	2542.7
992.413	2538.18
992.71	2500.44
993.006	2473.55
993.303	2470.39
993.6	2464.51
993.897	2458.41
994.193	2427.22
994.49	2437.85
994.787	2376.6
995.083	2396.04
995.379	2405.76
995.676	2420.67
995.972	2381.58
996.268	2384.74
996.565	2327.57
996.861	2319.66
997.157	2340.67
997.453	2305.42
997.749	2299.09
998.044	2278.75
998.34	2263.16
998.636	2266.32
998.932	2239.21
999.227	2245.31
999.523	2243.27
999.818	2236.49
1000.114	2224.07
1000.409	2166.21
1000.704	2177.06
1001	2182.71
1001.295	2161.47
1001.59	2155.59
1001.885	2142.03
1002.18	2131.41
1002.475	2109.94
1002.77	2109.27
1003.065	2122.6
1003.359	2091.41
1003.654	2073.56
1003.949	2045.77
1004.243	2027.91
1004.538	2035.37
1004.832	2015.71
1005.127	2017.52
1005.421	1995.82
1005.715	1987.24
1006.009	1978.87
1006.304	1986.11
1006.598	1973.45
1006.892	1951.98
1007.186	1956.95
1007.48	1959.67
1007.773	1924.86
1008.067	1911.31
1008.361	1915.6
1008.655	1923.96
1008.948	1886.67
1009.242	1872.89
1009.535	1866.56
1009.829	1861.82
1010.122	1817.97
1010.415	1820.69
1010.708	1832.21
1011.001	1808.26
1011.295	1793.79
1011.588	1795.83
1011.881	1768.03
1012.173	1780.91
1012.466	1744.53
1012.759	1753.57
1013.052	1733.23
1013.344	1697.53
1013.637	1712.44
1013.93	1713.8
1014.222	1704.98
1014.514	1720.8
1014.807	1684.42
1015.099	1620.92
1015.391	1633.35
1015.683	1635.15
1015.976	1606.45
1016.268	1607.36
1016.56	1617.53
1016.851	1612.1
1017.143	1612.56
1017.435	1601.71
1017.727	1579.56
1018.018	1567.81
1018.31	1551.32
1018.602	1556.96
1018.893	1519.9
1019.185	1525.1
1019.476	1539.34
1019.767	1519.23
1020.058	1507.02
1020.35	1486.23
1020.641	1476.06
1020.932	1473.8
1021.223	1463.63
1021.514	1446.46
1021.804	1437.65
1022.095	1408.04
1022.386	1401.26
1022.677	1387.03
1022.967	1391.77
1023.258	1385.67
1023.548	1370.3
1023.839	1389.51
1024.129	1362.85
1024.419	1369.17
1024.709	1324.65
1025	1323.52
1025.29	1353.35
1025.58	1314.49
1025.87	1317.2
1026.16	1289.85
1026.449	1307.25
1026.739	1285.33
1027.029	1271.32
1027.319	1252.79
1027.608	1244.88
1027.898	1265.45
1028.187	1237.65
1028.477	1220.02
1028.766	1257.09
1029.055	1255.73
1029.344	1213.24
1029.634	1208.95
1029.923	1175.73
1030.212	1177.09
1030.501	1177.77
1030.79	1150.2
1031.078	1164.21
1031.367	1154.94
1031.656	1143.64
1031.945	1145.68
1032.233	1107.49
1032.522	1147.03
1032.81	1114.26
1033.099	1122.63
1033.387	1073.14
1033.675	1112.23
1033.963	1118.56
1034.251	1075.85
1034.54	1057.99
1034.828	1069.07
1035.116	1066.13
1035.403	1063.64
1035.691	1046.02
1035.979	1048.96
1036.267	1044.21
1036.554	1025.68
1036.842	1003.53
1037.129	1014.61
1037.417	1011.89
1037.704	995.62
1037.992	975.29
1038.279	996.75
1038.566	993.14
1038.853	993.14
1039.14	993.14
