Data from hue_130_FLMS001491_00001.txt Node
Date: Tue Feb 07 16:57:03 GMT 2017
User: dcchb
Spectrometer: FLMS00149
Trigger mode: 0
Integration Time (sec): 2.000000E-2
Scans to average: 10
Electric dark correction enabled: true
Nonlinearity correction enabled: false
Boxcar width: 0
XAxis mode: Wavelengths
Number of Pixels in Spectrum: 2048
>>>>>Begin Spectral Data<<<<<
341.393	-2.84
341.776	-2.84
342.16	-2.84
342.543	-52.78
342.927	-59.33
343.31	-56.4
343.693	-71.76
344.077	-97.53
344.46	-46.68
344.843	-67.02
345.226	-43.97
345.61	-26.12
345.993	-20.24
346.376	-3.74
346.759	2.13
347.142	27.44
347.525	57.5
347.908	59.76
348.291	75.8
348.674	102.7
349.057	108.12
349.44	134.56
349.823	124.16
350.206	175.46
350.588	229.7
350.971	225.18
351.354	234.89
351.737	250.04
352.119	253.88
352.502	275.8
352.884	283.03
353.267	283.03
353.65	295.68
354.032	301.11
354.414	304.72
354.797	333.42
355.179	336.81
355.562	327.77
355.944	331.39
356.326	345.4
356.709	348.79
357.091	347.89
357.473	350.15
357.855	353.31
358.238	347.21
358.62	335.23
359.002	356.7
359.384	363.03
359.766	361.22
360.148	332.07
360.53	321.45
360.912	345.4
361.294	331.16
361.676	350.37
362.057	327.1
362.439	333.42
362.821	334.33
363.203	349.02
363.584	337.04
363.966	334.78
364.348	332.75
364.729	333.42
365.111	313.76
365.493	338.62
365.874	337.72
366.256	331.62
366.637	331.39
367.019	334.33
367.4	328.68
367.781	306.76
368.163	328.68
368.544	351.73
368.925	320.32
369.306	320.77
369.688	326.19
370.069	308.57
370.45	315.12
370.831	341.56
371.212	301.56
371.593	310.15
371.974	337.94
372.355	327.1
372.736	316.7
373.117	318.96
373.498	311.5
373.879	330.26
374.26	311.05
374.641	328.68
375.021	299.53
375.402	325.97
375.783	333.2
376.163	349.47
376.544	350.82
376.925	348.34
377.305	334.33
377.686	329.58
378.066	320.99
378.447	328.45
378.827	329.58
379.208	337.04
379.588	323.71
379.968	352.41
380.349	346.98
380.729	347.21
381.109	350.82
381.489	362.8
381.87	342.69
382.25	351.95
382.63	353.08
383.01	342.01
383.39	355.57
383.77	346.53
384.15	341.11
384.53	364.84
384.91	370.48
385.29	367.09
385.67	353.08
386.049	360.09
386.429	345.4
386.809	356.02
387.189	366.87
387.568	358.51
387.948	354.44
388.328	359.86
388.707	372.29
389.087	382.24
389.466	375.23
389.846	366.87
390.225	377.72
390.605	372.97
390.984	399.18
391.363	355.8
391.743	390.37
392.122	382.46
392.501	372.29
392.881	357.15
393.26	362.35
393.639	383.82
394.018	389.92
394.397	390.82
394.776	373.2
395.155	373.87
395.534	391.28
395.913	404.38
396.292	385.63
396.671	410.03
397.05	388.79
397.429	417.26
397.808	408
398.186	414.78
398.565	409.81
398.944	427.88
399.323	398.73
399.701	423.14
400.08	417.72
400.458	432.4
400.837	423.59
401.215	431.73
401.594	407.32
401.972	412.74
402.351	452.52
402.729	421.1
403.107	426.3
403.486	414.55
403.864	406.64
404.242	438.73
404.62	438.73
404.999	452.52
405.377	413.65
405.755	445.06
406.133	467.43
406.511	446.64
406.889	450.71
407.267	436.92
407.645	444.83
408.023	460.2
408.401	443.03
408.779	478.73
409.156	456.81
409.534	491.61
409.912	452.52
410.29	484.38
410.667	485.28
411.045	478.73
411.422	505.62
411.8	488.45
412.178	500.65
412.555	496.36
412.933	463.82
413.31	495.45
413.687	516.24
414.065	504.27
414.442	489.35
414.819	512.85
415.197	533.87
415.574	523.47
415.951	508.33
416.328	529.12
416.705	531.16
417.082	510.59
417.46	542.46
417.837	541.55
418.214	534.55
418.591	539.52
418.967	549.01
419.344	555.79
419.721	557.15
420.098	517.83
420.475	577.26
420.852	557.37
421.228	575.9
421.605	556.47
421.982	552.17
422.358	586.3
422.735	594.43
423.111	597.15
423.488	600.76
423.864	598.5
424.241	582.91
424.617	596.24
424.994	590.59
425.37	612.74
425.746	631.04
426.123	636.24
426.499	626.3
426.875	637.37
427.251	620.65
427.627	637.6
428.003	633.08
428.379	649.35
428.756	650.03
429.132	654.09
429.507	668.56
429.883	686.41
430.259	687.99
430.635	667.88
431.011	670.14
431.387	693.87
431.763	722.11
432.138	690.93
432.514	709.23
432.89	714.43
433.265	721.89
433.641	743.36
434.016	740.19
434.392	748.33
434.767	748.78
435.143	740.64
435.518	786.52
435.894	767.76
436.269	790.59
436.644	791.04
437.02	815.44
437.395	788.33
437.77	804.15
438.145	796.46
438.52	823.81
438.895	824.94
439.271	833.3
439.646	819.29
440.021	854.09
440.395	879.85
440.77	880.3
441.145	847.76
441.52	864.26
441.895	860.64
442.27	884.82
442.645	871.49
443.019	887.53
443.394	892.96
443.769	907.65
444.143	882.56
444.518	885.5
444.892	933.18
445.267	905.84
445.641	934.99
446.016	938.61
446.39	938.61
446.764	914.43
447.139	950.36
447.513	957.81
447.887	944.48
448.262	982.67
448.636	987.42
449.01	970.24
449.384	977.47
449.758	981.32
450.132	997.13
450.506	1014.08
450.88	1031.71
451.254	1028.77
451.628	1023.12
452.002	1028.09
452.376	1040.3
452.75	1054.53
453.123	1054.99
453.497	1089.34
453.871	1058.15
454.244	1115.78
454.618	1104.25
454.992	1071.26
455.365	1130.24
455.739	1130.92
456.112	1164.36
456.486	1181.08
456.859	1180.18
457.232	1196.68
457.606	1220.41
457.979	1207.3
458.352	1217.69
458.725	1243.68
459.099	1266.05
459.472	1285.26
459.845	1285.26
460.218	1307.41
460.591	1317.13
460.964	1297.24
461.337	1359.16
461.71	1374.98
462.083	1417.69
462.456	1396.22
462.829	1438.48
463.201	1457.46
463.574	1443.9
463.947	1491.36
464.32	1500.85
464.692	1501.98
465.065	1562.77
465.438	1566.61
465.81	1593.96
466.183	1625.14
466.555	1638.47
466.928	1643.9
467.3	1663.56
467.672	1725.7
468.045	1736.78
468.417	1747.4
468.789	1746.04
469.161	1807.96
469.534	1848.19
469.906	1859.71
470.278	1918.24
470.65	1890.44
471.022	1955.75
471.394	2012.02
471.766	2026.26
472.138	2057.67
472.51	2123.66
472.882	2181.74
473.253	2219.48
473.625	2258.57
473.997	2266.25
474.369	2350.55
474.74	2374.05
475.112	2423.54
475.484	2463.54
475.855	2565.23
476.227	2623.76
476.598	2665.34
476.97	2699.01
477.341	2838.89
477.713	2873.02
478.084	2936.52
478.455	2971.55
478.827	3039.57
479.198	3203.18
479.569	3259.22
479.94	3322.95
480.311	3388.03
480.682	3500.35
481.053	3621.02
481.424	3695.59
481.795	3767.23
482.166	3871.86
482.537	3995.7
482.908	4116.15
483.279	4163.38
483.65	4317.05
484.021	4401.57
484.391	4549.81
484.762	4616.47
485.133	4696.25
485.503	4822.34
485.874	5011.94
486.244	5126.29
486.615	5286.74
486.985	5378.94
487.356	5530.12
487.726	5587.3
488.097	5790.46
488.467	5882.66
488.837	6112.93
489.207	6197.9
489.578	6372.81
489.948	6459.14
490.318	6602.64
490.688	6738.23
491.058	6848.05
491.428	7042.85
491.798	7149.06
492.168	7385.67
492.538	7492.56
492.908	7681.25
493.278	7801.7
493.648	7902.49
494.017	8014.58
494.387	8193.33
494.757	8338.41
495.126	8534.34
495.496	8575.69
495.866	8724.62
496.235	8910.15
496.605	8974.55
496.974	9097.49
497.344	9292.96
497.713	9386.07
498.082	9478.95
498.452	9648.66
498.821	9754.87
499.19	9857.92
499.559	9926.39
499.928	10132.04
500.298	10209.55
500.667	10414.06
501.036	10433.27
501.405	10463.1
501.774	10611.57
502.143	10742.42
502.512	10837.78
502.88	10920.04
503.249	11003.43
503.618	11193.25
503.987	11137.43
504.356	11353.92
504.724	11466.01
505.093	11441.83
505.462	11468.05
505.83	11615.61
506.199	11749.17
506.567	11898.77
506.936	11970.18
507.304	12045.88
507.672	12159.78
508.041	12202.72
508.409	12307.35
508.777	12352.09
509.145	12569.26
509.514	12469.15
509.882	12602.03
510.25	12521.58
510.618	12682.03
510.986	12733.32
511.354	12816.94
511.722	12973.32
512.09	13057.16
512.458	13049.7
512.826	13137.83
513.193	13215.57
513.561	13256.25
513.929	13312.52
514.297	13354.1
514.664	13538.95
515.032	13465.96
515.4	13572.17
515.767	13570.82
516.135	13627.31
516.502	13602.91
516.869	13806.29
517.237	13867.53
517.604	13726.52
517.972	13936.68
518.339	13956.79
518.706	13950.69
519.073	13951.82
519.44	14087.41
519.808	14141.65
520.175	14041.31
520.542	14253.51
520.909	14234.98
521.276	14168.77
521.643	14314.52
522.009	14425.48
522.376	14379.83
522.743	14489.21
523.11	14499.15
523.477	14616.21
523.843	14670
524.21	14778.24
524.577	14803.55
524.943	14717.68
525.31	14764.46
525.676	14859.37
526.043	14865.24
526.409	14962.42
526.776	14984.79
527.142	15067.27
527.508	14946.82
527.874	15186.14
528.241	15077.89
528.607	15030.66
528.973	15182.52
529.339	15080.61
529.705	15166.03
530.071	15166.25
530.437	15190.89
530.803	15275.18
531.169	15196.76
531.535	15189.53
531.901	15108.18
532.267	15265.69
532.632	15263.43
532.998	15201.51
533.364	15124.22
533.73	15166.25
534.095	15231.79
534.461	15240.15
534.826	15256.65
535.192	15267.27
535.557	15201.06
535.923	15188.85
536.288	15271.11
536.653	15165.35
537.019	15106.82
537.384	15081.51
537.749	15154.95
538.114	15069.31
538.479	15063.43
538.845	15041.96
539.21	14977.78
539.575	14990.67
539.94	14893.27
540.305	14954.28
540.67	14905.92
541.034	14865.24
541.399	14837.9
541.764	14820.73
542.129	14845.58
542.494	14820.95
542.858	14763.78
543.223	14743.67
543.587	14757.68
543.952	14633.61
544.316	14623.44
544.681	14464.13
545.045	14548.87
545.41	14542.54
545.774	14545.48
546.138	14493.5
546.503	14427.97
546.867	14436.56
547.231	14447.63
547.595	14421.19
547.959	14323.11
548.324	14366.5
548.688	14273.62
549.052	14259.84
549.416	14229.78
549.779	14184.13
550.143	14198.14
550.507	14232.94
550.871	14146.39
551.235	14060.75
551.599	14121.99
551.962	14115.66
552.326	14036.11
552.689	14101.42
553.053	13953.63
553.417	13917.7
553.78	14071.37
554.143	13976.68
554.507	13977.13
554.87	13944.82
555.234	14019.62
555.597	13953.86
555.96	13872.95
556.323	13899.85
556.686	13848.32
557.05	13888.32
557.413	13801.77
557.776	13795.22
558.139	13923.8
558.502	13871.6
558.865	13820.75
559.228	13906.4
559.59	13865.95
559.953	13851.71
560.316	13929.22
560.679	13917.02
561.041	13970.35
561.404	14019.84
561.767	14007.41
562.129	13969.68
562.492	14060.75
562.854	13854.42
563.217	13866.63
563.579	13851.49
563.941	13999.96
564.304	13937.59
564.666	13966.74
565.028	13981.88
565.39	13938.04
565.753	14077.92
566.115	13958.15
566.477	14032.72
566.839	14056.23
567.201	14084.25
567.563	14025.04
567.925	14162.89
568.287	14130.35
568.648	14142.78
569.01	14150.69
569.372	14173.29
569.734	14133.29
570.095	14231.59
570.457	14248.31
570.819	14281.76
571.18	14249.89
571.542	14203.79
571.903	14310.46
572.265	14287.41
572.626	14390.91
572.987	14308.65
573.349	14273.4
573.71	14457.35
574.071	14326.05
574.432	14453.96
574.794	14429.32
575.155	14481.3
575.516	14353.39
575.877	14444.24
576.238	14430.68
576.599	14423.67
576.96	14437.91
577.32	14413.51
577.681	14487.18
578.042	14476.33
578.403	14484.92
578.763	14455.76
579.124	14534.41
579.485	14499.15
579.845	14540.73
580.206	14438.82
580.566	14507.06
580.927	14474.07
581.287	14590.22
581.648	14496.21
582.008	14524.01
582.368	14449.44
582.728	14499.38
583.089	14449.44
583.449	14472.49
583.809	14460.96
584.169	14494.86
584.529	14505.93
584.889	14479.49
585.249	14418.02
585.609	14322.89
585.969	14425.26
586.329	14376.44
586.688	14419.61
587.048	14396.1
587.408	14402.88
587.768	14385.94
588.127	14293.51
588.487	14296.67
588.846	14405.14
589.206	14357.91
589.565	14284.24
589.925	14281.31
590.284	14331.02
590.643	14332.6
591.003	14300.51
591.362	14333.06
591.721	14332.15
592.08	14262.32
592.44	14310.01
592.799	14341.19
593.158	14201.08
593.517	14254.41
593.876	14310.46
594.235	14305.03
594.593	14283.79
594.952	14242.89
595.311	14158.37
595.67	14213.96
596.029	14286.05
596.387	14197.92
596.746	14286.28
597.104	14201.31
597.463	14238.37
597.822	14310.46
598.18	14195.43
598.538	14190.69
598.897	14309.78
599.255	14083.8
599.613	14368.31
599.972	14184.13
600.33	14236.33
600.688	14235.43
601.046	14197.24
601.404	14198.37
601.762	14193.4
602.12	14286.05
602.478	14261.19
602.836	14340.51
603.194	14150.69
603.552	14227.52
603.91	14141.65
604.268	14225.71
604.625	14174.87
604.983	14293.96
605.341	14181.42
605.698	14223.91
606.056	14320.4
606.413	14217.13
606.771	14240.18
607.128	14323.56
607.485	14164.47
607.843	14169.44
608.2	14241.98
608.557	14276.56
608.914	14359.27
609.272	14291.02
609.629	14357.01
609.986	14387.52
610.343	14341.19
610.7	14387.07
611.057	14381.64
611.414	14427.74
611.771	14373.28
612.127	14419.83
612.484	14460.74
612.841	14518.36
613.198	14405.37
613.554	14404.69
613.911	14433.17
614.267	14468.64
614.624	14408.08
614.98	14375.99
615.337	14547.51
615.693	14518.14
616.05	14466.16
616.406	14621.86
616.762	14525.59
617.118	14454.86
617.475	14531.02
617.831	14618.02
618.187	14608.75
618.543	14553.39
618.899	14769.65
619.255	14695.76
619.611	14651.92
619.967	14713.84
620.323	14778.69
620.678	14655.76
621.034	14554.07
621.39	14546.38
621.746	14530.34
622.101	14731.24
622.457	14595.87
622.812	14563.33
623.168	14700.28
623.523	14702.09
623.879	14698.02
624.234	14637.91
624.589	14651.92
624.945	14686.49
625.3	14649.88
625.655	14655.08
626.01	14626.61
626.365	14663.22
626.72	14630.67
627.075	14646.49
627.43	14648.08
627.785	14619.38
628.14	14714.74
628.495	14711.12
628.85	14660.05
629.205	14566.72
629.559	14696.66
629.914	14572.15
630.269	14638.81
630.623	14592.03
630.978	14552.48
631.332	14552.71
631.687	14673.84
632.041	14577.12
632.396	14607.4
632.75	14445.37
633.104	14575.08
633.459	14451.92
633.813	14489.21
634.167	14383.9
634.521	14449.21
634.875	14470.45
635.229	14408.31
635.583	14386.39
635.937	14347.97
636.291	14387.52
636.645	14334.86
636.999	14339.16
637.352	14360.17
637.706	14267.29
638.06	14274.98
638.413	14188.2
638.767	14298.48
639.121	14160.63
639.474	14164.02
639.828	14200.86
640.181	14217.8
640.534	14084.7
640.888	14178.26
641.241	14078.6
641.594	14137.35
641.947	14253.51
642.301	14084.93
642.654	14127.64
643.007	14092.16
643.36	14125.6
643.713	14096.68
644.066	14095.32
644.419	14016.23
644.771	13917.93
645.124	13856.91
645.477	13856.01
645.83	13641.1
646.182	13626.41
646.535	13640.64
646.888	13675.45
647.24	13630.02
647.593	13634.77
647.945	13622.79
648.298	13493.53
648.65	13462.12
649.002	13442.23
649.355	13509.8
649.707	13531.04
650.059	13590.02
650.411	13741.21
650.763	13785.73
651.115	13922.22
651.467	13808.1
651.819	13805.16
652.171	13929.45
652.523	13845.61
652.875	13921.54
653.227	13769.23
653.578	13883.12
653.93	13921.77
654.282	13833.41
654.633	13824.59
654.985	13855.33
655.337	13817.81
655.688	13856.46
656.039	13934.42
656.391	13790.24
656.742	13879.06
657.094	13839.06
657.445	13950.47
657.796	13848.1
658.147	13825.05
658.498	13825.27
658.849	13917.25
659.2	13909.11
659.551	13768.55
659.902	13855.33
660.253	13901.88
660.604	13855.55
660.955	13771.04
661.306	13912.73
661.656	13843.8
662.007	13877.02
662.358	13827.98
662.708	13828.21
663.059	13897.59
663.409	13804.48
663.76	13897.81
664.11	13950.69
664.461	13962.9
664.811	13952.05
665.161	13872.28
665.511	13884.03
665.862	13882.45
666.212	13936.23
666.562	13914.99
666.912	13969.68
667.262	13890.36
667.612	13855.33
667.962	13856.68
668.312	13831.15
668.662	13959.05
669.011	13905.95
669.361	13936.68
669.711	13827.08
670.06	13873.63
670.41	13792.28
670.76	13797.25
671.109	13863.01
671.459	13791.6
671.808	13789.11
672.157	13784.6
672.507	13779.85
672.856	13758.38
673.205	13823.01
673.554	13771.71
673.904	13721.77
674.253	13824.37
674.602	13803.35
674.951	13604.71
675.3	13458.05
675.649	13752.73
675.998	13689
676.346	13650.36
676.695	13776.69
677.044	13598.39
677.393	13701.21
677.741	13762
678.09	13583.47
678.438	13515.9
678.787	13566.75
679.135	13622.34
679.484	13491.5
679.832	13565.84
680.181	13464.38
680.529	13436.36
680.877	13433.64
681.225	13451.27
681.573	13523.59
681.922	13390.26
682.27	13362.23
682.618	13378.96
682.966	13393.19
683.314	13363.14
683.661	13324.04
684.009	13244.04
684.357	13160.66
684.705	13196.59
685.053	13180.77
685.4	13186.19
685.748	13149.36
686.095	13143.48
686.443	13037.27
686.79	13058.51
687.138	13021.9
687.485	13121.79
687.832	13046.54
688.18	12972.64
688.527	12879.31
688.874	12872.75
689.221	12925.18
689.568	12794.11
689.915	12743.49
690.262	12783.72
690.609	12733.78
690.956	12683.38
691.303	12668.24
691.65	12581.24
691.997	12569.03
692.344	12485.42
692.69	12431.18
693.037	12468.02
693.383	12338.31
693.73	12465.76
694.077	12291.75
694.423	12291.53
694.769	12302.83
695.116	12154.13
695.462	12129.05
695.808	12055.6
696.155	12180.12
696.501	11994.81
696.847	12061.93
697.193	11931.54
697.539	11982.38
697.885	11870.75
698.231	11826.68
698.577	11811.54
698.923	11839.79
699.269	11705.55
699.614	11604.99
699.96	11629.62
700.306	11613.13
700.651	11591.21
700.997	11505.33
701.342	11466.92
701.688	11460.81
702.033	11511.21
702.379	11350.31
702.724	11284.77
703.069	11322.29
703.415	11261.95
703.76	11218.79
704.105	11156.64
704.45	11162.97
704.795	11085.23
705.14	11080.03
705.485	10968.17
705.83	11021.96
706.175	10983.09
706.52	10928.63
706.865	10891.34
707.209	10927.95
707.554	10833.03
707.899	10885.69
708.243	10816.09
708.588	10776.09
708.932	10755.97
709.277	10709.87
709.621	10637.79
709.966	10630.55
710.31	10649.76
710.654	10583.55
710.998	10626.26
711.342	10555.08
711.687	10496.09
712.031	10483.67
712.375	10473.5
712.719	10465.36
713.063	10406.38
713.407	10492.25
713.75	10466.26
714.094	10343.78
714.438	10383.78
714.782	10392.82
715.125	10338.36
715.469	10318.47
715.812	10291.81
716.156	10215.65
716.499	10226.04
716.843	10243.22
717.186	10175.42
717.53	10234.86
717.873	10158.7
718.216	10152.37
718.559	10172.94
718.902	10092.04
719.246	10147.18
719.589	10040.06
719.932	10016.56
720.275	10042.09
720.617	10046.61
720.96	9922.55
721.303	10031.25
721.646	10013.39
721.989	9946.28
722.331	9984.02
722.674	9899.73
723.016	9918.03
723.359	9862.89
723.701	9926.62
724.044	9826.28
724.386	9834.87
724.729	9894.75
725.071	9942.89
725.413	9887.07
725.755	9788.99
726.097	9813.85
726.439	9788.77
726.782	9799.62
727.124	9777.24
727.465	9769.11
727.807	9748.09
728.149	9822.21
728.491	9780.41
728.833	9773.18
729.175	9707.41
729.516	9746.74
729.858	9737.24
730.199	9748.09
730.541	9739.96
730.882	9651.6
731.224	9678.04
731.565	9697.25
731.906	9746.51
732.248	9728.66
732.589	9628.55
732.93	9654.08
733.271	9703.57
733.612	9677.58
733.953	9718.71
734.294	9584.03
734.635	9652.05
734.976	9638.72
735.317	9684.59
735.658	9614.31
735.999	9639.39
736.339	9602.56
736.68	9735.21
737.021	9754.42
737.361	9688.43
737.702	9739.73
738.042	9630.35
738.383	9678.94
738.723	9701.31
739.063	9776.56
739.404	9773.18
739.744	9763.68
740.084	9671.48
740.424	9854.76
740.764	9730.92
741.104	9835.77
741.444	9735.21
741.784	9754.42
742.124	9816.79
742.464	9872.61
742.804	9840.29
743.143	9874.64
743.483	9898.14
743.823	9946.96
744.162	9927.52
744.502	9980.4
744.841	9988.76
745.181	10047.97
745.52	10034.19
745.86	10087.74
746.199	10115.31
746.538	10137.23
746.877	10167.97
747.216	10317.34
747.556	10326.16
747.895	10361.86
748.234	10413.38
748.573	10421.07
748.911	10530.9
749.25	10559.14
749.589	10546.94
749.928	10607.05
750.267	10800.94
750.605	10828.97
750.944	10882.07
751.283	10916.2
751.621	11092.01
751.96	11109.64
752.298	11233.7
752.636	11334.04
752.975	11318.45
753.313	11442.28
753.651	11634.82
753.989	11642.05
754.327	11698.77
754.666	11820.58
755.004	12024.87
755.342	12207.01
755.679	12414.24
756.017	12402.71
756.355	12627.34
756.693	12750.05
757.031	12914.11
757.368	12929.48
757.706	13087.89
758.044	13233.88
758.381	13394.55
758.719	13618.5
759.056	13790.24
759.394	13940.52
759.731	13961.77
760.068	14296.22
760.405	14341.19
760.743	14553.39
761.08	14779.37
761.417	14905.24
761.754	15003.09
762.091	15184.11
762.428	15408.28
762.765	15566.7
763.102	15773.24
763.438	15961.94
763.775	15978.66
764.112	16262.95
764.449	16426.79
764.785	16521.25
765.122	16658.19
765.458	16777.96
765.795	16922.37
766.131	17174.11
766.467	17216.6
766.804	17335.91
767.14	17469.02
767.476	17629.01
767.812	17767.77
768.148	17941.1
768.485	18023.81
768.821	18033.3
769.157	18196
769.492	18400.97
769.828	18517.8
770.164	18446.39
770.5	18697.46
770.836	18740.62
771.171	18737.23
771.507	18873.73
771.842	18905.82
772.178	19068.52
772.513	19162.53
772.849	19298.35
773.184	19320.72
773.519	19457.67
773.855	19476.2
774.19	19641.84
774.525	19605.46
774.86	19743.76
775.195	19822.4
775.53	19882.51
775.865	19748.28
776.2	19782.63
776.535	19781.5
776.87	19921.38
777.205	19953.25
777.539	19920.25
777.874	19941.5
778.209	19905.79
778.543	20029.4
778.878	19917.09
779.212	20107.14
779.547	20012
779.881	20132.22
780.215	20061.49
780.55	20219.91
780.884	20084.77
781.218	20147.37
781.552	20195.27
781.886	20145.78
782.22	20040.02
782.554	20160.47
782.888	20033.7
783.222	20082.51
783.556	19980.82
783.889	20099.91
784.223	19906.69
784.557	19882.97
784.89	19979.46
785.224	19952.57
785.557	19863.76
785.891	19878.9
786.224	19790.99
786.558	19869.86
786.891	19773.14
787.224	19787.83
787.557	19704.67
787.891	19675.74
788.224	19667.6
788.557	19719.58
788.89	19718
789.223	19739.92
789.556	19620.37
789.888	19646.36
790.221	19491.79
790.554	19399.59
790.887	19445.46
791.219	19360.04
791.552	19343.55
791.884	19238.01
792.217	19246.6
792.549	19318.91
792.882	19196.88
793.214	19156.21
793.546	19241.17
793.879	19100.16
794.211	19018.58
794.543	19043.89
794.875	18954.63
795.207	19148.52
795.539	19004.57
795.871	18951.69
796.203	18778.81
796.535	18707.18
796.867	18738.14
797.198	18672.6
797.53	18645.71
797.862	18508.54
798.193	18588.99
798.525	18466.96
798.856	18563
799.188	18351.03
799.519	18348.77
799.85	18199.39
800.182	18319.84
800.513	18325.27
800.844	18158.04
801.175	18257.02
801.506	18119.85
801.837	18109.45
802.168	18045.95
802.499	18038.95
802.83	17969.12
803.161	17855.9
803.491	17965.05
803.822	17865.17
804.153	17864.49
804.483	17651.84
804.814	17725.51
805.145	17571.84
805.475	17631.95
805.805	17649.35
806.136	17491.62
806.466	17509.24
806.796	17557.6
807.126	17372.3
807.457	17408.23
807.787	17372.98
808.117	17220.44
808.447	17268.12
808.777	17286.88
809.107	17233.54
809.436	17120.33
809.766	17165.52
810.096	17092.08
810.426	17017.5
810.755	16983.16
811.085	16964.4
811.414	16992.42
811.744	16941.35
812.073	16822.93
812.403	16768.02
812.732	16775.48
813.061	16836.72
813.39	16718.3
813.719	16636.5
814.049	16737.06
814.378	16734.8
814.707	16533.9
815.036	16538.42
815.365	16544.52
815.693	16346.56
816.022	16406
816.351	16332.55
816.68	16257.07
817.008	16369.84
817.337	16177.98
817.665	16146.12
817.994	16172.78
818.322	16169.17
818.651	16082.39
818.979	16143.4
819.307	16172.1
819.636	16163.29
819.964	16078.55
820.292	16028.15
820.62	15998.1
820.948	15876.29
821.276	16095.95
821.604	15990.19
821.932	15946.12
822.259	15991.54
822.587	16029.28
822.915	15961.71
823.243	16017.98
823.57	15938.44
823.898	15857.08
824.225	15916.74
824.553	15774.37
824.88	15943.18
825.207	15933.01
825.535	15918.78
825.862	16014.82
826.189	15954.71
826.516	16014.14
826.843	16029.28
827.17	15948.61
827.497	15980.7
827.824	16091.43
828.151	16066.12
828.478	16047.81
828.805	15998.32
829.131	15999.68
829.458	15966.91
829.785	15901.6
830.111	16007.36
830.438	16102.73
830.764	16029.28
831.09	16027.25
831.417	15887.82
831.743	15991.77
832.069	16031.77
832.395	15905.44
832.722	15962.17
833.048	15870.42
833.374	15929.85
833.7	15878.33
834.026	15943.86
834.351	15964.88
834.677	15865.67
835.003	15841.94
835.329	15827.71
835.654	15847.37
835.98	15730.08
836.306	15846.69
836.631	15712
836.956	15866.57
837.282	15793.81
837.607	15653.47
837.932	15707.26
838.258	15636.98
838.583	15639.01
838.908	15594.49
839.233	15544.77
839.558	15529.41
839.883	15448.28
840.208	15460.71
840.533	15467.49
840.858	15443.76
841.182	15404.89
841.507	15414.83
841.832	15306.14
842.156	15198.34
842.481	15266.14
842.805	15211.45
843.13	15182.98
843.454	15213.48
843.778	15090.32
844.103	15031.79
844.427	15069.76
844.751	15067.73
845.075	15005.81
845.399	14909.76
845.723	14843.32
846.047	14886.49
846.371	14804.46
846.695	14839.93
847.019	14613.5
847.343	14653.05
847.666	14543.67
847.99	14496.67
848.313	14461.64
848.637	14406.5
848.96	14411.02
849.284	14276.56
849.607	14231.82
849.931	14174.64
850.254	14050.58
850.577	14084.25
850.9	13881.09
851.223	13905.72
851.546	13844.93
851.869	13743.24
852.192	13790.92
852.515	13684.03
852.838	13650.81
853.161	13682.22
853.483	13460.76
853.806	13419.86
854.129	13451.27
854.451	13429.58
854.774	13390.93
855.096	13416.7
855.419	13250.37
855.741	13249.47
856.063	13200.66
856.385	13184.38
856.708	13108.91
857.03	13078.85
857.352	13080.66
857.674	13062.81
857.996	13007.21
858.318	12840.44
858.64	12855.35
858.961	12906.2
859.283	12825.3
859.605	12841.12
859.926	12758.63
860.248	12791.63
860.57	12685.19
860.891	12682.93
861.212	12587.56
861.534	12607
861.855	12601.12
862.176	12567
862.498	12538.53
862.819	12524.74
863.14	12573.1
863.461	12488.13
863.782	12403.16
864.103	12437.74
864.424	12456.27
864.745	12410.39
865.065	12317.52
865.386	12306.22
865.707	12307.8
866.027	12294.92
866.348	12251.98
866.668	12301.24
866.989	12205.43
867.309	12153.45
867.63	12147.8
867.95	12105.09
868.27	12105.54
868.59	12083.62
868.91	12079.56
869.23	12010.63
869.55	11993
869.87	12047.47
870.19	12011.99
870.51	12042.72
870.83	12009.05
871.15	11909.39
871.469	11962.27
871.789	11937.19
872.109	11915.04
872.428	11846.79
872.748	11797.98
873.067	11870.75
873.386	11837.75
873.706	11783.29
874.025	11753.24
874.344	11710.3
874.663	11734.03
874.982	11683.18
875.301	11710.75
875.62	11602.73
875.939	11635.5
876.258	11629.85
876.577	11545.56
876.896	11666.01
877.214	11557.99
877.533	11544.88
877.852	11541.26
878.17	11559.79
878.489	11540.36
878.807	11467.14
879.125	11425.79
879.444	11460.59
879.762	11403.87
880.08	11404.77
880.398	11365.45
880.716	11413.58
881.034	11363.64
881.352	11359.12
881.67	11308.5
881.988	11298.56
882.306	11256.53
882.624	11201.16
882.941	11161.39
883.259	11096.53
883.577	11188.05
883.894	11153.7
884.212	11049.07
884.529	11114.83
884.846	11084.78
885.164	11063.08
885.481	10946.93
885.798	11040.94
886.115	10860.38
886.432	10922.3
886.75	10912.13
887.067	10915.07
887.383	10909.64
887.7	10845.01
888.017	10741.74
888.334	10749.42
888.651	10759.59
888.967	10748.06
889.284	10659.03
889.6	10609.54
889.917	10520.5
890.233	10602.53
890.55	10487.73
890.866	10597.56
891.182	10538.8
891.498	10518.47
891.815	10432.82
892.131	10372.93
892.447	10285.93
892.763	10273.5
893.079	10282.31
893.395	10271.92
893.71	10218.36
894.026	10181.75
894.342	10145.14
894.657	10132.71
894.973	10120.96
895.289	10045.03
895.604	10107.63
895.92	10003.68
896.235	9914.19
896.55	9936.33
896.865	9851.59
897.181	9881.19
897.496	9890.01
897.811	9767.98
898.126	9760.97
898.441	9747.41
898.756	9668.55
899.071	9681.43
899.386	9648.66
899.7	9631.03
900.015	9552.39
900.33	9496.57
900.644	9429.68
900.959	9488.21
901.273	9348.1
901.588	9428.1
901.902	9279.85
902.216	9325.05
902.531	9271.27
902.845	9266.3
903.159	9181.78
903.473	9219.52
903.787	9115.34
904.101	9072.18
904.415	9119.41
904.729	9087.54
905.042	8989.02
905.356	8981.56
905.67	8890.03
905.984	8942.91
906.297	8875.8
906.611	8804.61
906.924	8871.28
907.237	8792.64
907.551	8758.74
907.864	8795.57
908.177	8742.92
908.491	8586.54
908.804	8568.69
909.117	8572.75
909.43	8489.59
909.743	8432.65
910.056	8471.97
910.368	8453.21
910.681	8396.04
910.994	8356.49
911.307	8323.95
911.619	8253.44
911.932	8215.25
912.244	8241.92
912.557	8132.99
912.869	8138.87
913.181	8109.04
913.494	8044.86
913.806	8060
914.118	8063.84
914.43	7979.1
914.742	7960.57
915.054	7930.96
915.366	7882.15
915.678	7902.49
915.99	7808.71
916.302	7783.85
916.613	7756.51
916.925	7741.59
917.236	7649.16
917.548	7675.15
917.859	7662.72
918.171	7588.83
918.482	7565.55
918.794	7554.7
919.105	7487.36
919.416	7402.84
919.727	7445.1
920.038	7408.04
920.349	7380.02
920.66	7308.83
920.971	7342.96
921.282	7319.23
921.593	7214.15
921.903	7182.51
922.214	7178.22
922.525	7124.43
922.835	7161.04
923.146	7083.3
923.456	7096.18
923.767	7032.68
924.077	7067.26
924.387	6983.64
924.697	6953.59
925.008	6888.96
925.318	6914.27
925.628	6861.61
925.938	6853.25
926.248	6798.79
926.558	6838.34
926.867	6806.7
927.177	6761.05
927.487	6701.84
927.796	6632.92
928.106	6651.68
928.416	6599.25
928.725	6675.4
929.034	6537.55
929.344	6575.29
929.653	6545.46
929.962	6491.45
930.271	6393.6
930.581	6429.08
930.89	6383.21
931.199	6381.63
931.508	6354.96
931.817	6351.57
932.125	6350.67
932.434	6295.07
932.743	6268.63
933.051	6240.39
933.36	6162.65
933.669	6166.94
933.977	6125.59
934.286	6138.02
934.594	6162.2
934.902	6072.03
935.21	6033.16
935.519	6012.82
935.827	5975.99
936.135	5983.44
936.443	5920.85
936.751	5878.14
937.059	5948.64
937.367	5839.04
937.674	5870.23
937.982	5768.99
938.29	5773.28
938.597	5831.13
938.905	5717.01
939.213	5697.58
939.52	5651.02
939.827	5684.24
940.135	5649.44
940.442	5653.06
940.749	5573.96
941.056	5563.34
941.363	5533.06
941.67	5477.47
941.977	5474.53
942.284	5476.57
942.591	5439.96
942.898	5394.53
943.205	5375.32
943.511	5391.14
943.818	5342.56
944.125	5333.07
944.431	5327.87
944.738	5316.57
945.044	5289.45
945.35	5218.94
945.657	5192.96
945.963	5174.65
946.269	5137.59
946.575	5164.26
946.881	5167.87
947.187	5115.9
947.493	5070.47
947.799	5045.84
948.105	5059.85
948.41	4990.25
948.716	4983.02
949.022	4984.6
949.327	5042.45
949.633	4911.38
949.938	4923.13
950.244	4938.95
950.549	4900.53
950.854	4851.04
951.16	4837.26
951.465	4818.5
951.77	4797.26
952.075	4766.3
952.38	4757.04
952.685	4754.55
952.99	4704.38
953.294	4680.65
953.599	4736.92
953.904	4614.44
954.209	4607.44
954.513	4595.01
954.818	4607.21
955.122	4561.79
955.426	4542.58
955.731	4518.85
956.035	4517.49
956.339	4505.29
956.643	4466.65
956.948	4497.38
957.252	4469.36
957.556	4396.37
957.86	4411.96
958.163	4377.38
958.467	4357.27
958.771	4351.4
959.075	4295.81
959.378	4322.25
959.682	4298.52
959.985	4230.72
960.289	4279.99
960.592	4218.97
960.896	4222.13
961.199	4210.84
961.502	4165.64
961.805	4168.8
962.108	4133.1
962.411	4188.01
962.714	4116.37
963.017	4083.16
963.32	4116.15
963.623	4094.91
963.926	4021.24
964.228	4019.88
964.531	4010.16
964.833	3951.18
965.136	3954.8
965.438	3929.71
965.741	3962.93
966.043	3897.4
966.345	3909.83
966.648	3846.55
966.95	3847.68
967.252	3821.69
967.554	3844.29
967.856	3792.32
968.158	3741.24
968.46	3770.62
968.761	3773.33
969.063	3736.5
969.365	3743.05
969.666	3725.2
969.968	3685.65
970.269	3636.16
970.571	3670.74
970.872	3621.47
971.174	3630.29
971.475	3599.33
971.776	3565.88
972.077	3561.36
972.378	3548.71
972.679	3544.19
972.98	3527.46
973.281	3491.53
973.582	3503.96
973.883	3465.54
974.183	3462.83
974.484	3477.52
974.785	3423.96
975.085	3420.8
975.386	3461.02
975.686	3388.03
975.986	3423.96
976.287	3356.85
976.587	3375.83
976.887	3356.85
977.187	3343.74
977.487	3343.97
977.787	3278.43
978.087	3240.92
978.387	3273.46
978.687	3245.21
978.987	3203.4
979.286	3212.44
979.586	3190.75
979.885	3193.24
980.185	3161.82
980.484	3181.26
980.784	3133.58
981.083	3136.29
981.382	3079.11
981.682	3107.14
981.981	3075.72
982.28	3079.79
982.579	3042.96
982.878	3031.43
983.177	3073.24
983.475	3065.78
983.774	2977.42
984.073	2969.96
984.372	2948.27
984.67	2979
984.969	2966.57
985.267	2980.81
985.566	2939.91
985.864	2887.93
986.162	2902.62
986.461	2918.44
986.759	2842.74
987.057	2866.24
987.355	2870.31
987.653	2849.74
987.951	2840.48
988.249	2808.16
988.547	2803.87
988.844	2798.22
989.142	2775.85
989.44	2774.94
989.737	2778.33
990.035	2715.06
990.332	2724.1
990.63	2714.6
990.927	2656.53
991.224	2679.35
991.521	2661.72
991.819	2652.01
992.116	2649.52
992.413	2685
992.71	2613.14
993.006	2622.85
993.303	2622.63
993.6	2593.03
993.897	2585.34
994.193	2565
994.49	2549.86
994.787	2523.42
995.083	2538.34
995.379	2503.54
995.676	2464.67
995.972	2487.49
996.268	2464.44
996.565	2479.13
996.861	2471.45
997.157	2420.15
997.453	2425.8
997.749	2388.06
998.044	2379.92
998.34	2372.24
998.636	2376.31
998.932	2386.02
999.227	2347.38
999.523	2338.79
999.818	2328.4
1000.114	2307.38
1000.409	2281.85
1000.704	2271.23
1001	2272.13
1001.295	2247.05
1001.59	2241.17
1001.885	2249.08
1002.18	2215.41
1002.475	2190.78
1002.77	2212.02
1003.065	2167.5
1003.359	2174.5
1003.654	2162.98
1003.949	2147.61
1004.243	2141.51
1004.538	2139.93
1004.832	2129.31
1005.127	2116.43
1005.421	2088.63
1005.715	2097.44
1006.009	2073.04
1006.304	2073.72
1006.598	2013.61
1006.892	2041.85
1007.186	2044.34
1007.48	2031.91
1007.773	2016.54
1008.067	1983.32
1008.361	1963.21
1008.655	1932.48
1008.948	1991.01
1009.242	1922.08
1009.535	1946.04
1009.829	1900.39
1010.122	1935.42
1010.415	1899.03
1010.708	1908.07
1011.001	1899.03
1011.295	1866.72
1011.588	1851.8
1011.881	1851.8
1012.173	1837.34
1012.466	1839.82
1012.759	1816.32
1013.052	1807.96
1013.344	1782.42
1013.637	1784.68
1013.93	1784.46
1014.222	1736.78
1014.514	1757.11
1014.807	1738.58
1015.099	1756.66
1015.391	1724.57
1015.683	1712.37
1015.976	1709.66
1016.268	1676.89
1016.56	1652.94
1016.851	1647.29
1017.143	1656.78
1017.435	1655.65
1017.727	1642.99
1018.018	1639.38
1018.31	1596.89
1018.602	1593.5
1018.893	1584.24
1019.185	1576.55
1019.476	1588.08
1019.767	1548.76
1020.058	1560.06
1020.35	1585.37
1020.641	1530.23
1020.932	1507.63
1021.223	1505.6
1021.514	1513.05
1021.804	1478.7
1022.095	1494.52
1022.386	1451.13
1022.677	1468.53
1022.967	1452.26
1023.258	1425.82
1023.548	1435.54
1023.839	1443
1024.129	1442.32
1024.419	1412.94
1024.709	1386.05
1025	1393.06
1025.29	1362.55
1025.58	1375.2
1025.87	1355.32
1026.16	1365.03
1026.449	1382.21
1026.739	1336.79
1027.029	1332.72
1027.319	1325.49
1027.608	1332.49
1027.898	1298.37
1028.187	1268.54
1028.477	1304.02
1028.766	1264.92
1029.055	1262.44
1029.344	1254.3
1029.634	1256.79
1029.923	1235.09
1030.212	1216.34
1030.501	1233.96
1030.79	1201.65
1031.078	1209.33
1031.367	1207.07
1031.656	1193.74
1031.945	1180.86
1032.233	1187.86
1032.522	1168.88
1032.81	1135.44
1033.099	1152.84
1033.387	1163.01
1033.675	1150.8
1033.963	1127.3
1034.251	1139.73
1034.54	1126.62
1034.828	1106.28
1035.116	1102.22
1035.403	1104.25
1035.691	1058.38
1035.979	1049.79
1036.267	1058.6
1036.554	1048.88
1036.842	1059.05
1037.129	1041.65
1037.417	1038.26
1037.704	1045.95
1037.992	1036.91
1038.279	1010.02
1038.566	1004.82
1038.853	1004.82
1039.14	1004.82
