Data from hue_24_FLMS001491_00064.txt Node
Date: Tue Feb 07 17:12:35 GMT 2017
User: dcchb
Spectrometer: FLMS00149
Trigger mode: 0
Integration Time (sec): 2.000000E-2
Scans to average: 10
Electric dark correction enabled: true
Nonlinearity correction enabled: false
Boxcar width: 0
XAxis mode: Wavelengths
Number of Pixels in Spectrum: 2048
>>>>>Begin Spectral Data<<<<<
341.393	-22.58
341.776	-22.58
342.16	-22.58
342.543	-62.36
342.927	-60.55
343.31	-71.4
343.693	-72.98
344.077	-76.82
344.46	-69.14
344.843	-49.48
345.226	-32.3
345.61	-37.27
345.993	-32.53
346.376	-16.48
346.759	11.31
347.142	23.97
347.525	40.92
347.908	72.33
348.291	77.07
348.674	108.71
349.057	124.08
349.44	128.6
349.823	153.68
350.206	178.09
350.588	212.89
350.971	207.01
351.354	235.71
351.737	230.52
352.119	251.08
352.502	272.55
352.884	283.4
353.267	273.45
353.65	307.12
354.032	309.38
354.414	323.85
354.797	301.48
355.179	324.3
355.562	343.51
355.944	341.7
356.326	343.51
356.709	335.15
357.091	334.92
357.473	350.51
357.855	346.67
358.238	345.54
358.62	363.17
359.002	338.31
359.384	338.54
359.766	333.34
360.148	350.29
360.53	354.58
360.912	347.8
361.294	351.64
361.676	354.58
362.057	348.71
362.439	314.36
362.821	339.67
363.203	336.05
363.584	339.44
363.966	324.75
364.348	317.29
364.729	317.97
365.111	319.33
365.493	310.06
365.874	321.59
366.256	309.38
366.637	336.5
367.019	331.3
367.4	341.93
367.781	315.26
368.163	318.2
368.544	313.9
368.925	336.05
369.306	331.76
369.688	327.69
370.069	327.69
370.45	327.69
370.831	330.17
371.212	315.03
371.593	318.2
371.974	317.52
372.355	332.66
372.736	322.49
373.117	326.11
373.498	340.8
373.879	341.7
374.26	325.43
374.641	354.36
375.021	309.84
375.402	312.1
375.783	323.62
376.163	340.8
376.544	341.25
376.925	329.5
377.305	334.02
377.686	325.88
378.066	345.09
378.447	332.43
378.827	361.59
379.208	364.98
379.588	352.1
379.968	344.41
380.349	346.22
380.729	348.93
381.109	346.9
381.489	358.87
381.87	343.96
382.25	353.23
382.63	355.03
383.01	353.9
383.39	353.23
383.77	360.46
384.15	353.9
384.53	373.56
384.91	356.39
385.29	352.55
385.67	371.08
386.049	383.73
386.429	399.78
386.809	392.09
387.189	369.27
387.568	362.94
387.948	370.4
388.328	386.9
388.707	388.93
389.087	396.84
389.466	399.78
389.846	393.22
390.225	403.62
390.605	385.54
390.984	381.25
391.363	384.18
391.743	394.58
392.122	395.94
392.501	382.38
392.881	411.3
393.26	397.29
393.639	385.54
394.018	412.43
394.397	410.62
394.776	402.94
395.155	387.57
395.534	416.27
395.913	420.57
396.292	395.03
396.671	436.61
397.05	404.3
397.429	418.76
397.808	409.27
398.186	415.14
398.565	433.45
398.944	425.09
399.323	416.05
399.701	431.64
400.08	438.42
400.458	425.54
400.837	404.52
401.215	463.73
401.594	446.56
401.972	460.57
402.351	473.45
402.729	439.55
403.107	458.08
403.486	447.91
403.864	468.48
404.242	471.87
404.62	458.53
404.999	458.31
405.377	470.96
405.755	467.57
406.133	468.93
406.511	480.45
406.889	484.3
407.267	479.1
407.645	490.4
408.023	475.93
408.401	467.57
408.779	489.94
409.156	486.78
409.534	512.54
409.912	475.71
410.29	501.24
410.667	504.18
411.045	520.9
411.422	510.96
411.8	529.94
412.178	538.31
412.555	535.82
412.933	534.01
413.31	540.34
413.687	530.62
414.065	568.59
414.442	567.46
414.819	532.43
415.197	547.34
415.574	564.29
415.951	545.08
416.328	568.36
416.705	571.52
417.082	586.21
417.46	575.82
417.837	578.76
418.214	596.83
418.591	574.91
418.967	604.97
419.344	602.48
419.721	611.3
420.098	628.7
420.475	604.97
420.852	631.86
421.228	631.41
421.605	613.56
421.982	625.76
422.358	650.62
422.735	633.22
423.111	657.17
423.488	635.03
423.864	644.52
424.241	673.44
424.617	652.43
424.994	664.4
425.37	669.83
425.746	666.44
426.123	657.17
426.499	687.23
426.875	681.58
427.251	693.78
427.627	712.09
428.003	712.99
428.379	709.83
428.756	730.16
429.132	736.49
429.507	737.62
429.883	752.99
430.259	726.1
430.635	764.51
431.011	736.04
431.387	778.52
431.763	787.11
432.138	790.05
432.514	792.76
432.89	803.83
433.265	818.52
433.641	799.54
434.016	845.19
434.392	821.69
434.767	841.8
435.143	830.95
435.518	842.03
435.894	862.82
436.269	862.59
436.644	862.59
437.02	871.4
437.395	911.18
437.77	878.41
438.145	899.65
438.52	896.71
438.895	921.35
439.271	910.95
439.646	929.26
440.021	932.42
440.395	928.13
440.77	944.85
441.145	921.12
441.52	975.36
441.895	959.08
442.27	977.84
442.645	984.85
443.019	995.02
443.394	996.37
443.769	994.79
444.143	982.36
444.518	1004.73
444.892	1018.97
445.267	1026.88
445.641	1011.74
446.016	1026.88
446.39	1043.38
446.764	1040.44
447.139	1028.24
447.513	1044.96
447.887	1070.72
448.262	1037.95
448.636	1072.08
449.01	1085.86
449.384	1076.6
449.758	1089.93
450.132	1108.91
450.506	1121.11
450.88	1105.07
451.254	1132.41
451.628	1113.66
452.002	1151.62
452.376	1158.4
452.75	1154.56
453.123	1179.42
453.497	1180.77
453.871	1214.67
454.244	1211.96
454.618	1214.67
454.992	1236.82
455.365	1232.07
455.739	1254.9
456.112	1262.81
456.486	1288.79
456.859	1301.22
457.232	1352.97
457.606	1340.32
457.979	1356.59
458.352	1364.95
458.725	1395.91
459.099	1395.46
459.472	1392.52
459.845	1383.71
460.218	1441.33
460.591	1440.2
460.964	1469.13
461.337	1498.96
461.71	1501.22
462.083	1512.74
462.456	1519.07
462.829	1547.09
463.201	1531.73
463.574	1527.88
463.947	1580.99
464.32	1617.82
464.692	1630.48
465.065	1635.45
465.438	1653.53
465.81	1694.43
466.183	1710.48
466.555	1774.66
466.928	1726.52
467.3	1726.97
467.672	1792.51
468.045	1835.45
468.417	1826.63
468.789	1841.1
469.161	1905.95
469.534	1898.5
469.906	1927.2
470.278	1989.79
470.65	1987.53
471.022	2034.99
471.394	2040.19
471.766	2057.59
472.138	2098.49
472.51	2129.9
472.882	2192.5
473.253	2220.75
473.625	2231.37
473.997	2273.63
474.369	2337.58
474.74	2303.68
475.112	2357.01
475.484	2443.57
475.855	2430.91
476.227	2520.17
476.598	2563.79
476.97	2580.06
477.341	2640.85
477.713	2665.25
478.084	2747.29
478.455	2809.66
478.827	2825.25
479.198	2933.95
479.569	2918.13
479.94	2998.35
480.311	3034.28
480.682	3154.51
481.053	3173.94
481.424	3231.79
481.795	3274.73
482.166	3358.34
482.537	3425.69
482.908	3484.22
483.279	3528.28
483.65	3571.67
484.021	3722.18
484.391	3743.19
484.762	3761.72
485.133	3839.01
485.503	3877.43
485.874	3974.82
486.244	4012.11
486.615	4074.26
486.985	4191.09
487.356	4271.09
487.726	4290.52
488.097	4412.55
488.467	4431.54
488.837	4542.27
489.207	4574.13
489.578	4625.43
489.948	4723.05
490.318	4805.31
490.688	4848.25
491.058	4895.93
491.428	4977.96
491.798	5063.38
492.168	5135.47
492.538	5155.81
492.908	5274.68
493.278	5344.73
493.648	5327.33
494.017	5474.45
494.387	5495.91
494.757	5506.08
495.126	5575.23
495.496	5603.03
495.866	5681.45
496.235	5704.72
496.605	5801.44
496.974	5843.02
497.344	5910.14
497.713	5931.61
498.082	6010.25
498.452	6052.96
498.821	6131.83
499.19	6136.58
499.559	6231.26
499.928	6280.98
500.298	6258.38
500.667	6378.83
501.036	6363.91
501.405	6410.24
501.774	6535.66
502.143	6535.89
502.512	6509
502.88	6640.52
503.249	6647.07
503.618	6709.44
503.987	6727.97
504.356	6766.16
504.724	6756.9
505.093	6786.05
505.462	6849.78
505.83	6860.85
506.199	6950.79
506.567	7016.33
506.936	7039.38
507.304	7139.49
507.672	7089.77
508.041	7181.29
508.409	7284.12
508.777	7261.97
509.145	7366.83
509.514	7339.48
509.882	7401.4
510.25	7385.81
510.618	7440.04
510.986	7515.75
511.354	7534.73
511.722	7610.44
512.09	7612.7
512.458	7635.29
512.826	7732.69
513.193	7766.82
513.561	7793.26
513.929	7865.12
514.297	7904.21
514.664	7982.4
515.032	7965.91
515.4	8006.36
515.767	8056.07
516.135	8128.16
516.502	8055.85
516.869	8160.7
517.237	8132
517.604	8178.56
517.972	8272.11
518.339	8341.49
518.706	8260.81
519.073	8391.21
519.44	8395.05
519.808	8511.43
520.175	8437.08
520.542	8637.3
520.909	8597.08
521.276	8586.46
521.643	8664.42
522.009	8714.81
522.376	8811.53
522.743	8812.66
523.11	8968.82
523.477	9009.04
523.843	9017.18
524.21	9122.03
524.577	9152.99
524.943	9158.42
525.31	9247
525.676	9328.81
526.043	9361.35
526.409	9386.66
526.776	9424.85
527.142	9475.25
527.508	9545.3
527.874	9611.74
528.241	9656.94
528.607	9672.53
528.973	9810.15
529.339	9775.8
529.705	9898.06
530.071	9912.3
530.437	10002.91
530.803	10019.19
531.169	10125.85
531.535	10059.86
531.901	10136.02
532.267	10096.47
532.632	10230.48
532.998	10264.38
533.364	10331.72
533.73	10311.16
534.095	10483.81
534.461	10513.64
534.826	10578.49
535.192	10559.74
535.557	10653.29
535.923	10647.19
536.288	10722.9
536.653	10813.06
537.019	10750.47
537.384	10886.06
537.749	10923.12
538.114	10916.79
538.479	10993.85
538.845	11020.74
539.21	11021.42
539.575	11064.58
539.94	11157.01
540.305	11247.18
540.67	11148.42
541.034	11247.18
541.399	11248.76
541.764	11319.26
542.129	11372.6
542.494	11371.69
542.858	11467.96
543.223	11491.69
543.587	11463.22
543.952	11649.43
544.316	11606.94
544.681	11653.72
545.045	11683.55
545.41	11788.18
545.774	11837.22
546.138	11796.31
546.503	11890.1
546.867	11836.54
547.231	11975.52
547.595	11989.08
547.959	12021.62
548.324	12080.37
548.688	12189.75
549.052	12215.51
549.416	12209.64
549.779	12279.47
550.143	12309.97
550.507	12326.02
550.871	12333.7
551.235	12335.73
551.599	12559.01
551.962	12496.18
552.326	12539.8
552.689	12559.01
553.053	12602.85
553.417	12589.97
553.78	12756.74
554.143	12704.99
554.507	12831.09
554.87	12860.01
555.234	12904.31
555.597	12923.52
555.96	12937.3
556.323	13037.41
556.686	13063.17
557.05	13155.37
557.413	13175.26
557.776	13113.12
558.139	13199.67
558.502	13292.55
558.865	13280.57
559.228	13398.98
559.59	13447.12
559.953	13471.07
560.316	13703.83
560.679	13631.29
561.041	13766.88
561.404	13702.7
561.767	13823.61
562.129	13683.27
562.492	13912.19
562.854	13867.9
563.217	13880.33
563.579	13953.77
563.941	13958.97
564.304	14114.67
564.666	14190.83
565.028	14153.99
565.39	14265.4
565.753	14292.29
566.115	14375.68
566.477	14395.34
566.839	14417.49
567.201	14571.38
567.563	14586.75
567.925	14675.56
568.287	14626.75
568.648	14784.94
569.01	14846.86
569.372	14920.53
569.734	14812.05
570.095	14968.21
570.457	15031.26
570.819	15028.77
571.18	15123.68
571.542	15286.39
571.903	15264.92
572.265	15294.75
572.626	15363
572.987	15452.04
573.349	15506.27
573.71	15561.86
574.071	15630.56
574.432	15722.76
574.794	15882.99
575.155	15898.35
575.516	15908.07
575.877	16061.06
576.238	16112.36
576.599	16206.37
576.96	16201.17
577.32	16418.57
577.681	16454.72
578.042	16734.72
578.403	16708.73
578.763	16889.29
579.124	16922.06
579.485	17127.93
579.845	17284.31
580.206	17382.38
580.566	17508.03
580.927	17567.46
581.287	17823.27
581.648	17916.83
582.008	18171.74
582.368	18236.82
582.728	18494.67
583.089	18548
583.449	18748.9
583.809	18926.97
584.169	19142.34
584.529	19234.76
584.889	19779.83
585.249	19695.54
585.609	19953.61
585.969	20246.04
586.329	20362.87
586.688	20709.3
587.048	20862.52
587.408	21128.27
587.768	21347.7
588.127	21742.49
588.487	21892.32
588.846	22307
589.206	22474.23
589.565	22768
589.925	23160.99
590.284	23539.28
590.643	23809.78
591.003	24064.69
591.362	24425.59
591.721	24602.08
592.08	24925.46
592.44	25308.73
592.799	25573.58
593.158	25800.92
593.517	26197.52
593.876	26627.79
594.235	27074.78
594.593	27256.7
594.952	27586.18
595.311	27834.99
595.67	28191.59
596.029	28666.38
596.387	29072.02
596.746	29325.57
597.104	29629.97
597.463	29857.99
597.822	30380.46
598.18	30550.85
598.538	30801.01
598.897	31406.42
599.255	31532.29
599.613	32258.15
599.972	32384.93
600.33	32692.04
600.688	32960.73
601.046	33381.28
601.404	33686.13
601.762	34068.5
602.12	34463.51
602.478	34748.25
602.836	35019.43
603.194	35212.2
603.552	35620.09
603.91	35668.68
604.268	36180.76
604.625	36361.54
604.983	36605.15
605.341	36889.44
605.698	37434.51
606.056	37524.23
606.413	37850.09
606.771	38233.59
607.128	38636.96
607.485	38688.26
607.843	38913.79
608.2	39211.64
608.557	39746.99
608.914	39835.58
609.272	40145.17
609.629	40504.26
609.986	40719.17
610.343	40761.43
610.7	41296.56
611.057	41513.27
611.414	41554.18
611.771	41870.78
612.127	42087.95
612.484	42124.33
612.841	42605.9
613.198	42616.75
613.554	42859.9
613.911	43243.4
614.267	43375.82
614.624	43402.26
614.98	43627.34
615.337	44012.19
615.693	43988.46
616.05	44205.63
616.406	44716.35
616.762	44697.82
617.118	44842
617.475	44908.89
617.831	45164.93
618.187	45211.71
618.543	45437.46
618.899	45807.17
619.255	45825.25
619.611	46032.93
619.967	46241.74
620.323	46347.95
620.678	46255.3
621.034	46358.12
621.39	46497.55
621.746	46414.39
622.101	46941.38
622.457	46753.59
622.812	46994.71
623.168	47287.81
623.523	47144.99
623.879	47418.2
624.234	47237.64
624.589	47477.86
624.945	47517.86
625.3	47607.8
625.655	47671.76
626.01	47704.52
626.365	47831.75
626.72	47724.86
627.075	47787.46
627.43	47885.99
627.785	47899.09
628.14	47959.21
628.495	48175.92
628.85	47989.94
629.205	48084.17
629.559	48358.97
629.914	48133.21
630.269	48384.96
630.623	48201.23
630.978	48257.05
631.332	48528
631.687	48441.68
632.041	48408.68
632.396	48518.29
632.75	48368.69
633.104	48505.41
633.459	48429.02
633.813	48378.86
634.167	48386.76
634.521	48489.81
634.875	48477.61
635.229	48546.53
635.583	48361.91
635.937	48324.17
636.291	48406.2
636.645	48494.11
636.999	48337.5
637.352	48464.73
637.706	48306.99
638.06	48544.5
638.413	48425.41
638.767	48385.63
639.121	48482.58
639.474	48264.96
639.828	48252.98
640.181	48459.53
640.534	48286.88
640.888	48340.89
641.241	48150.39
641.594	48242.59
641.947	48431.51
642.301	48265.64
642.654	48299.99
643.007	48286.43
643.36	48225.64
643.713	48250.72
644.066	48385.41
644.419	48225.86
644.771	47879.66
645.124	47479.67
645.477	47496.17
645.83	47371.88
646.182	47191.09
646.535	47179.34
646.888	47140.47
647.24	46923.53
647.593	47301.14
647.945	47241.71
648.298	46983.86
648.65	47037.2
649.002	46821.38
649.355	47023.41
649.707	47012.34
650.059	47074.93
650.411	47672.43
650.763	47653.45
651.115	48081.24
651.467	48056.15
651.819	47890.73
652.171	47733.67
652.523	47808.02
652.875	47699.55
653.227	47603.96
653.578	47847.57
653.93	47742.26
654.282	47555.83
654.633	47412.1
654.985	47592.44
655.337	47552.44
655.688	47585.2
656.039	47872.43
656.391	47439.22
656.742	47380.46
657.094	47471.99
657.445	47563.96
657.796	47460.91
658.147	47491.65
658.498	47491.87
658.849	47508.6
659.2	47593.79
659.551	47447.35
659.902	47612.77
660.253	47426.11
660.604	47576.16
660.955	47450.07
661.306	47504.98
661.656	47419.56
662.007	47294.82
662.358	47430.41
662.708	47514.92
663.059	47404.19
663.409	47201.03
663.76	47516.28
664.11	47404.19
664.461	47456.85
664.811	47454.13
665.161	47390.41
665.511	47141.37
665.862	47335.94
666.212	47473.79
666.562	47433.12
666.912	47393.12
667.262	47254.59
667.612	47390.63
667.962	47445.55
668.312	47264.31
668.662	47303.18
669.011	47355.38
669.361	47286.68
669.711	47264.08
670.06	47264.76
670.41	47289.62
670.76	47112.9
671.109	47250.98
671.459	47141.37
671.808	47068.16
672.157	47287.36
672.507	46938.67
672.856	46992
673.205	47027.93
673.554	47172.33
673.904	47062.51
674.253	47238.32
674.602	47190.41
674.951	46540.71
675.3	46188.18
675.649	46953.81
675.998	46870.87
676.346	46931.89
676.695	47091.88
677.044	46729.41
677.393	46916.52
677.741	46876.3
678.09	46832
678.438	46762.4
678.787	46780.93
679.135	46665.45
679.484	46576.87
679.832	46637.66
680.181	46469.98
680.529	46605.12
680.877	46481.5
681.225	46411.9
681.573	46481.05
681.922	46303.2
682.27	46146.15
682.618	46211.91
682.966	46199.7
683.314	46276.09
683.661	46183.88
684.009	45919.48
684.357	45837.68
684.705	45933.27
685.053	45822.54
685.4	45710.45
685.748	45618.7
686.095	45645.82
686.443	45440.63
686.79	45432.72
687.138	45364.47
687.485	45474.07
687.832	45326.96
688.18	45324.7
688.527	45179.17
688.874	45047.19
689.221	45043.12
689.568	44893.52
689.915	44804.71
690.262	44747.99
690.609	44655.11
690.956	44583.02
691.303	44570.59
691.65	44457.6
691.997	44388
692.344	44164.5
692.69	44139.64
693.037	44150.94
693.383	43690.62
693.73	44006.99
694.077	43626.44
694.423	43649.26
694.769	43573.33
695.116	43504.86
695.462	43378.76
695.808	43380.57
696.155	43369.95
696.501	43048.37
696.847	43056.06
697.193	42832.33
697.539	42924.31
697.885	42720.25
698.231	42627.82
698.577	42552.34
698.923	42559.57
699.269	42456.3
699.614	42230.99
699.96	42105.35
700.306	42061.51
700.651	41887.05
700.997	41825.58
701.342	41759.59
701.688	41617.22
702.033	41567.06
702.379	41553.95
702.724	41375.65
703.069	41392.6
703.415	40984.47
703.76	41154.41
704.105	41101.31
704.45	40873.06
704.795	40701.09
705.14	40665.84
705.485	40530.47
705.83	40402.79
706.175	40484.37
706.52	40287.54
706.865	40212.97
707.209	40193.76
707.554	40202.35
707.899	40136.13
708.243	39942.92
708.588	39978.17
708.932	39659.99
709.277	39635.58
709.621	39711.96
709.966	39494.12
710.31	39622.7
710.654	39241.92
710.998	39241.47
711.342	39267.91
711.687	39285.08
712.031	39008.03
712.375	38991.53
712.719	38888.71
713.063	38859.11
713.407	38899.78
713.75	38616.63
714.094	38805.55
714.438	38537.76
714.782	38552.67
715.125	38462.05
715.469	38439.23
715.812	38317.2
716.156	38060.48
716.499	38090.09
716.843	38173.02
717.186	37876.08
717.53	37953.37
717.873	37997.43
718.216	37880.15
718.559	37787.95
718.902	37407.84
719.246	37653.49
719.589	37474.96
719.932	37323.1
720.275	37415.98
720.617	37131.92
720.96	37241.07
721.303	37222.99
721.646	37262.54
721.989	36908.87
722.331	37125.14
722.674	37012.83
723.016	37039.04
723.359	36946.84
723.701	36934.86
724.044	36677.24
724.386	36602.89
724.729	36832.49
725.071	36585.04
725.413	36547.53
725.755	36572.61
726.097	36250.36
726.439	36196.8
726.782	36177.37
727.124	36338.27
727.465	36185.05
727.807	36069.35
728.149	35959.29
728.491	36008.33
728.833	35907.77
729.175	35801.11
729.516	35771.28
729.858	35758.4
730.199	35769.7
730.541	35598.63
730.882	35655.8
731.224	35645.86
731.565	35526.54
731.906	35530.83
732.248	35539.64
732.589	35200.44
732.93	35187.11
733.271	35289.48
733.612	35213.33
733.953	35246.54
734.294	35130.16
734.635	34934.91
734.976	35133.1
735.317	34779.21
735.658	34900.57
735.999	34954.12
736.339	34885.2
736.68	34942.37
737.021	34896.5
737.361	34541.7
737.702	34830.96
738.042	34711.87
738.383	34657.63
738.723	34639.1
739.063	34428.71
739.404	34627.13
739.744	34494.02
740.084	34252.9
740.424	34322.5
740.764	34261.49
741.104	34424.19
741.444	34189.62
741.784	34226.23
742.124	34086.35
742.464	34141.94
742.804	34117.31
743.143	33887.03
743.483	34025.79
743.823	33793.7
744.162	33748.05
744.502	33865.56
744.841	33623.54
745.181	33836.19
745.52	33701.05
745.86	33645.01
746.199	33594.84
746.538	33542.86
746.877	33653.14
747.216	33671.45
747.556	33389.87
747.895	33377.22
748.234	33442.98
748.573	33273.26
748.911	33226.71
749.25	33270.55
749.589	33092.7
749.928	33141.52
750.267	33168.86
750.605	33048.64
750.944	32977.68
751.283	32845.25
751.621	32958.02
751.96	32817.91
752.298	32776.78
752.636	32790.11
752.975	32597.12
753.313	32654.75
753.651	32567.29
753.989	32557.35
754.327	32438.03
754.666	32248.43
755.004	32320.29
755.342	32214.08
755.679	32221.31
756.017	32040.75
756.355	32146.97
756.693	31886.41
757.031	31970.02
757.368	31960.98
757.706	31883.47
758.044	31701.1
758.381	31664.04
758.719	31520.54
759.056	31626.98
759.394	31550.15
759.731	31190.83
760.068	31274.45
760.405	31193.54
760.743	31096.6
761.08	30975.47
761.417	30917.17
761.754	30945.87
762.091	30821.58
762.428	30646.21
762.765	30556.72
763.102	30595.82
763.438	30503.39
763.775	30318.09
764.112	30365.77
764.449	30309.05
764.785	30219.11
765.122	30030.64
765.458	29781.83
765.795	29826.57
766.131	29714.49
766.467	29801.26
766.804	29750.64
767.14	29498.67
767.476	29412.57
767.812	29286.93
768.148	29348.62
768.485	29032.25
768.821	28996.99
769.157	29074.28
769.492	28918.8
769.828	28851.91
770.164	28510
770.5	28533.73
770.836	28486.04
771.171	28364.47
771.507	28251.93
771.842	27948.66
772.178	28061.65
772.513	27877.02
772.849	27994.53
773.184	27760.41
773.519	27745.05
773.855	27573.07
774.19	27511.61
774.525	27521.32
774.86	27489.46
775.195	27414.89
775.53	27208.34
775.865	26989.81
776.2	26918.4
776.535	26726.54
776.87	26688.13
777.205	26733.32
777.539	26602.93
777.874	26534.91
778.209	26341.24
778.543	26307.12
778.878	26101.25
779.212	26150.29
779.547	25975.83
779.881	26052.44
780.215	25910.07
780.55	25935.83
780.884	25632.79
781.218	25583.75
781.552	25542.17
781.886	25391.44
782.22	25231.44
782.554	25242.74
782.888	25012.92
783.222	25003.42
783.556	24801.85
783.889	24744.67
784.223	24633.72
784.557	24541.52
784.89	24552.81
785.224	24536.77
785.557	24392.82
785.891	24301.97
786.224	24214.74
786.558	24188.98
786.891	24068.53
787.224	23898.14
787.557	23867.64
787.891	23684.59
788.224	23794.42
788.557	23784.7
788.89	23631.94
789.223	23634.65
789.556	23482.56
789.888	23410.7
790.221	23265.17
790.554	23030.6
790.887	23019.3
791.219	22938.39
791.552	22845.97
791.884	22822.46
792.217	22740.89
792.549	22750.38
792.882	22588.35
793.214	22501.12
793.546	22525.3
793.879	22421.12
794.211	22217.51
794.543	22278.07
794.875	22259.32
795.207	22228.81
795.539	22068.36
795.871	22036.72
796.203	21841.47
796.535	21743.4
796.867	21666.11
797.198	21681.48
797.53	21620.91
797.862	21564.64
798.193	21522.61
798.525	21368.04
798.856	21309.06
799.188	21173.92
799.519	21153.36
799.85	20920.82
800.182	20955.85
800.513	21057.31
800.844	20803.99
801.175	21015.96
801.506	20924.44
801.837	20682.86
802.168	20678.34
802.499	20525.58
802.83	20498.46
803.161	20436.76
803.491	20477.22
803.822	20472.7
804.153	20260.27
804.483	20132.37
804.814	20111.12
805.145	20126.26
805.475	20025.93
805.805	19941.86
806.136	19963.11
806.466	20005.59
806.796	19852.6
807.126	19774.41
807.457	19769.21
807.787	19760.62
808.117	19617.8
808.447	19454.42
808.777	19589.1
809.107	19466.17
809.436	19381.2
809.766	19365.61
810.096	19272.28
810.426	19225.95
810.755	19297.13
811.085	19190.02
811.414	19173.52
811.744	18954.09
812.073	19023.69
812.403	18997.71
812.732	18855.34
813.061	18813.3
813.39	18758.84
813.719	18707.32
814.049	18821.44
814.378	18598.17
814.707	18564.5
815.036	18529.92
815.365	18529.47
815.693	18341.9
816.022	18309.36
816.351	18379.42
816.68	18180.78
817.008	18253.32
817.337	18120.67
817.665	18015.13
817.994	18031.86
818.322	18170.84
818.651	18079.54
818.979	17862.14
819.307	18004.06
819.636	17937.17
819.964	17811.3
820.292	17974.46
820.62	17846.55
820.948	17783.28
821.276	17816.04
821.604	17769.72
821.932	17769.49
822.259	17794.8
822.587	17728.36
822.915	17669.83
823.243	17643.39
823.57	17667.8
823.898	17695.14
824.225	17628.48
824.553	17578.53
824.88	17651.3
825.207	17770.39
825.535	17657.85
825.862	17698.76
826.189	17624.18
826.516	17731.53
826.843	17720.23
827.17	17688.81
827.497	17706.89
827.824	17620.12
828.151	17658.76
828.478	17594.81
828.805	17673.67
829.131	17584.41
829.458	17565.65
829.785	17537.41
830.111	17566.78
830.438	17653.34
830.764	17667.8
831.09	17532.66
831.417	17468.48
831.743	17651.75
832.069	17573.34
832.395	17486.11
832.722	17579.89
833.048	17427.35
833.374	17531.08
833.7	17364.53
834.026	17462.83
834.351	17470.29
834.677	17423.96
835.003	17440.23
835.329	17364.76
835.654	17381.25
835.98	17351.65
836.306	17321.37
836.631	17204.76
836.956	17358.43
837.282	17259.22
837.607	17259.67
837.932	17195.72
838.258	17177.64
838.583	17104.65
838.908	17095.84
839.233	17111.88
839.558	17089.28
839.883	16915.73
840.208	16912.11
840.533	16989.62
840.858	16841.38
841.182	16861.72
841.507	16840.48
841.832	16774.49
842.156	16727.71
842.481	16690.42
842.805	16721.16
843.13	16567.26
843.454	16572.23
843.778	16563.87
844.103	16588.05
844.427	16562.97
844.751	16536.75
845.075	16378.34
845.399	16359.13
845.723	16373.37
846.047	16339.02
846.371	16181.96
846.695	16077.33
847.019	16026.03
847.343	15915.98
847.666	15917.56
847.99	15844.34
848.313	15908.52
848.637	15686.38
848.96	15690.45
849.284	15603.9
849.607	15547.18
849.931	15448.65
850.254	15345.6
850.577	15299.27
850.9	15147.64
851.223	15179.73
851.546	15069.22
851.869	15000.75
852.192	15025.61
852.515	14938.38
852.838	14839.17
853.161	14911.71
853.483	14809.57
853.806	14736.8
854.129	14709.01
854.451	14629.46
854.774	14674.66
855.096	14580.87
855.419	14523.25
855.741	14541.33
856.063	14347.43
856.385	14360.31
856.708	14304.72
857.03	14264.05
857.352	14297.27
857.674	14238.06
857.996	14175.46
858.318	14054.33
858.64	14117.16
858.961	14142.02
859.283	14032.19
859.605	13977.27
859.926	14042.81
860.248	13891.17
860.57	13809.37
860.891	13903.15
861.212	13739.99
861.534	13684.4
861.855	13696.15
862.176	13762.14
862.498	13678.75
862.819	13677.39
863.14	13588.58
863.461	13571.86
863.782	13522.14
864.103	13529.38
864.424	13502.71
864.745	13503.16
865.065	13418.42
865.386	13379.78
865.707	13321.02
866.027	13378.65
866.348	13407.57
866.668	13389.72
866.989	13323.73
867.309	13283.28
867.63	13250.06
867.95	13246.22
868.27	13147.47
868.59	13194.47
868.91	13126
869.23	13080.35
869.55	13091.87
869.87	13125.77
870.19	13060.46
870.51	13095.49
870.83	13198.54
871.15	12993.12
871.469	13010.29
871.789	12990.41
872.109	13003.29
872.428	12870.18
872.748	12927.13
873.067	12896.4
873.386	12925.1
873.706	12796.97
874.025	12741.6
874.344	12784.31
874.663	12895.49
874.982	12748.83
875.301	12758.77
875.62	12648.27
875.939	12655.95
876.258	12704.54
876.577	12655.5
876.896	12639.91
877.214	12532.11
877.533	12577.31
877.852	12580.47
878.17	12539.8
878.489	12617.76
878.807	12523.75
879.125	12523.75
879.444	12397.43
879.762	12402.4
880.08	12463.64
880.398	12385.45
880.716	12407.37
881.034	12278.34
881.352	12344.77
881.67	12330.54
881.988	12329.63
882.306	12239.47
882.624	12244.21
882.941	12137.77
883.259	12074.27
883.577	12109.53
883.894	12014.39
884.212	12056.42
884.529	12015.07
884.846	11958.8
885.164	11961.73
885.481	11942.98
885.798	12001.28
886.115	11769.42
886.432	11872.92
886.75	11840.38
887.067	11857.78
887.383	11820.04
887.7	11818.01
888.017	11765.13
888.334	11788.18
888.651	11762.87
888.967	11646.49
889.284	11517
889.6	11545.93
889.917	11498.24
890.233	11533.04
890.55	11520.16
890.866	11476.77
891.182	11413.27
891.498	11407.62
891.815	11344.35
892.131	11271.36
892.447	11293.5
892.763	11287.85
893.079	11180.51
893.395	11199.27
893.71	11179.38
894.026	11130.34
894.342	11060.97
894.657	11023.68
894.973	10996.79
895.289	11048.09
895.604	10975.54
895.92	10903.46
896.235	10893.29
896.55	10900.52
896.865	10811.03
897.181	10721.31
897.496	10723.35
897.811	10679.73
898.126	10697.59
898.441	10680.86
898.756	10626.18
899.071	10548.89
899.386	10516.12
899.7	10413.75
900.015	10402.9
900.33	10352.51
900.644	10345.96
900.959	10355.9
901.273	10212.17
901.588	10254.89
901.902	10249.91
902.216	10149.58
902.531	10144.61
902.845	10035.68
903.159	10046.98
903.473	9977.15
903.787	10004.5
904.101	9910.94
904.415	9895.35
904.729	9817.38
905.042	9839.08
905.356	9873.65
905.67	9691.74
905.984	9757.95
906.297	9758.18
906.611	9652.64
906.924	9611.96
907.237	9590.27
907.551	9576.71
907.864	9526.09
908.177	9459.88
908.491	9458.07
908.804	9417.39
909.117	9367.68
909.43	9275.7
909.743	9252.65
910.056	9288.36
910.368	9160.68
910.681	9125.2
910.994	9143.28
911.307	9122.03
911.619	9012.66
911.932	9078.19
912.244	8963.39
912.557	8981.02
912.869	8906.67
913.181	8871.87
913.494	8881.81
913.806	8816.05
914.118	8736.28
914.43	8728.37
914.742	8744.64
915.054	8665.32
915.366	8681.59
915.678	8561.37
915.99	8477.98
916.302	8501.71
916.613	8437.98
916.925	8485.44
917.236	8415.84
917.548	8330.19
917.859	8346.91
918.171	8283.86
918.482	8239.35
918.794	8228.5
919.105	8234.37
919.416	8197.76
919.727	8122.06
920.038	8160.03
920.349	8024.44
920.66	8019.92
920.971	8001.61
921.282	7969.75
921.593	7954.61
921.903	7875.51
922.214	7873.93
922.525	7832.8
922.835	7743.31
923.146	7771.11
923.456	7759.81
923.767	7622.64
924.077	7724.1
924.387	7628.97
924.697	7591
925.008	7549.19
925.318	7513.04
925.628	7469.2
925.938	7475.3
926.248	7378.35
926.558	7410.21
926.867	7377.22
927.177	7323.89
927.487	7287.05
927.796	7234.4
928.106	7238.69
928.416	7181.07
928.725	7208.41
929.034	7113.95
929.344	7122.76
929.653	7109.21
929.962	7037.34
930.271	6977.68
930.581	6935.88
930.89	6939.49
931.199	6872.83
931.508	6892.49
931.817	6862.21
932.125	6831.25
932.434	6816.33
932.743	6755.77
933.051	6712.15
933.36	6672.16
933.669	6648.88
933.977	6671.7
934.286	6606.62
934.594	6601.87
934.902	6605.26
935.21	6488.21
935.519	6495.89
935.827	6469.45
936.135	6401.65
936.443	6485.49
936.751	6405.04
937.059	6385.38
937.367	6330.92
937.674	6366.63
937.982	6264.26
938.29	6330.24
938.597	6289.11
938.905	6190.59
939.213	6147.42
939.52	6151.04
939.827	6181.32
940.135	6059.52
940.442	6034.88
940.749	6011.38
941.056	6011.16
941.363	5928.9
941.67	5983.13
941.977	5913.98
942.284	5902.46
942.591	5907.88
942.898	5829.24
943.205	5837.15
943.511	5829.24
943.818	5788.34
944.125	5727.32
944.431	5752.63
944.738	5727.32
945.044	5647.55
945.35	5655.23
945.657	5611.62
945.963	5534.11
946.269	5560.77
946.575	5552.18
946.881	5516.48
947.187	5530.72
947.493	5462.47
947.799	5493.65
948.105	5461.79
948.41	5377.27
948.716	5437.16
949.022	5414.34
949.327	5372.3
949.633	5263.38
949.938	5328.91
950.244	5307.9
950.549	5274.23
950.854	5217.96
951.16	5154.45
951.465	5198.07
951.77	5192.87
952.075	5125.08
952.38	5122.59
952.685	5078.3
952.99	5081.91
953.294	5046.89
953.599	4998.75
953.904	5031.52
954.209	4973.67
954.513	4948.81
954.818	4949.26
955.122	4907.68
955.426	4874.46
955.731	4860.45
956.035	4841.02
956.339	4861.13
956.643	4813.9
956.948	4765.76
957.252	4749.72
957.556	4726.9
957.86	4672.21
958.163	4678.08
958.467	4699.33
958.771	4709.95
959.075	4652.55
959.378	4584.07
959.682	4600.8
959.985	4595.37
960.289	4540.91
960.592	4501.36
960.896	4538.65
961.199	4495.94
961.502	4456.39
961.805	4489.84
962.108	4424.53
962.411	4417.75
962.714	4406.45
963.017	4388.83
963.32	4399.9
963.623	4301.6
963.926	4308.83
964.228	4289.39
964.531	4315.38
964.833	4278.55
965.136	4257.53
965.438	4217.08
965.741	4218.43
966.043	4179.79
966.345	4156.52
966.648	4133.01
966.95	4123.97
967.252	4104.76
967.554	4098.21
967.856	4115.84
968.158	4039.46
968.46	4051.43
968.761	4016.18
969.063	3994.26
969.365	3991.55
969.666	4005.78
969.968	3985.22
970.269	3977.76
970.571	3905.9
970.872	3959.01
971.174	3926.01
971.475	3904.54
971.776	3836.98
972.077	3830.2
972.378	3847.6
972.679	3812.34
972.98	3819.57
973.281	3794.26
973.582	3768.28
973.883	3731.22
974.183	3720.59
974.484	3693.48
974.785	3685.11
975.085	3689.63
975.386	3681.95
975.686	3634.72
975.986	3636.3
976.287	3591.78
976.587	3601.73
976.887	3575.29
977.187	3575.06
977.487	3551.56
977.787	3532.35
978.087	3566.93
978.387	3525.8
978.687	3484.22
978.987	3471.56
979.286	3462.3
979.586	3443.31
979.885	3426.36
980.185	3414.84
980.484	3371.9
980.784	3379.81
981.083	3380.94
981.382	3369.87
981.682	3350.21
981.981	3337.1
982.28	3278.35
982.579	3279.02
982.878	3260.27
983.177	3234.28
983.475	3227.05
983.774	3218.46
984.073	3180.04
984.372	3214.84
984.67	3170.55
984.969	3178.69
985.267	3173.04
985.566	3145.69
985.864	3090.78
986.162	3114.28
986.461	3096.43
986.759	3076.54
987.057	3078.35
987.355	3043.1
987.653	3057.11
987.951	3003.1
988.249	3034.28
988.547	2976.21
988.844	2991.8
989.142	2949.77
989.44	2953.16
989.737	2924.91
990.035	2919.26
990.332	2889.66
990.63	2895.31
990.927	2895.76
991.224	2879.03
991.521	2873.61
991.819	2869.77
992.116	2824.8
992.413	2813.27
992.71	2796.32
993.006	2752.94
993.303	2769.88
993.6	2761.75
993.897	2733.05
994.193	2718.59
994.49	2727.4
994.787	2727.4
995.083	2697.8
995.379	2733.95
995.676	2668.42
995.972	2671.13
996.268	2639.04
996.565	2651.02
996.861	2633.84
997.157	2619.38
997.453	2590.68
997.749	2591.36
998.044	2557.24
998.34	2547.52
998.636	2557.24
998.932	2555.2
999.227	2491.93
999.523	2497.12
999.818	2466.84
1000.114	2477.01
1000.409	2451.48
1000.704	2450.35
1001	2453.73
1001.295	2411.48
1001.59	2408.99
1001.885	2375.77
1002.18	2383.91
1002.475	2352.04
1002.77	2363.34
1003.065	2333.74
1003.359	2344.13
1003.654	2330.57
1003.949	2319.28
1004.243	2328.99
1004.538	2254.19
1004.832	2301.65
1005.127	2260.07
1005.421	2259.62
1005.715	2264.81
1006.009	2234.53
1006.304	2215.78
1006.598	2194.76
1006.892	2188.88
1007.186	2166.06
1007.48	2164.25
1007.773	2128.55
1008.067	2146.62
1008.361	2131.71
1008.655	2107.98
1008.948	2114.76
1009.242	2078.83
1009.535	2060.07
1009.829	2041.32
1010.122	2026.4
1010.415	2014.88
1010.708	1993.86
1011.001	1991.83
1011.295	2008.55
1011.588	1989.34
1011.881	1947.53
1012.173	1959.51
1012.466	1954.54
1012.759	1945.27
1013.052	1912.73
1013.344	1934.43
1013.637	1950.25
1013.93	1893.07
1014.222	1907.53
1014.514	1865.28
1014.807	1853.52
1015.099	1811.27
1015.391	1865.95
1015.683	1842.23
1015.976	1825.95
1016.268	1784.6
1016.56	1784.37
1016.851	1777.14
1017.143	1757.26
1017.435	1765.17
1017.727	1769.91
1018.018	1732.4
1018.31	1708.9
1018.602	1712.29
1018.893	1706.18
1019.185	1697.6
1019.476	1682.46
1019.767	1680.65
1020.058	1637.49
1020.35	1638.62
1020.641	1646.3
1020.932	1629.8
1021.223	1616.92
1021.514	1631.61
1021.804	1591.61
1022.095	1589.12
1022.386	1581.22
1022.677	1557.49
1022.967	1567.88
1023.258	1527.66
1023.548	1526.08
1023.839	1526.08
1024.129	1510.48
1024.419	1498.28
1024.709	1508
1025	1483.59
1025.29	1481.56
1025.58	1435.46
1025.87	1426.42
1026.16	1439.3
1026.449	1404.27
1026.739	1417.83
1027.029	1391.62
1027.319	1416.93
1027.608	1397.94
1027.898	1405.85
1028.187	1369.24
1028.477	1374.67
1028.766	1356.14
1029.055	1347.55
1029.344	1351.84
1029.634	1309.13
1029.923	1340.32
1030.212	1303.71
1030.501	1318.85
1030.79	1304.16
1031.078	1287.66
1031.367	1251.73
1031.656	1255.57
1031.945	1263.03
1032.233	1258.96
1032.522	1241.34
1032.81	1214.45
1033.099	1237.04
1033.387	1207.44
1033.675	1204.95
1033.963	1227.1
1034.251	1211.96
1034.54	1160.44
1034.828	1156.37
1035.116	1157.5
1035.403	1156.59
1035.691	1128.35
1035.979	1153.43
1036.267	1155.24
1036.554	1136.93
1036.842	1116.59
1037.129	1124.05
1037.417	1089.93
1037.704	1080.89
1037.992	1069.59
1038.279	1072.3
1038.566	1092.41
1038.853	1092.41
1039.14	1092.41
