Data from hue_20_FLMS001491_18.txt Node
Date: Mon Feb 06 15:33:41 GMT 2017
User: dcchb
Spectrometer: FLMS00149
Trigger mode: 0
Integration Time (sec): 2.000000E-2
Scans to average: 10
Electric dark correction enabled: true
Nonlinearity correction enabled: false
Boxcar width: 0
XAxis mode: Wavelengths
Number of Pixels in Spectrum: 2048
>>>>>Begin Spectral Data<<<<<
341.393	-6.16
341.776	-6.16
342.16	-6.16
342.543	-53.39
342.927	-69.21
343.31	-76.44
343.693	-56.55
344.077	-59.26
344.46	-65.59
344.843	-68.76
345.226	-36.67
345.61	-26.04
345.993	-21.52
346.376	-5.71
346.759	5.59
347.142	22.99
347.525	57.12
347.908	74.74
348.291	79.49
348.674	74.97
349.057	101.64
349.44	121.75
349.823	142.54
350.206	161.52
350.588	192.25
350.971	213.95
351.354	192.93
351.737	246.94
352.119	239.03
352.502	272.93
352.884	299.6
353.267	291.46
353.65	309.09
354.032	290.33
354.414	300.73
354.797	306.6
355.179	331.69
355.562	307.51
355.944	324.45
356.326	328.97
356.709	325.81
357.091	330.56
357.473	342.76
357.855	355.87
358.238	342.31
358.62	333.27
359.002	338.01
359.384	346.6
359.766	361.74
360.148	350.22
360.53	321.97
360.912	337.56
361.294	325.58
361.676	332.59
362.057	319.03
362.439	317.9
362.821	333.27
363.203	345.47
363.584	326.94
363.966	304.12
364.348	296.66
364.729	313.61
365.111	321.97
365.493	338.69
365.874	311.57
366.256	321.07
366.637	318.13
367.019	324.45
367.4	310.67
367.781	328.75
368.163	320.84
368.544	309.99
368.925	322.87
369.306	317
369.688	319.26
370.069	315.64
370.45	313.16
370.831	289.2
371.212	309.77
371.593	298.47
371.974	328.07
372.355	316.09
372.736	309.99
373.117	302.99
373.498	318.81
373.879	323.1
374.26	292.14
374.641	317.22
375.021	316.09
375.402	323.32
375.783	314.06
376.163	329.2
376.544	322.65
376.925	333.27
377.305	316.77
377.686	329.2
378.066	332.82
378.447	327.17
378.827	319.71
379.208	316.09
379.588	314.96
379.968	310.22
380.349	323.55
380.729	348.86
381.109	333.72
381.489	321.07
381.87	316.77
382.25	333.04
382.63	333.49
383.01	324.23
383.39	370.78
383.77	334.85
384.15	346.15
384.53	318.13
384.91	335.08
385.29	346.38
385.67	359.93
386.049	329.65
386.429	329.88
386.809	363.32
387.189	333.49
387.568	350.22
387.948	352.93
388.328	352.48
388.707	350.44
389.087	354.28
389.466	341.63
389.846	335.53
390.225	359.71
390.605	354.06
390.984	353.61
391.363	344.12
391.743	355.87
392.122	361.06
392.501	347.73
392.881	382.08
393.26	342.31
393.639	373.04
394.018	356.77
394.397	371.01
394.776	374.4
395.155	389.76
395.534	367.17
395.913	355.19
396.292	352.93
396.671	362.42
397.05	385.24
397.429	379.14
397.808	363.78
398.186	378.24
398.565	379.14
398.944	379.37
399.323	377.33
399.701	359.48
400.08	389.54
400.458	381.18
400.837	385.02
401.215	402.19
401.594	400.16
401.972	403.55
402.351	401.74
402.729	382.08
403.107	396.77
403.486	389.54
403.864	404.23
404.242	392.48
404.62	416.43
404.999	411.46
405.377	391.12
405.755	396.77
406.133	399.93
406.511	403.32
406.889	399.93
407.267	413.27
407.645	419.37
408.023	441.74
408.401	434.06
408.779	403.77
409.156	415.53
409.534	414.4
409.912	431.57
410.29	426.15
410.667	434.28
411.045	427.05
411.422	419.37
411.8	427.95
412.178	450.55
412.555	438.58
412.933	449.88
413.31	448.75
413.687	456.88
414.065	453.04
414.442	448.52
414.819	471.34
415.197	460.5
415.574	461.63
415.951	443.55
416.328	455.3
416.705	480.38
417.082	484.22
417.46	488.97
417.837	490.1
418.214	473.83
418.591	487.39
418.967	492.13
419.344	471.34
419.721	485.81
420.098	494.39
420.475	497.11
420.852	497.33
421.228	478.35
421.605	499.82
421.982	515.41
422.358	514.73
422.735	497.78
423.111	486.26
423.488	519.93
423.864	522.87
424.241	506.37
424.617	528.97
424.994	522.19
425.37	512.02
425.746	536.2
426.123	521.29
426.499	529.65
426.875	525.35
427.251	521.74
427.627	553.83
428.003	550.21
428.379	560.38
428.756	546.82
429.132	558.8
429.507	554.73
429.883	540.49
430.259	582.98
430.635	578.69
431.011	597.67
431.387	596.31
431.763	582.75
432.138	594.96
432.514	586.37
432.89	607.39
433.265	608.97
433.641	599.48
434.016	619.14
434.392	631.79
434.767	628.18
435.143	635.41
435.518	629.08
435.894	631.11
436.269	621.85
436.644	641.06
437.02	648.29
437.395	636.76
437.77	644.22
438.145	648.06
438.52	662.75
438.895	667.95
439.271	654.16
439.646	677.21
440.021	690.09
440.395	681.51
440.77	667.5
441.145	669.53
441.52	708.17
441.895	704.11
442.27	699.13
442.645	714.28
443.019	714.73
443.394	707.72
443.769	713.6
444.143	706.14
444.518	740.71
444.892	709.3
445.267	714.5
445.641	719.92
446.016	753.37
446.39	726.03
446.764	764.9
447.139	734.16
447.513	739.13
447.887	757.44
448.262	761.05
448.636	746.36
449.01	771.22
449.384	748.17
449.758	793.59
450.132	747.49
450.506	805.12
450.88	776.65
451.254	802.41
451.628	775.06
452.002	789.75
452.376	803.09
452.75	805.35
453.123	824.1
453.497	845.8
453.871	827.04
454.244	825.01
454.618	838.11
454.992	853.03
455.365	853.93
455.739	881.73
456.112	878.79
456.486	896.87
456.859	881.28
457.232	902.74
457.606	886.93
457.979	900.03
458.352	933.48
458.725	917.43
459.099	916.76
459.472	956.98
459.845	973.25
460.218	967.15
460.591	962.86
460.964	981.61
461.337	977.09
461.71	1001.27
462.083	1014.15
462.456	1023.65
462.829	1008.73
463.201	1046.02
463.574	1023.65
463.947	1026.13
464.32	1070.65
464.692	1046.24
465.065	1101.84
465.438	1105.9
465.81	1101.84
466.183	1137.77
466.555	1147.48
466.928	1173.02
467.3	1155.62
467.672	1186.35
468.045	1180.7
468.417	1191.55
468.789	1191.78
469.161	1224.54
469.534	1254.15
469.906	1258.22
470.278	1295.28
470.65	1302.06
471.022	1280.59
471.394	1342.96
471.766	1332.79
472.138	1363.75
472.51	1375.05
472.882	1411.43
473.253	1435.16
473.625	1428.61
473.997	1476.51
474.369	1455.95
474.74	1505.89
475.112	1502.5
475.484	1569.85
475.855	1564.2
476.227	1620.69
476.598	1577.53
476.97	1650.07
477.341	1674.48
477.713	1721.71
478.084	1737.75
478.455	1781.82
478.827	1785.21
479.198	1814.81
479.569	1889.84
479.94	1898.65
480.311	1924.41
480.682	1949.27
481.053	2033.34
481.424	2034.24
481.795	2032.21
482.166	2117.85
482.537	2130.06
482.908	2182.03
483.279	2169.15
483.65	2243.95
484.021	2272.43
484.391	2284.86
484.762	2326.66
485.133	2362.37
485.503	2393.1
485.874	2441.91
486.244	2493.44
486.615	2518.97
486.985	2578.63
487.356	2620.21
487.726	2652.08
488.097	2689.59
488.467	2723.71
488.837	2801.9
489.207	2813.88
489.578	2880.77
489.948	2904.5
490.318	2906.08
490.688	2949.47
491.058	3022.01
491.428	3029.69
491.798	3094.1
492.168	3156.47
492.538	3151.05
492.908	3198.96
493.278	3261.33
493.648	3313.98
494.017	3322.79
494.387	3351.27
494.757	3403.02
495.126	3434.2
495.496	3446.86
495.866	3456.35
496.235	3521.43
496.605	3549.23
496.974	3553.07
497.344	3594.88
497.713	3629
498.082	3614.31
498.452	3677.13
498.821	3670.36
499.19	3717.36
499.559	3750.58
499.928	3810.01
500.298	3837.36
500.667	3841.88
501.036	3828.54
501.405	3852.05
501.774	3879.39
502.143	3930.24
502.512	3918.03
502.88	4007.07
503.249	3978.82
503.618	4001.42
503.987	4067.63
504.356	4063.57
504.724	4103.11
505.093	4099.27
505.462	4155.09
505.83	4158.7
506.199	4160.06
506.567	4212.26
506.936	4214.3
507.304	4284.12
507.672	4280.28
508.041	4299.49
508.409	4276.22
508.777	4371.81
509.145	4384.91
509.514	4356.67
509.882	4401.18
510.25	4401.64
510.618	4448.64
510.986	4466.49
511.354	4457.45
511.722	4520.73
512.09	4519.15
512.458	4471.46
512.826	4575.64
513.193	4582.87
513.561	4584
513.929	4642.99
514.297	4623.32
514.664	4700.61
515.032	4678.69
515.4	4699.71
515.767	4717.33
516.135	4784.22
516.502	4698.8
516.869	4780.61
517.237	4785.81
517.604	4801.17
517.972	4831
518.339	4849.99
518.706	4848.4
519.073	4872.36
519.44	4925.69
519.808	4866.93
520.175	4946.03
520.542	4976.08
520.909	4987.61
521.276	4970.66
521.643	4998.23
522.009	5033.94
522.376	5109.64
522.743	5080.04
523.11	5115.29
523.477	5174.04
523.843	5228.28
524.21	5282.29
524.577	5302.85
524.943	5233.7
525.31	5325.68
525.676	5355.96
526.043	5361.38
526.409	5359.8
526.776	5447.26
527.142	5412
527.508	5472.12
527.874	5524.32
528.241	5532.91
528.607	5554.37
528.973	5577.2
529.339	5622.17
529.705	5673.92
530.071	5686.35
530.437	5652.9
530.803	5698.32
531.169	5790.07
531.535	5784.42
531.901	5772.45
532.267	5838.66
532.632	5866
532.998	5864.65
533.364	5856.96
533.73	5896.96
534.095	5901.03
534.461	6010.86
534.826	6000.69
535.192	6068.03
535.557	6056.51
535.923	6052.44
536.288	6074.59
536.653	6125.88
537.019	6122.72
537.384	6174.02
537.749	6183.96
538.114	6171.31
538.479	6209.95
538.845	6219.89
539.21	6267.12
539.575	6233.9
539.94	6268.25
540.305	6356.16
540.67	6328.14
541.034	6373.56
541.399	6407.68
541.764	6420.34
542.129	6455.59
542.494	6434.8
542.858	6467.8
543.223	6520.68
543.587	6566.55
543.952	6591.63
544.316	6564.06
544.681	6503.95
545.045	6680.67
545.41	6686.77
545.774	6732.2
546.138	6743.5
546.503	6715.93
546.867	6729.48
547.231	6800.67
547.595	6797.5
547.959	6810.61
548.324	6923.15
548.688	6883.15
549.052	6918.63
549.416	6901.46
549.779	6959.31
550.143	6949.14
550.507	7071.85
550.871	7057.39
551.235	7081.34
551.599	7078.85
551.962	7048.35
552.326	7059.64
552.689	7123.6
553.053	7119.76
553.417	7150.72
553.78	7243.59
554.143	7200.66
554.507	7304.84
554.87	7252.63
555.234	7332.86
555.597	7285.85
555.96	7316.59
556.323	7341.22
556.686	7403.82
557.05	7493.53
557.413	7412.18
557.776	7457.6
558.139	7497.83
558.502	7530.59
558.865	7600.2
559.228	7600.87
559.59	7609.91
559.953	7606.07
560.316	7723.58
560.679	7684.26
561.041	7755.22
561.404	7759.51
561.767	7815.11
562.129	7793.64
562.492	7927.42
562.854	7891.71
563.217	7876.57
563.579	7920.64
563.941	7955.21
564.304	7979.17
564.666	8016.91
565.028	8037.92
565.39	8030.01
565.753	8072.5
566.115	8136.45
566.477	8161.08
566.839	8144.59
567.201	8250.12
567.563	8258.94
567.925	8274.53
568.287	8258.94
568.648	8298.26
569.01	8367.18
569.372	8404.92
569.734	8400.85
570.095	8514.07
570.457	8497.57
570.819	8528.31
571.18	8531.47
571.542	8655.99
571.903	8610.56
572.265	8707.51
572.626	8715.65
572.987	8796.1
573.349	8795.87
573.71	8867.05
574.071	8806.94
574.432	8931.69
574.794	9003.32
575.155	9039.93
575.516	9034.51
575.877	9147.05
576.238	9142.98
576.599	9282.86
576.96	9304.56
577.32	9346.14
577.681	9489.41
578.042	9583.42
578.403	9581.16
578.763	9679.69
579.124	9713.36
579.485	9890.98
579.845	10018.66
580.206	10049.17
580.566	10120.81
580.927	10258.88
581.287	10396.73
581.648	10426.79
582.008	10624.75
582.368	10709.04
582.728	10822.03
583.089	10993.78
583.449	11161.91
583.809	11294.56
584.169	11427.44
584.529	11540.66
584.889	11874.66
585.249	11909.01
585.609	11993.75
585.969	12296.12
586.329	12451.59
586.688	12707.41
587.048	12807.52
587.408	13005.48
587.768	13162.08
588.127	13326.15
588.487	13626.48
588.846	13962.29
589.206	14090.42
589.565	14268.49
589.925	14739.67
590.284	14741.7
590.643	15128.36
591.003	15357.05
591.362	15709.81
591.721	16002.91
592.08	16222.57
592.44	16445.16
592.799	16720.63
593.158	16955.2
593.517	17326.72
593.876	17600.61
594.235	17812.13
594.593	18238.56
594.952	18511.32
595.311	18596.74
595.67	19043.96
596.029	19427.91
596.387	19699.76
596.746	20159.64
597.104	20281.9
597.463	20465.17
597.822	20825.16
598.18	21035.32
598.538	21365.03
598.897	21751.69
599.255	21828.97
599.613	22472.57
599.972	22471.22
600.33	22979.23
600.688	23178.54
601.046	23539.21
601.404	23919.54
601.762	24081.57
602.12	24502.35
602.478	24773.3
602.836	25090.36
603.194	25156.8
603.552	25559.5
603.91	25709.1
604.268	26134.62
604.625	26378.68
604.983	26647.6
605.341	26880.82
605.698	27273.58
606.056	27545.89
606.413	27752.43
606.771	28036.27
607.128	28453.43
607.485	28458.18
607.843	28777.94
608.2	29007.09
608.557	29400.3
608.914	29443.69
609.272	29763.45
609.629	30153.27
609.986	30460.61
610.343	30352.14
610.7	30758.91
611.057	31022.86
611.414	31009.52
611.771	31363.19
612.127	31636.4
612.484	31744.87
612.841	32107.35
613.198	32248.14
613.554	32395.48
613.911	32694
614.267	32757.73
614.624	33042.92
614.98	33173.31
615.337	33489.01
615.693	33723.8
616.05	33715.22
616.406	33966.28
616.762	34047.41
617.118	34288.08
617.475	34440.17
617.831	34609.65
618.187	34747.28
618.543	34884
618.899	35250.99
619.255	35303.65
619.611	35287.15
619.967	35585.67
620.323	35744.99
620.678	35734.37
621.034	35841.94
621.39	35944.54
621.746	35863.86
622.101	36500.9
622.457	36302.49
622.812	36481.47
623.168	36687.34
623.523	36695.7
623.879	36894.34
624.234	36716.72
624.589	37004.17
624.945	36952.42
625.3	37085.75
625.655	37223.82
626.01	37314.67
626.365	37594.89
626.72	37415.46
627.075	37621.55
627.43	37629.69
627.785	37751.49
628.14	37779.97
628.495	37771.83
628.85	37882.79
629.205	37799.4
629.559	38250.92
629.914	37979.96
630.269	38011.6
630.623	38018.15
630.978	38095.89
631.332	38160.75
631.687	38196.68
632.041	38110.58
632.396	38435.32
632.75	38194.87
633.104	38207.98
633.459	38146.29
633.813	38337.24
634.167	38375.21
634.521	38280.52
634.875	38422.44
635.229	38356
635.583	38224.25
635.937	38229.67
636.291	38323.23
636.645	38425.37
636.999	38339.27
637.352	38322.1
637.706	38138.15
638.06	38510.8
638.413	38343.34
638.767	38214.76
639.121	38376.79
639.474	38117.81
639.828	38204.36
640.181	38373.85
640.534	38379.05
640.888	38199.39
641.241	38239.16
641.594	38233.97
641.947	38407.97
642.301	38330.24
642.654	38245.49
643.007	38286.62
643.36	38170.47
643.713	38334.53
644.066	38414.98
644.419	38172.5
644.771	37913.3
645.124	37659.29
645.477	37618.62
645.83	37411.62
646.182	37178.17
646.535	37128.23
646.888	37252.98
647.24	37056.6
647.593	37247.78
647.945	37310.83
648.298	37102.7
648.65	36963.04
649.002	36890.72
649.355	37048.46
649.707	37065.86
650.059	37193.77
650.411	37547.2
650.763	37650.25
651.115	38154.65
651.467	37999.4
651.819	38007.98
652.171	37968.89
652.523	37748.56
652.875	37820.42
653.227	37838.27
653.578	37984.48
653.93	37910.59
654.282	37730.48
654.633	37613.87
654.985	37759.4
655.337	37730.25
655.688	37780.65
656.039	37795.56
656.391	37598.05
656.742	37720.31
657.094	37756.24
657.445	37835.56
657.796	37773.19
658.147	37639.41
658.498	37697.94
658.849	37768.89
659.2	37682.34
659.551	37657.48
659.902	37786.52
660.253	37592.63
660.604	37832.17
660.955	37579.07
661.306	37611.16
661.656	37693.19
662.007	37676.02
662.358	37655.45
662.708	37634.43
663.059	37663.36
663.409	37500.88
663.76	37695.22
664.11	37586.07
664.461	37803.02
664.811	37640.54
665.161	37669.24
665.511	37556.02
665.862	37642.57
666.212	37650.25
666.562	37734.32
666.912	37682.12
667.262	37639.86
667.612	37576.36
667.962	37614.55
668.312	37552.18
668.662	37815.45
669.011	37648.22
669.361	37559.41
669.711	37538.17
670.06	37541.56
670.41	37470.6
670.76	37498.62
671.109	37517.6
671.459	37545.85
671.808	37480.54
672.157	37558.5
672.507	37380.66
672.856	37383.82
673.205	37421.56
673.554	37469.01
673.904	37264.95
674.253	37606.41
674.602	37459.52
674.951	36931.4
675.3	36819.99
675.649	37345.18
675.998	37467.43
676.346	37397.38
676.695	37510.14
677.044	37222.02
677.393	37358.28
677.741	37350.83
678.09	37323.48
678.438	37087.1
678.787	37229.7
679.135	37265.63
679.484	37003.72
679.832	37267.89
680.181	37002.59
680.529	37036.26
680.877	37065.64
681.225	37135.92
681.573	37239.19
681.922	36922.81
682.27	36875.36
682.618	36935.92
682.966	36838.75
683.314	36937.73
683.661	36703.61
684.009	36584.97
684.357	36697.28
684.705	36520.57
685.053	36590.39
685.4	36443.96
685.748	36347.69
686.095	36285.09
686.443	36214.13
686.79	36211.87
687.138	36274.92
687.485	36290.74
687.832	36045.1
688.18	36255.26
688.527	35923.74
688.874	35846.23
689.221	35792.9
689.568	35764.43
689.915	35702.28
690.262	35700.7
690.609	35589.52
690.956	35540.7
691.303	35515.85
691.65	35367.83
691.997	35382.06
692.344	35172.8
692.69	35113.6
693.037	35082.64
693.383	34927.16
693.73	34870.67
694.077	34828.63
694.423	34747.73
694.769	34690.33
695.116	34608.53
695.462	34529.21
695.808	34552.48
696.155	34548.64
696.501	34319.49
696.847	34392.26
697.193	34020.07
697.539	34262.32
697.885	33892.84
698.231	33729.23
698.577	33790.47
698.923	33722.45
699.269	33594.31
699.614	33510.02
699.96	33473.87
700.306	33479.97
700.651	33277.94
700.997	33221.44
701.342	33254.44
701.688	33129.47
702.033	32961.34
702.379	33025.52
702.724	32979.42
703.069	33083.14
703.415	32612.87
703.76	32684.51
704.105	32737.61
704.45	32479.77
704.795	32383.5
705.14	32316.16
705.485	32326.78
705.83	32117.74
706.175	32209.72
706.52	32131.98
706.865	32072.09
707.209	32034.58
707.554	31870.74
707.899	31901.93
708.243	31599.79
708.588	31663.07
708.932	31408.84
709.277	31464.65
709.621	31414.94
709.966	31260.82
710.31	31153.93
710.654	31012.69
710.998	31134.49
711.342	31066.47
711.687	31091.33
712.031	30953.93
712.375	30972.24
712.719	30809.3
713.063	30712.58
713.407	30854.27
713.75	30712.58
714.094	30781.51
714.438	30701.06
714.782	30509.65
715.125	30414.96
715.469	30510.1
715.812	30311.01
716.156	30307.17
716.499	30251.35
716.843	30217.45
717.186	29942.21
717.53	30189.66
717.873	30111.02
718.216	29966.16
718.559	29976.33
718.902	29725.04
719.246	29796.67
719.589	29758.94
719.932	29758.03
720.275	29627.19
720.617	29652.05
720.96	29560.75
721.303	29543.57
721.646	29534.31
721.989	29322.11
722.331	29449.11
722.674	29321.21
723.016	29378.83
723.359	29244.15
723.701	29386.52
724.044	29111.27
724.386	28971.84
724.729	29099.52
725.071	28978.39
725.413	29005.51
725.755	29047.32
726.097	28848.9
726.439	28822.24
726.782	28824.95
727.124	28833.54
727.465	28723.71
727.807	28682.58
728.149	28593.77
728.491	28671.96
728.833	28585.41
729.175	28618.17
729.516	28474.22
729.858	28331.4
730.199	28474.9
730.541	28338.41
730.882	28278.75
731.224	28344.73
731.565	28211.18
731.906	28185.64
732.248	28124.85
732.589	28031.3
732.93	27945.65
733.271	28008.47
733.612	27997.17
733.953	27998.08
734.294	27829.27
734.635	27812.09
734.976	27807.12
735.317	27619.56
735.658	27718.31
735.999	27639.22
736.339	27528.26
736.68	27637.18
737.021	27558.77
737.361	27437.41
737.702	27526
738.042	27480.58
738.383	27380.69
738.723	27505.66
739.063	27340.92
739.404	27357.87
739.744	27225.67
740.084	27357.87
740.424	27307.7
740.764	27191.32
741.104	27291.2
741.444	27120.59
741.784	27010.53
742.124	27092.34
742.464	26989.29
742.804	26855.73
743.143	26810.76
743.483	26917.88
743.823	26678.56
744.162	26833.36
744.502	26786.13
744.841	26704.78
745.181	26938.9
745.52	26646.47
745.86	26705.46
746.199	26606.25
746.538	26583.2
746.877	26655.29
747.216	26567.15
747.556	26554.5
747.895	26599.02
748.234	26406.93
748.573	26291
748.911	26382.98
749.25	26334.62
749.589	26241.97
749.928	26267.95
750.267	26242.19
750.605	26192.25
750.944	26061.63
751.283	25994.74
751.621	26018.69
751.96	25956.1
752.298	25873.61
752.636	25759.94
752.975	25663
753.313	25735.99
753.651	25846.04
753.989	25529.22
754.327	25612.83
754.666	25515.43
755.004	25494.64
755.342	25588.65
755.679	25464.36
756.017	25228.21
756.355	25375.1
756.693	25318.6
757.031	25399.73
757.368	25171.94
757.706	25143.46
758.044	25056.46
758.381	25094.2
758.719	24990.7
759.056	25009
759.394	24880.87
759.731	24666.41
760.068	24681.55
760.405	24690.59
760.743	24729.01
761.08	24624.61
761.417	24548
761.754	24435.23
762.091	24432.07
762.428	24316.37
762.765	24159.99
763.102	24299.42
763.438	24033.44
763.775	24017.62
764.112	24018.07
764.449	23916.38
764.785	23838.64
765.122	23655.14
765.458	23613.11
765.795	23679.77
766.131	23484.98
766.467	23514.35
766.804	23414.92
767.14	23270.07
767.476	23307.13
767.812	23245.89
768.148	23145.78
768.485	23150.52
768.821	22923.41
769.157	22874.82
769.492	22964.31
769.828	22829.4
770.164	22645.22
770.5	22556.86
770.836	22502.4
771.171	22365.01
771.507	22316.87
771.842	22226.25
772.178	22211.79
772.513	22105.58
772.849	22059.93
773.184	21904.23
773.519	21933.15
773.855	21786.72
774.19	21755.76
774.525	21762.31
774.86	21677.79
775.195	21592.14
775.53	21459.27
775.865	21405.71
776.2	21222.21
776.535	21142.66
776.87	21045.27
777.205	21004.59
777.539	20938.6
777.874	21140.4
778.209	20840.3
778.543	20849.11
778.878	20690.47
779.212	20543.13
779.547	20529.57
779.881	20575
780.215	20468.11
780.55	20457.94
780.884	20286.64
781.218	20358.5
781.552	20228.34
781.886	20131.39
782.22	19961.9
782.554	19903.6
782.888	19775.92
783.222	19690.73
783.556	19638.52
783.889	19559.88
784.223	19372.77
784.557	19364.18
784.89	19394.01
785.224	19405.31
785.557	19289.61
785.891	19143.39
786.224	19141.81
786.558	19061.36
786.891	18931.42
787.224	18943.4
787.557	18813.01
787.891	18701.15
788.224	18775.04
788.557	18734.14
788.89	18681.03
789.223	18616.18
789.556	18507.71
789.888	18448.05
790.221	18360.82
790.554	18351.55
790.887	18209.86
791.219	18058.23
791.552	18097.77
791.884	18029.3
792.217	18019.81
792.549	17910.43
792.882	17839.93
793.214	17764.22
793.546	17805.58
793.879	17637.45
794.211	17490.11
794.543	17559.71
794.875	17507.51
795.207	17535.08
795.539	17433.84
795.871	17418.47
796.203	17205.59
796.535	17134.63
796.867	17162.43
797.198	17099.83
797.53	17096.44
797.862	16947.52
798.193	16966.28
798.525	16937.13
798.856	16896.45
799.188	16756.79
799.519	16738.49
799.85	16601.77
800.182	16615.1
800.513	16525.84
800.844	16406.29
801.175	16518.83
801.506	16463.47
801.837	16357.03
802.168	16340.08
802.499	16280.42
802.83	16195.45
803.161	16125.62
803.491	16137.37
803.822	16097.15
804.153	16040.43
804.483	15895.57
804.814	15806.76
805.145	15934.67
805.475	15814.44
805.805	15691.06
806.136	15704.84
806.466	15744.39
806.796	15652.19
807.126	15532.64
807.457	15512.08
807.787	15528.8
808.117	15540.1
808.447	15386.66
808.777	15416.04
809.107	15389.82
809.436	15343.95
809.766	15223.5
810.096	15264.85
810.426	15208.36
810.755	15164.52
811.085	15141.92
811.414	15039.32
811.744	14935.14
812.073	14914.13
812.403	14993.9
812.732	14855.37
813.061	14844.75
813.39	14784.41
813.719	14755.71
814.049	14814.47
814.378	14682.04
814.707	14680.69
815.036	14612.44
815.365	14520.01
815.693	14341.49
816.022	14481.14
816.351	14377.64
816.68	14311.66
817.008	14446.57
817.337	14318.89
817.665	14275.27
817.994	14322.05
818.322	14235.05
818.651	14206.58
818.979	14176.07
819.307	14236.41
819.636	14108.27
819.964	14013.36
820.292	14129.97
820.62	14101.04
820.948	14001.61
821.276	14009.07
821.604	13997.99
821.932	14059.23
822.259	14018.56
822.587	13871.44
822.915	13966.81
823.243	14003.87
823.57	13896.98
823.898	13923.19
824.225	13875.06
824.553	13892.91
824.88	13920.71
825.207	13939.24
825.535	13857.43
825.862	13990.54
826.189	13893.36
826.516	14010.87
826.843	13927.94
827.17	13888.84
827.497	14011.1
827.824	13939.01
828.151	13873.93
828.478	13891.33
828.805	14008.16
829.131	13827.6
829.458	13901.5
829.785	13786.25
830.111	13858.34
830.438	13841.61
830.764	13903.08
831.09	13928.39
831.417	13823.31
831.743	13869.86
832.069	13814.04
832.395	13752.8
832.722	13804.55
833.048	13788.28
833.374	13770.65
833.7	13672.58
834.026	13657.66
834.351	13741.5
834.677	13676.65
835.003	13709.19
835.329	13718.9
835.654	13633.48
835.98	13657.89
836.306	13564.11
836.631	13572.24
836.956	13623.54
837.282	13635.29
837.607	13530.66
837.932	13428.07
838.258	13494.28
838.583	13569.53
838.908	13395.07
839.233	13426.94
839.558	13408.4
839.883	13344.9
840.208	13341.06
840.533	13298.8
840.858	13272.36
841.182	13252.48
841.507	13240.5
841.832	13198.69
842.156	13196.88
842.481	13215.42
842.805	13162.31
843.13	13091.8
843.454	13094.06
843.778	13065.59
844.103	12976.78
844.427	12930.45
844.751	12968.19
845.075	12934.52
845.399	12920.73
845.723	12806.84
846.047	12834.41
846.371	12789.66
846.695	12715.77
847.019	12650.91
847.343	12591.7
847.666	12558.94
847.99	12495.66
848.313	12400.97
848.637	12392.84
848.96	12310.13
849.284	12286.63
849.607	12241.66
849.931	12204.14
850.254	12138.61
850.577	12071.72
850.9	12008.67
851.223	11986.3
851.546	11882.57
851.869	11891.83
852.192	11942.91
852.515	11736.81
852.838	11753.76
853.161	11703.82
853.483	11711.27
853.806	11641.45
854.129	11673.31
854.451	11560.77
854.774	11509.25
855.096	11490.04
855.419	11510.6
855.741	11467.44
856.063	11384.73
856.385	11308.12
856.708	11354.9
857.03	11281.23
857.352	11300.66
857.674	11201.91
857.996	11174.56
858.318	11149.03
858.64	11050.73
858.961	11091.86
859.283	11041.01
859.605	10963.95
859.926	10939.54
860.248	11015.25
860.57	10861.35
860.891	10918.3
861.212	10861.35
861.534	10821.81
861.855	10783.61
862.176	10807.57
862.498	10807.34
862.819	10778.19
863.14	10743.16
863.461	10669.95
863.782	10693
864.103	10683.96
864.424	10625.88
864.745	10650.74
865.065	10560.57
865.386	10559.44
865.707	10591.98
866.027	10532.1
866.348	10562.83
866.668	10480.57
866.989	10481.48
867.309	10446.67
867.63	10468.82
867.95	10387.92
868.27	10302.27
868.59	10363.29
868.91	10389.73
869.23	10327.81
869.55	10299.33
869.87	10354.93
870.19	10302.72
870.51	10291.2
870.83	10281.03
871.15	10228.83
871.469	10199.68
871.789	10267.02
872.109	10166
872.428	10208.04
872.748	10134.82
873.067	10140.24
873.386	10173.46
873.706	10115.16
874.025	10163.29
874.344	9992.9
874.663	10077.42
874.982	10092.79
875.301	10118.77
875.62	9982.73
875.939	9943.18
876.258	9944.31
876.577	9941.15
876.896	9924.2
877.214	9860.25
877.533	9912
877.852	9912.68
878.17	9861.61
878.489	9911.77
878.807	9838.78
879.125	9776.41
879.444	9826.8
879.762	9822.28
880.08	9801.27
880.398	9706.58
880.716	9785.67
881.034	9730.76
881.352	9747.71
881.67	9700.25
881.988	9700.93
882.306	9683.98
882.624	9625.23
882.941	9619.58
883.259	9564.89
883.577	9593.82
883.894	9591.56
884.212	9491.22
884.529	9461.62
884.846	9474.27
885.164	9421.62
885.481	9420.03
885.798	9511.78
886.115	9419.58
886.432	9357.44
886.75	9287.61
887.067	9362.86
887.383	9291.45
887.7	9296.87
888.017	9255.75
888.334	9266.59
888.651	9273.82
888.967	9216.42
889.284	9163.09
889.6	9174.39
889.917	9112.92
890.233	9117.22
890.55	9051.68
890.866	9087.16
891.182	9053.72
891.498	9007.39
891.815	8898.92
892.131	8886.94
892.447	8860.73
892.763	8820.95
893.079	8895.3
893.395	8791.35
893.71	8731.47
894.026	8744.8
894.342	8809.66
894.657	8741.18
894.973	8700.73
895.289	8693.95
895.604	8629.77
895.92	8594.52
896.235	8546.16
896.55	8594.07
896.865	8550.68
897.181	8540.06
897.496	8521.53
897.811	8440.85
898.126	8423.9
898.441	8424.58
898.756	8383.23
899.071	8317.92
899.386	8330.8
899.7	8302.32
900.015	8197.47
900.33	8206.96
900.644	8176.45
900.959	8192.27
901.273	8128.32
901.588	8088.54
901.902	8060.52
902.216	8055.32
902.531	7945.72
902.845	8004.7
903.159	7977.13
903.473	7896.69
903.787	7897.59
904.101	7820.53
904.415	7824.6
904.729	7780.98
905.042	7670.7
905.356	7707.99
905.67	7678.16
905.984	7643.36
906.297	7624.38
906.611	7599.29
906.924	7553.42
907.237	7579.86
907.551	7544.38
907.864	7470.71
908.177	7501.67
908.491	7505.51
908.804	7429.13
909.117	7378.05
909.43	7386.87
909.743	7288.57
910.056	7355.68
910.368	7231.17
910.681	7290.6
910.994	7164.27
911.307	7143.48
911.619	7165.4
911.932	7136.25
912.244	7046.54
912.557	7071.17
912.869	7077.5
913.181	7070.49
913.494	7028.23
913.806	6918.63
914.118	6918.86
914.43	6884.51
914.742	6882.02
915.054	6836.37
915.366	6818.75
915.678	6830.05
915.99	6772.87
916.302	6703.72
916.613	6745.98
916.925	6697.39
917.236	6640.45
917.548	6630.96
917.859	6628.24
918.171	6533.11
918.482	6497.4
918.794	6461.69
919.105	6487.68
919.416	6438.87
919.727	6425.54
920.038	6425.09
920.349	6348.7
920.66	6355.26
920.971	6328.59
921.282	6298.08
921.593	6263.73
921.903	6260.34
922.214	6174.92
922.525	6169.27
922.835	6173.57
923.146	6126.11
923.456	6126.34
923.767	6074.36
924.077	6130.86
924.387	6026.68
924.697	6048.6
925.008	5973.8
925.318	5964.31
925.628	5933.57
925.938	5941.26
926.248	5862.61
926.558	5806.8
926.867	5848.15
927.177	5771.77
927.487	5815.16
927.796	5754.59
928.106	5803.18
928.416	5735.61
928.725	5715.95
929.034	5651.55
929.344	5643.18
929.653	5623.3
929.962	5595.73
930.271	5589.4
930.581	5514.15
930.89	5512.34
931.199	5483.42
931.508	5480.93
931.817	5459.91
932.125	5424.89
932.434	5456.3
932.743	5362.51
933.051	5339.46
933.36	5341.05
933.669	5327.26
933.977	5290.2
934.286	5242.52
934.594	5264.89
934.902	5233.03
935.21	5236.42
935.519	5189.19
935.827	5153.93
936.135	5144.44
936.443	5096.76
936.751	5070.77
937.059	5029.42
937.367	5038.23
937.674	5009.3
937.982	4993.48
938.29	4990.77
938.597	5009.98
938.905	4955.97
939.213	4895.86
939.52	4927.5
939.827	4901.96
940.135	4878.01
940.442	4849.08
940.749	4813.38
941.056	4830.55
941.363	4765.02
941.67	4779.25
941.977	4735.41
942.284	4718.24
942.591	4682.31
942.898	4667.62
943.205	4689.31
943.511	4619.03
943.818	4600.27
944.125	4578.13
944.431	4569.31
944.738	4541.07
945.044	4515.98
945.35	4498.58
945.657	4530.9
945.963	4468.53
946.269	4437.11
946.575	4430.79
946.881	4410.45
947.187	4417.23
947.493	4363.22
947.799	4387.17
948.105	4336.55
948.41	4334.97
948.716	4304.24
949.022	4275.31
949.327	4268.53
949.633	4250.23
949.938	4220.4
950.244	4195.09
950.549	4174.3
950.854	4194.18
951.16	4154.86
951.465	4154.41
951.77	4106.28
952.075	4114.86
952.38	4071.93
952.685	4086.16
952.99	4075.32
953.294	4028.09
953.599	4035.32
953.904	3966.84
954.209	3950.35
954.513	3954.87
954.818	3960.74
955.122	3938.6
955.426	3887.98
955.731	3889.78
956.035	3876
956.339	3817.92
956.643	3802.1
956.948	3811.59
957.252	3795.55
957.556	3792.39
957.86	3808.2
958.163	3736.79
958.467	3750.13
958.771	3749.68
959.075	3744.7
959.378	3683.24
959.682	3713.52
959.985	3671.71
960.289	3612.28
960.592	3624.25
960.896	3659.96
961.199	3626.97
961.502	3577.93
961.805	3562.34
962.108	3532.51
962.411	3559.17
962.714	3516.46
963.017	3491.38
963.32	3556.46
963.623	3487.08
963.926	3456.35
964.228	3479.4
964.531	3444.15
964.833	3442.11
965.136	3380.42
965.438	3379.06
965.741	3380.42
966.043	3363.47
966.345	3314.21
966.648	3306.75
966.95	3354.43
967.252	3331.61
967.554	3287.09
967.856	3264.26
968.158	3273.3
968.46	3278.05
968.761	3253.64
969.063	3211.38
969.365	3189.24
969.666	3228.79
969.968	3203.48
970.269	3196.7
970.571	3156.7
970.872	3150.82
971.174	3113.53
971.475	3082.12
971.776	3102.23
972.077	3088.68
972.378	3090.26
972.679	3069.47
972.98	3024.27
973.281	3048.9
973.582	3046.19
973.883	3015.68
974.183	2977.72
974.484	2995.8
974.785	2949.47
975.085	2942.24
975.386	2895.91
975.686	2926.42
975.986	2900.43
976.287	2883.48
976.587	2891.84
976.887	2854.78
977.187	2861.56
977.487	2849.81
977.787	2855.46
978.087	2857.72
978.387	2801.9
978.687	2834.22
978.987	2801.23
979.286	2746.31
979.586	2735.46
979.885	2777.95
980.185	2735.92
980.484	2719.42
980.784	2725.52
981.083	2692.53
981.382	2705.64
981.682	2682.58
981.981	2629.48
982.28	2669.7
982.579	2665.41
982.878	2634.22
983.177	2602.59
983.475	2561.68
983.774	2574.57
984.073	2570.72
984.372	2596.71
984.67	2531.18
984.969	2560.33
985.267	2539.99
985.566	2529.14
985.864	2485.75
986.162	2523.04
986.461	2503.61
986.759	2480.78
987.057	2468.35
987.355	2464.06
987.653	2461.35
987.951	2448.01
988.249	2446.43
988.547	2400.56
988.844	2417.28
989.142	2398.52
989.44	2403.72
989.737	2370.28
990.035	2347.68
990.332	2341.58
990.63	2360.79
990.927	2367.56
991.224	2312.65
991.521	2333.89
991.819	2284.86
992.116	2287.57
992.413	2289.6
992.71	2275.36
993.006	2275.36
993.303	2242.14
993.6	2239.43
993.897	2239.66
994.193	2220.9
994.49	2212.77
994.787	2200.11
995.083	2175.48
995.379	2196.04
995.676	2174.35
995.972	2156.72
996.268	2140.9
996.565	2118.98
996.861	2112.66
997.157	2135.03
997.453	2116.05
997.749	2104.75
998.044	2118.98
998.34	2081.7
998.636	2036.27
998.932	2031.98
999.227	2032.88
999.523	2026.1
999.818	2030.62
1000.114	2018.2
1000.409	2025.65
1000.704	2013.45
1001	2010.74
1001.295	1994.24
1001.59	1950.4
1001.885	1963.73
1002.18	1957.41
1002.475	1952.66
1002.77	1934.36
1003.065	1896.16
1003.359	1881.25
1003.654	1919.89
1003.949	1897.52
1004.243	1860.46
1004.538	1851.42
1004.832	1835.38
1005.127	1846
1005.421	1816.17
1005.715	1810.07
1006.009	1834.7
1006.304	1796.51
1006.598	1794.02
1006.892	1790.18
1007.186	1753.57
1007.48	1747.47
1007.773	1765.09
1008.067	1783.17
1008.361	1718.77
1008.655	1714.02
1008.948	1713.34
1009.242	1719.22
1009.535	1677.41
1009.829	1682.16
1010.122	1669.96
1010.415	1656.85
1010.708	1660.92
1011.001	1636.74
1011.295	1622.73
1011.588	1602.61
1011.881	1631.54
1012.173	1603.52
1012.466	1602.61
1012.759	1596.96
1013.052	1601.03
1013.344	1603.29
1013.637	1579.11
1013.93	1554.7
1014.222	1535.95
1014.514	1523.75
1014.807	1522.84
1015.099	1502.28
1015.391	1492.11
1015.683	1491.43
1015.976	1515.84
1016.268	1476.97
1016.56	1467.02
1016.851	1450.07
1017.143	1480.13
1017.435	1454.59
1017.727	1461.37
1018.018	1441.26
1018.31	1447.36
1018.602	1432
1018.893	1388.83
1019.185	1389.06
1019.476	1356.52
1019.767	1401.71
1020.058	1385.44
1020.35	1369.63
1020.641	1347.25
1020.932	1341.15
1021.223	1338.44
1021.514	1318.55
1021.804	1312.9
1022.095	1341.15
1022.386	1317.87
1022.677	1290.08
1022.967	1278.55
1023.258	1277.42
1023.548	1269.97
1023.839	1246.69
1024.129	1270.87
1024.419	1232.91
1024.709	1232.45
1025	1244.2
1025.29	1221.61
1025.58	1209.4
1025.87	1198.1
1026.16	1185.68
1026.449	1208.5
1026.739	1179.57
1027.029	1205.56
1027.319	1165.56
1027.608	1178.67
1027.898	1169.4
1028.187	1167.6
1028.477	1152.91
1028.766	1128.73
1029.055	1127.37
1029.344	1113.81
1029.634	1121.95
1029.923	1106.13
1030.212	1094.83
1030.501	1115.17
1030.79	1098.22
1031.078	1083.53
1031.367	1069.29
1031.656	1042.63
1031.945	1050.76
1032.233	1050.76
1032.522	1073.14
1032.81	1051.22
1033.099	1018.67
1033.387	1011.44
1033.675	1010.54
1033.963	1001.5
1034.251	1032.23
1034.54	1013.93
1034.828	986.13
1035.116	968.51
1035.403	971.22
1035.691	973.25
1035.979	967.15
1036.267	946.36
1036.554	955.4
1036.842	940.48
1037.129	932.12
1037.417	935.51
1037.704	933.93
1037.992	943.65
1038.279	924.89
1038.566	911.11
1038.853	911.11
1039.14	911.11
