Data from hue_120_FLMS001491_00018.txt Node
Date: Tue Feb 07 16:59:00 GMT 2017
User: dcchb
Spectrometer: FLMS00149
Trigger mode: 0
Integration Time (sec): 2.000000E-2
Scans to average: 10
Electric dark correction enabled: true
Nonlinearity correction enabled: false
Boxcar width: 0
XAxis mode: Wavelengths
Number of Pixels in Spectrum: 2048
>>>>>Begin Spectral Data<<<<<
341.393	-10.03
341.776	-10.03
342.16	-10.03
342.543	-59.07
342.927	-73.08
343.31	-47.77
343.693	-53.42
344.077	-51.61
344.46	-65.62
344.843	-48.9
345.226	-39.18
345.61	-51.61
345.993	-21.78
346.376	2.85
346.759	-2.12
347.142	23.87
347.525	29.97
347.908	41.27
348.291	83.53
348.674	88.5
349.057	112
349.44	128.27
349.823	146.13
350.206	162.4
350.588	199.01
350.971	204.2
351.354	220.02
351.737	232.68
352.119	239.01
352.502	260.7
352.884	234.49
353.267	281.26
353.65	295.05
354.032	305.67
354.414	302.51
354.797	305.67
355.179	311.77
355.562	321.04
355.944	326.46
356.326	330.98
356.709	334.14
357.091	341.6
357.473	338.44
357.855	348.15
358.238	342.51
358.62	339.79
359.002	331.21
359.384	350.64
359.766	331.66
360.148	322.17
360.53	346.8
360.912	295.27
361.294	353.13
361.676	344.31
362.057	343.18
362.439	347.48
362.821	318.32
363.203	334.82
363.584	322.62
363.966	344.99
364.348	311.55
364.729	322.62
365.111	318.78
365.493	326.69
365.874	295.05
366.256	334.14
366.637	314.26
367.019	318.32
367.4	319.91
367.781	296.18
368.163	311.09
368.544	315.61
368.925	305.9
369.306	315.39
369.688	303.64
370.069	282.39
370.45	301.15
370.831	304.54
371.212	333.01
371.593	319
371.974	322.39
372.355	334.6
372.736	319
373.117	311.09
373.498	306.57
373.879	328.95
374.26	312.9
374.641	328.72
375.021	334.37
375.402	309.51
375.783	318.1
376.163	313.81
376.544	340.92
376.925	333.92
377.305	301.38
377.686	335.73
378.066	321.26
378.447	340.47
378.827	335.73
379.208	331.88
379.588	327.36
379.968	329.85
380.349	332.56
380.729	336.63
381.109	351.32
381.489	339.57
381.87	350.87
382.25	329.17
382.63	348.61
383.01	356.74
383.39	352.22
383.77	357.42
384.15	342.51
384.53	347.48
384.91	347.02
385.29	360.81
385.67	358.32
386.049	378.66
386.429	358.55
386.809	359.68
387.189	362.17
387.568	352.9
387.948	337.76
388.328	366.23
388.707	356.97
389.087	352.45
389.466	358.78
389.846	350.64
390.225	389.51
390.605	376.18
390.984	379.34
391.363	374.37
391.743	387.02
392.122	392.67
392.501	378.66
392.881	376.4
393.26	401.03
393.639	378.66
394.018	394.71
394.397	363.07
394.776	394.26
395.155	400.58
395.534	384.99
395.913	402.62
396.292	390.87
396.671	423.63
397.05	408.27
397.429	415.72
397.808	400.36
398.186	392.45
398.565	413.24
398.944	419.34
399.323	422.05
399.701	396.74
400.08	420.02
400.458	417.98
400.837	408.49
401.215	406.68
401.594	428.83
401.972	430.86
402.351	420.24
402.729	412.33
403.107	400.81
403.486	432.22
403.864	434.71
404.242	414.82
404.62	434.71
404.999	429.28
405.377	440.58
405.755	448.04
406.133	441.94
406.511	444.42
406.889	466.8
407.267	478.32
407.645	472.22
408.023	464.54
408.401	489.85
408.779	453.01
409.156	449.39
409.534	473.58
409.912	480.58
410.29	475.83
410.667	479.68
411.045	502.95
411.422	467.7
411.8	502.95
412.178	474.93
412.555	529.39
412.933	501.6
413.31	510.86
413.687	517.19
414.065	523.29
414.442	506.34
414.819	537.75
415.197	535.49
415.574	536.85
415.951	526.46
416.328	537.98
416.705	544.99
417.082	553.12
417.46	539.11
417.837	543.86
418.214	523.52
418.591	556.74
418.967	566.68
419.344	584.31
419.721	551.99
420.098	554.93
420.475	580.46
420.852	581.59
421.228	561.93
421.605	574.82
421.982	574.14
422.358	598.09
422.735	599.9
423.111	594.7
423.488	581.82
423.864	599.67
424.241	621.14
424.617	626.34
424.994	622.95
425.37	622.05
425.746	618.2
426.123	630.41
426.499	634.47
426.875	629.28
427.251	643.06
427.627	652.1
428.003	664.3
428.379	683.97
428.756	681.03
429.132	692.78
429.507	696.85
429.883	682.84
430.259	675.6
430.635	709.73
431.011	719.44
431.387	694.59
431.763	729.16
432.138	712.66
432.514	729.84
432.89	743.85
433.265	763.74
433.641	759.9
434.016	772.1
434.392	775.04
434.767	784.53
435.143	798.54
435.518	799.67
435.894	774.81
436.269	797.63
436.644	796.28
437.02	817.29
437.395	826.33
437.77	807.13
438.145	862.94
438.52	865.2
438.895	867.69
439.271	831.76
439.646	852.55
440.021	883.73
440.395	890.97
440.77	873.34
441.145	889.38
441.52	869.27
441.895	873.11
442.27	883.06
442.645	907.24
443.019	882.6
443.394	913.34
443.769	936.39
444.143	930.51
444.518	946.11
444.892	921.47
445.267	931.64
445.641	958.08
446.016	974.13
446.39	942.04
446.764	960.57
447.139	980
447.513	976.39
447.887	969.16
448.262	984.3
448.636	1002.6
449.01	1031.07
449.384	1028.14
449.758	1023.84
450.132	1039.89
450.506	1043.73
450.88	1038.31
451.254	1055.93
451.628	1079.89
452.002	1069.27
452.376	1091.64
452.75	1091.86
453.123	1101.13
453.497	1074.69
453.871	1116.27
454.244	1120.79
454.618	1164.4
454.992	1151.07
455.365	1185.65
455.739	1180.68
456.112	1201.01
456.486	1190.84
456.859	1241.24
457.232	1220.9
457.606	1240.33
457.979	1265.64
458.352	1284.4
458.725	1289.82
459.099	1307.23
459.472	1326.43
459.845	1335.7
460.218	1355.81
460.591	1379.99
460.964	1370.73
461.337	1407.79
461.71	1427.22
462.083	1425.64
462.456	1414.12
462.829	1463.83
463.201	1524.62
463.574	1491.4
463.947	1529.14
464.32	1568.24
464.692	1571.4
465.065	1589.7
465.438	1623.6
465.81	1653.66
466.183	1657.5
466.555	1672.19
466.928	1722.81
467.3	1704.5
467.672	1762.81
468.045	1796.93
468.417	1798.74
468.789	1819.98
469.161	1861.56
469.534	1914.67
469.906	1958.73
470.278	1950.6
470.65	1977.94
471.022	2024.04
471.394	2086.87
471.766	2117.6
472.138	2129.12
472.51	2218.16
472.882	2215.22
473.253	2296.58
473.625	2319.4
473.997	2365.28
474.369	2409.57
474.74	2478.49
475.112	2509.45
475.484	2541.54
475.855	2664.7
476.227	2685.27
476.598	2743.8
476.97	2822.89
477.341	2923
477.713	2959.39
478.084	3019.27
478.455	3101.98
478.827	3169.32
479.198	3299.72
479.569	3332.71
479.94	3439.15
480.311	3492.7
480.682	3592.14
481.053	3741.96
481.424	3836.65
481.795	3896.08
482.166	4006.36
482.537	4127.49
482.908	4223.76
483.279	4313.7
483.65	4426.69
484.021	4597.53
484.391	4677.08
484.762	4746.01
485.133	4854.25
485.503	5046.79
485.874	5171.08
486.244	5244.98
486.615	5407
486.985	5500.34
487.356	5685.64
487.726	5776.49
488.097	5972.41
488.467	6067.78
488.837	6222.8
489.207	6372.4
489.578	6507.09
489.948	6640.64
490.318	6741.66
490.688	6836.35
491.058	7020.07
491.428	7210.8
491.798	7358.59
492.168	7502.77
492.538	7643.78
492.908	7773.72
493.278	8031.12
493.648	8056.43
494.017	8219.36
494.387	8377.55
494.757	8487.6
495.126	8619.8
495.496	8771.44
495.866	8817.31
496.235	8988.61
496.605	9085.78
496.974	9249.84
497.344	9380.23
497.713	9501.81
498.082	9623.17
498.452	9711.98
498.821	9806.66
499.19	9947.68
499.559	10094.79
499.928	10183.6
500.298	10332.52
500.667	10378.17
501.036	10469.7
501.405	10607.77
501.774	10661.56
502.143	10798.05
502.512	10859.74
502.88	10978.84
503.249	11082.34
503.618	11245.27
503.987	11246.63
504.356	11331.82
504.724	11364.14
505.093	11522.55
505.462	11530.01
505.83	11697.23
506.199	11805.48
506.567	11965.02
506.936	11885.25
507.304	12047.28
507.672	12171.12
508.041	12157.56
508.409	12295.19
508.777	12356.43
509.145	12500.15
509.514	12525.01
509.882	12567.04
510.25	12612.01
510.618	12743.08
510.986	12738.79
511.354	12896.07
511.722	13026.69
512.09	13051.78
512.458	12954.83
512.826	13109.4
513.193	13129.06
513.561	13119.57
513.929	13273.92
514.297	13358.89
514.664	13463.52
515.032	13517.07
515.4	13558.65
515.767	13603.4
516.135	13769.95
516.502	13559.33
516.869	13831.19
517.237	13861.02
517.604	13806.11
517.972	13881.81
518.339	13938.98
518.706	13951.64
519.073	13964.07
519.44	14046.1
519.808	14066.44
520.175	14094.91
520.542	14236.15
520.909	14232.99
521.276	14226.21
521.643	14360.67
522.009	14345.53
522.376	14396.37
522.743	14502.36
523.11	14594.56
523.477	14646.54
523.843	14617.84
524.21	14737.15
524.577	14829.81
524.943	14770.83
525.31	14830.26
525.676	14958.84
526.043	14893.31
526.409	15031.38
526.776	15128.33
527.142	15076.35
527.508	15071.38
527.874	15079.52
528.241	15095.11
528.607	15158.84
528.973	15265.95
529.339	15227.09
529.705	15310.25
530.071	15266.18
530.437	15317.03
530.803	15249.68
531.169	15319.06
531.535	15242.45
531.901	15261.43
532.267	15293.98
532.632	15370.36
532.998	15331.49
533.364	15369.23
533.73	15340.53
534.095	15442
534.461	15370.13
534.826	15349.34
535.192	15354.77
535.557	15395.67
535.923	15407.65
536.288	15411.04
536.653	15312.06
537.019	15307.54
537.384	15281.55
537.749	15291.49
538.114	15302.11
538.479	15182.57
538.845	15181.21
539.21	15101.21
539.575	15204.26
539.94	15149.57
540.305	15096.92
540.67	15061.89
541.034	15093.08
541.399	15171.49
541.764	15037.03
542.129	15034.55
542.494	15065.06
542.858	15046.3
543.223	14958.39
543.587	14936.47
543.952	14930.82
544.316	14883.14
544.681	14825.06
545.045	14824.38
545.41	14815.34
545.774	14779.64
546.138	14732.41
546.503	14813.31
546.867	14654.22
547.231	14807.66
547.595	14721.56
547.959	14682.24
548.324	14575.8
548.688	14651.06
549.052	14666.42
549.416	14610.38
549.779	14557.5
550.143	14547.33
550.507	14584.39
550.871	14528.35
551.235	14439.31
551.599	14482.25
551.962	14409.03
552.326	14390.05
552.689	14447.44
553.053	14330.84
553.417	14314.34
553.78	14433.43
554.143	14386.43
554.507	14397.28
554.87	14300.1
555.234	14423.94
555.597	14316.15
555.96	14298.97
556.323	14306.66
556.686	14231.18
557.05	14425.52
557.413	14342.14
557.776	14302.14
558.139	14319.99
558.502	14215.13
558.865	14265.75
559.228	14327.45
559.59	14264.62
559.953	14254.23
560.316	14323.83
560.679	14304.85
561.041	14381.68
561.404	14441.57
561.767	14478.86
562.129	14339.2
562.492	14467.33
562.854	14374.45
563.217	14373.1
563.579	14344.85
563.941	14448.35
564.304	14420.33
564.666	14434.11
565.028	14383.04
565.39	14398.18
565.753	14494.68
566.115	14566.76
566.477	14519.08
566.839	14533.77
567.201	14542.36
567.563	14597.5
567.925	14643.15
568.287	14606.76
568.648	14683.14
569.01	14693.54
569.372	14699.64
569.734	14670.94
570.095	14737.38
570.457	14780.77
570.819	14745.97
571.18	14815.12
571.542	14845.85
571.903	14916.59
572.265	14888.56
572.626	14918.85
572.987	14896.7
573.349	14863.48
573.71	14967.88
574.071	15009.69
574.432	14966.3
574.794	15054.43
575.155	15076.35
575.516	15011.5
575.877	14939.86
576.238	15043.59
576.599	14999.75
576.96	15044.94
577.32	14940.09
577.681	14984.61
578.042	15060.08
578.403	15057.15
578.763	15047.88
579.124	15087.2
579.485	15148.67
579.845	15103.7
580.206	15052.63
580.566	15055.79
580.927	15033.42
581.287	15104.15
581.648	15030.03
582.008	15129.23
582.368	15121.78
582.728	15127.65
583.089	15016.47
583.449	14989.58
583.809	15009.24
584.169	15108.22
584.529	15046.53
584.889	15151.16
585.249	15063.7
585.609	14993.42
585.969	15022.8
586.329	14921.33
586.688	14942.12
587.048	14969.69
587.408	14935.12
587.768	14904.38
588.127	15008.33
588.487	14857.83
588.846	14990.26
589.206	14858.06
589.565	14876.13
589.925	14967.43
590.284	14927.21
590.643	14922.69
591.003	14893.99
591.362	14922.46
591.721	14894.21
592.08	14903.7
592.44	14813.31
592.799	14881.56
593.158	14789.13
593.517	14833.88
593.876	14853.08
594.235	14831.84
594.593	14831.62
594.952	14760.21
595.311	14819.41
595.67	14835.23
596.029	14858.73
596.387	14914.1
596.746	14903.25
597.104	14793.65
597.463	14790.94
597.822	14810.37
598.18	14733.77
598.538	14687.21
598.897	14783.26
599.255	14717.72
599.613	14880.2
599.972	14771.96
600.33	14898.51
600.688	14737.83
601.046	14893.08
601.404	14881.33
601.762	14775.35
602.12	14950.93
602.478	14849.47
602.836	14853.76
603.194	14791.39
603.552	14794.78
603.91	14734.67
604.268	14843.82
604.625	14771.05
604.983	14931.27
605.341	14768.79
605.698	14868.22
606.056	14875
606.413	14852.41
606.771	14863.93
607.128	14864.16
607.485	14810.6
607.843	14839.07
608.2	14934.44
608.557	14962.01
608.914	14811.96
609.272	14933.53
609.629	15014.89
609.986	14990.93
610.343	14960.43
610.7	15036.36
611.057	14980.54
611.414	15024.38
611.771	15031.84
612.127	15060.99
612.484	15121.78
612.841	15099.86
613.198	15026.64
613.554	15016.24
613.911	15193.64
614.267	15121.55
614.624	15033.19
614.98	15090.82
615.337	15152.06
615.693	15185.28
616.05	15031.38
616.406	15146.86
616.762	15159.97
617.118	15230.93
617.475	15101.67
617.831	15214.2
618.187	15232.51
618.543	15293.98
618.899	15297.37
619.255	15295.78
619.611	15243.58
619.967	15348.44
620.323	15314.77
620.678	15278.61
621.034	15245.39
621.39	15208.1
621.746	15251.04
622.101	15417.14
622.457	15239.74
622.812	15326.07
623.168	15331.94
623.523	15222.11
623.879	15336.91
624.234	15195
624.589	15295.56
624.945	15326.52
625.3	15293.75
625.655	15255.79
626.01	15275.9
626.365	15343.69
626.72	15305.05
627.075	15272.96
627.43	15268.21
627.785	15190.7
628.14	15246.75
628.495	15308.89
628.85	15284.71
629.205	15190.25
629.559	15352.96
629.914	15206.07
630.269	15182.57
630.623	15184.37
630.978	15152.51
631.332	15184.37
631.687	15184.37
632.041	15117.03
632.396	15152.51
632.75	15126.52
633.104	15133.53
633.459	15030.25
633.813	15054.21
634.167	15002.01
634.521	15018.05
634.875	15087.43
635.229	15013.08
635.583	15039.75
635.937	14955.68
636.291	14929.47
636.645	14937.15
636.999	14938.05
637.352	14921.56
637.706	14898.28
638.06	14921.33
638.413	14871.16
638.767	14753.88
639.121	14839.53
639.474	14799.3
639.828	14780.09
640.181	14836.59
640.534	14846.76
640.888	14719.98
641.241	14716.36
641.594	14705.29
641.947	14695.35
642.301	14649.25
642.654	14772.86
643.007	14743.93
643.36	14637.5
643.713	14599.76
644.066	14695.35
644.419	14596.82
644.771	14478.86
645.124	14327.22
645.477	14372.64
645.83	14293.1
646.182	14245.42
646.535	14085.87
646.888	14158.86
647.24	14103.27
647.593	14160.67
647.945	14184.85
648.298	14059.43
648.65	14150.28
649.002	14088.36
649.355	14082.03
649.707	14131.07
650.059	14163.61
650.411	14370.16
650.763	14264.85
651.115	14511.4
651.467	14485.64
651.819	14467.78
652.171	14466.2
652.523	14347.11
652.875	14378.75
653.227	14302.14
653.578	14440.44
653.93	14406.99
654.282	14387.33
654.633	14435.47
654.985	14410.84
655.337	14417.62
655.688	14461.91
656.039	14477.95
656.391	14333.32
656.742	14358.86
657.094	14378.97
657.445	14415.81
657.796	14443.83
658.147	14310.05
658.498	14387.11
658.849	14498.97
659.2	14348.46
659.551	14397.05
659.902	14476.14
660.253	14385.98
660.604	14367.22
660.955	14376.71
661.306	14430.72
661.656	14464.62
662.007	14367
662.358	14377.62
662.708	14418.52
663.059	14495.13
663.409	14367.45
663.76	14482.25
664.11	14358.41
664.461	14543.94
664.811	14454.45
665.161	14475.92
665.511	14404.28
665.862	14396.82
666.212	14352.53
666.562	14558.4
666.912	14439.08
667.262	14444.96
667.612	14368.35
667.962	14446.32
668.312	14443.6
668.662	14405.19
669.011	14476.14
669.361	14398.63
669.711	14392.76
670.06	14450.61
670.41	14387.11
670.76	14412.19
671.109	14449.7
671.459	14452.19
671.808	14434.34
672.157	14375.58
672.507	14320.44
672.856	14311.63
673.205	14375.36
673.554	14353.44
673.904	14321.57
674.253	14307.11
674.602	14334.45
674.951	14070.96
675.3	14004.07
675.649	14172.42
675.998	14217.62
676.346	14281.57
676.695	14221.24
677.044	14154.57
677.393	14183.05
677.741	14169.49
678.09	14184.4
678.438	14149.37
678.787	14148.92
679.135	14017.4
679.484	14032.31
679.832	14079.32
680.181	14004.97
680.529	14088.13
680.877	13978.76
681.225	13969.49
681.573	14098.75
681.922	13967.68
682.27	13903.5
682.618	13908.7
682.966	13924.52
683.314	13825.54
683.661	13930.85
684.009	13686.11
684.357	13770.17
684.705	13655.15
685.053	13697.86
685.4	13678.65
685.748	13577.19
686.095	13570.18
686.443	13463.06
686.79	13553.46
687.138	13521.14
687.485	13535.6
687.832	13494.7
688.18	13458.54
688.527	13319.79
688.874	13404.76
689.221	13313.01
689.568	13247.02
689.915	13281.15
690.262	13261.94
690.609	13248.38
690.956	13104.66
691.303	12985.56
691.65	13072.11
691.997	13087.93
692.344	12925.45
692.69	12967.94
693.037	12895.85
693.383	12757.09
693.73	12837.54
694.077	12751.44
694.423	12742.18
694.769	12760.26
695.116	12725.91
695.462	12702.63
695.808	12620.15
696.155	12576.76
696.501	12540.38
696.847	12472.58
697.193	12430.55
697.539	12469.64
697.885	12262.42
698.231	12293.6
698.577	12249.08
698.923	12250.89
699.269	12243.44
699.614	12117.79
699.96	12090.67
700.306	12078.69
700.651	11965.02
700.997	11864.91
701.342	11972.03
701.688	11798.48
702.033	11751.24
702.379	11792.83
702.724	11762.32
703.069	11790.79
703.415	11666.28
703.76	11659.04
704.105	11646.39
704.45	11595.54
704.795	11498.37
705.14	11480.29
705.485	11508.09
705.83	11506.28
706.175	11476.9
706.52	11376.34
706.865	11349
707.209	11349.22
707.554	11244.37
707.899	11265.16
708.243	11233.29
708.588	11170.24
708.932	11105.39
709.277	11072.17
709.621	11082.11
709.966	11088.44
710.31	11036.24
710.654	10868.33
710.998	10935.45
711.342	10972.28
711.687	10953.3
712.031	10827.2
712.375	10791.04
712.719	10853.42
713.063	10849.35
713.407	10880.08
713.75	10786.52
714.094	10772.97
714.438	10759.63
714.782	10731.38
715.125	10681.89
715.469	10697.49
715.812	10641.9
716.156	10567.1
716.499	10593.99
716.843	10629.24
717.186	10494.33
717.53	10553.31
717.873	10568.22
718.216	10519.64
718.559	10515.34
718.902	10326.42
719.246	10540.88
719.589	10424.05
719.932	10358.74
720.275	10403.03
720.617	10410.26
720.96	10349.7
721.303	10425.18
721.646	10398.06
721.989	10314.67
722.331	10351.06
722.674	10278.52
723.016	10331.4
723.359	10285.52
723.701	10400.77
724.044	10288.68
724.386	10186.09
724.729	10272.41
725.071	10214.11
725.413	10223.6
725.755	10259.76
726.097	10206.43
726.439	10135.47
726.782	10175.69
727.124	10230.38
727.465	10174.11
727.807	10120.1
728.149	10133.43
728.491	10078.97
728.833	10180.66
729.175	10129.14
729.516	10033.55
729.858	10057.28
730.199	10089.14
730.541	10158.97
730.882	10048.24
731.224	10078.29
731.565	10037.62
731.906	10028.8
732.248	10062.25
732.589	10047.79
732.93	9920.33
733.271	10021.57
733.612	10026.54
733.953	10079.42
734.294	10027
734.635	10043.27
734.976	10077.39
735.317	9988.13
735.658	9982.03
735.999	10008.24
736.339	10021.57
736.68	10034.45
737.021	10039.88
737.361	9960.11
737.702	10044.85
738.042	9966.21
738.383	10059.54
738.723	10020.67
739.063	9994.68
739.404	10034.68
739.744	10003.72
740.084	9999.2
740.424	10012.99
740.764	10091.63
741.104	10044.62
741.444	10027.9
741.784	10093.44
742.124	10142.7
742.464	10123.04
742.804	10093.44
743.143	10117.16
743.483	10203.71
743.823	10118.75
744.162	10169.37
744.502	10252.53
744.841	10233.09
745.181	10384.95
745.52	10346.08
745.86	10368.23
746.199	10360.77
746.538	10418.85
746.877	10506.08
747.216	10561.9
747.556	10530.94
747.895	10609.13
748.234	10640.09
748.573	10672.63
748.911	10689.58
749.25	10849.12
749.589	10859.06
749.928	10906.3
750.267	11009.12
750.605	11034.2
750.944	11169.34
751.283	11094.99
751.621	11252.5
751.96	11316
752.298	11341.76
752.636	11499.05
752.975	11609.33
753.313	11615.2
753.651	11715.31
753.989	11809.55
754.327	11988.98
754.666	11961.41
755.004	12235.3
755.342	12259.71
755.679	12486.59
756.017	12555.07
756.355	12613.14
756.693	12773.36
757.031	12904.89
757.368	13049.52
757.706	13158.21
758.044	13307.59
758.381	13453.8
758.719	13559.11
759.056	13747.58
759.394	13900.11
759.731	14000.68
760.068	14251.29
760.405	14374.45
760.743	14501.91
761.08	14736.25
761.417	14879.3
761.754	14976.92
762.091	15123.59
762.428	15222.79
762.765	15407.19
763.102	15663.01
763.438	15750.91
763.775	15861.42
764.112	16073.16
764.449	16365.36
764.785	16411.69
765.122	16470.44
765.458	16588.18
765.795	16734.39
766.131	16820.49
766.467	17042.18
766.804	17154.27
767.14	17239.46
767.476	17418.21
767.812	17472
768.148	17572.56
768.485	17761.48
768.821	17775.95
769.157	17895.26
769.492	18143.39
769.828	18286.67
770.164	18248.7
770.5	18389.94
770.836	18500.67
771.171	18471.07
771.507	18689.14
771.842	18714.9
772.178	18752.42
772.513	18909.47
772.849	19021.11
773.184	18966.87
773.519	19112.63
773.855	19127.1
774.19	19168.45
774.525	19216.81
774.86	19235.79
775.195	19335.23
775.53	19406.64
775.865	19377.94
776.2	19431.27
776.535	19388.11
776.87	19420.2
777.205	19514.2
777.539	19424.26
777.874	19546.07
778.209	19429.91
778.543	19567.08
778.878	19428.78
779.212	19600.98
779.547	19387.43
779.881	19643.24
780.215	19593.52
780.55	19569.57
780.884	19576.35
781.218	19568.67
781.552	19662
781.886	19551.04
782.22	19530.25
782.554	19573.86
782.888	19538.16
783.222	19524.37
783.556	19429.91
783.889	19410.25
784.223	19446.18
784.557	19416.81
784.89	19406.64
785.224	19368.45
785.557	19263.59
785.891	19332.97
786.224	19248.22
786.558	19349.46
786.891	19247.32
787.224	19100.88
787.557	19237.83
787.891	19153.54
788.224	19220.88
788.557	19239.86
788.89	19117.6
789.223	19251.61
789.556	19023.37
789.888	19042.8
790.221	18966.65
790.554	18874.67
790.887	18817.05
791.219	18803.71
791.552	18798.29
791.884	18798.74
792.217	18735.47
792.549	18687.11
792.882	18594
793.214	18539.31
793.546	18494.57
793.879	18539.77
794.211	18433.78
794.543	18476.94
794.875	18374.8
795.207	18466.77
795.539	18375.93
795.871	18320.34
796.203	18183.84
796.535	18122.6
796.867	18068.37
797.198	18097.07
797.53	17977.75
797.862	17974.36
798.193	18076.73
798.525	17890.97
798.856	18033.57
799.188	17712.9
799.519	17739.79
799.85	17706.79
800.182	17747.47
800.513	17706.79
800.844	17641.26
801.175	17671.99
801.506	17674.93
801.837	17547.25
802.168	17564.88
802.499	17468.16
802.83	17436.29
803.161	17386.58
803.491	17434.71
803.822	17328.73
804.153	17285.34
804.483	17137.77
804.814	17062.52
805.145	17129.63
805.475	17155.4
805.805	16982.29
806.136	17034.27
806.466	16969.19
806.796	16977.1
807.126	16868.4
807.457	16841.96
807.787	16820.94
808.117	16843.99
808.447	16688.06
808.777	16810.77
809.107	16675.41
809.436	16621.17
809.766	16620.95
810.096	16530.1
810.426	16502.08
810.755	16562.42
811.085	16502.31
811.414	16474.28
811.744	16339.15
812.073	16344.57
812.403	16346.6
812.732	16225.7
813.061	16208.3
813.39	16165.59
813.719	16122.2
814.049	16230
814.378	16165.14
814.707	16071.36
815.036	16094.41
815.365	16017.8
815.693	15954.3
816.022	15920.4
816.351	15833.4
816.68	15672.5
817.008	15807.64
817.337	15655.55
817.665	15698.94
817.994	15689.45
818.322	15718.37
818.651	15623.01
818.979	15500.75
819.307	15612.84
819.636	15525.38
819.964	15477.25
820.292	15536.23
820.62	15533.97
820.948	15503.46
821.276	15572.16
821.604	15482.67
821.932	15498.26
822.259	15461.43
822.587	15478.15
822.915	15460.53
823.243	15531.48
823.57	15414.43
823.898	15466.18
824.225	15387.53
824.553	15428.21
824.88	15330.59
825.207	15462.56
825.535	15414.43
825.862	15581.2
826.189	15405.61
826.516	15455.33
826.843	15472.28
827.17	15536
827.497	15531.71
827.824	15446.51
828.151	15561.31
828.478	15407.42
828.805	15568.32
829.131	15447.19
829.458	15466.4
829.785	15360.64
830.111	15449
830.438	15525.61
830.764	15409
831.09	15570.58
831.417	15457.59
831.743	15512.73
832.069	15507.08
832.395	15300.08
832.722	15427.76
833.048	15365.39
833.374	15348.44
833.7	15316.57
834.026	15324.94
834.351	15348.66
834.677	15345.73
835.003	15344.37
835.329	15343.92
835.654	15363.81
835.98	15293.52
836.306	15314.77
836.631	15216.24
836.956	15289.91
837.282	15333.52
837.607	15207.88
837.932	15199.29
838.258	15160.42
838.583	15165.62
838.908	15054.89
839.233	15075.23
839.558	15053.53
839.883	14983.25
840.208	14897.6
840.533	14919.97
840.858	14875.68
841.182	14885.4
841.507	14975.34
841.832	14785.97
842.156	14825.06
842.481	14757.49
842.805	14783.93
843.13	14671.17
843.454	14644.5
843.778	14618.74
844.103	14605.41
844.427	14526.99
844.751	14524.73
845.075	14513.88
845.399	14435.02
845.723	14406.77
846.047	14404.96
846.371	14298.75
846.695	14322.93
847.019	14185.76
847.343	14192.31
847.666	14081.8
847.99	14064.4
848.313	14022.37
848.637	13851.3
848.96	13899.66
849.284	13842.26
849.607	13763.4
849.931	13768.59
850.254	13721.14
850.577	13526.11
850.9	13550.29
851.223	13485.66
851.546	13377.42
851.869	13363.86
852.192	13432.78
852.515	13227.59
852.838	13239.12
853.161	13250.41
853.483	13112.34
853.806	13058.1
854.129	13081.83
854.451	13006.58
854.774	12853.81
855.096	12898.11
855.419	12922.29
855.741	12834.61
856.063	12675.74
856.385	12833.48
856.708	12750.31
857.03	12619.92
857.352	12699.02
857.674	12596.42
857.996	12549.87
858.318	12489.76
858.64	12479.36
858.961	12455.63
859.283	12440.94
859.605	12332.7
859.926	12369.08
860.248	12317.33
860.57	12325.24
860.891	12289.76
861.212	12187.39
861.534	12241.63
861.855	12171.12
862.176	12111.69
862.498	12158.69
862.819	12163.66
863.14	12077.56
863.461	12068.3
863.782	12022.65
864.103	12054.74
864.424	11930.9
864.745	11947.17
865.065	11900.85
865.386	11932.03
865.707	11812.26
866.027	11885.7
866.348	11829.89
866.668	11778.14
866.989	11823.33
867.309	11707.63
867.63	11742.88
867.95	11703.56
868.27	11674.18
868.59	11676.67
868.91	11720.74
869.23	11666.95
869.55	11571.59
869.87	11684.13
870.19	11610.91
870.51	11666.73
870.83	11621.98
871.15	11529.56
871.469	11599.84
871.789	11561.42
872.109	11581.08
872.428	11501.53
872.748	11522.32
873.067	11451.82
873.386	11471.93
873.706	11469.44
874.025	11366.17
874.344	11389.45
874.663	11378.37
874.982	11400.52
875.301	11379.73
875.62	11324.36
875.939	11285.27
876.258	11326.4
876.577	11239.39
876.896	11222.45
877.214	11247.76
877.533	11208.21
877.852	11286.85
878.17	11167.31
878.489	11095.44
878.807	11192.16
879.125	11166.85
879.444	11120.07
879.762	11101.54
880.08	11042.56
880.398	11059.51
880.716	11035.78
881.034	11014.77
881.352	10995.33
881.67	10907.65
881.988	10938.61
882.306	10975.9
882.624	10831.27
882.941	10853.19
883.259	10797.15
883.577	10787.2
883.894	10869.46
884.212	10790.82
884.529	10803.47
884.846	10767.54
885.164	10692.74
885.481	10690.71
885.798	10615.68
886.115	10603.25
886.432	10583.14
886.75	10578.62
887.067	10520.54
887.383	10471.73
887.7	10538.85
888.017	10394.67
888.334	10474.89
888.651	10381.56
888.967	10341.79
889.284	10330.72
889.6	10332.07
889.917	10181.57
890.233	10222.02
890.55	10173.21
890.866	10163.94
891.182	10149.93
891.498	10085.75
891.815	10048.01
892.131	9995.81
892.447	10024.06
892.763	10039.2
893.079	9910.39
893.395	9915.81
893.71	9925.76
894.026	9826.32
894.342	9889.82
894.657	9764.86
894.973	9820.22
895.289	9762.14
895.604	9702.48
895.92	9729.6
896.235	9671.75
896.55	9637.63
896.865	9620
897.181	9599.66
897.496	9624.52
897.811	9452.55
898.126	9474.92
898.441	9408.03
898.756	9427.46
899.071	9343.62
899.386	9309.5
899.7	9240.8
900.015	9191.76
900.33	9194.7
900.644	9113.12
900.959	9162.39
901.273	9130.97
901.588	9106.34
901.902	8994.03
902.216	9067.25
902.531	8948.15
902.845	8977.76
903.159	8906.57
903.473	8837.65
903.787	8838.1
904.101	8803.3
904.415	8871.77
904.729	8752.68
905.042	8680.59
905.356	8709.97
905.67	8665.9
905.984	8647.82
906.297	8573.02
906.611	8557.66
906.924	8473.59
907.237	8582.97
907.551	8460.71
907.864	8422.97
908.177	8411.22
908.491	8385.46
908.804	8366.25
909.117	8285.12
909.43	8281.05
909.743	8196.54
910.056	8203.09
910.368	8104.56
910.681	8113.37
910.994	8085.13
911.307	8077.44
911.619	8015.75
911.932	8026.82
912.244	7954.73
912.557	7935.75
912.869	7893.04
913.181	7845.81
913.494	7810.33
913.806	7843.78
914.118	7773.95
914.43	7710
914.742	7679.04
915.054	7701.18
915.366	7628.19
915.678	7671.58
915.99	7569.21
916.302	7603.11
916.613	7554.07
916.925	7518.81
917.236	7454.18
917.548	7425.03
917.859	7472.49
918.171	7357.69
918.482	7315.2
918.794	7331.47
919.105	7239.95
919.416	7236.11
919.727	7231.59
920.038	7169.67
920.349	7150.46
920.66	7112.27
920.971	7058.49
921.282	7150.24
921.593	7015.32
921.903	7008.77
922.214	6941.88
922.525	6955.66
922.835	6911.15
923.146	6899.62
923.456	6890.36
923.767	6868.44
924.077	6844.03
924.387	6771.71
924.697	6821.43
925.008	6731.04
925.318	6688.33
925.628	6668.89
925.938	6645.16
926.248	6601.1
926.558	6573.98
926.867	6576.92
927.177	6584.15
927.487	6531.04
927.796	6442.46
928.106	6406.53
928.416	6412.85
928.725	6409.01
929.034	6377.37
929.344	6391.84
929.653	6304.61
929.962	6240.66
930.271	6222.12
930.581	6284.95
930.89	6246.3
931.199	6176.93
931.508	6145.06
931.817	6076.37
932.125	6111.84
932.434	6082.92
932.743	6056.03
933.051	6034.33
933.36	5961.57
933.669	5967.44
933.977	5921.57
934.286	5923.6
934.594	5908.01
934.902	5842.25
935.21	5850.61
935.519	5867.56
935.827	5832.53
936.135	5761.57
936.443	5748.69
936.751	5719.09
937.059	5702.82
937.367	5662.59
937.674	5682.93
937.982	5675.47
938.29	5558.64
938.597	5607.23
938.905	5509.15
939.213	5536.49
939.52	5462.6
939.827	5556.38
940.135	5441.13
940.442	5400.23
940.749	5468.25
941.056	5437.29
941.363	5360.68
941.67	5326.78
941.977	5315.03
942.284	5254.01
942.591	5264.86
942.898	5264.64
943.205	5212.66
943.511	5253.34
943.818	5221.25
944.125	5175.82
944.431	5206.78
944.738	5169.5
945.044	5120.91
945.35	5059.67
945.657	5058.09
945.963	5076.62
946.269	5045.88
946.575	4996.39
946.881	4977.19
947.187	4965.43
947.493	4929.28
947.799	4918.66
948.105	4915.04
948.41	4850.64
948.716	4850.86
949.022	4811.31
949.327	4856.51
949.633	4792.56
949.938	4765.44
950.244	4781.71
950.549	4726.34
950.854	4735.61
951.16	4688.83
951.465	4680.47
951.77	4650.19
952.075	4604.99
952.38	4561.6
952.685	4614.26
952.99	4554.37
953.294	4529.97
953.599	4492.23
953.904	4491.32
954.209	4496.52
954.513	4485.67
954.818	4431.44
955.122	4400.48
955.426	4459.23
955.731	4376.3
956.035	4376.52
956.339	4343.08
956.643	4376.3
956.948	4310.76
957.252	4302.63
957.556	4301.95
957.86	4241.61
958.163	4252.46
958.467	4254.04
958.771	4222.63
959.075	4181.27
959.378	4193.25
959.682	4165
959.985	4152.35
960.289	4146.02
960.592	4077.55
960.896	4067.83
961.199	4090.2
961.502	4026.48
961.805	4050.88
962.108	4024.22
962.411	3944.44
962.714	3973.37
963.017	3963.88
963.32	3936.76
963.623	3961.39
963.926	3907.61
964.228	3891.34
964.531	3892.92
964.833	3824.67
965.136	3824.67
965.438	3820.15
965.741	3803.66
966.043	3797.78
966.345	3757.56
966.648	3754.62
966.95	3759.82
967.252	3714.62
967.554	3716.65
967.856	3649.99
968.158	3649.76
968.46	3658.58
968.761	3648.41
969.063	3610.67
969.365	3619.71
969.666	3607.5
969.968	3568.86
970.269	3585.36
970.571	3564.12
970.872	3577.67
971.174	3549.2
971.475	3504.46
971.776	3518.01
972.077	3468.07
972.378	3530.22
972.679	3430.33
972.98	3477.34
973.281	3406.83
973.582	3378.58
973.883	3433.72
974.183	3385.36
974.484	3396.66
974.785	3375.19
975.085	3308.75
975.386	3341.3
975.686	3309.21
975.986	3263.78
976.287	3268.98
976.587	3205.25
976.887	3233.05
977.187	3242.09
977.487	3230.56
977.787	3225.37
978.087	3204.12
978.387	3171.13
978.687	3182.66
978.987	3159.38
979.286	3121.87
979.586	3130.68
979.885	3105.6
980.185	3086.39
980.484	3051.59
980.784	3073.28
981.083	3028.31
981.382	3005.49
981.682	3039.38
981.981	3023.11
982.28	3001.19
982.579	2945.83
982.878	2971.81
983.177	2970.46
983.475	2929.78
983.774	2919.61
984.073	2906.28
984.372	2904.92
984.67	2871.48
984.969	2845.94
985.267	2887.97
985.566	2842.55
985.864	2822.67
986.162	2807.3
986.461	2795.1
986.759	2784.02
987.057	2747.64
987.355	2797.58
987.653	2717.13
987.951	2717.36
988.249	2716.91
988.547	2707.19
988.844	2700.86
989.142	2717.81
989.44	2698.15
989.737	2692.5
990.035	2632.61
990.332	2647.08
990.63	2609.79
990.927	2594.88
991.224	2592.84
991.521	2571.15
991.819	2612.28
992.116	2567.31
992.413	2559.4
992.71	2557.59
993.006	2529.79
993.303	2525.05
993.6	2486.86
993.897	2482.11
994.193	2484.14
994.49	2466.07
994.787	2480.3
995.083	2471.04
995.379	2440.53
995.676	2425.39
995.972	2387.88
996.268	2399.85
996.565	2383.58
996.861	2409.12
997.157	2371.6
997.453	2369.12
997.749	2356.69
998.044	2334.32
998.34	2315.79
998.636	2284.15
998.932	2285.73
999.227	2278.5
999.523	2270.82
999.818	2293.41
1000.114	2254.32
1000.409	2262
1000.704	2216.81
1001	2208.44
1001.295	2186.3
1001.59	2180.42
1001.885	2211.83
1002.18	2178.84
1002.475	2151.95
1002.77	2131.61
1003.065	2138.16
1003.359	2112.18
1003.654	2134.1
1003.949	2091.84
1004.243	2089.13
1004.538	2073.99
1004.832	2077.83
1005.127	2039.64
1005.421	2040.09
1005.715	1981.33
1006.009	2043.7
1006.304	2002.35
1006.598	1979.07
1006.892	2011.61
1007.186	1947.89
1007.48	1937.94
1007.773	1935.23
1008.067	1931.62
1008.361	1929.36
1008.655	1929.81
1008.948	1923.25
1009.242	1886.87
1009.535	1873.99
1009.829	1896.59
1010.122	1815.01
1010.415	1809.13
1010.708	1813.88
1011.001	1827.89
1011.295	1841.9
1011.588	1821.79
1011.881	1778.17
1012.173	1785.18
1012.466	1790.38
1012.759	1765.74
1013.052	1741.56
1013.344	1748.34
1013.637	1739.08
1013.93	1732.53
1014.222	1748.8
1014.514	1695.46
1014.807	1690.94
1015.099	1694.56
1015.391	1676.71
1015.683	1665.18
1015.976	1658.63
1016.268	1642.58
1016.56	1643.94
1016.851	1634.67
1017.143	1612.75
1017.435	1601.68
1017.727	1605.3
1018.018	1571.85
1018.31	1564.85
1018.602	1527.56
1018.893	1560.1
1019.185	1549.71
1019.476	1530.72
1019.767	1511.51
1020.058	1498.41
1020.35	1494.34
1020.641	1493.89
1020.932	1463.38
1021.223	1484.85
1021.514	1475.36
1021.804	1461.57
1022.095	1433.32
1022.386	1471.06
1022.677	1442.59
1022.967	1412.53
1023.258	1406.21
1023.548	1404.85
1023.839	1376.15
1024.129	1391.74
1024.419	1360.78
1024.709	1380.22
1025	1332.99
1025.29	1311.75
1025.58	1329.6
1025.87	1307.68
1026.16	1332.31
1026.449	1317.85
1026.739	1290.28
1027.029	1296.38
1027.319	1298.86
1027.608	1302.71
1027.898	1277.85
1028.187	1255.25
1028.477	1267
1028.766	1268.13
1029.055	1228.13
1029.344	1231.75
1029.634	1198.53
1029.923	1217.06
1030.212	1211.18
1030.501	1184.74
1030.79	1209.83
1031.078	1162.6
1031.367	1161.24
1031.656	1151.98
1031.945	1159.88
1032.233	1172.99
1032.522	1152.43
1032.81	1144.97
1033.099	1120.79
1033.387	1137.51
1033.675	1129.6
1033.963	1095.48
1034.251	1113.33
1034.54	1081.02
1034.828	1082.6
1035.116	1062.94
1035.403	1072.66
1035.691	1086.67
1035.979	1043.73
1036.267	1047.12
1036.554	1047.57
1036.842	1028.14
1037.129	1034.69
1037.417	1007.8
1037.704	1010.28
1037.992	1022.49
1038.279	1007.12
1038.566	984.52
1038.853	984.52
1039.14	984.52
