Data from hue_110_FLMS001491_00037.txt Node
Date: Tue Feb 07 17:01:14 GMT 2017
User: dcchb
Spectrometer: FLMS00149
Trigger mode: 0
Integration Time (sec): 2.000000E-2
Scans to average: 10
Electric dark correction enabled: true
Nonlinearity correction enabled: false
Boxcar width: 0
XAxis mode: Wavelengths
Number of Pixels in Spectrum: 2048
>>>>>Begin Spectral Data<<<<<
341.393	-25.73
341.776	-25.73
342.16	-25.73
342.543	-71.38
342.927	-67.09
343.31	-72.29
343.693	-68.9
344.077	-59.63
344.46	-72.51
344.843	-66.18
345.226	-46.98
345.61	-34.55
345.993	-13.3
346.376	4.32
346.759	10.42
347.142	15.4
347.525	50.65
347.908	64.66
348.291	82.29
348.674	98.33
349.057	108.27
349.44	132.68
349.823	149.4
350.206	149.85
350.588	185.56
350.971	191.89
351.354	232.79
351.737	235.05
352.119	238.67
352.502	264.88
352.884	270.76
353.267	275.5
353.65	294.48
354.032	292.68
354.414	297.2
354.797	303.75
355.179	330.42
355.562	341.71
355.944	329.51
356.326	315.27
356.709	322.96
357.091	341.26
357.473	358.89
357.855	335.39
358.238	353.69
358.62	349.17
359.002	353.24
359.384	339.68
359.766	339
360.148	332.67
360.53	341.71
360.912	345.1
361.294	308.04
361.676	339.91
362.057	332.67
362.439	329.96
362.821	330.19
363.203	315.5
363.584	308.27
363.966	300.13
364.348	336.52
364.729	321.38
365.111	305.56
365.493	325.67
365.874	319.12
366.256	303.3
366.637	329.06
367.019	310.53
367.4	321.38
367.781	313.47
368.163	322.73
368.544	314.14
368.925	326.35
369.306	314.14
369.688	302.85
370.069	334.26
370.45	324.09
370.831	328.61
371.212	339.45
371.593	328.38
371.974	317.53
372.355	313.69
372.736	347.14
373.117	306.69
373.498	295.84
373.879	313.01
374.26	318.89
374.641	319.79
375.021	321.83
375.402	316.18
375.783	324.31
376.163	315.5
376.544	322.96
376.925	332.45
377.305	321.83
377.686	329.29
378.066	345.56
378.447	333.13
378.827	349.17
379.208	323.41
379.588	336.74
379.968	329.96
380.349	351.66
380.729	340.13
381.109	340.81
381.489	327.03
381.87	335.39
382.25	355.73
382.63	336.52
383.01	349.17
383.39	350.75
383.77	346.46
384.15	363.63
384.53	340.58
384.91	354.14
385.29	352.34
385.67	365.44
386.049	350.53
386.429	350.98
386.809	346.91
387.189	354.14
387.568	357.31
387.948	361.83
388.328	360.7
388.707	340.81
389.087	376.97
389.466	364.54
389.846	357.08
390.225	362.05
390.605	358.21
390.984	376.29
391.363	359.79
391.743	372.22
392.122	373.58
392.501	368.61
392.881	376.97
393.26	379.91
393.639	373.13
394.018	363.18
394.397	386.23
394.776	398.44
395.155	367.7
395.534	379.91
395.913	371.77
396.292	378.55
396.671	376.97
397.05	379.68
397.429	393.24
397.808	382.39
398.186	420.13
398.565	382.62
398.944	397.08
399.323	416.29
399.701	398.89
400.08	389.85
400.458	407.48
400.837	419
401.215	416.74
401.594	397.98
401.972	393.01
402.351	419.45
402.729	393.92
403.107	400.7
403.486	423.29
403.864	413.35
404.242	410.19
404.62	428.27
404.999	438.43
405.377	419
405.755	416.29
406.133	434.14
406.511	438.43
406.889	437.53
407.267	444.31
407.645	466.46
408.023	440.02
408.401	443.18
408.779	447.47
409.156	459.23
409.534	459.68
409.912	460.36
410.29	454.71
410.667	484.76
411.045	475.27
411.422	457.64
411.8	480.47
412.178	500.58
412.555	486.12
412.933	483.41
413.31	491.31
413.687	488.15
414.065	510.75
414.442	505.78
414.819	490.64
415.197	504.2
415.574	503.07
415.951	506.46
416.328	528.83
416.705	484.99
417.082	538.09
417.46	513.46
417.837	526.57
418.214	555.04
418.591	515.49
418.967	543.74
419.344	551.2
419.721	536.06
420.098	578.54
420.475	548.04
420.852	558.88
421.228	549.62
421.605	585.32
421.982	565.89
422.358	582.61
422.735	577.41
423.111	583.97
423.488	586.23
423.864	580.58
424.241	581.48
424.617	596.62
424.994	588.71
425.37	597.3
425.746	594.14
426.123	609.05
426.499	588.04
426.875	611.09
427.251	633.46
427.627	605.21
428.003	634.59
428.379	641.59
428.756	613.12
429.132	640.46
429.507	625.77
429.883	660.8
430.259	659.45
430.635	681.37
431.011	681.59
431.387	703.06
431.763	700.8
432.138	711.2
432.514	691.08
432.89	694.47
433.265	703.96
433.641	716.17
434.016	700.57
434.392	738.31
434.767	740.35
435.143	743.06
435.518	746
435.894	780.35
436.269	742.83
436.644	753.68
437.02	783.74
437.395	750.52
437.77	795.26
438.145	769.73
438.52	797.07
438.895	808.37
439.271	816.5
439.646	806.33
440.021	834.58
440.395	840.68
440.77	849.72
441.145	840.01
441.52	844.07
441.895	856.95
442.27	844.3
442.645	868.03
443.019	877.75
443.394	861.25
443.769	871.19
444.143	882.26
444.518	880.01
444.892	882.94
445.267	890.4
445.641	855.37
446.016	886.56
446.39	906.45
446.764	909.61
447.139	915.03
447.513	929.72
447.887	930.17
448.262	942.6
448.636	933.34
449.01	950.29
449.384	971.08
449.758	987.57
450.132	981.92
450.506	979.89
450.88	982.83
451.254	982.83
451.628	975.82
452.002	1035.26
452.376	1025.31
452.75	1059.44
453.123	1012.66
453.497	1069.15
453.871	1079.77
454.244	1067.8
454.618	1077.97
454.992	1081.81
455.365	1096.27
455.739	1091.52
456.112	1135.82
456.486	1135.14
456.859	1150.96
457.232	1148.92
457.606	1206.55
457.979	1160.9
458.352	1198.87
458.725	1213.56
459.099	1228.47
459.472	1270.73
459.845	1252.2
460.218	1286.1
460.591	1286.1
460.964	1316.83
461.337	1314.12
461.71	1352.99
462.083	1365.19
462.456	1374.68
462.829	1382.14
463.201	1403.83
463.574	1452.42
463.947	1435.24
464.32	1467.56
464.692	1484.96
465.065	1519.54
465.438	1507.11
465.81	1572.64
466.183	1576.71
466.555	1583.72
466.928	1632.98
467.3	1627.1
467.672	1630.04
468.045	1673.66
468.417	1693.09
468.789	1741.68
469.161	1735.8
469.534	1813.54
469.906	1827.55
470.278	1824.39
470.65	1876.36
471.022	1935.34
471.394	1968.79
471.766	1964.04
472.138	2036.58
472.51	2110.48
472.882	2121.78
473.253	2139.63
473.625	2210.59
473.997	2226.18
474.369	2319.52
474.74	2345.28
475.112	2388.21
475.484	2425.73
475.855	2501.66
476.227	2550.7
476.598	2648.32
476.97	2671.82
477.341	2752.95
477.713	2815.32
478.084	2862.1
478.455	2966.05
478.827	3033.39
479.198	3128.99
479.569	3211.7
479.94	3300.51
480.311	3372.37
480.682	3469.32
481.053	3619.59
481.424	3658.01
481.795	3771.68
482.166	3858.68
482.537	3978.45
482.908	4022.3
483.279	4173.03
483.65	4288.96
484.021	4388.39
484.391	4540.93
484.762	4618.66
485.133	4724.88
485.503	4858.21
485.874	5020.01
486.244	5073.57
486.615	5260.91
486.985	5357.63
487.356	5513.1
487.726	5636.94
488.097	5771.4
488.467	5858.86
488.837	6094.56
489.207	6227.89
489.578	6381.1
489.948	6552.4
490.318	6654.54
490.688	6738.16
491.058	6963.01
491.428	7133.4
491.798	7239.39
492.168	7409.78
492.538	7475.76
492.908	7698.36
493.278	7875.08
493.648	7964.79
494.017	8061.06
494.387	8295.4
494.757	8412.69
495.126	8459.24
495.496	8649.29
495.866	8820.81
496.235	8952.56
496.605	9140.8
496.974	9221.93
497.344	9379.89
497.713	9503.51
498.082	9572.88
498.452	9756.38
498.821	9854.46
499.19	9926.55
499.559	10091.97
499.928	10106.2
500.298	10317.05
500.667	10394.78
501.036	10482.92
501.405	10678.62
501.774	10662.12
502.143	10760.88
502.512	10948.21
502.88	11051.72
503.249	11124.48
503.618	11263.23
503.987	11265.04
504.356	11501.65
504.724	11498.03
505.093	11505.71
505.462	11644.47
505.83	11709.1
506.199	11796.78
506.567	12034.74
506.936	12036.32
507.304	12134.85
507.672	12234.28
508.041	12362.42
508.409	12403.54
508.777	12509.76
509.145	12526.25
509.514	12681.05
509.882	12684.44
510.25	12807.15
510.618	12901.84
510.986	12868.16
511.354	12972.34
511.722	13112.23
512.09	13192.22
512.458	13155.39
512.826	13341.15
513.193	13392.22
513.561	13338.21
513.929	13493.68
514.297	13518.54
514.664	13577.98
515.032	13709.72
515.4	13714.24
515.767	13825.65
516.135	13832.88
516.502	13778.2
516.869	13895.26
517.237	13987.91
517.604	13879.21
517.972	14030.39
518.339	14097.28
518.706	14087.79
519.073	14097.28
519.44	14178.19
519.808	14311.52
520.175	14229.03
520.542	14399.88
520.909	14420.44
521.276	14325.08
521.643	14477.39
522.009	14619.3
522.376	14618.4
522.743	14604.39
523.11	14790.37
523.477	14837.83
523.843	14913.31
524.21	14941.56
524.577	14989.92
524.943	14973.87
525.31	14979.3
525.676	15080.31
526.043	15130.7
526.409	15251.38
526.776	15250.7
527.142	15181.78
527.508	15182.23
527.874	15375.67
528.241	15396.23
528.607	15323.47
528.973	15384.71
529.339	15437.81
529.705	15554.87
530.071	15499.96
530.437	15532.95
530.803	15544.25
531.169	15594.19
531.535	15467.19
531.901	15461.77
532.267	15484.37
532.632	15568.88
532.998	15513.52
533.364	15500.64
533.73	15528.43
534.095	15605.72
534.461	15505.84
534.826	15593.97
535.192	15552.84
535.557	15666.73
535.923	15617.24
536.288	15506.51
536.653	15562.1
537.019	15425.39
537.384	15403.69
537.749	15400.98
538.114	15353.07
538.479	15360.53
538.845	15419.74
539.21	15339.29
539.575	15280.53
539.94	15292.28
540.305	15400.08
540.67	15292.96
541.034	15268.78
541.399	15235.56
541.764	15236.69
542.129	15245.96
542.494	15160.31
542.858	15179.52
543.223	15100.42
543.587	15130.7
543.952	15037.37
544.316	15069.01
544.681	15038.73
545.045	14943.82
545.41	15007.54
545.774	15028.33
546.138	14918.28
546.503	14864.72
546.867	14842.12
547.231	14926.64
547.595	14889.81
547.959	14817.04
548.324	14819.07
548.688	14687.55
549.052	14691.85
549.416	14695.91
549.779	14623.37
550.143	14631.96
550.507	14630.6
550.871	14596.25
551.235	14568.46
551.599	14652.75
551.962	14593.99
552.326	14556.93
552.689	14538.4
553.053	14453.66
553.417	14437.84
553.78	14475.35
554.143	14433.55
554.507	14418.86
554.87	14301.8
555.234	14509.93
555.597	14314.23
555.96	14330.95
556.323	14331.63
556.686	14237.39
557.05	14448.24
557.413	14347.22
557.776	14289.6
558.139	14313.32
558.502	14336.83
558.865	14303.15
559.228	14375.7
559.59	14304.51
559.953	14260.67
560.316	14383.38
560.679	14408.91
561.041	14419.99
561.404	14381.57
561.767	14452.08
562.129	14384.28
562.492	14459.08
562.854	14368.24
563.217	14377.73
563.579	14386.09
563.941	14491.4
564.304	14454.79
564.666	14546.76
565.028	14401.01
565.39	14504.96
565.753	14511.74
566.115	14568.68
566.477	14591.06
566.839	14546.31
567.201	14673.77
567.563	14570.94
567.925	14642.13
568.287	14601.9
568.648	14692.75
569.01	14689.36
569.372	14797.15
569.734	14762.13
570.095	14810.71
570.457	14739.08
570.819	14811.84
571.18	14737.72
571.542	14807.77
571.903	14855.23
572.265	14831.28
572.626	14825.85
572.987	14903.37
573.349	14905.63
573.71	14903.14
574.071	14957.6
574.432	14884.16
574.794	15036.92
575.155	14972.29
575.516	14875.12
575.877	14906.08
576.238	15050.25
576.599	14966.41
576.96	14930.71
577.32	14981.56
577.681	15058.62
578.042	15070.37
578.403	15015.23
578.763	15041.67
579.124	14956.47
579.485	15117.6
579.845	15033.53
580.206	15084.15
580.566	15012.74
580.927	15057.71
581.287	15058.16
581.648	15043.02
582.008	15065.17
582.368	15065.39
582.728	15113.98
583.089	15042.8
583.449	15029.92
583.809	15014.32
584.169	14975.91
584.529	14931.84
584.889	15017.03
585.249	14926.87
585.609	14931.84
585.969	14953.99
586.329	14946.08
586.688	14921.67
587.048	15001.44
587.408	14933.42
587.768	14891.16
588.127	14945.62
588.487	14935.45
588.846	14899.52
589.206	14819.98
589.565	14867.66
589.925	14890.48
590.284	14806.19
590.643	14852.75
591.003	14856.13
591.362	14931.61
591.721	14783.37
592.08	14809.36
592.44	14877.15
592.799	14834.21
593.158	14788.34
593.517	14857.72
593.876	14834.89
594.235	14829.47
594.593	14741.79
594.952	14762.35
595.311	14716.7
595.67	14799.64
596.029	14830.82
596.387	14780.2
596.746	14805.51
597.104	14748.34
597.463	14647.1
597.822	14831.5
598.18	14674.44
598.538	14663.82
598.897	14734.33
599.255	14663.15
599.613	14873.31
599.972	14738.17
600.33	14706.08
600.688	14636.93
601.046	14690.72
601.404	14802.58
601.762	14697.95
602.12	14825.63
602.478	14712.41
602.836	14835.34
603.194	14675.35
603.552	14696.36
603.91	14683.48
604.268	14826.31
604.625	14687.78
604.983	14749.02
605.341	14697.95
605.698	14737.27
606.056	14829.47
606.413	14785.4
606.771	14820.2
607.128	14834.67
607.485	14717.38
607.843	14767.1
608.2	14860.43
608.557	14827.89
608.914	14903.82
609.272	14840.77
609.629	14823.82
609.986	14938.84
610.343	14814.55
610.7	14948.56
611.057	14990.37
611.414	14895.91
611.771	14959.86
612.127	14960.76
612.484	14908.34
612.841	14987.43
613.198	14953.08
613.554	14939.75
613.911	14984.72
614.267	15052.74
614.624	15040.54
614.98	15023.36
615.337	15053.64
615.693	15039.18
616.05	15025.4
616.406	15141.78
616.762	15139.52
617.118	15068.56
617.475	15153.75
617.831	15172.96
618.187	15067.43
618.543	15218.84
618.899	15213.41
619.255	15223.36
619.611	15145.17
619.967	15283.69
620.323	15289.12
620.678	15158.27
621.034	15236.92
621.39	15183.81
621.746	15109.46
622.101	15348.33
622.457	15095.9
622.812	15250.25
623.168	15232.4
623.523	15202.11
623.879	15228.55
624.234	15076.92
624.589	15246.86
624.945	15248.44
625.3	15245.28
625.655	15224.71
626.01	15193.3
626.365	15240.98
626.72	15270.59
627.075	15255.9
627.43	15175
627.785	15177.93
628.14	15248.89
628.495	15249.57
628.85	15153.08
629.205	15102.23
629.559	15182.68
629.914	15073.08
630.269	15099.29
630.623	15130.03
630.978	15063.59
631.332	15113.98
631.687	15183.13
632.041	15076.47
632.396	15052.51
632.75	15069.69
633.104	15070.82
633.459	15001.44
633.813	15006.41
634.167	14977.71
634.521	14895
634.875	14945.17
635.229	14892.97
635.583	14778.62
635.937	14879.64
636.291	14911.5
636.645	14867.66
636.999	14813.65
637.352	14850.49
637.706	14718.06
638.06	14848.9
638.413	14746.76
638.767	14766.87
639.121	14777.04
639.474	14691.17
639.828	14704.27
640.181	14691.39
640.534	14727.1
640.888	14656.82
641.241	14648.46
641.594	14631.28
641.947	14613.2
642.301	14594.9
642.654	14659.98
643.007	14641
643.36	14646.42
643.713	14648
644.066	14717.16
644.419	14526.88
644.771	14503.38
645.124	14369.14
645.477	14341.12
645.83	14279.65
646.182	14267.68
646.535	14135.48
646.888	14238.98
647.24	14081.24
647.593	14078.75
647.945	14172.76
648.298	14033.11
648.65	14068.58
649.002	14066.33
649.355	14145.42
649.707	14024.52
650.059	14131.63
650.411	14328.69
650.763	14226.09
651.115	14436.03
651.467	14443.94
651.819	14490.95
652.171	14507.67
652.523	14444.62
652.875	14442.36
653.227	14371.4
653.578	14471.74
653.93	14402.81
654.282	14410.72
654.633	14373.66
654.985	14387.45
655.337	14430.84
655.688	14366.66
656.039	14411.85
656.391	14390.16
656.742	14376.6
657.094	14435.81
657.445	14443.49
657.796	14458.86
658.147	14384.73
658.498	14374.11
658.849	14401.46
659.2	14342.93
659.551	14444.62
659.902	14435.81
660.253	14443.04
660.604	14368.92
660.955	14396.03
661.306	14413.43
661.656	14346.32
662.007	14405.75
662.358	14433.32
662.708	14473.55
663.059	14415.02
663.409	14325.08
663.76	14462.25
664.11	14364.62
664.461	14457.73
664.811	14415.69
665.161	14361.46
665.511	14391.74
665.862	14399.42
666.212	14483.72
666.562	14518.29
666.912	14470.61
667.262	14383.15
667.612	14431.51
667.962	14500.44
668.312	14462.47
668.662	14574.79
669.011	14430.84
669.361	14432.42
669.711	14488.23
670.06	14405.75
670.41	14456.15
670.76	14423.15
671.109	14438.52
671.459	14389.03
671.808	14330.05
672.157	14377.96
672.507	14411.17
672.856	14299.54
673.205	14302.25
673.554	14382.25
673.904	14358.52
674.253	14310.39
674.602	14378.86
674.951	14020.9
675.3	14056.38
675.649	14199.2
675.998	14228.35
676.346	14281.01
676.695	14270.16
677.044	14201.24
677.393	14222.93
677.741	14288.47
678.09	14154.23
678.438	14130.96
678.787	14172.76
679.135	14175.02
679.484	14046.44
679.832	14126.44
680.181	14012.09
680.529	14090.96
680.877	14016.38
681.225	14049.15
681.573	14024.07
681.922	13991.75
682.27	13918.76
682.618	13891.87
682.966	13924.86
683.314	13947.23
683.661	13841.7
684.009	13782.49
684.357	13803.28
684.705	13727.35
685.053	13687.8
685.4	13734.36
685.748	13548.37
686.095	13612.33
686.443	13567.81
686.79	13507.7
687.138	13647.8
687.485	13570.74
687.832	13483.52
688.18	13516.06
688.527	13405.33
688.874	13401.48
689.221	13268.15
689.568	13290.07
689.915	13220.92
690.262	13305.44
690.609	13218.44
690.956	13181.38
691.303	13159.23
691.65	12973.92
691.997	13107.03
692.344	13011.44
692.69	12910.42
693.037	12924.89
693.383	12828.39
693.73	12866.36
694.077	12780.26
694.423	12733.03
694.769	12718.34
695.116	12653.71
695.462	12721.05
695.808	12602.18
696.155	12642.18
696.501	12540.72
696.847	12487.84
697.193	12402.64
697.539	12470.21
697.885	12397.89
698.231	12335.07
698.577	12275.86
698.923	12299.82
699.269	12276.99
699.614	12144.79
699.96	12097.56
700.306	12053.95
700.651	12093.5
700.997	11966.04
701.342	11922.43
701.688	11964.23
702.033	11825.48
702.379	11872.71
702.724	11772.6
703.069	11808.98
703.415	11612.6
703.76	11674.75
704.105	11608.08
704.45	11607.18
704.795	11533.06
705.14	11511.82
705.485	11545.26
705.83	11423.91
706.175	11446.73
706.52	11356.34
706.865	11258.04
707.209	11326.06
707.554	11276.12
707.899	11243.12
708.243	11234.99
708.588	11225.27
708.932	11075.67
709.277	11135.33
709.621	11168.32
709.966	11037.7
710.31	11056.23
710.654	10976.46
710.998	10977.37
711.342	10999.06
711.687	10883.81
712.031	10907.09
712.375	10835.45
712.719	10832.06
713.063	10799.97
713.407	10812.85
713.75	10822.57
714.094	10807.2
714.438	10680.65
714.782	10730.37
715.125	10626.64
715.469	10702.35
715.812	10712.51
716.156	10572.41
716.499	10584.16
716.843	10577.38
717.186	10550.49
717.53	10604.72
717.873	10562.24
718.216	10537.15
718.559	10482.92
718.902	10448.57
719.246	10428
719.589	10407.44
719.932	10339.87
720.275	10470.71
720.617	10368.34
720.96	10338.97
721.303	10366.54
721.646	10318.63
721.989	10284.05
722.331	10318.18
722.674	10219.87
723.016	10336.71
723.359	10226.2
723.701	10257.16
724.044	10253.32
724.386	10199.76
724.729	10263.71
725.071	10264.62
725.413	10267.78
725.755	10262.81
726.097	10147.11
726.439	10136.71
726.782	10171.96
727.124	10235.92
727.465	10199.99
727.807	10143.49
728.149	10197.73
728.491	10107.56
728.833	10133.1
729.175	10078.63
729.516	10106.43
729.858	10046.54
730.199	10110.95
730.541	10107.79
730.882	10077.5
731.224	10116.37
731.565	10044.06
731.906	10115.02
732.248	10107.33
732.589	10089.48
732.93	10031.85
733.271	10006.77
733.612	10099.88
733.953	10132.87
734.294	10060.1
734.635	10083.38
734.976	10045.64
735.317	9969.26
735.658	10044.96
735.999	10065.3
736.339	10077.73
736.68	10154.34
737.021	10058.52
737.361	10029.14
737.702	10055.36
738.042	10034.34
738.383	10059.88
738.723	10079.99
739.063	10088.58
739.404	10128.35
739.744	10114.34
740.084	10106.88
740.424	10137.84
740.764	10165.18
741.104	10169.93
741.444	10138.97
741.784	10147.33
742.124	10171.96
742.464	10180.78
742.804	10203.38
743.143	10214.67
743.483	10275.46
743.823	10295.58
744.162	10314.11
744.502	10326.31
744.841	10317.05
745.181	10410.83
745.52	10355.91
745.86	10491.73
746.199	10519.07
746.538	10603.82
746.877	10627.55
747.216	10649.47
747.556	10624.38
747.895	10744.38
748.234	10799.74
748.573	10779.41
748.911	10917.26
749.25	10952.06
749.589	11000.87
749.928	11048.78
750.267	11135.33
750.605	11197.93
750.944	11218.26
751.283	11383.01
751.621	11510.46
751.96	11457.81
752.298	11599.72
752.636	11779.83
752.975	11846.04
753.313	11871.35
753.651	12062.99
753.989	12109.54
754.327	12195.87
754.666	12317.9
755.004	12404.67
755.342	12651.45
755.679	12757.66
756.017	12850.54
756.355	13007.14
756.693	13175.95
757.031	13313.8
757.368	13406.91
757.706	13527.36
758.044	13605.77
758.381	13887.35
758.719	14011.19
759.056	14161.01
759.394	14268.81
759.731	14391.06
760.068	14580.21
760.405	14748.79
760.743	14785.85
761.08	15060.42
761.417	15179.97
761.754	15451.6
762.091	15460.64
762.428	15644.59
762.765	15732.72
763.102	15970.46
763.438	16126.61
763.775	16287.74
764.112	16464.23
764.449	16612.7
764.785	16806.82
765.122	16875.52
765.458	17110.76
765.795	17163.19
766.131	17303.53
766.467	17467.14
766.804	17550.98
767.14	17604.99
767.476	17734.7
767.812	17894.02
768.148	18085.88
768.485	18134.24
768.821	18169.72
769.157	18330.62
769.492	18418.98
769.828	18489.71
770.164	18613.1
770.5	18679.54
770.836	18854.67
771.171	18811.06
771.507	18988.91
771.842	18981.68
772.178	19093.76
772.513	19122.46
772.849	19215.12
773.184	19291.27
773.519	19362.91
773.855	19444.04
774.19	19512.51
774.525	19493.98
774.86	19659.85
775.195	19647.65
775.53	19666.63
775.865	19693.75
776.2	19622.34
776.535	19630.25
776.87	19713.63
777.205	19725.84
777.539	19700.98
777.874	19855.78
778.209	19693.97
778.543	19761.54
778.878	19616.69
779.212	19785.04
779.547	19710.7
779.881	19809.22
780.215	19774.88
780.55	19907.08
780.884	19808.09
781.218	19789.34
781.552	19874.76
781.886	19839.73
782.22	19773.52
782.554	19744.82
782.888	19751.6
783.222	19705.95
783.556	19621.43
783.889	19627.99
784.223	19524.71
784.557	19517.03
784.89	19577.37
785.224	19613.98
785.557	19529.01
785.891	19578.5
786.224	19390.03
786.558	19570.59
786.891	19340.54
787.224	19330.82
787.557	19299.86
787.891	19350.48
788.224	19255.12
788.557	19385.96
788.89	19338.73
789.223	19317.71
789.556	19181.22
789.888	19261.44
790.221	19039.3
790.554	19024.61
790.887	19064.16
791.219	18962.24
791.552	18986.42
791.884	18769.48
792.217	18885.63
792.549	18882.24
792.882	18800.89
793.214	18678.41
793.546	18714.56
793.879	18683.6
794.211	18469.6
794.543	18712.08
794.875	18487.9
795.207	18512.31
795.539	18462.37
795.871	18508.47
796.203	18287.23
796.535	18300.56
796.867	18265.99
797.198	18190.06
797.53	18303.05
797.862	18112.09
798.193	18135.6
798.525	18006.79
798.856	18115.26
799.188	17888.15
799.519	17887.92
799.85	17825.55
800.182	17776.28
800.513	17765.44
800.844	17635.04
801.175	17803.85
801.506	17733.57
801.837	17593.69
802.168	17625.55
802.499	17468.95
802.83	17466.69
803.161	17379.01
803.491	17411.32
803.822	17445.67
804.153	17379.01
804.483	17309.63
804.814	17125.45
805.145	17131.33
805.475	17054.95
805.805	17067.15
806.136	17057.88
806.466	17101.05
806.796	17107.6
807.126	17008.62
807.457	16907.15
807.787	16901.96
808.117	16788.29
808.447	16800.26
808.777	16713.71
809.107	16750.32
809.436	16748.06
809.766	16685.69
810.096	16524.57
810.426	16491.8
810.755	16528.86
811.085	16486.37
811.414	16474.85
811.744	16418.81
812.073	16318.7
812.403	16401.63
812.732	16376.09
813.061	16214.97
813.39	16170
813.719	16146.72
814.049	16274.4
814.378	16156.21
814.707	16125.93
815.036	16072.15
815.365	16116.21
815.693	15911.93
816.022	15931.81
816.351	15831.7
816.68	15821.99
817.008	15791.03
817.337	15734.3
817.665	15737.24
817.994	15725.94
818.322	15631.26
818.651	15610.47
818.979	15605.95
819.307	15718.71
819.636	15607.53
819.964	15531.82
820.292	15578.83
820.62	15560.75
820.948	15472.16
821.276	15557.59
821.604	15472.16
821.932	15513.52
822.259	15427.42
822.587	15480.75
822.915	15561.2
823.243	15531.37
823.57	15429.23
823.898	15417.7
824.225	15487.53
824.553	15448.21
824.88	15460.41
825.207	15539.28
825.535	15404.59
825.862	15531.37
826.189	15451.37
826.516	15527.76
826.843	15668.32
827.17	15556.91
827.497	15587.87
827.824	15522.78
828.151	15509.45
828.478	15532.05
828.805	15557.36
829.131	15454.99
829.458	15452.05
829.785	15544.7
830.111	15508.77
830.438	15567.75
830.764	15553.29
831.09	15558.04
831.417	15434.42
831.743	15513.07
832.069	15533.63
832.395	15339.29
832.722	15403.92
833.048	15334.09
833.374	15430.13
833.7	15344.71
834.026	15308.78
834.351	15340.19
834.677	15321.43
835.003	15324.15
835.329	15307.42
835.654	15305.39
835.98	15322.11
836.306	15334.77
836.631	15188.56
836.956	15309.68
837.282	15192.17
837.607	15151.95
837.932	15165.51
838.258	15141.55
838.583	15147.88
838.908	15081.44
839.233	15058.84
839.558	15050.93
839.883	15022.91
840.208	14904.95
840.533	14905.17
840.858	14893.42
841.182	14890.71
841.507	14882.57
841.832	14862.46
842.156	14761.9
842.481	14833.54
842.805	14727.32
843.13	14758.96
843.454	14696.14
843.778	14719.19
844.103	14575.92
844.427	14592.64
844.751	14612.75
845.075	14486.2
845.399	14545.86
845.723	14470.83
846.047	14370.05
846.371	14289.6
846.695	14241.01
847.019	14301.57
847.343	14197.62
847.666	14063.84
847.99	13985.2
848.313	13980.68
848.637	13824.52
848.96	13931.87
849.284	13834.01
849.607	13711.76
849.931	13725.54
850.254	13649.39
850.577	13623.4
850.9	13534.81
851.223	13482.39
851.546	13467.47
851.869	13276.52
852.192	13446.91
852.515	13284.2
852.838	13219.79
853.161	13242.84
853.483	13175.95
853.806	13091.66
854.129	13041.04
854.451	13000.36
854.774	13001.49
855.096	13004.21
855.419	12927.37
855.741	12966.47
856.063	12786.36
856.385	12798.79
856.708	12664.55
857.03	12709.3
857.352	12700.71
857.674	12622.97
857.996	12550.43
858.318	12498.23
858.64	12516.54
858.961	12477.89
859.283	12415.52
859.605	12406.48
859.926	12400.61
860.248	12328.74
860.57	12264.11
860.891	12341.85
861.212	12169.2
861.534	12298.01
861.855	12173.72
862.176	12130.33
862.498	12144.79
862.819	12125.36
863.14	12120.16
863.461	12090.11
863.782	12046.49
864.103	12029.54
864.424	11979.15
864.745	12022.09
865.065	11934.18
865.386	11894.18
865.707	11871.81
866.027	11852.37
866.348	11772.6
866.668	11817.12
866.989	11797.46
867.309	11657.35
867.63	11788.87
867.95	11751.36
868.27	11712.04
868.59	11816.89
868.91	11670.91
869.23	11702.55
869.55	11648.76
869.87	11655.99
870.19	11583
870.51	11656.9
870.83	11671.59
871.15	11536.9
871.469	11550.46
871.789	11583.68
872.109	11564.7
872.428	11492.83
872.748	11510.23
873.067	11493.74
873.386	11463.91
873.706	11505.49
874.025	11394.53
874.344	11300.3
874.663	11327.19
874.982	11349.56
875.301	11447.18
875.62	11269.11
875.939	11270.92
876.258	11327.87
876.577	11266.4
876.896	11223.46
877.214	11235.89
877.533	11265.04
877.852	11200.19
878.17	11157.47
878.489	11112.5
878.807	11145.05
879.125	11107.08
879.444	11080.87
879.762	11020.3
880.08	11093.75
880.398	11059.85
880.716	11017.14
881.034	10989.57
881.352	10982.11
881.67	10947.54
881.988	10857.14
882.306	10885.39
882.624	10900.08
882.941	10752.51
883.259	10773.3
883.577	10750.71
883.894	10732.63
884.212	10802.46
884.529	10718.62
884.846	10637.49
885.164	10679.07
885.481	10669.58
885.798	10706.87
886.115	10511.39
886.432	10573.54
886.75	10471.84
887.067	10493.31
887.383	10506.42
887.7	10467.78
888.017	10406.99
888.334	10390.49
888.651	10409.02
888.967	10405.86
889.284	10296.03
889.6	10321.79
889.917	10246.54
890.233	10223.71
890.55	10152.53
890.866	10235.01
891.182	10142.13
891.498	10151.85
891.815	10102.81
892.131	10099.88
892.447	9963.61
892.763	9961.8
893.079	9958.41
893.395	9926.09
893.71	9940.78
894.026	9924.06
894.342	9825.76
894.657	9815.14
894.973	9799.77
895.289	9816.27
895.604	9750.51
895.92	9687.91
896.235	9719.32
896.55	9604.52
896.865	9628.7
897.181	9576.5
897.496	9571.75
897.811	9538.31
898.126	9482.72
898.441	9397.3
898.756	9424.87
899.071	9318.2
899.386	9311.42
899.7	9275.49
900.015	9225.32
900.33	9168.83
900.644	9157.3
900.959	9167.02
901.273	9087.92
901.588	9059
901.902	9044.08
902.216	9018.77
902.531	8968.15
902.845	8939
903.159	8924.54
903.473	8786.01
903.787	8889.96
904.101	8837.99
904.415	8738.33
904.729	8774.71
905.042	8645.22
905.356	8645.45
905.67	8708.27
905.984	8662.17
906.297	8565
906.611	8568.84
906.924	8560.26
907.237	8547.15
907.551	8460.37
907.864	8442.52
908.177	8401.84
908.491	8373.14
908.804	8303.76
909.117	8281.17
909.43	8253.14
909.743	8176.08
910.056	8221.28
910.368	8194.84
910.681	8123.2
910.994	8102.41
911.307	8056.77
911.619	8000.95
911.932	8030.1
912.244	7945.58
912.557	7949.42
912.869	7924.34
913.181	7807.51
913.494	7853.38
913.806	7780.61
914.118	7774.74
914.43	7749.65
914.742	7723.67
915.054	7635.08
915.366	7649.77
915.678	7549.89
915.99	7519.6
916.302	7508.08
916.613	7469.66
916.925	7499.04
917.236	7482.54
917.548	7422.88
917.859	7467.18
918.171	7363.45
918.482	7283.9
918.794	7233.51
919.105	7303.11
919.416	7180.63
919.727	7156.22
920.038	7132.04
920.349	7105.83
920.66	7103.34
920.971	7145.15
921.282	7092.27
921.593	6974.08
921.903	6961.43
922.214	6937.02
922.525	6950.81
922.835	6909.68
923.146	6820.19
923.456	6878.94
923.767	6804.82
924.077	6758.27
924.387	6767.31
924.697	6715.78
925.008	6634.88
925.318	6702.68
925.628	6636.92
925.938	6662.9
926.248	6561.21
926.558	6578.16
926.867	6513.3
927.177	6491.16
927.487	6525.73
927.796	6436.7
928.106	6450.25
928.416	6391.5
928.725	6398.05
929.034	6356.92
929.344	6308.56
929.653	6314.89
929.962	6263.82
930.271	6262.69
930.581	6241.9
930.89	6194.89
931.199	6177.72
931.508	6121.22
931.817	6178.62
932.125	6150.6
932.434	6035.58
932.743	6036.71
933.051	6030.38
933.36	5958.06
933.669	5973.43
933.977	5937.73
934.286	5909.7
934.594	5895.01
934.902	5848.46
935.21	5834.23
935.519	5840.33
935.827	5800.55
936.135	5771.63
936.443	5708.58
936.751	5688.24
937.059	5738.18
937.367	5701.12
937.674	5632.42
937.982	5679.65
938.29	5627.22
938.597	5602.37
938.905	5531.86
939.213	5526.21
939.52	5507.91
939.827	5516.04
940.135	5438.53
940.442	5408.02
940.749	5393.11
941.056	5464.97
941.363	5359.44
941.67	5330.06
941.977	5273.34
942.284	5290.06
942.591	5303.62
942.898	5280.34
943.205	5230.63
943.511	5211.19
943.818	5154.92
944.125	5166.9
944.431	5148.82
944.738	5144.3
945.044	5056.62
945.35	5067.47
945.657	5032.89
945.963	5055.26
946.269	5025.21
946.575	5017.07
946.881	4953.8
947.187	4924.87
947.493	4937.07
947.799	4919.67
948.105	4894.36
948.41	4874.48
948.716	4836.74
949.022	4846
949.327	4814.36
949.633	4749.73
949.938	4787.25
950.244	4762.39
950.549	4712.67
950.854	4681.71
951.16	4705.67
951.465	4662.05
951.77	4609.85
952.075	4619.79
952.38	4549.51
952.685	4571.43
952.99	4490.76
953.294	4536.63
953.599	4500.25
953.904	4527.59
954.209	4466.13
954.513	4478.55
954.818	4407.6
955.122	4450.08
955.426	4408.5
955.731	4375.28
956.035	4368.95
956.339	4362.85
956.643	4382.06
956.948	4318.33
957.252	4260.03
957.556	4296.86
957.86	4312.23
958.163	4204.89
958.467	4224.32
958.771	4180.48
959.075	4231.56
959.378	4159.24
959.682	4138.22
959.985	4117.89
960.289	4112.46
960.592	4082.18
960.896	4068.4
961.199	4059.81
961.502	4059.58
961.805	4031.56
962.108	4018.68
962.411	3973.71
962.714	3966.93
963.017	3975.74
963.32	3940.04
963.623	3914.28
963.926	3911.79
964.228	3849.87
964.531	3871.56
964.833	3852.36
965.136	3786.6
965.438	3825.46
965.741	3812.58
966.043	3805.8
966.345	3784.34
966.648	3770.32
966.95	3724.22
967.252	3662.98
967.554	3691.68
967.856	3675.41
968.158	3656.66
968.46	3620.72
968.761	3643.1
969.063	3609.2
969.365	3597.45
969.666	3612.36
969.968	3547.51
970.269	3570.1
970.571	3534.85
970.872	3522.65
971.174	3527.62
971.475	3507.73
971.776	3494.4
972.077	3466.38
972.378	3455.98
972.679	3472.48
972.98	3395.42
973.281	3389.32
973.582	3384.8
973.883	3431.8
974.183	3357.45
974.484	3323.1
974.785	3328.98
975.085	3342.99
975.386	3324.23
975.686	3310
975.986	3287.17
976.287	3267.96
976.587	3248.3
976.887	3197.68
977.187	3248.3
977.487	3196.55
977.787	3193.39
978.087	3140.51
978.387	3175.99
978.687	3151.58
978.987	3100.06
979.286	3101.87
979.586	3107.07
979.885	3074.75
980.185	3044.69
980.484	3047.63
980.784	2996.56
981.083	3038.14
981.382	3011.93
981.682	2976
981.981	2989.78
982.28	2982.32
982.579	2971.7
982.878	2999.72
983.177	2934.64
983.475	2949.33
983.774	2912.49
984.073	2912.95
984.372	2891.25
984.67	2858.71
984.969	2905.26
985.267	2871.37
985.566	2877.69
985.864	2830.91
986.162	2806.73
986.461	2779.84
986.759	2821.2
987.057	2732.16
987.355	2760.86
987.653	2742.56
987.951	2709.34
988.249	2723.57
988.547	2727.41
988.844	2704.59
989.142	2670.24
989.44	2689.45
989.737	2704.14
990.035	2641.31
990.332	2657.81
990.63	2596.34
990.927	2612.39
991.224	2610.81
991.521	2586.4
991.819	2557.02
992.116	2566.97
992.413	2531.49
992.71	2538.49
993.006	2499.4
993.303	2515.22
993.6	2510.47
993.897	2503.24
994.193	2463.01
994.49	2501.66
994.787	2473.18
995.083	2426.63
995.379	2443.81
995.676	2429.57
995.972	2409.68
996.268	2418.72
996.565	2378.04
996.861	2403.35
997.157	2366.07
997.453	2359.06
997.749	2355.9
998.044	2299.4
998.34	2309.57
998.636	2326.52
998.932	2282.91
999.227	2275.9
999.523	2250.82
999.818	2247.43
1000.114	2232.06
1000.409	2235.45
1000.704	2198.84
1001	2179.86
1001.295	2206.52
1001.59	2192.51
1001.885	2191.84
1002.18	2152.74
1002.475	2141.44
1002.77	2143.25
1003.065	2172.85
1003.359	2142.12
1003.654	2089.01
1003.949	2108.67
1004.243	2096.47
1004.538	2051.5
1004.832	2068.22
1005.127	2049.47
1005.421	2033.87
1005.715	2019.86
1006.009	2024.83
1006.304	1967.43
1006.598	1999.75
1006.892	1974.44
1007.186	1949.36
1007.48	1953.42
1007.773	1928.79
1008.067	1918.85
1008.361	1909.58
1008.655	1883.59
1008.948	1888.11
1009.242	1879.3
1009.535	1862.58
1009.829	1869.81
1010.122	1852.86
1010.415	1834.78
1010.708	1850.15
1011.001	1817.61
1011.295	1786.2
1011.588	1804.5
1011.881	1762.47
1012.173	1749.36
1012.466	1786.65
1012.759	1734.45
1013.052	1754.11
1013.344	1740.55
1013.637	1718.18
1013.93	1721.56
1014.222	1720.43
1014.514	1712.53
1014.807	1698.74
1015.099	1694.22
1015.391	1663.49
1015.683	1672.53
1015.976	1656.93
1016.268	1655.13
1016.56	1634.79
1016.851	1614.9
1017.143	1628.01
1017.435	1578.97
1017.727	1588.24
1018.018	1586.65
1018.31	1559.08
1018.602	1570.16
1018.893	1556.15
1019.185	1529.71
1019.476	1537.61
1019.767	1536.94
1020.058	1489.48
1020.35	1481.35
1020.641	1481.57
1020.932	1473.89
1021.223	1481.12
1021.514	1457.84
1021.804	1437.73
1022.095	1435.24
1022.386	1425.98
1022.677	1451.74
1022.967	1404.74
1023.258	1414.45
1023.548	1376.94
1023.839	1385.75
1024.129	1352.54
1024.419	1344.17
1024.709	1342.59
1025	1325.42
1025.29	1348.69
1025.58	1358.41
1025.87	1318.64
1026.16	1322.48
1026.449	1306.89
1026.739	1288.58
1027.029	1288.13
1027.319	1282.71
1027.608	1284.06
1027.898	1282.71
1028.187	1257.17
1028.477	1240.22
1028.766	1251.07
1029.055	1232.76
1029.344	1239.32
1029.634	1218.98
1029.923	1214.91
1030.212	1196.15
1030.501	1189.83
1030.79	1188.7
1031.078	1152.99
1031.367	1152.31
1031.656	1163.16
1031.945	1178.08
1032.233	1181.69
1032.522	1143.28
1032.81	1133.78
1033.099	1140.79
1033.387	1104.41
1033.675	1109.15
1033.963	1103.95
1034.251	1107.57
1034.54	1104.18
1034.828	1067.8
1035.116	1091.3
1035.403	1068.25
1035.691	1063.28
1035.979	1052.88
1036.267	1049.94
1036.554	1037.74
1036.842	1039.1
1037.129	1033
1037.417	1029.15
1037.704	1047.91
1037.992	1002.04
1038.279	1002.04
1038.566	971.98
1038.853	971.98
1039.14	971.98
