Data from hue_34_FLMS001491_00011.txt Node
Date: Tue Feb 07 17:25:15 GMT 2017
User: dcchb
Spectrometer: FLMS00149
Trigger mode: 0
Integration Time (sec): 2.000000E-2
Scans to average: 10
Electric dark correction enabled: true
Nonlinearity correction enabled: false
Boxcar width: 0
XAxis mode: Wavelengths
Number of Pixels in Spectrum: 2048
>>>>>Begin Spectral Data<<<<<
341.393	-14.9
341.776	-14.9
342.16	-14.9
342.543	-54
342.927	-51.06
343.31	-51.96
343.693	-64.62
344.077	-57.84
344.46	-50.83
344.843	-64.39
345.226	-49.7
345.61	-14.45
345.993	-44.73
346.376	-34.56
346.759	32.1
347.142	34.59
347.525	41.82
347.908	35.04
348.291	66.23
348.674	104.19
349.057	119.11
349.44	126.56
349.823	148.71
350.206	166.11
350.588	201.36
350.971	231.87
351.354	226
351.737	220.35
352.119	250.4
352.502	264.64
352.884	266.67
353.267	294.24
353.65	300.8
354.032	297.41
354.414	308.25
354.797	332.21
355.179	317.97
355.562	319.1
355.944	317.97
356.326	317.75
356.709	322.94
357.091	340.12
357.473	357.29
357.855	339.89
358.238	327.24
358.62	354.13
359.002	337.63
359.384	361.36
359.766	348.03
360.148	352.32
360.53	351.87
360.912	320.46
361.294	329.05
361.676	348.71
362.057	340.57
362.439	350.06
362.821	341.93
363.203	330.4
363.584	343.51
363.966	319.33
364.348	332.66
364.729	314.13
365.111	324.53
365.493	329.72
365.874	322.27
366.256	306.9
366.637	315.49
367.019	326.56
367.4	331.53
367.781	320.91
368.163	327.24
368.544	311.87
368.925	328.37
369.306	319.33
369.688	310.97
370.069	311.64
370.45	333.11
370.831	338.08
371.212	313
371.593	316.84
371.974	328.14
372.355	313.45
372.736	323.4
373.117	326.56
373.498	329.05
373.879	315.03
374.26	314.81
374.641	303.51
375.021	325.88
375.402	324.98
375.783	329.05
376.163	327.46
376.544	319.1
376.925	320.91
377.305	316.84
377.686	348.93
378.066	317.52
378.447	325.66
378.827	329.05
379.208	331.08
379.588	349.16
379.968	331.53
380.349	341.02
380.729	334.69
381.109	354.81
381.489	336.28
381.87	335.82
382.25	353.9
382.63	336.95
383.01	349.84
383.39	353.68
383.77	342.15
384.15	341.25
384.53	347.58
384.91	353.23
385.29	329.72
385.67	362.94
386.049	356.39
386.429	339.89
386.809	358.87
387.189	357.29
387.568	367.69
387.948	355.94
388.328	380.57
388.707	350.97
389.087	375.82
389.466	372.89
389.846	347.58
390.225	367.46
390.605	382.15
390.984	374.69
391.363	361.81
391.743	362.94
392.122	385.54
392.501	378.99
392.881	385.09
393.26	366.11
393.639	385.09
394.018	374.92
394.397	371.76
394.776	372.89
395.155	368.59
395.534	370.4
395.913	406.78
396.292	390.51
396.671	385.54
397.05	384.41
397.429	388.03
397.808	387.57
398.186	398.65
398.565	384.18
398.944	370.17
399.323	388.93
399.701	406.78
400.08	392.77
400.458	413.34
400.837	419.21
401.215	400.68
401.594	418.76
401.972	400.91
402.351	386.44
402.729	414.01
403.107	411.98
403.486	410.17
403.864	400.23
404.242	408.36
404.62	408.14
404.999	423.51
405.377	432.55
405.755	414.01
406.133	436.16
406.511	426.22
406.889	436.16
407.267	426.67
407.645	426.22
408.023	425.99
408.401	444.97
408.779	452.21
409.156	451.53
409.534	438.42
409.912	461.24
410.29	462.37
410.667	469.15
411.045	447.91
411.422	449.72
411.8	476.84
412.178	488.59
412.555	480.23
412.933	485.88
413.31	485.43
413.687	469.15
414.065	492.88
414.442	463.96
414.819	471.19
415.197	497.4
415.574	498.76
415.951	478.87
416.328	483.62
416.705	493.56
417.082	512.99
417.46	496.27
417.837	526.55
418.214	515.03
418.591	532.66
418.967	529.04
419.344	515.71
419.721	531.3
420.098	516.38
420.475	531.75
420.852	527.46
421.228	533.11
421.605	544.86
421.982	544.18
422.358	554.58
422.735	547.34
423.111	540.11
423.488	519.1
423.864	550.28
424.241	574.69
424.617	571.3
424.994	554.12
425.37	572.2
425.746	571.52
426.123	575.14
426.499	555.48
426.875	570.85
427.251	586.67
427.627	578.53
428.003	605.42
428.379	613.56
428.756	584.86
429.132	615.59
429.507	593.67
429.883	609.04
430.259	600.45
430.635	611.52
431.011	591.19
431.387	637.96
431.763	649.49
432.138	669.38
432.514	621.01
432.89	674.35
433.265	664.86
433.641	668.02
434.016	661.24
434.392	666.21
434.767	696.27
435.143	672.09
435.518	708.24
435.894	707.11
436.269	725.87
436.644	701.01
437.02	717.96
437.395	710.5
437.77	720.67
438.145	750.28
438.52	719.54
438.895	747.57
439.271	742.59
439.646	745.08
440.021	764.51
440.395	740.56
440.77	736.72
441.145	749.6
441.52	769.49
441.895	768.58
442.27	790.73
442.645	759.99
443.019	782.37
443.394	781.24
443.769	795.7
444.143	772.2
444.518	785.3
444.892	794.8
445.267	807.45
445.641	809.26
446.016	816.26
446.39	814.46
446.764	828.69
447.139	845.19
447.513	835.47
447.887	838.41
448.262	846.55
448.636	831.18
449.01	841.57
449.384	840.44
449.758	833.21
450.132	853.33
450.506	876.15
450.88	868.92
451.254	882.25
451.628	888.35
452.002	925.41
452.376	913.89
452.75	926.77
453.123	897.84
453.497	938.07
453.871	925.87
454.244	966.77
454.618	966.77
454.992	951.18
455.365	948.46
455.739	976.26
456.112	981.23
456.486	991.4
456.859	1031.85
457.232	1021.23
457.606	1012.42
457.979	1038.63
458.352	1028.01
458.725	1055.58
459.099	1034.34
459.472	1089.93
459.845	1092.19
460.218	1092.19
460.591	1110.27
460.964	1110.72
461.337	1113.88
461.71	1132.64
462.083	1165.86
462.456	1172.86
462.829	1175.58
463.201	1191.62
463.574	1202.24
463.947	1234.11
464.32	1234.78
464.692	1229.13
465.065	1243.6
465.438	1291.28
465.81	1332.86
466.183	1308.68
466.555	1327.66
466.928	1338.74
467.3	1351.84
467.672	1357.49
468.045	1362.01
468.417	1372.86
468.789	1408.56
469.161	1450.6
469.534	1474.1
469.906	1487.43
470.278	1503.48
470.65	1544.83
471.022	1527.88
471.394	1581.22
471.766	1583.02
472.138	1647.43
472.51	1692.17
472.882	1702.57
473.253	1709.12
473.625	1725.39
473.997	1796.13
474.369	1829.8
474.74	1815.11
475.112	1869.12
475.484	1910.92
475.855	1947.76
476.227	1984.59
476.598	2040.19
476.97	2062.11
477.341	2116.79
477.713	2169.67
478.084	2209.22
478.455	2257.36
478.827	2307.75
479.198	2375.09
479.569	2379.39
479.94	2477.69
480.311	2510.23
480.682	2591.13
481.053	2705.48
481.424	2748.87
481.795	2790.45
482.166	2830.9
482.537	2910.45
482.908	2989.31
483.279	3052.14
483.65	3111.34
484.021	3227.95
484.391	3264.11
484.762	3371.45
485.133	3377.78
485.503	3486.93
485.874	3594.5
486.244	3628.85
486.615	3737.99
486.985	3785.68
487.356	3917.43
487.726	3968.5
488.097	4086.46
488.467	4147.93
488.837	4254.82
489.207	4316.06
489.578	4417.75
489.948	4465.21
490.318	4608.71
490.688	4668.37
491.058	4787.91
491.428	4829.27
491.798	4950.39
492.168	5061.35
492.538	5126.88
492.908	5251.85
493.278	5321.46
493.648	5387.67
494.017	5510.38
494.387	5563.26
494.757	5601.22
495.126	5696.81
495.496	5764.38
495.866	5860.43
496.235	5962.8
496.605	6009.12
496.974	6139.06
497.344	6208.89
497.713	6257.25
498.082	6341.99
498.452	6408.89
498.821	6458.6
499.19	6535.66
499.559	6617.02
499.928	6716.45
500.298	6753.96
500.667	6847.29
501.036	6836.22
501.405	6970.68
501.774	7046.38
502.143	7072.6
502.512	7110.11
502.88	7208.41
503.249	7236.43
503.618	7352.36
503.987	7390.55
504.356	7425.36
504.724	7460.16
505.093	7529.31
505.462	7598.01
505.83	7646.59
506.199	7821.96
506.567	7854.72
506.936	7850.2
507.304	7985.79
507.672	8013.36
508.041	8110.54
508.409	8150.53
508.777	8159.35
509.145	8309.17
509.514	8282.73
509.882	8302.62
510.25	8348.95
510.618	8457.19
510.986	8520.92
511.354	8546.68
511.722	8600.69
512.09	8673.46
512.458	8628.26
512.826	8854.92
513.193	8836.17
513.561	8967.69
513.929	8878.42
514.297	8957.52
514.664	8992.09
515.032	9153.22
515.4	9196.16
515.767	9206.33
516.135	9283.61
516.502	9187.12
516.869	9387.56
517.237	9358.86
517.604	9374.23
517.972	9479.31
518.339	9480.22
518.706	9543.94
519.073	9554.79
519.44	9694.67
519.808	9698.74
520.175	9757.5
520.542	9843.82
520.909	9879.53
521.276	9897.38
521.643	9955.68
522.009	10045.63
522.376	10131.27
522.743	10172.18
523.11	10182.12
523.477	10328.56
523.843	10347.99
524.21	10464.37
524.577	10547.76
524.943	10573.52
525.31	10591.83
525.676	10681.09
526.043	10697.36
526.409	10817.81
526.776	10936.22
527.142	10914.76
527.508	10961.99
527.874	11056.45
528.241	11107.52
528.607	11222.09
528.973	11173.28
529.339	11330.34
529.705	11382.31
530.071	11441.97
530.437	11499.37
530.803	11558.35
531.169	11564.23
531.535	11581.63
531.901	11713.38
532.267	11791.34
532.632	11766.71
532.998	11879.25
533.364	11987.27
533.73	11935.29
534.095	12124.67
534.461	12084.89
534.826	12143.42
535.192	12110.2
535.557	12248.05
535.923	12291.44
536.288	12323.31
536.653	12324.66
537.019	12418.67
537.384	12494.83
537.749	12450.31
538.114	12533.02
538.479	12631.77
538.845	12600.81
539.21	12625.67
539.575	12699.12
539.94	12796.74
540.305	12849.85
540.67	12789.28
541.034	12888.49
541.399	12962.84
541.764	12924.65
542.129	12982.5
542.494	13050.29
542.858	13179.33
543.223	13203.51
543.587	13226.11
543.952	13245.77
544.316	13372.77
544.681	13363.73
545.045	13476.72
545.41	13489.38
545.774	13605.31
546.138	13651.86
546.503	13660.45
546.867	13661.8
547.231	13808.69
547.595	13737.28
547.959	13857.28
548.324	13884.62
548.688	13879.42
549.052	13944.28
549.416	14059.98
549.779	14008.23
550.143	14029.25
550.507	14154.67
550.871	14068.8
551.235	14236.7
551.599	14247.55
551.962	14384.49
552.326	14410.48
552.689	14469.24
553.053	14429.24
553.417	14502.46
553.78	14669.46
554.143	14621.55
554.507	14706.52
554.87	14790.36
555.234	14865.84
555.597	14813.86
555.96	14911.71
556.323	14896.57
556.686	14984.03
557.05	15040.52
557.413	15138.83
557.776	15111.71
558.139	15162.33
558.502	15250.69
558.865	15188.54
559.228	15371.14
559.59	15373.17
559.953	15471.25
560.316	15575.65
560.679	15690.45
561.041	15613.84
561.404	15755.53
561.767	15798.24
562.129	15774.06
562.492	15929.99
562.854	15943.55
563.217	15928.18
563.579	16032.59
563.941	16120.72
564.304	16069.87
564.666	16220.6
565.028	16260.15
565.39	16246.14
565.753	16470.99
566.115	16447.94
566.477	16537.88
566.839	16539.47
567.201	16657.88
567.563	16619.01
567.925	16729.97
568.287	16826.24
568.648	16855.39
569.01	16979.45
569.372	17090.41
569.734	16948.72
570.095	17248.37
570.457	17354.81
570.819	17262.39
571.18	17330.86
571.542	17428.48
571.903	17467.35
572.265	17577.86
572.626	17685.65
572.987	17698.08
573.349	17833.9
573.71	17898.07
574.071	17894.68
574.432	18000.9
574.794	18209.25
575.155	18210.61
575.516	18243.6
575.877	18436.14
576.238	18456.48
576.599	18628
576.96	18706.19
577.32	18746.19
577.681	18928.78
578.042	19016.24
578.403	19144.6
578.763	19205.16
579.124	19444.02
579.485	19503
579.845	19756.78
580.206	19877.91
580.566	19978.47
580.927	20170.33
581.287	20290.55
581.648	20437.67
582.008	20708.85
582.368	20672.46
582.728	20953.14
583.089	21113.36
583.449	21336.18
583.809	21505.66
584.169	21807.58
584.529	21900.91
584.889	22218.64
585.249	22295.25
585.609	22469.03
585.969	22634.67
586.329	22912.86
586.688	23094.1
587.048	23337.25
587.408	23550.81
587.768	23637.36
588.127	23952.15
588.487	24186.72
588.846	24585.81
589.206	24667.16
589.565	24992.13
589.925	25210.65
590.284	25464.43
590.643	25709.62
591.003	25998.65
591.362	26243.84
591.721	26379.89
592.08	26590.73
592.44	27001.79
592.799	27228.68
593.158	27364.04
593.517	27566.52
593.876	27853.29
594.235	28051.25
594.593	28282.43
594.952	28570.56
595.311	28692.59
595.67	29139.36
596.029	29520.59
596.387	29647.82
596.746	29910.64
597.104	30032.44
597.463	30488.48
597.822	30620.23
598.18	30670.62
598.538	30967.34
598.897	31430.15
599.255	31364.61
599.613	32049.11
599.972	31931.6
600.33	32299.05
600.688	32379.5
601.046	32635.31
601.404	32915.31
601.762	33100.39
602.12	33490.21
602.478	33627.83
602.836	33842.97
603.194	33866.02
603.552	34174.26
603.91	34068.04
604.268	34463.29
604.625	34572.66
604.983	35004.74
605.341	34819.66
605.698	35268.01
606.056	35338.07
606.413	35450.38
606.771	35754.33
607.128	35961.55
607.485	35900.09
607.843	36176.69
608.2	36475.44
608.557	36655.1
608.914	36694.87
609.272	36995.65
609.629	37135.99
609.986	37403.32
610.343	37324.68
610.7	37776.87
611.057	37790.66
611.414	37818.45
611.771	38102.29
612.127	38174.38
612.484	38260.25
612.841	38538.21
613.198	38594.25
613.554	38547.25
613.911	39015.94
614.267	39052.55
614.624	39170.74
614.98	39325.08
615.337	39327.12
615.693	39541.57
616.05	39551.29
616.406	39942.47
616.762	39930.72
617.118	39980.21
617.475	39928.23
617.831	40207.32
618.187	40353.98
618.543	40382.91
618.899	40699.28
619.255	40731.15
619.611	40699.28
619.967	40918.94
620.323	41070.57
620.678	40906.06
621.034	40937.47
621.39	41153.06
621.746	41012.04
622.101	41582.42
622.457	41418.59
622.812	41388.98
623.168	41585.36
623.523	41657.22
623.879	41806.82
624.234	41530.67
624.589	41735.64
624.945	41913.26
625.3	41767.96
625.655	41881.17
626.01	41988.74
626.365	41957.55
626.72	42084.78
627.075	42124.1
627.43	42224.21
627.785	42067.83
628.14	42219.69
628.495	42267.83
628.85	42290.2
629.205	42121.39
629.559	42424.21
629.914	42275.74
630.269	42367.26
630.623	42267.6
630.978	42165.23
631.332	42514.38
631.687	42488.39
632.041	42364.32
632.396	42487.94
632.75	42280.03
633.104	42378.33
633.459	42151.45
633.813	42284.33
634.167	42305.34
634.521	42285
634.875	42416.98
635.229	42372.91
635.583	42211.79
635.937	42288.62
636.291	42200.94
636.645	42290.2
636.999	42144.89
637.352	42360.26
637.706	42154.16
638.06	42372.01
638.413	42228.51
638.767	42137.21
639.121	42215.85
639.474	41928.4
639.828	42140.38
640.181	41939.7
640.534	42069.64
640.888	41926.82
641.241	41825.36
641.594	41978.12
641.947	42175.63
642.301	41920.27
642.654	41957.33
643.007	41984.45
643.36	41802.53
643.713	41850.44
644.066	42075.74
644.419	41802.76
644.771	41526.83
645.124	41141.53
645.477	41201.87
645.83	40924.14
646.182	40733.41
646.535	40767.76
646.888	40621.32
647.24	40665.84
647.593	40735.44
647.945	40637.82
648.298	40603.69
648.65	40515.11
649.002	40255
649.355	40670.58
649.707	40480.76
650.059	40651.83
650.411	41212.72
650.763	41064.92
651.115	41617
651.467	41339.49
651.819	41471.69
652.171	41321.41
652.523	41357.34
652.875	41223.56
653.227	41148.31
653.578	41429.43
653.93	41209.1
654.282	41139.72
654.633	41065.83
654.985	41027.18
655.337	41061.08
655.688	41189.89
656.039	41355.31
656.391	40913.29
656.742	41020.18
657.094	41175.2
657.445	41138.59
657.796	41112.83
658.147	41091.82
658.498	41033.96
658.849	41090.91
659.2	41036.22
659.551	40993.96
659.902	41153.51
660.253	41003.23
660.604	41086.62
660.955	40915.32
661.306	41045.71
661.656	40958.26
662.007	40917.13
662.358	40872.61
662.708	40846.4
663.059	40932.95
663.409	40705.84
663.76	40901.76
664.11	40918.03
664.461	41082.78
664.811	40986.06
665.161	41004.59
665.511	40825.38
665.862	41053.85
666.212	41017.69
666.562	40927.75
666.912	40857.02
667.262	40754.65
667.612	40882.1
667.962	40868.77
668.312	40809.11
668.662	40926.17
669.011	40816.34
669.361	40772.95
669.711	40689.34
670.06	40688.89
670.41	40735.21
670.76	40779.28
671.109	40812.27
671.459	40883.91
671.808	40709.23
672.157	40738.15
672.507	40531.83
672.856	40498.84
673.205	40656.57
673.554	40672.17
673.904	40513.07
674.253	40858.6
674.602	40516.01
674.951	40016.82
675.3	39795.8
675.649	40402.79
675.998	40461.32
676.346	40534.99
676.695	40596.23
677.044	40376.58
677.393	40469.68
677.741	40527.99
678.09	40230.37
678.438	40292.51
678.787	40417.26
679.135	40304.72
679.484	39983.82
679.832	40071.05
680.181	39991.96
680.529	40103.37
680.877	39991.28
681.225	39971.84
681.573	40223.14
681.922	39856.82
682.27	39642.36
682.618	39743.83
682.966	39672.19
683.314	39706.54
683.661	39554.23
684.009	39565.98
684.357	39491.63
684.705	39448.02
685.053	39455.7
685.4	39345.19
685.748	39215.71
686.095	39051.87
686.443	39129.61
686.79	39034.02
687.138	39053.22
687.485	39122.38
687.832	38909.05
688.18	38947.24
688.527	38751.09
688.874	38636.29
689.221	38699.79
689.568	38668.83
689.915	38550.64
690.262	38555.38
690.609	38413.47
690.956	38229.29
691.303	38286.47
691.65	38043.08
691.997	38105.68
692.344	37779.13
692.69	37866.82
693.037	37694.62
693.383	37495.3
693.73	37706.14
694.077	37451.91
694.423	37446.94
694.769	37315.87
695.116	37342.08
695.462	37318.81
695.808	37062.54
696.155	37206.72
696.501	36862.77
696.847	36837.46
697.193	36624.81
697.539	36735.77
697.885	36276.12
698.231	36350.02
698.577	36308.89
698.923	36378.04
699.269	36025.73
699.614	35995
699.96	36013.53
700.306	36095.11
700.651	35805.63
700.997	35833.42
701.342	35606.76
701.688	35610.6
702.033	35517.95
702.379	35549.81
702.724	35422.13
703.069	35419.65
703.415	34964.52
703.76	35126.77
704.105	35030.73
704.45	34981.92
704.795	34764.75
705.14	34686.33
705.485	34568.82
705.83	34565.66
706.175	34585.77
706.52	34397.75
706.865	34217.87
707.209	34210.64
707.554	34213.35
707.899	34267.59
708.243	34002.06
708.588	34063.75
708.932	33832.34
709.277	33779.92
709.621	33756.19
709.966	33446.14
710.31	33672.58
710.654	33278.69
710.998	33425.8
711.342	33411.56
711.687	33368.63
712.031	33245.69
712.375	33106.71
712.719	33094.96
713.063	33049.77
713.407	33046.38
713.75	32899.49
714.094	32791.02
714.438	32835.31
714.782	32760.51
715.125	32618.59
715.469	32754.63
715.812	32573.62
716.156	32402.1
716.499	32327.53
716.843	32404.59
717.186	32316.9
717.53	32395.55
717.873	32365.72
718.216	32318.26
718.559	32132.28
718.902	31903.36
719.246	31942.45
719.589	31892.96
719.932	31739.74
720.275	31875.79
720.617	31695.45
720.96	31736.58
721.303	31611.39
721.646	31659.75
721.989	31419.53
722.331	31628.11
722.674	31462.24
723.016	31570.26
723.359	31405.74
723.701	31448.9
724.044	31189.02
724.386	31116.26
724.729	31293.65
725.071	31218.63
725.413	31078.29
725.755	31003.27
726.097	31057.73
726.439	30796.27
726.782	30787.45
727.124	30930.73
727.465	30786.78
727.807	30772.99
728.149	30681.02
728.491	30696.83
728.833	30689.6
729.175	30537.29
729.516	30553.79
729.858	30408.93
730.199	30421.14
730.541	30422.27
730.882	30391.76
731.224	30467.91
731.565	30202.16
731.906	30161.03
732.248	30283.06
732.589	30037.64
732.93	29982.73
733.271	29977.98
733.612	30007.59
733.953	29983.18
734.294	29978.89
734.635	29731.89
734.976	29927.59
735.317	29751.77
735.658	29635.39
735.999	29596.75
736.339	29646.69
736.68	29678.1
737.021	29541.38
737.361	29487.83
737.702	29570.54
738.042	29515.85
738.383	29348.62
738.723	29548.16
739.063	29275.4
739.404	29368.28
739.744	29356.3
740.084	29240.6
740.424	29294.16
740.764	29175.52
741.104	29233.14
741.444	29001.51
741.784	28993.83
742.124	28960.83
742.464	28926.03
742.804	28965.58
743.143	28909.99
743.483	28939.59
743.823	28779.82
744.162	28785.7
744.502	28909.54
744.841	28511.81
745.181	28729.88
745.52	28623.44
745.86	28634.06
746.199	28575.99
746.538	28546.83
746.877	28528.53
747.216	28530.34
747.556	28319.04
747.895	28407.63
748.234	28249.89
748.573	28152.49
748.911	28133.06
749.25	28195.66
749.589	28071.14
749.928	28060.07
750.267	28108.65
750.605	28036.79
750.944	27949.79
751.283	27995.89
751.621	28101.2
751.96	27620.53
752.298	27807.42
752.636	27650.36
752.975	27529.01
753.313	27600.19
753.651	27633.64
753.989	27366.53
754.327	27462.79
754.666	27315.23
755.004	27279.97
755.342	27315.91
755.679	27416.69
756.017	27190.71
756.355	27218.73
756.693	27150.26
757.031	27085.18
757.368	26960.21
757.706	26806.99
758.044	26820.33
758.381	26747.11
758.719	26758.63
759.056	26725.19
759.394	26592.31
759.731	26503.5
760.068	26482.93
760.405	26339.21
760.743	26279.55
761.08	26287.46
761.417	26084.75
761.754	26159.1
762.091	26119.55
762.428	25946.45
762.765	25867.13
763.102	26025.09
763.438	25739.45
763.775	25652
764.112	25689.28
764.449	25529.29
764.785	25556.63
765.122	25388.27
765.458	25309.41
765.795	25223.31
766.131	25145.79
766.467	25072.8
766.804	24958.45
767.14	24876.2
767.476	24858.8
767.812	24782.41
768.148	24692.25
768.485	24592.36
768.821	24399.6
769.157	24436.89
769.492	24337.91
769.828	24333.61
770.164	24155.09
770.5	24062.43
770.836	24008.65
771.171	23841.42
771.507	23858.6
771.842	23745.6
772.178	23722.55
772.513	23560.3
772.849	23540.19
773.184	23425.39
773.519	23527.98
773.855	23312.4
774.19	23191.49
774.525	23089.58
774.86	23114.43
775.195	23106.3
775.53	23024.27
775.865	22862.69
776.2	22721.9
776.535	22617.05
776.87	22590.38
777.205	22537.5
777.539	22413.89
777.874	22439.2
778.209	22223.84
778.543	22193.55
778.878	22035.82
779.212	22085.99
779.547	21975.26
779.881	22046.67
780.215	21822.72
780.55	21822.27
780.884	21638.77
781.218	21607.36
781.552	21591.76
781.886	21480.35
782.22	21351.54
782.554	21326.91
782.888	21083.3
783.222	21110.19
783.556	20938.67
783.889	20979.58
784.223	20747.04
784.557	20734.16
784.89	20709.53
785.224	20667.04
785.557	20487.39
785.891	20541.85
786.224	20342.53
786.558	20395.64
786.891	20256.88
787.224	20121.29
787.557	20005.36
787.891	20061.86
788.224	20051.46
788.557	20053.27
788.89	19899.38
789.223	19842.2
789.556	19742.55
789.888	19667.97
790.221	19638.82
790.554	19502.55
790.887	19448.77
791.219	19381.65
791.552	19336.45
791.884	19177.36
792.217	19231.6
792.549	19086.29
792.882	18984.15
793.214	18978.72
793.546	18971.04
793.879	18838.61
794.211	18749.35
794.543	18772.85
794.875	18636.81
795.207	18668
795.539	18562.24
795.871	18618.96
796.203	18389.59
796.535	18354.56
796.867	18294.67
797.198	18266.88
797.53	18263.26
797.862	18182.81
798.193	18090.61
798.525	17990.28
798.856	18059.2
799.188	17798.42
799.519	17758.87
799.85	17688.59
800.182	17748.7
800.513	17699.44
800.844	17575.82
801.175	17701.47
801.506	17552.09
801.837	17477.07
802.168	17404.3
802.499	17426.67
802.83	17319.11
803.161	17229.39
803.491	17245.89
803.822	17207.25
804.153	17031.88
804.483	17037.31
804.814	16966.12
805.145	16939.23
805.475	16908.72
805.805	16923.18
806.136	16843.87
806.466	16759.8
806.796	16781.27
807.126	16677.32
807.457	16608.62
807.787	16562.29
808.117	16480.94
808.447	16424.44
808.777	16539.01
809.107	16488.62
809.436	16368.85
809.766	16338.12
810.096	16200.27
810.426	16144.9
810.755	16311.68
811.085	16239.14
811.414	16079.82
811.744	16089.53
812.073	15964.79
812.403	15952.82
812.732	15926.38
813.061	15870.11
813.39	15796.43
813.719	15705.82
814.049	15783.33
814.378	15790.79
814.707	15650.68
815.036	15668.75
815.365	15653.39
815.693	15344.7
816.022	15450.91
816.351	15436.67
816.68	15400.97
817.008	15418.37
817.337	15225.6
817.665	15144.47
817.994	15255.21
818.322	15295.66
818.651	15184.02
818.979	15152.61
819.307	15150.58
819.636	15024.48
819.964	14970.69
820.292	15013.86
820.62	14978.83
820.948	14905.16
821.276	15009.56
821.604	14923.46
821.932	14967.53
822.259	14971.37
822.587	14955.78
822.915	14946.74
823.243	14883.01
823.57	14913.07
823.898	14861.09
824.225	14798.95
824.553	14840.08
824.88	14906.74
825.207	14906.06
825.535	14803.01
825.862	14814.99
826.189	14877.59
826.516	14914.2
826.843	14964.37
827.17	14901.32
827.497	14841.21
827.824	14845.05
828.151	14898.38
828.478	14900.87
828.805	14889.57
829.131	14890.7
829.458	14831.71
829.785	14753.52
830.111	14838.72
830.438	14921.2
830.764	14848.89
831.09	14829
831.417	14714.88
831.743	14818.16
832.069	14759.63
832.395	14718.95
832.722	14773.64
833.048	14738.84
833.374	14858.61
833.7	14660.65
834.026	14697.93
834.351	14693.41
834.677	14673.07
835.003	14641.21
835.329	14664.94
835.654	14690.02
835.98	14547.88
836.306	14591.49
836.631	14572.51
836.956	14588.33
837.282	14586.52
837.607	14522.34
837.932	14528.22
838.258	14418.62
838.583	14479.63
838.908	14287.77
839.233	14421.33
839.558	14258.85
839.883	14269.47
840.208	14188.79
840.533	14229.02
840.858	14272.86
841.182	14263.14
841.507	14221.11
841.832	14102.69
842.156	14146.08
842.481	14018.85
842.805	14010.04
843.13	14018.63
843.454	14080.1
843.778	13949.25
844.103	13943.15
844.427	13847.56
844.751	13877.84
845.075	13859.31
845.399	13813.44
845.723	13765.08
846.047	13735.92
846.371	13584.97
846.695	13584.29
847.019	13557.62
847.343	13424.29
847.666	13414.12
847.99	13362.37
848.313	13321.7
848.637	13261.59
848.96	13239.89
849.284	13239.21
849.607	13034.7
849.931	13043.96
850.254	13047.58
850.577	12908.6
850.9	12900.92
851.223	12910.64
851.546	12736.4
851.869	12634.94
852.192	12739.11
852.515	12614.82
852.838	12549.74
853.161	12595.62
853.483	12528.05
853.806	12421.61
854.129	12461.16
854.451	12383.87
854.774	12302.06
855.096	12304.55
855.419	12239.47
855.741	12286.7
856.063	12107.04
856.385	12078.79
856.708	12114.72
857.03	12067.49
857.352	12066.36
857.674	11988.17
857.996	11982.07
858.318	11839.02
858.64	11876.99
858.961	11789.99
859.283	11815.3
859.605	11802.42
859.926	11789.53
860.248	11762.42
860.57	11684.9
860.891	11634.06
861.212	11646.71
861.534	11668.18
861.855	11559.94
862.176	11559.94
862.498	11524.23
862.819	11540.28
863.14	11497.34
863.461	11426.15
863.782	11430.22
864.103	11407.17
864.424	11379.6
864.745	11392.48
865.065	11345.93
865.386	11284.92
865.707	11319.26
866.027	11327.4
866.348	11234.97
866.668	11302.99
866.989	11274.97
867.309	11187.74
867.63	11187.29
867.95	11170.57
868.27	11082.89
868.59	11094.19
868.91	11066.62
869.23	11104.13
869.55	11049.22
869.87	11080.85
870.19	10959.27
870.51	11021.42
870.83	11033.85
871.15	10969.67
871.469	10982.1
871.789	10973.74
872.109	11000.4
872.428	10822.33
872.748	10990.69
873.067	10829.79
873.386	10914.98
873.706	10856.45
874.025	10778.26
874.344	10796.57
874.663	10868.2
874.982	10790.01
875.301	10662.56
875.62	10658.94
875.939	10706.4
876.258	10675.21
876.577	10623.01
876.896	10659.17
877.214	10552.96
877.533	10651.49
877.852	10608.77
878.17	10584.37
878.489	10575.78
878.807	10506.18
879.125	10535.1
879.444	10560.64
879.762	10463.92
880.08	10471.6
880.398	10404.49
880.716	10482.68
881.034	10448.33
881.352	10413.53
881.67	10403.58
881.988	10357.48
882.306	10331.95
882.624	10237.71
882.941	10228.22
883.259	10187.54
883.577	10244.26
883.894	10191.84
884.212	10161.1
884.529	10195.68
884.846	10185.96
885.164	10067.09
885.481	10086.98
885.798	10125.17
886.115	10000.88
886.432	10036.81
886.75	9930.6
887.067	9933.76
887.383	9968.11
887.7	9961.33
888.017	9931.05
888.334	9937.15
888.651	9822.35
888.967	9859.87
889.284	9766.09
889.6	9745.97
889.917	9712.08
890.233	9772.86
890.55	9601.12
890.866	9692.41
891.182	9676.14
891.498	9536.94
891.815	9613.09
892.131	9532.64
892.447	9467.79
892.763	9479.99
893.079	9534.23
893.395	9420.11
893.71	9494
894.026	9377.39
894.342	9373.1
894.657	9305.76
894.973	9282.26
895.289	9301.01
895.604	9251.75
895.92	9155.48
896.235	9175.82
896.55	9098.76
896.865	9127.23
897.181	9078.42
897.496	9084.97
897.811	9036.61
898.126	9004.3
898.441	8949.16
898.756	8895.6
899.071	8881.14
899.386	8884.98
899.7	8868.48
900.015	8818.31
900.33	8727.92
900.644	8663.06
900.959	8743.51
901.273	8696.06
901.588	8697.19
901.902	8616.74
902.216	8585.1
902.531	8529.06
902.845	8542.16
903.159	8469.62
903.473	8462.62
903.787	8432.33
904.101	8416.52
904.415	8416.06
904.729	8307.59
905.042	8293.81
905.356	8303.07
905.67	8296.07
905.984	8272.79
906.297	8209.29
906.611	8169.97
906.924	8216.52
907.237	8105.56
907.551	8063.98
907.864	8043.19
908.177	8034.61
908.491	7973.59
908.804	7938.79
909.117	7962.74
909.43	7851.33
909.743	7819.24
910.056	7805.91
910.368	7700.83
910.681	7736.99
910.994	7734.05
911.307	7663.77
911.619	7626.71
911.932	7615.18
912.244	7613.15
912.557	7464.22
912.869	7557.33
913.181	7560.04
913.494	7439.59
913.806	7414.06
914.118	7356.2
914.43	7358.92
914.742	7367.96
915.054	7314.85
915.366	7319.82
915.678	7274.63
915.99	7193.72
916.302	7198.02
916.613	7146.49
916.925	7060.85
917.236	7037.34
917.548	7079.38
917.859	7064.46
918.171	6976.78
918.482	7007.97
918.794	6956.89
919.105	6959.15
919.416	6896.1
919.727	6900.85
920.038	6811.13
920.349	6778.59
920.66	6713.74
920.971	6782.43
921.282	6745.15
921.593	6697.01
921.903	6664.25
922.214	6640.29
922.525	6600.97
922.835	6615.66
923.146	6515.55
923.456	6523.68
923.767	6560.97
924.077	6446.85
924.387	6419.73
924.697	6421.31
925.008	6438.04
925.318	6365.27
925.628	6353.97
925.938	6325.5
926.248	6252.96
926.558	6218.38
926.867	6214.99
927.177	6251.83
927.487	6155.56
927.796	6094.77
928.106	6078.72
928.416	6113.07
928.725	6097.48
929.034	6016.35
929.344	6022
929.653	5975
929.962	5954.89
930.271	5897.03
930.581	5882.57
930.89	5876.24
931.199	5841.89
931.508	5844.15
931.817	5836.7
932.125	5762.12
932.434	5810.26
932.743	5759.64
933.051	5689.81
933.36	5670.15
933.669	5683.93
933.977	5645.52
934.286	5624.5
934.594	5603.26
934.902	5552.18
935.21	5504.73
935.519	5512.41
935.827	5527.33
936.135	5488.68
936.443	5455.46
936.751	5436.48
937.059	5402.81
937.367	5380.21
937.674	5389.02
937.982	5353.77
938.29	5313.09
938.597	5332.76
938.905	5292.98
939.213	5218.63
939.52	5208.01
939.827	5214.11
940.135	5126.88
940.442	5149.71
940.749	5149.94
941.056	5122.37
941.363	5061.12
941.67	5085.53
941.977	5051.86
942.284	5011.18
942.591	5023.84
942.898	4987
943.205	4962.82
943.511	4942.03
943.818	4931.18
944.125	4901.13
944.431	4887.34
944.738	4840.56
945.044	4823.84
945.35	4806.67
945.657	4770.51
945.963	4759.89
946.269	4751.3
946.575	4760.11
946.881	4693.45
947.187	4721.47
947.493	4654.58
947.799	4652.32
948.105	4595.37
948.41	4551.76
948.716	4575.04
949.022	4546.34
949.327	4552.66
949.633	4519.22
949.938	4499.1
950.244	4497.75
950.549	4495.72
950.854	4485.77
951.16	4438.54
951.465	4429.73
951.77	4344.98
952.075	4386.79
952.38	4414.59
952.685	4356.51
952.99	4301.37
953.294	4325.55
953.599	4279
953.904	4266.79
954.209	4218.66
954.513	4244.2
954.818	4217.98
955.122	4190.64
955.426	4174.59
955.731	4174.82
956.035	4108.61
956.339	4118.78
956.643	4115.61
956.948	4029.29
957.252	4080.13
957.556	4057.31
957.86	4060.7
958.163	4010.98
958.467	4020.25
958.771	3960.59
959.075	3975.5
959.378	3964.2
959.682	3921.94
959.985	3934.6
960.289	3915.84
960.592	3842.17
960.896	3871.55
961.199	3850.08
961.502	3812.12
961.805	3836.52
962.108	3794.04
962.411	3777.09
962.714	3736.87
963.017	3772.57
963.32	3775.06
963.623	3739.12
963.926	3700.26
964.228	3698.67
964.531	3708.84
964.833	3649.41
965.136	3633.14
965.438	3633.36
965.741	3599.02
966.043	3585.68
966.345	3528.06
966.648	3551.11
966.95	3531.9
967.252	3480.6
967.554	3510.43
967.856	3485.57
968.158	3448.96
968.46	3452.13
968.761	3446.03
969.063	3442.18
969.365	3401.51
969.666	3377.55
969.968	3384.33
970.269	3356.54
970.571	3358.34
970.872	3354.28
971.174	3298.68
971.475	3286.71
971.776	3328.06
972.077	3289.19
972.378	3257.33
972.679	3265.69
972.98	3249.87
973.281	3238.12
973.582	3234.05
973.883	3190.21
974.183	3197.9
974.484	3157.45
974.785	3123.77
975.085	3168.97
975.386	3154.28
975.686	3162.64
975.986	3106.15
976.287	3088.75
976.587	3070.44
976.887	3069.31
977.187	3073.38
977.487	3067.5
977.787	3014.85
978.087	2991.57
978.387	2987.73
978.687	2979.6
978.987	2981.86
979.286	2895.98
979.586	2905.47
979.885	2920.62
980.185	2941.63
980.484	2860.73
980.784	2894.18
981.083	2888.53
981.382	2872.93
981.682	2818.7
981.981	2824.12
982.28	2781.18
982.579	2821.41
982.878	2833.16
983.177	2803.33
983.475	2765.59
983.774	2786.61
984.073	2741.18
984.372	2742.09
984.67	2696.67
984.969	2705.93
985.267	2713.84
985.566	2702.77
985.864	2709.32
986.162	2669.1
986.461	2662.09
986.759	2649.21
987.057	2621.19
987.355	2620.96
987.653	2606.95
987.951	2627.52
988.249	2587.74
988.547	2599.27
988.844	2575.54
989.142	2585.48
989.44	2573.28
989.737	2541.19
990.035	2527.86
990.332	2490.57
990.63	2470.91
990.927	2512.72
991.224	2513.62
991.521	2494.19
991.819	2439.27
992.116	2411.7
992.413	2430.68
992.71	2402.44
993.006	2390.23
993.303	2430.91
993.6	2387.97
993.897	2350.91
994.193	2368.77
994.49	2346.85
994.787	2346.62
995.083	2301.65
995.379	2334.19
995.676	2308.43
995.972	2278.37
996.268	2269.11
996.565	2252.61
996.861	2288.54
997.157	2266.17
997.453	2247.19
997.749	2201.76
998.044	2199.28
998.34	2192.05
998.636	2201.54
998.932	2138.71
999.227	2158.6
999.523	2152.27
999.818	2156.34
1000.114	2142.56
1000.409	2128.55
1000.704	2099.85
1001	2105.04
1001.295	2075.89
1001.59	2108.89
1001.885	2067.98
1002.18	2057.36
1002.475	2076.8
1002.77	2055.78
1003.065	2010.36
1003.359	1985.95
1003.654	1984.14
1003.949	1985.27
1004.243	1973.52
1004.538	1944.6
1004.832	1974.43
1005.127	1952.96
1005.421	1956.35
1005.715	1942.34
1006.009	1928.78
1006.304	1902.56
1006.598	1925.84
1006.892	1866.18
1007.186	1862.34
1007.48	1861.89
1007.773	1837.71
1008.067	1838.84
1008.361	1815.79
1008.655	1847.42
1008.948	1828.44
1009.242	1792.28
1009.535	1799.06
1009.829	1783.24
1010.122	1777.59
1010.415	1759.97
1010.708	1760.87
1011.001	1752.74
1011.295	1743.47
1011.588	1752.28
1011.881	1682.46
1012.173	1703.7
1012.466	1660.08
1012.759	1684.26
1013.052	1657.82
1013.344	1679.07
1013.637	1629.58
1013.93	1660.54
1014.222	1629.58
1014.514	1631.38
1014.807	1625.96
1015.099	1596.36
1015.391	1594.32
1015.683	1580.76
1015.976	1567.2
1016.268	1589.8
1016.56	1576.02
1016.851	1538.96
1017.143	1546.64
1017.435	1532.4
1017.727	1513.19
1018.018	1507.09
1018.31	1519.52
1018.602	1499.41
1018.893	1487.21
1019.185	1470.48
1019.476	1515.91
1019.767	1471.84
1020.058	1472.29
1020.35	1439.75
1020.641	1430.94
1020.932	1427.55
1021.223	1397.04
1021.514	1397.04
1021.804	1374.67
1022.095	1395.91
1022.386	1375.35
1022.677	1352.97
1022.967	1369.47
1023.258	1340.54
1023.548	1344.61
1023.839	1338.28
1024.129	1323.6
1024.419	1321.11
1024.709	1281.79
1025	1309.81
1025.29	1297.38
1025.58	1279.53
1025.87	1266.87
1026.16	1254.44
1026.449	1231.85
1026.739	1224.39
1027.029	1232.52
1027.319	1210.6
1027.608	1243.37
1027.898	1217.84
1028.187	1206.08
1028.477	1208.57
1028.766	1194.78
1029.055	1164.96
1029.344	1168.8
1029.634	1178.51
1029.923	1187.33
1030.212	1162.24
1030.501	1148.91
1030.79	1115.69
1031.078	1127.89
1031.367	1099.65
1031.656	1127.67
1031.945	1106.2
1032.233	1106.65
1032.522	1091.74
1032.81	1068.91
1033.099	1063.26
1033.387	1070.27
1033.675	1098.97
1033.963	1053.77
1034.251	1050.38
1034.54	1042.47
1034.828	1030.27
1035.116	1040.21
1035.403	1014.45
1035.691	1012.19
1035.979	1015.35
1036.267	1006.09
1036.554	986.65
1036.842	1026.88
1037.129	1005.19
1037.417	990.95
1037.704	1005.41
1037.992	955.92
1038.279	953.89
1038.566	958.18
1038.853	958.18
1039.14	958.18
