Data from hue_200_FLMS001491_00090.txt Node
Date: Tue Feb 07 16:44:04 GMT 2017
User: dcchb
Spectrometer: FLMS00149
Trigger mode: 0
Integration Time (sec): 2.000000E-2
Scans to average: 10
Electric dark correction enabled: true
Nonlinearity correction enabled: false
Boxcar width: 0
XAxis mode: Wavelengths
Number of Pixels in Spectrum: 2048
>>>>>Begin Spectral Data<<<<<
341.393	-12.19
341.776	-12.19
342.16	-12.19
342.543	-65.52
342.927	-58.97
343.31	-69.59
343.693	-69.81
344.077	-67.33
344.46	-64.16
344.843	-48.57
345.226	-53.32
345.61	-29.82
345.993	-11.96
346.376	9.28
346.759	15.15
347.142	28.71
347.525	39.56
347.908	61.26
348.291	81.37
348.674	74.81
349.057	104.42
349.44	105.32
349.823	140.12
350.206	176.05
350.588	215.15
350.971	211.53
351.354	221.93
351.737	245.43
352.119	240.69
352.502	244.3
352.884	281.14
353.267	265.77
353.65	285.66
354.032	294.7
354.414	311.87
354.797	329.72
355.179	325.2
355.562	320.91
355.944	319.1
356.326	343.96
356.709	331.98
357.091	330.85
357.473	331.98
357.855	356.61
358.238	329.27
358.62	313.9
359.002	355.26
359.384	343.06
359.766	335.6
360.148	329.05
360.53	305.77
360.912	346.45
361.294	331.3
361.676	343.73
362.057	336.05
362.439	327.24
362.821	338.54
363.203	318.88
363.584	331.53
363.966	307.35
364.348	305.77
364.729	312.55
365.111	329.27
365.493	298.76
365.874	318.88
366.256	321.59
366.637	301.7
367.019	334.92
367.4	326.33
367.781	314.36
368.163	312.77
368.544	312.77
368.925	304.86
369.306	332.66
369.688	303.28
370.069	293.79
370.45	315.49
370.831	299.22
371.212	316.16
371.593	311.87
371.974	325.2
372.355	305.54
372.736	344.41
373.117	289.27
373.498	315.26
373.879	317.97
374.26	312.32
374.641	336.73
375.021	317.97
375.402	322.49
375.783	341.93
376.163	323.17
376.544	326.79
376.925	315.94
377.305	323.62
377.686	293.34
378.066	328.14
378.447	312.1
378.827	339.89
379.208	333.56
379.588	316.62
379.968	322.27
380.349	324.75
380.729	324.3
381.109	352.1
381.489	328.37
381.87	325.2
382.25	332.43
382.63	354.81
383.01	328.37
383.39	350.74
383.77	350.97
384.15	334.24
384.53	359.55
384.91	340.12
385.29	352.32
385.67	329.5
386.049	360.68
386.429	344.86
386.809	366.33
387.189	359.33
387.568	358.87
387.948	355.26
388.328	364.75
388.707	364.07
389.087	353
389.466	386.9
389.846	370.63
390.225	374.24
390.605	385.31
390.984	372.66
391.363	389.16
391.743	381.7
392.122	379.89
392.501	374.24
392.881	393.9
393.26	379.67
393.639	396.39
394.018	378.08
394.397	387.12
394.776	371.76
395.155	379.89
395.534	396.39
395.913	395.03
396.292	387.12
396.671	395.48
397.05	411.08
397.429	391.87
397.808	413.56
398.186	399.78
398.565	372.43
398.944	425.09
399.323	418.76
399.701	414.01
400.08	396.84
400.458	409.49
400.837	412.21
401.215	423.51
401.594	414.69
401.972	422.15
402.351	446.1
402.729	421.47
403.107	448.14
403.486	428.93
403.864	458.08
404.242	439.1
404.62	463.73
404.999	446.1
405.377	449.04
405.755	475.71
406.133	476.84
406.511	484.97
406.889	487.23
407.267	485.2
407.645	484.97
408.023	489.04
408.401	508.7
408.779	529.04
409.156	531.53
409.534	538.76
409.912	521.81
410.29	551.86
410.667	558.19
411.045	522.49
411.422	538.98
411.8	585.76
412.178	578.98
412.555	609.72
412.933	601.58
413.31	619.88
413.687	607.46
414.065	637.06
414.442	643.61
414.819	650.17
415.197	657.4
415.574	651.07
415.951	679.77
416.328	669.83
416.705	690.17
417.082	675.48
417.46	738.07
417.837	721.58
418.214	747.11
418.591	744.4
418.967	739.88
419.344	752.76
419.721	781.24
420.098	798.64
420.475	795.02
420.852	798.86
421.228	798.19
421.605	830.95
421.982	843.83
422.358	863.95
422.735	887.9
423.111	887.9
423.488	922.93
423.864	909.59
424.241	945.75
424.617	978.75
424.994	976.94
425.37	971.06
425.746	997.5
426.123	1009.48
426.499	1024.39
426.875	1054.45
427.251	1031.63
427.627	1092.19
428.003	1104.84
428.379	1098.29
428.756	1108.01
429.132	1135.35
429.507	1181.9
429.883	1167.22
430.259	1187.55
430.635	1199.76
431.011	1218.97
431.387	1235.01
431.763	1247.21
432.138	1268.68
432.514	1286.31
432.89	1311.39
433.265	1311.62
433.641	1378.96
434.016	1391.39
434.392	1387.55
434.767	1454.89
435.143	1453.99
435.518	1478.85
435.894	1507.77
436.269	1526.53
436.644	1555.91
437.02	1606.75
437.395	1611.95
437.77	1646.07
438.145	1686.75
438.52	1692.85
438.895	1747.54
439.271	1755.22
439.646	1743.7
440.021	1806.07
440.395	1827.76
440.77	1794.54
441.145	1853.07
441.52	1868.89
441.895	1943.92
442.27	1956.57
442.645	1947.53
443.019	1999.51
443.394	1958.15
443.769	2047.87
444.143	2048.77
444.518	2083.8
444.892	2081.09
445.267	2082.22
445.641	2137.36
446.016	2157.02
446.39	2169
446.764	2211.03
447.139	2169.22
447.513	2210.8
447.887	2253.29
448.262	2256.9
448.636	2260.52
449.01	2266.85
449.384	2310.91
449.758	2342.55
450.132	2367.18
450.506	2399.95
450.88	2382.78
451.254	2385.94
451.628	2428.65
452.002	2468.2
452.376	2501.64
452.75	2518.82
453.123	2543.45
453.497	2562.66
453.871	2594.07
454.244	2645.37
454.618	2652.15
454.992	2660.28
455.365	2691.92
455.739	2793.39
456.112	2773.05
456.486	2786.83
456.859	2829.32
457.232	2865.48
457.606	2858.47
457.979	2932.14
458.352	2965.36
458.725	3010.56
459.099	3048.07
459.472	3114.73
459.845	3131.46
460.218	3131.68
460.591	3174.17
460.964	3196.09
461.337	3267.05
461.71	3321.51
462.083	3319.02
462.456	3355.18
462.829	3377.55
463.201	3434.73
463.574	3424.1
463.947	3510.66
464.32	3554.95
464.692	3594.95
465.065	3642.63
465.438	3665.23
465.81	3734.83
466.183	3754.27
466.555	3818.67
466.928	3892.57
467.3	3860.48
467.672	3920.14
468.045	4030.42
468.417	4013.92
468.789	4034.48
469.161	4089.85
469.534	4208.04
469.906	4279.68
470.278	4298.21
470.65	4335.27
471.022	4402.16
471.394	4493.91
471.766	4526.22
472.138	4546.11
472.51	4644.86
472.882	4738.87
473.253	4788.59
473.625	4802.6
473.997	4917.17
474.369	4960.79
474.74	5006.21
475.112	5086.89
475.484	5154.68
475.855	5215.02
476.227	5272.19
476.598	5424.73
476.97	5446.2
477.341	5547.21
477.713	5656.14
478.084	5684.16
478.455	5811.84
478.827	5892.97
479.198	6045.96
479.569	6023.81
479.94	6182.68
480.311	6210.25
480.682	6349.68
481.053	6439.39
481.424	6551.93
481.795	6584.25
482.166	6702.89
482.537	6823.79
482.908	6897.69
483.279	6967.29
483.65	7104.46
484.021	7208.86
484.391	7280.73
484.762	7271.01
485.133	7370.89
485.503	7492.47
485.874	7652.69
486.244	7637.55
486.615	7825.12
486.985	7857.89
487.356	8039.35
487.726	8054.49
488.097	8191.44
488.467	8211.1
488.837	8369.06
489.207	8458.1
489.578	8572.44
489.948	8664.65
490.318	8717.53
490.688	8775.15
491.058	8854.7
491.428	8976.05
491.798	9026.22
492.168	9197.29
492.538	9175.59
492.908	9263.27
493.278	9383.95
493.648	9360.9
494.017	9502.82
494.387	9566.32
494.757	9596.15
495.126	9711.4
495.496	9725.86
495.866	9819.64
496.235	9834.33
496.605	9865.97
496.974	9949.58
497.344	10105.96
497.713	10123.82
498.082	10078.39
498.452	10248.33
498.821	10246.3
499.19	10291.49
499.559	10336.01
499.928	10369.23
500.298	10420.98
500.667	10448.33
501.036	10479.06
501.405	10512.73
501.774	10562.45
502.143	10557.93
502.512	10557.25
502.88	10680.64
503.249	10623.24
503.618	10657.81
503.987	10722.67
504.356	10802.89
504.724	10809.67
505.093	10798.6
505.462	10855.77
505.83	10844.25
506.199	10959.27
506.567	11028.42
506.936	10994.98
507.304	11041.31
507.672	11064.58
508.041	11095.32
508.409	11137.12
508.777	11233.39
509.145	11213.73
509.514	11206.95
509.882	11314.29
510.25	11183.22
510.618	11231.58
510.986	11292.6
511.354	11375.76
511.722	11404.23
512.09	11449.2
512.458	11341.86
512.826	11512.93
513.193	11485.81
513.561	11528.75
513.929	11571.91
514.297	11584.57
514.664	11642.65
515.032	11651.46
515.4	11648.3
515.767	11599.26
516.135	11644.91
516.502	11511.12
516.869	11801.96
517.237	11764.22
517.604	11617.11
517.972	11816.2
518.339	11754.51
518.706	11714.28
519.073	11702.31
519.44	11719.93
519.808	11775.52
520.175	11794.28
520.542	11850.1
520.909	11844
521.276	11771
521.643	11844
522.009	11826.82
522.376	11878.8
522.743	11870.44
523.11	11912.92
523.477	11979.81
523.843	11980.72
524.21	11928.06
524.577	12026.14
524.943	12014.39
525.31	12040.38
525.676	12083.09
526.043	12114.72
526.409	12126.02
526.776	12138.45
527.142	12103.2
527.508	12129.19
527.874	12126.93
528.241	12010.77
528.607	12046.7
528.973	12133.25
529.339	12029.75
529.705	12153.59
530.071	12074.72
530.437	12110.66
530.803	12125.12
531.169	12014.39
531.535	12017.1
531.901	12056.65
532.267	11887.39
532.632	12018
532.998	11950.21
533.364	11977.33
533.73	11902.98
534.095	11839.25
534.461	11829.53
534.826	11880.61
535.192	11899.59
535.557	11846.03
535.923	11787.05
536.288	11720.16
536.653	11732.81
537.019	11586.6
537.384	11579.82
537.749	11566.49
538.114	11557
538.479	11520.16
538.845	11504.34
539.21	11438.13
539.575	11422.54
539.94	11324.24
540.305	11353.39
540.67	11279.72
541.034	11280.4
541.399	11216.89
541.764	11190.45
542.129	11120.4
542.494	11146.39
542.858	11076.11
543.223	10999.72
543.587	11036.79
543.952	11004.47
544.316	10928.99
544.681	10823.46
545.045	10819.84
545.41	10810.8
545.774	10744.14
546.138	10748.43
546.503	10636.57
546.867	10558.15
547.231	10614.42
547.595	10547.99
547.959	10531.94
548.324	10475.44
548.688	10410.59
549.052	10411.49
549.416	10355.45
549.779	10347.54
550.143	10289.46
550.507	10218.5
550.871	10234.77
551.235	10210.37
551.599	10225.51
551.962	10129.69
552.326	10065.96
552.689	10109.13
553.053	10045.17
553.417	9966.53
553.78	10055.12
554.143	9942.35
554.507	9804.28
554.87	9901.9
555.234	9927.21
555.597	9849.7
555.96	9756.59
556.323	9839.08
556.686	9739.42
557.05	9797.95
557.413	9757.72
557.776	9656.48
558.139	9730.83
558.502	9679.76
558.865	9650.16
559.228	9632.3
559.59	9655.58
559.953	9577.84
560.316	9704.84
560.679	9575.58
561.041	9625.07
561.404	9650.38
561.767	9613.55
562.129	9548.92
562.492	9638.18
562.854	9605.64
563.217	9513.21
563.579	9524.96
563.941	9536.26
564.304	9564.51
564.666	9546.88
565.028	9539.88
565.39	9527.9
565.753	9572.42
566.115	9546.66
566.477	9554.79
566.839	9574
567.201	9583.04
567.563	9567.45
567.925	9567.67
568.287	9572.87
568.648	9559.99
569.01	9647.44
569.372	9626.2
569.734	9610.16
570.095	9633.43
570.457	9609.7
570.819	9615.35
571.18	9579.42
571.542	9689.93
571.903	9587.33
572.265	9625.3
572.626	9628.91
572.987	9673.88
573.349	9603.38
573.71	9623.49
574.071	9672.98
574.432	9621.68
574.794	9704.84
575.155	9658.74
575.516	9569.93
575.877	9655.35
576.238	9649.7
576.599	9709.82
576.96	9642.02
577.32	9682.92
577.681	9713.66
578.042	9711.85
578.403	9690.38
578.763	9668.23
579.124	9749.59
579.485	9735.58
579.845	9725.41
580.206	9710.27
580.566	9691.51
580.927	9685.86
581.287	9732.87
581.648	9697.84
582.008	9726.31
582.368	9748.23
582.728	9741.68
583.089	9723.37
583.449	9715.24
583.809	9752.3
584.169	9704.17
584.529	9698.06
584.889	9722.92
585.249	9636.6
585.609	9574.23
585.969	9745.07
586.329	9661
586.688	9673.66
587.048	9704.84
587.408	9637.27
587.768	9692.19
588.127	9564.06
588.487	9594.11
588.846	9738.29
589.206	9631.4
589.565	9645.41
589.925	9570.16
590.284	9670.27
590.643	9656.71
591.003	9611.74
591.362	9578.97
591.721	9504.62
592.08	9631.63
592.44	9657.16
592.799	9593.43
593.158	9568.35
593.517	9575.36
593.876	9588.46
594.235	9557.28
594.593	9543.27
594.952	9543.72
595.311	9562.47
595.67	9463.72
596.029	9593.66
596.387	9545.75
596.746	9569.93
597.104	9552.31
597.463	9559.31
597.822	9569.93
598.18	9525.64
598.538	9470.5
598.897	9575.36
599.255	9484.06
599.613	9592.76
599.972	9542.81
600.33	9484.51
600.688	9550.27
601.046	9502.59
601.404	9615.13
601.762	9539.65
602.12	9642.92
602.478	9493.1
602.836	9611.06
603.194	9483.83
603.552	9508.46
603.91	9458.07
604.268	9491.29
604.625	9524.74
604.983	9538.07
605.341	9467.79
605.698	9547.33
606.056	9474.12
606.413	9493.78
606.771	9525.64
607.128	9559.08
607.485	9481.12
607.843	9501.23
608.2	9540.1
608.557	9556.82
608.914	9564.06
609.272	9568.58
609.629	9620.78
609.986	9600.89
610.343	9580.33
610.7	9556.82
611.057	9567.67
611.414	9603.83
611.771	9584.62
612.127	9696.71
612.484	9630.95
612.841	9703.26
613.198	9583.04
613.554	9630.04
613.911	9668.23
614.267	9590.95
614.624	9629.59
614.98	9721.79
615.337	9677.5
615.693	9670.27
616.05	9656.26
616.406	9739.19
616.762	9765.18
617.118	9688.8
617.475	9694.9
617.831	9751.4
618.187	9724.5
618.543	9735.58
618.899	9713.43
619.255	9719.08
619.611	9699.42
619.967	9753.2
620.323	9715.46
620.678	9726.54
621.034	9736.48
621.39	9715.92
621.746	9661.46
622.101	9862.13
622.457	9750.72
622.812	9755.92
623.168	9745.07
623.523	9791.4
623.879	9767.44
624.234	9733.32
624.589	9723.15
624.945	9780.1
625.3	9766.54
625.655	9721.57
626.01	9795.91
626.365	9784.62
626.72	9659.42
627.075	9721.34
627.43	9723.15
627.785	9669.36
628.14	9678.4
628.495	9660.78
628.85	9723.6
629.205	9642.7
629.559	9765.18
629.914	9634.56
630.269	9697.84
630.623	9680.66
630.978	9610.16
631.332	9675.69
631.687	9678.63
632.041	9566.77
632.396	9652.64
632.75	9603.38
633.104	9666.88
633.459	9527.67
633.813	9517.5
634.167	9552.76
634.521	9545.75
634.875	9604.73
635.229	9528.8
635.583	9442.03
635.937	9445.64
636.291	9496.71
636.645	9475.47
636.999	9407.68
637.352	9507.56
637.706	9437.05
638.06	9469.6
638.413	9435.7
638.767	9394.12
639.121	9425.75
639.474	9329.71
639.828	9380.11
640.181	9368.36
640.534	9391.63
640.888	9417.39
641.241	9314.35
641.594	9337.62
641.947	9327.9
642.301	9296.04
642.654	9270.73
643.007	9287.45
643.36	9256.49
643.713	9298.75
644.066	9293.78
644.419	9249.49
644.771	9200.68
645.124	9130.17
645.477	9133.33
645.83	9075.48
646.182	9006.78
646.535	8989.61
646.888	9045.2
647.24	8928.82
647.593	9007.23
647.945	8970.63
648.298	8986.44
648.65	8934.24
649.002	8954.13
649.355	8963.17
649.707	8944.86
650.059	8992.55
650.411	9103.05
650.763	9100.11
651.115	9157.97
651.467	9188.02
651.819	9208.81
652.171	9196.38
652.523	9189.83
652.875	9138.3
653.227	9119.32
653.578	9132.43
653.93	9163.61
654.282	9097.18
654.633	9113.9
654.985	9148.02
655.337	9169.94
655.688	9183.05
656.039	9185.54
656.391	9098.31
656.742	9183.73
657.094	9164.74
657.445	9160.68
657.796	9174.01
658.147	9134.92
658.498	9184.63
658.849	9155.48
659.2	9156.84
659.551	9156.16
659.902	9187.57
660.253	9186.67
660.604	9205.65
660.955	9098.76
661.306	9221.92
661.656	9209.26
662.007	9169.49
662.358	9222.37
662.708	9146.67
663.059	9183.05
663.409	9123.39
663.76	9208.36
664.11	9221.24
664.461	9278.64
664.811	9236.38
665.161	9224.63
665.511	9265.53
665.862	9232.31
666.212	9235.03
666.562	9192.99
666.912	9162.03
667.262	9252.65
667.612	9196.61
667.962	9243.61
668.312	9243.39
668.662	9314.35
669.011	9178.08
669.361	9187.12
669.711	9199.09
670.06	9196.61
670.41	9214.91
670.76	9151.86
671.109	9192.99
671.459	9177.85
671.808	9160.23
672.157	9161.13
672.507	9141.02
672.856	9110.06
673.205	9131.53
673.554	9165.42
673.904	9153.67
674.253	9143.95
674.602	9112.77
674.951	9035.71
675.3	9020.79
675.649	9100.57
675.998	9126.33
676.346	9087.46
676.695	9093.11
677.044	9054.47
677.393	9057.86
677.741	9013.56
678.09	8967.69
678.438	8977.18
678.787	9014.01
679.135	9083.17
679.484	8968.14
679.832	8936.05
680.181	8892.21
680.529	8921.81
680.877	8874.13
681.225	8899.67
681.573	8976.28
681.922	8890.85
682.27	8841.59
682.618	8851.76
682.966	8851.98
683.314	8869.84
683.661	8758.43
684.009	8773.34
684.357	8762.04
684.705	8696.73
685.053	8737.64
685.4	8762.72
685.748	8661.03
686.095	8658.54
686.443	8665.55
686.79	8603.86
687.138	8599.11
687.485	8630.07
687.832	8524.31
688.18	8540.13
688.527	8441.37
688.874	8495.84
689.221	8480.92
689.568	8412.9
689.915	8439.79
690.262	8410.41
690.609	8413.8
690.956	8303.3
691.303	8318.67
691.65	8289.97
691.997	8295.62
692.344	8197.99
692.69	8267.82
693.037	8194.37
693.383	8138.11
693.73	8151.21
694.077	8096.07
694.423	8056.53
694.769	8080.03
695.116	8054.27
695.462	8020.14
695.808	7984.21
696.155	8026.7
696.501	7949.64
696.847	7929.3
697.193	7824.44
697.539	7870.54
697.885	7811.33
698.231	7790.09
698.577	7779.7
698.923	7800.04
699.269	7701.96
699.614	7741.73
699.96	7629.19
700.306	7682.52
700.651	7574.05
700.997	7528.63
701.342	7578.57
701.688	7493.83
702.033	7480.72
702.379	7501.06
702.724	7451.34
703.069	7426.03
703.415	7339.48
703.76	7374.74
704.105	7340.39
704.45	7315.75
704.795	7314.4
705.14	7273.5
705.485	7233.72
705.83	7172.71
706.175	7132.93
706.52	7197.11
706.865	7132.48
707.209	7148.3
707.554	7090.45
707.899	7126.61
708.243	7090.45
708.588	7077.12
708.932	7028.98
709.277	6975.42
709.621	7022.2
709.966	6934.75
710.31	6995.08
710.654	6875.31
710.998	6921.64
711.342	6923.45
711.687	6887.29
712.031	6885.03
712.375	6832.15
712.719	6837.35
713.063	6831.25
713.407	6820.4
713.75	6789.44
714.094	6828.76
714.438	6747.41
714.782	6784.92
715.125	6757.35
715.469	6718.03
715.812	6766.84
716.156	6687.07
716.499	6671.93
716.843	6686.17
717.186	6697.47
717.53	6712.83
717.873	6676.67
718.216	6658.37
718.559	6630.35
718.902	6588.54
719.246	6612.5
719.589	6587.41
719.932	6558.49
720.275	6583.57
720.617	6483.01
720.96	6540.86
721.303	6590.58
721.646	6539.28
721.989	6526.17
722.331	6604.59
722.674	6506.96
723.016	6497.92
723.359	6460.86
723.701	6535.66
724.044	6510.58
724.386	6449.79
724.729	6466.28
725.071	6505.83
725.413	6461.31
725.755	6469.22
726.097	6448.43
726.439	6421.09
726.782	6415.89
727.124	6475.32
727.465	6423.57
727.807	6433.29
728.149	6406.63
728.491	6409.79
728.833	6442.56
729.175	6349
729.516	6410.47
729.858	6406.17
730.199	6389.22
730.541	6406.4
730.882	6365.04
731.224	6453.86
731.565	6407.53
731.906	6433.07
732.248	6441.65
732.589	6374.31
732.93	6329.11
733.271	6337.7
733.612	6394.42
733.953	6414.31
734.294	6390.35
734.635	6367.98
734.976	6478.26
735.317	6329.57
735.658	6373.63
735.999	6387.87
736.339	6429
736.68	6460.18
737.021	6399.17
737.361	6409.56
737.702	6427.42
738.042	6451.82
738.383	6420.18
738.723	6433.29
739.063	6433.52
739.404	6450.69
739.744	6450.47
740.084	6475.55
740.424	6465.83
740.764	6488.43
741.104	6512.16
741.444	6491.82
741.784	6538.83
742.124	6541.54
742.464	6549.67
742.804	6589.9
743.143	6560.07
743.483	6598.26
743.823	6620.86
744.162	6614.3
744.502	6660.63
744.841	6690.91
745.181	6678.03
745.52	6777.92
745.86	6761.64
746.199	6831.47
746.538	6832.15
746.877	6880.06
747.216	6927.74
747.556	6983.79
747.895	7002.09
748.234	7069.21
748.573	7080.51
748.911	7117.34
749.25	7248.41
749.589	7211.58
749.928	7297.45
750.267	7332.7
750.605	7430.78
750.944	7491.12
751.283	7548.97
751.621	7659.47
751.96	7744.44
752.298	7843.42
752.636	7911.67
752.975	8024.44
753.313	8123.42
753.651	8226.46
753.989	8382.62
754.327	8473.92
754.666	8535.38
755.004	8715.49
755.342	8827.35
755.679	8934.02
756.017	8975.15
756.355	9288.36
756.693	9246.1
757.031	9536.49
757.368	9589.59
757.706	9727.44
758.044	9858.29
758.381	10004.95
758.719	10173.08
759.056	10467.08
759.394	10533.75
759.731	10596.57
760.068	10848.09
760.405	10993.85
760.743	11175.99
761.08	11350.9
761.417	11560.16
761.754	11748.63
762.091	11932.13
762.428	12065.46
762.765	12211.67
763.102	12433.13
763.438	12516.07
763.775	12803.29
764.112	12978.43
764.449	13164.87
764.785	13308.82
765.122	13473.56
765.458	13636.27
765.795	13775.92
766.131	13946.31
766.467	14229.7
766.804	14264.05
767.14	14481.89
767.476	14561.44
767.812	14753.52
768.148	14970.92
768.485	15000.98
768.821	15167.52
769.157	15304.47
769.492	15482.09
769.828	15632.6
770.164	15677.12
770.5	15895.87
770.836	15983.32
771.171	16059.7
771.507	16100.16
771.842	16261.51
772.178	16350.54
772.513	16470.32
772.849	16583.98
773.184	16686.81
773.519	16839.8
773.855	16786.92
774.19	16940.59
774.525	17029.17
774.86	17185.55
775.195	17219
775.53	17288.15
775.865	17412.21
776.2	17349.16
776.535	17327.02
776.87	17397.75
777.205	17500.12
777.539	17524.75
777.874	17710.06
778.209	17656.05
778.543	17656.73
778.878	17704.86
779.212	17709.6
779.547	17785.08
779.881	17862.6
780.215	17847.91
780.55	17958.86
780.884	17936.94
781.218	17928.13
781.552	18037.28
781.886	18017.62
782.22	18014
782.554	17948.47
782.888	17980.11
783.222	17902.59
783.556	17910.5
783.889	17908.24
784.223	17751.86
784.557	17831.41
784.89	17937.4
785.224	17952.08
785.557	17916.83
785.891	17906.89
786.224	17865.08
786.558	17849.26
786.891	17779.43
787.224	17835.93
787.557	17818.3
787.891	17853.33
788.224	17856.49
788.557	17824.86
788.89	17929.26
789.223	17899.88
789.556	17803.84
789.888	17755.25
790.221	17689.04
790.554	17699.21
790.887	17673.67
791.219	17675.03
791.552	17622.83
791.884	17518.2
792.217	17546.9
792.549	17581.92
792.882	17421.48
793.214	17527.01
793.546	17473.68
793.879	17410.4
794.211	17435.49
794.543	17374.25
794.875	17415.38
795.207	17426.22
795.539	17371.53
795.871	17273.46
796.203	17228.04
796.535	17096.51
796.867	17131.54
797.198	17044.99
797.53	17159.11
797.862	16982.84
798.193	17087.7
798.525	16948.27
798.856	17090.19
799.188	16785.56
799.519	16666.02
799.85	16655.17
800.182	16698.78
800.513	16791.44
800.844	16680.48
801.175	16742.85
801.506	16753.25
801.837	16619.24
802.168	16616.53
802.499	16536.75
802.83	16508.51
803.161	16442.97
803.491	16469.41
803.822	16453.14
804.153	16385.57
804.483	16308.74
804.814	16298.57
805.145	16282.52
805.475	16249.3
805.805	16192.36
806.136	16197.78
806.466	16100.61
806.796	16176.09
807.126	16042.3
807.457	15979.25
807.787	16032.36
808.117	15949.88
808.447	15918.47
808.777	15948.75
809.107	15860.16
809.436	15838.47
809.766	15768.19
810.096	15764.57
810.426	15683.22
810.755	15647.06
811.085	15711.01
811.414	15614.07
811.744	15612.48
812.073	15516.89
812.403	15572.03
812.732	15439.38
813.061	15441.42
813.39	15352.6
813.719	15366.84
814.049	15468.08
814.378	15369.1
814.707	15255.88
815.036	15217.69
815.365	15229.67
815.693	15163.23
816.022	15118.71
816.351	15115.32
816.68	15031.94
817.008	15077.81
817.337	14977.02
817.665	14890.24
817.994	14965.5
818.322	14995.55
818.651	14859.74
818.979	14904.71
819.307	14928.21
819.636	14925.72
819.964	14869.68
820.292	14847.08
820.62	14824.71
820.948	14848.66
821.276	14894.54
821.604	14803.92
821.932	14861.32
822.259	14812.73
822.587	14737.48
822.915	14835.78
823.243	14837.59
823.57	14749
823.898	14850.02
824.225	14807.08
824.553	14758.95
824.88	14833.3
825.207	14864.48
825.535	14708.78
825.862	14912.39
826.189	14809.79
826.516	14868.32
826.843	14858.38
827.17	14831.04
827.497	14854.09
827.824	14891.15
828.151	14846.86
828.478	14814.54
828.805	14919.4
829.131	14843.47
829.458	14857.93
829.785	14752.62
830.111	14785.39
830.438	14916.23
830.764	14900.19
831.09	14865.39
831.417	14810.7
831.743	14817.7
832.069	14839.4
832.395	14808.21
832.722	14836.23
833.048	14804.14
833.374	14790.13
833.7	14727.31
834.026	14750.13
834.351	14823.58
834.677	14785.84
835.003	14794.88
835.329	14744.49
835.654	14699.06
835.98	14626.75
836.306	14646.63
836.631	14621.1
836.956	14720.53
837.282	14611.83
837.607	14615.68
837.932	14589.24
838.258	14551.5
838.583	14614.09
838.908	14502.91
839.233	14544.49
839.558	14417.04
839.883	14394.66
840.208	14401.9
840.533	14503.14
840.858	14356.7
841.182	14348.34
841.507	14365.29
841.832	14307.21
842.156	14270.37
842.481	14259.98
842.805	14168.23
843.13	14210.71
843.454	14115.12
843.778	14089.36
844.103	13954.68
844.427	14086.88
844.751	14097.72
845.075	13936.14
845.399	13943.38
845.723	13857.5
846.047	13822.48
846.371	13764.85
846.695	13772.31
847.019	13663.16
847.343	13624.74
847.666	13547
847.99	13479.43
848.313	13467
848.637	13394.46
848.96	13387.46
849.284	13355.37
849.607	13221.81
849.931	13199.89
850.254	13102.49
850.577	13097.75
850.9	12979.79
851.223	13003.74
851.546	12915.61
851.869	12777.76
852.192	12947.92
852.515	12753.8
852.838	12768.27
853.161	12695.5
853.483	12598.1
853.806	12587.48
854.129	12602.85
854.451	12507.71
854.774	12548.16
855.096	12448.73
855.419	12476.97
855.741	12374.15
856.063	12300.48
856.385	12277.21
856.708	12326.02
857.03	12198.11
857.352	12213.7
857.674	12185.68
857.996	12190.43
858.318	12163.54
858.64	12045.35
858.961	11978
859.283	11972.81
859.605	11948.17
859.926	11923.77
860.248	11917.21
860.57	11843.54
860.891	11812.13
861.212	11757.45
861.534	11833.83
861.855	11740.72
862.176	11814.84
862.498	11751.57
862.819	11754.28
863.14	11725.36
863.461	11671.57
863.782	11610.78
864.103	11599.94
864.424	11587.28
864.745	11589.09
865.065	11588.86
865.386	11505.7
865.707	11442.2
866.027	11489.43
866.348	11486.27
866.668	11435.19
866.989	11373.27
867.309	11307.74
867.63	11398.81
867.95	11437.45
868.27	11331.47
868.59	11360.85
868.91	11251.7
869.23	11276.1
869.55	11173.51
869.87	11216.44
870.19	11261.64
870.51	11235.42
870.83	11218.02
871.15	11109.1
871.469	11170.57
871.789	11162.21
872.109	11181.87
872.428	11076.11
872.748	11056.45
873.067	11121.98
873.386	11107.52
873.706	10995.21
874.025	10934.42
874.344	10957.47
874.663	10957.24
874.982	10964.25
875.301	10932.83
875.62	10955.66
875.939	10888.77
876.258	10925.6
876.577	10864.14
876.896	10913.17
877.214	10816
877.533	10818.71
877.852	10741.65
878.17	10817.13
878.489	10780.07
878.807	10730.35
879.125	10748.66
879.444	10750.92
879.762	10697.59
880.08	10710.92
880.398	10643.58
880.716	10617.36
881.034	10599.06
881.352	10568.78
881.67	10597.25
881.988	10533.07
882.306	10537.36
882.624	10414.43
882.941	10415.56
883.259	10371.72
883.577	10453.75
883.894	10355.45
884.212	10331.72
884.529	10353.87
884.846	10239.97
885.164	10283.81
885.481	10239.52
885.798	10273.19
886.115	10202.46
886.432	10216.92
886.75	10196.13
887.067	10158.62
887.383	10104.38
887.7	10105.29
888.017	10071.39
888.334	10082.69
888.651	10011.73
888.967	10000.2
889.284	10045.17
889.6	9969.24
889.917	9894.44
890.233	9893.77
890.55	9896.7
890.866	9876.82
891.182	9811.51
891.498	9771.51
891.815	9760.89
892.131	9692.87
892.447	9651.29
892.763	9749.59
893.079	9599.76
893.395	9677.5
893.71	9623.49
894.026	9529.26
894.342	9527
894.657	9461.91
894.973	9465.98
895.289	9520.22
895.604	9426.21
895.92	9334.68
896.235	9367
896.55	9312.76
896.865	9269.37
897.181	9221.47
897.496	9230.28
897.811	9213.33
898.126	9144.18
898.441	9103.96
898.756	9077.97
899.071	9032.32
899.386	9023.51
899.7	8972.89
900.015	8939.44
900.33	8840.46
900.644	8895.15
900.959	8921.81
901.273	8816.96
901.588	8777.41
901.902	8727.92
902.216	8662.39
902.531	8703.97
902.845	8698.32
903.159	8569.28
903.473	8556.17
903.787	8558.66
904.101	8513.24
904.415	8558.66
904.729	8422.39
905.042	8434.59
905.356	8383.3
905.67	8314.15
905.984	8341.72
906.297	8303.52
906.611	8199.8
906.924	8263.53
907.237	8190.08
907.551	8166.13
907.864	8102.4
908.177	8093.36
908.491	8015.4
908.804	8047.26
909.117	7961.39
909.43	7987.37
909.743	7890.65
910.056	7930.65
910.368	7881.39
910.681	7839.36
910.994	7802.29
911.307	7789.41
911.619	7740.6
911.932	7682.07
912.244	7668.51
912.557	7614.05
912.869	7604.56
913.181	7608.18
913.494	7528.4
913.806	7459.7
914.118	7489.99
914.43	7424.68
914.742	7444.11
915.054	7381.06
915.366	7356.43
915.678	7367.96
915.99	7282.08
916.302	7227.85
916.613	7234.4
916.925	7270.78
917.236	7191.01
917.548	7114.18
917.859	7127.06
918.171	7124.57
918.482	7118.25
918.794	7071.01
919.105	7095.19
919.416	6986.95
919.727	6974.97
920.038	6926.61
920.349	6872.38
920.66	6880.51
920.971	6912.15
921.282	6796.45
921.593	6782.43
921.903	6737.46
922.214	6728.42
922.525	6734.07
922.835	6707.63
923.146	6657.24
923.456	6628.77
923.767	6574.76
924.077	6593.51
924.387	6511.93
924.697	6512.84
925.008	6459.05
925.318	6429.22
925.628	6453.18
925.938	6445.95
926.248	6396.46
926.558	6401.43
926.867	6359.17
927.177	6293.41
927.487	6262.9
927.796	6278.27
928.106	6196.01
928.416	6181.09
928.725	6219.29
929.034	6164.6
929.344	6157.59
929.653	6155.78
929.962	6100.87
930.271	6097.03
930.581	6028.33
930.89	5993.53
931.199	5950.37
931.508	5963.25
931.817	5945.39
932.125	5958.28
932.434	5920.76
932.743	5855.68
933.051	5853.65
933.36	5768.68
933.669	5802.35
933.977	5794.21
934.286	5721.67
934.594	5707.43
934.902	5713.08
935.21	5632.86
935.519	5633.99
935.827	5621.79
936.135	5634.67
936.443	5511.51
936.751	5551.51
937.059	5530.72
937.367	5505.86
937.674	5436.48
937.982	5503.37
938.29	5407.78
938.597	5412.53
938.905	5386.77
939.213	5332.76
939.52	5342.47
939.827	5345.18
940.135	5302.7
940.442	5266.77
940.749	5286.88
941.056	5281.23
941.363	5236.94
941.67	5168.01
941.977	5194.68
942.284	5158.52
942.591	5130.27
942.898	5115.36
943.205	5051.18
943.511	5083.04
943.818	5035.81
944.125	5006.66
944.431	5008.92
944.738	4983.61
945.044	4912.43
945.35	4922.82
945.657	4839.21
945.963	4878.98
946.269	4869.04
946.575	4832.43
946.881	4787.91
947.187	4813.22
947.493	4796.72
947.799	4775.71
948.105	4737.06
948.41	4668.37
948.716	4731.42
949.022	4655.48
949.327	4653.23
949.633	4598.54
949.938	4649.16
950.244	4616.16
950.549	4597.41
950.854	4560.12
951.16	4540.91
951.465	4495.49
951.77	4525.77
952.075	4512.66
952.38	4489.61
952.685	4469.95
952.99	4408.94
953.294	4398.09
953.599	4381.59
953.904	4347.24
954.209	4333.46
954.513	4341.59
954.818	4305.66
955.122	4323.52
955.426	4258.43
955.731	4270.86
956.035	4234.25
956.339	4207.36
956.643	4215.95
956.948	4216.4
957.252	4147.93
957.556	4130.53
957.86	4119
958.163	4102.28
958.467	4107.02
958.771	4095.05
959.075	4063.64
959.378	4050.3
959.682	4089.62
959.985	3975.73
960.289	3987.93
960.592	3986.12
960.896	3970.53
961.199	3889.4
961.502	3932.57
961.805	3916.3
962.108	3865.22
962.411	3864.32
962.714	3846.01
963.017	3858.9
963.32	3851.44
963.623	3847.37
963.926	3793.59
964.228	3777.99
964.531	3739.35
964.833	3755.4
965.136	3705.68
965.438	3735.06
965.741	3674.27
966.043	3662.06
966.345	3644.21
966.648	3654.83
966.95	3647.83
967.252	3630.2
967.554	3592.01
967.856	3594.5
968.158	3526.48
968.46	3518.11
968.761	3535.97
969.063	3546.14
969.365	3486.25
969.666	3507.72
969.968	3490.77
970.269	3500.94
970.571	3497.1
970.872	3441.96
971.174	3446.7
971.475	3433.82
971.776	3361.73
972.077	3350.21
972.378	3354.28
972.679	3314.05
972.98	3339.14
973.281	3287.61
973.582	3313.6
973.883	3305.69
974.183	3269.08
974.484	3257.78
974.785	3272.92
975.085	3299.14
975.386	3245.35
975.686	3178.91
975.986	3210.1
976.287	3182.53
976.587	3153.6
976.887	3131.46
977.187	3135.07
977.487	3140.27
977.787	3085.13
978.087	3105.47
978.387	3065.02
978.687	3054.17
978.987	3077.45
979.286	3021.63
979.586	2968.3
979.885	3022.53
980.185	2978.01
980.484	2966.72
980.784	2961.29
981.083	2938.47
981.382	2931.69
981.682	2938.92
981.981	2907.73
982.28	2877.68
982.579	2869.09
982.878	2864.12
983.177	2851.92
983.475	2875.87
983.774	2830.22
984.073	2799.71
984.372	2786.61
984.67	2804.69
984.969	2774.4
985.267	2769.43
985.566	2749.32
985.864	2750.68
986.162	2738.47
986.461	2672.71
986.759	2702.54
987.057	2658.25
987.355	2670
987.653	2646.5
987.951	2666.84
988.249	2639.72
988.547	2667.51
988.844	2640.62
989.142	2626.61
989.44	2602.66
989.737	2564.47
990.035	2597.01
990.332	2535.54
990.63	2538.48
990.927	2536.22
991.224	2519.95
991.521	2540.51
991.819	2523.79
992.116	2441.31
992.413	2488.76
992.71	2447.18
993.006	2431.36
993.303	2438.59
993.6	2476.56
993.897	2427.97
994.193	2429.78
994.49	2424.36
994.787	2396.79
995.083	2404.24
995.379	2364.25
995.676	2361.99
995.972	2336.45
996.268	2336.9
996.565	2322.44
996.861	2295.77
997.157	2313.85
997.453	2252.84
997.749	2272.27
998.044	2280.86
998.34	2239.73
998.636	2246.28
998.932	2231.59
999.227	2188.66
999.523	2203.35
999.818	2187.98
1000.114	2198.83
1000.409	2228.88
1000.704	2170.58
1001	2175.1
1001.295	2119.73
1001.59	2138.04
1001.885	2096.68
1002.18	2117.47
1002.475	2084.48
1002.77	2067.53
1003.065	2047.64
1003.359	2031.6
1003.654	2046.97
1003.949	2037.47
1004.243	1999.96
1004.538	1985.95
1004.832	1971.49
1005.127	1996.12
1005.421	1990.02
1005.715	1972.84
1006.009	1941.21
1006.304	1923.35
1006.598	1936.91
1006.892	1927.87
1007.186	1924.26
1007.48	1921.55
1007.773	1905.27
1008.067	1885.16
1008.361	1900.3
1008.655	1859.85
1008.948	1853.75
1009.242	1834.32
1009.535	1813.53
1009.829	1831.38
1010.122	1792.28
1010.415	1806.75
1010.708	1802
1011.001	1750.93
1011.295	1750.02
1011.588	1762
1011.881	1746.86
1012.173	1726.97
1012.466	1723.58
1012.759	1696.92
1013.052	1731.27
1013.344	1700.53
1013.637	1710.25
1013.93	1646.07
1014.222	1686.3
1014.514	1649.01
1014.807	1629.8
1015.099	1597.94
1015.391	1616.02
1015.683	1613.53
1015.976	1596.13
1016.268	1580.31
1016.56	1577.83
1016.851	1586.41
1017.143	1585.06
1017.435	1554.1
1017.727	1550.03
1018.018	1552.29
1018.31	1508.68
1018.602	1504.16
1018.893	1509.58
1019.185	1511.61
1019.476	1497.6
1019.767	1498.28
1020.058	1465.96
1020.35	1456.47
1020.641	1451.95
1020.932	1417.15
1021.223	1411.95
1021.514	1413.54
1021.804	1443.14
1022.095	1404.27
1022.386	1411.95
1022.677	1389.81
1022.967	1386.64
1023.258	1369.7
1023.548	1360.2
1023.839	1345.29
1024.129	1355.23
1024.419	1342.13
1024.709	1336.25
1025	1338.51
1025.29	1311.84
1025.58	1308.68
1025.87	1301.9
1026.16	1291.28
1026.449	1264.61
1026.739	1251.96
1027.029	1270.72
1027.319	1243.37
1027.608	1258.06
1027.898	1211.73
1028.187	1230.94
1028.477	1197.27
1028.766	1223.71
1029.055	1186.42
1029.344	1193.66
1029.634	1209.7
1029.923	1181.23
1030.212	1154.11
1030.501	1187.33
1030.79	1161.57
1031.078	1123.6
1031.367	1141.68
1031.656	1134.9
1031.945	1137.16
1032.233	1096.03
1032.522	1119.76
1032.81	1099.42
1033.099	1089.48
1033.387	1092.64
1033.675	1082.02
1033.963	1055.13
1034.251	1083.15
1034.54	1064.17
1034.828	1051.51
1035.116	1038.86
1035.403	1078.63
1035.691	1030.04
1035.979	1052.64
1036.267	1011.74
1036.554	1024.85
1036.842	1013.55
1037.129	982.81
1037.417	985.07
1037.704	1004.73
1037.992	957.73
1038.279	970.38
1038.566	1001.57
1038.853	1001.57
1039.14	1001.57
