Data from hue_330_FLMS001491_99.txt Node
Date: Mon Feb 06 15:46:12 GMT 2017
User: dcchb
Spectrometer: FLMS00149
Trigger mode: 0
Integration Time (sec): 2.000000E-2
Scans to average: 10
Electric dark correction enabled: true
Nonlinearity correction enabled: false
Boxcar width: 0
XAxis mode: Wavelengths
Number of Pixels in Spectrum: 2048
>>>>>Begin Spectral Data<<<<<
341.393	-15.04
341.776	-15.04
342.16	-15.04
342.543	-42.61
342.927	-55.49
343.31	-81.93
343.693	-75.61
344.077	-68.15
344.46	-76.28
344.843	-47.81
345.226	-56.4
345.61	-24.76
345.993	-30.86
346.376	-22.95
346.759	13.21
347.142	42.36
347.525	44.84
347.908	59.98
348.291	85.29
348.674	112.64
349.057	126.42
349.44	124.62
349.823	129.59
350.206	151.28
350.588	196.25
350.971	202.13
351.354	212.75
351.737	220.43
352.119	233.77
352.502	253.2
352.884	288.23
353.267	272.41
353.65	290.71
354.032	307.44
354.414	322.12
354.797	316.93
355.179	320.54
355.562	305.63
355.944	319.64
356.326	323.93
356.709	336.36
357.091	340.43
357.473	338.62
357.855	317.83
358.238	329.81
358.62	336.81
359.002	336.59
359.384	339.75
359.766	345.4
360.148	342.91
360.53	348.56
360.912	329.36
361.294	329.58
361.676	327.55
362.057	342.24
362.439	342.01
362.821	319.64
363.203	328.68
363.584	328.23
363.966	299.98
364.348	299.75
364.729	324.38
365.111	310.6
365.493	324.16
365.874	303.14
366.256	304.27
366.637	307.66
367.019	305.63
367.4	311.73
367.781	320.54
368.163	292.97
368.544	335.01
368.925	313.99
369.306	332.52
369.688	312.63
370.069	321.22
370.45	307.21
370.831	305.85
371.212	304.95
371.593	317.38
371.974	307.21
372.355	305.85
372.736	302.46
373.117	308.11
373.498	343.82
373.879	323.71
374.26	295.68
374.641	288
375.021	319.41
375.402	294.55
375.783	304.95
376.163	324.84
376.544	340.43
376.925	320.77
377.305	321.22
377.686	321.22
378.066	329.36
378.447	307.89
378.827	330.49
379.208	325.06
379.588	333.2
379.968	350.15
380.349	341.33
380.729	326.42
381.109	325.51
381.489	339.07
381.87	342.69
382.25	329.13
382.63	332.07
383.01	346.98
383.39	345.63
383.77	339.3
384.15	338.85
384.53	349.02
384.91	323.03
385.29	348.56
385.67	344.04
386.049	343.82
386.429	333.65
386.809	346.53
387.189	346.98
387.568	341.11
387.948	329.58
388.328	365.06
388.707	336.36
389.087	339.98
389.466	360.99
389.846	346.76
390.225	351.73
390.605	381.11
390.984	341.11
391.363	368.68
391.743	362.8
392.122	362.12
392.501	358.96
392.881	357.38
393.26	382.46
393.639	368.68
394.018	347.21
394.397	381.56
394.776	373.87
395.155	352.41
395.534	377.94
395.913	372.74
396.292	384.95
396.671	397.83
397.05	363.25
397.429	378.85
397.808	403.7
398.186	368
398.565	410.94
398.944	405.74
399.323	375
399.701	398.05
400.08	413.42
400.458	409.35
400.837	393.99
401.215	394.66
401.594	399.64
401.972	384.5
402.351	417.04
402.729	408.22
403.107	412.52
403.486	396.25
403.864	435.34
404.242	403.03
404.62	415.91
404.999	418.17
405.377	415.91
405.755	420.2
406.133	421.78
406.511	423.82
406.889	444.83
407.267	485.28
407.645	457.26
408.023	426.53
408.401	445.28
408.779	453.42
409.156	436.25
409.534	467.21
409.912	450.93
410.29	448.45
410.667	484.38
411.045	482.35
411.422	470.59
411.8	505.85
412.178	492.29
412.555	486.87
412.933	498.84
413.31	514.89
413.687	503.36
414.065	504.27
414.442	522.57
414.819	536.81
415.197	549.01
415.574	539.07
415.951	551.5
416.328	536.36
416.705	550.82
417.082	558.95
417.46	564.38
417.837	564.83
418.214	578.84
418.591	589.46
418.967	589.91
419.344	584.26
419.721	600.76
420.098	608.22
420.475	616.58
420.852	613.42
421.228	625.85
421.605	639.18
421.982	627.2
422.358	664.49
422.735	670.36
423.111	652.29
423.488	660.87
423.864	653.42
424.241	674.66
424.617	673.98
424.994	673.53
425.37	676.92
425.746	680.76
426.123	682.57
426.499	708.33
426.875	707.65
427.251	715.33
427.627	730.93
428.003	739.51
428.379	739.74
428.756	769.57
429.132	746.29
429.507	756.69
429.883	768.89
430.259	811.6
430.635	769.57
431.011	793.3
431.387	807.08
431.763	817.25
432.138	818.38
432.514	827.42
432.89	821.77
433.265	851.38
433.641	852.96
434.016	869.68
434.392	871.49
434.767	888.44
435.143	883.92
435.518	913.3
435.894	910.36
436.269	930.02
436.644	917.59
437.02	938.61
437.395	953.29
437.77	950.81
438.145	925.05
438.52	942.22
438.895	966.63
439.271	948.32
439.646	1014.31
440.021	1005.04
440.395	1000.52
440.77	999.85
441.145	996.23
441.52	1040.07
441.895	1017.25
442.27	1010.24
442.645	1030.81
443.019	1033.52
443.394	1045.27
443.769	1040.3
444.143	1038.49
444.518	1080.75
444.892	1066.06
445.267	1051.6
445.641	1065.61
446.016	1043.91
446.39	1073.52
446.764	1103.12
447.139	1101.99
447.513	1081.88
447.887	1092.73
448.262	1086.62
448.636	1094.08
449.01	1122.78
449.384	1128.88
449.758	1108.54
450.132	1116.23
450.506	1148.54
450.88	1137.92
451.254	1116.91
451.628	1151.48
452.002	1151.71
452.376	1163.46
452.75	1165.94
453.123	1187.86
453.497	1195.1
453.871	1192.61
454.244	1181.99
454.618	1195.32
454.992	1224.93
455.365	1205.26
455.739	1231.03
456.112	1240.29
456.486	1262.44
456.859	1280.07
457.232	1281.65
457.606	1270.8
457.979	1271.93
458.352	1296.56
458.725	1313.74
459.099	1324.36
459.472	1329.56
459.845	1339.5
460.218	1343.57
460.591	1374.53
460.964	1397.12
461.337	1397.12
461.71	1376.79
462.083	1394.41
462.456	1400.74
462.829	1422.21
463.201	1432.6
463.574	1446.16
463.947	1441.42
464.32	1525.93
464.692	1480.06
465.065	1487.29
465.438	1494.07
465.81	1546.95
466.183	1538.59
466.555	1554.41
466.928	1547.63
467.3	1563
467.672	1581.98
468.045	1606.84
468.417	1640.96
468.789	1645.48
469.161	1643.22
469.534	1667.17
469.906	1678.25
470.278	1692.26
470.65	1711.69
471.022	1734.97
471.394	1765.25
471.766	1763.44
472.138	1800.05
472.51	1837.11
472.882	1843.21
473.253	1878.24
473.625	1852.48
473.997	1888.86
474.369	1919.82
474.74	1927.05
475.112	1948.75
475.484	1981.06
475.855	2010.89
476.227	1983.78
476.598	2061.74
476.97	2068.52
477.341	2087.95
477.713	2140.16
478.084	2150.78
478.455	2172.47
478.827	2222.19
479.198	2266.03
479.569	2255.18
479.94	2313.48
480.311	2324.11
480.682	2375.63
481.053	2377.66
481.424	2421.73
481.795	2437.1
482.166	2489.98
482.537	2514.38
482.908	2539.69
483.279	2576.98
483.65	2601.39
484.021	2643.42
484.391	2693.59
484.762	2698.56
485.133	2706.69
485.503	2753.25
485.874	2794.38
486.244	2786.47
486.615	2858.78
486.985	2909.63
487.356	2926.58
487.726	2953.24
488.097	3011.55
488.467	3018.55
488.837	3028.04
489.207	3096.06
489.578	3120.92
489.948	3166.12
490.318	3209.73
490.688	3215.38
491.058	3234.36
491.428	3298.77
491.798	3343.97
492.168	3406.34
492.538	3350.07
492.908	3407.92
493.278	3439.1
493.648	3427.81
494.017	3480.23
494.387	3488.59
494.757	3548.25
495.126	3539.44
495.496	3571.98
495.866	3611.76
496.235	3638.65
496.605	3656.27
496.974	3660.79
497.344	3722.03
497.713	3729.94
498.082	3744.86
498.452	3790.06
498.821	3743.28
499.19	3797.06
499.559	3818.76
499.928	3851.97
500.298	3823.5
500.667	3870.51
501.036	3894.01
501.405	3905.31
501.774	3914.12
502.143	3948.02
502.512	3934.68
502.88	3966.32
503.249	3992.76
503.618	3969.94
503.987	4030.05
504.356	4101.01
504.724	4036.38
505.093	4014.23
505.462	4060.78
505.83	4082.7
506.199	4147.33
506.567	4146.2
506.936	4155.24
507.304	4144.85
507.672	4215.81
508.041	4219.42
508.409	4257.39
508.777	4231.17
509.145	4259.42
509.514	4285.64
509.882	4276.82
510.25	4297.16
510.618	4346.65
510.986	4309.36
511.354	4328.57
511.722	4384.62
512.09	4380.55
512.458	4384.39
512.826	4385.97
513.193	4397.72
513.561	4424.39
513.929	4462.58
514.297	4513.2
514.664	4458.29
515.032	4467.1
515.4	4530.83
515.767	4557.72
516.135	4515.69
516.502	4532.41
516.869	4560.43
517.237	4561.56
517.604	4580.09
517.972	4583.03
518.339	4617.6
518.706	4549.13
519.073	4574.44
519.44	4637.49
519.808	4717.26
520.175	4680.88
520.542	4744.15
520.909	4707.32
521.276	4720.88
521.643	4727.88
522.009	4770.82
522.376	4781.22
522.743	4827.54
523.11	4860.54
523.477	4869.58
523.843	4833.87
524.21	4918.16
524.577	4915
524.943	5006.52
525.31	4951.61
525.676	4978.27
526.043	5001.1
526.409	5030.02
526.776	5111.15
527.142	5072.51
527.508	5141.66
527.874	5173.3
528.241	5189.79
528.607	5135.33
528.973	5206.29
529.339	5193.41
529.705	5258.27
530.071	5294.65
530.437	5311.37
530.803	5346.62
531.169	5366.51
531.535	5357.02
531.901	5393.86
532.267	5390.01
532.632	5425.27
532.998	5461.2
533.364	5466.17
533.73	5484.7
534.095	5522.67
534.461	5538.71
534.826	5632.04
535.192	5614.41
535.557	5632.04
535.923	5628.65
536.288	5642.21
536.653	5723.34
537.019	5694.86
537.384	5699.38
537.749	5753.62
538.114	5767.86
538.479	5760.85
538.845	5779.16
539.21	5806.5
539.575	5839.04
539.94	5858.25
540.305	5909.1
540.67	5880.62
541.034	5928.08
541.399	5921.07
541.764	6006.95
542.129	5970.11
542.494	6027.29
542.858	6037
543.223	6061.86
543.587	6114.51
543.952	6079.26
544.316	6147.51
544.681	6142.31
545.045	6197.22
545.41	6208.52
545.774	6226.38
546.138	6241.97
546.503	6272.48
546.867	6272.25
547.231	6375.3
547.595	6336.66
547.959	6369.2
548.324	6371.91
548.688	6412.59
549.052	6459.36
549.416	6423.21
549.779	6475.63
550.143	6502.53
550.507	6517.44
550.871	6571
551.235	6548.63
551.599	6572.58
551.962	6581.39
552.326	6603.54
552.689	6645.57
553.053	6584.33
553.417	6641.28
553.78	6749.3
554.143	6729.87
554.507	6750.43
554.87	6765.34
555.234	6812.58
555.597	6798.56
555.96	6801.05
556.323	6858
556.686	6833.82
557.05	6930.76
557.413	6848.96
557.776	6872.91
558.139	6948.84
558.502	7015.28
558.865	6995.62
559.228	7056.64
559.59	7051.21
559.953	7015.06
560.316	7118.33
560.679	7167.59
561.041	7111.1
561.404	7239
561.767	7178.44
562.129	7189.97
562.492	7254.37
562.854	7222.73
563.217	7289.4
563.579	7301.38
563.941	7331.88
564.304	7351.09
564.666	7350.87
565.028	7403.29
565.39	7377.53
565.753	7538.21
566.115	7454.37
566.477	7528.04
566.839	7519.22
567.201	7521.03
567.563	7539.56
567.925	7579.11
568.287	7606.9
568.648	7617.75
569.01	7613.23
569.372	7728.26
569.734	7718.31
570.095	7791.76
570.457	7833.57
570.819	7794.24
571.18	7904.07
571.542	7894.58
571.903	7897.07
572.265	8000.11
572.626	8025.42
572.987	8098.87
573.349	8103.61
573.71	8178.64
574.071	8200.56
574.432	8239.88
574.794	8337.05
575.155	8410.05
575.516	8357.62
575.877	8564.17
576.238	8539.99
576.599	8604.17
576.96	8693.88
577.32	8732.75
577.681	8876.48
578.042	8985.17
578.403	8971.61
578.763	9052.06
579.124	9188.33
579.485	9252.74
579.845	9429.23
580.206	9483.01
580.566	9594.2
580.927	9728.43
581.287	9902.21
581.648	9951.48
582.008	10150.34
582.368	10204.35
582.728	10424.46
583.089	10604.79
583.449	10743.55
583.809	10855.63
584.169	11093.82
584.529	11247.49
584.889	11441.61
585.249	11566.12
585.609	11724.76
585.969	12063.28
586.329	12136.5
586.688	12513.89
587.048	12694.23
587.408	12877.95
587.768	13128.12
588.127	13328.11
588.487	13550.25
588.846	13860.53
589.206	13967.42
589.565	14316.78
589.925	14656.66
590.284	14863.21
590.643	15190.43
591.003	15431.78
591.362	15705.9
591.721	15986.57
592.08	16259.56
592.44	16593.56
592.799	16864.06
593.158	17131.4
593.517	17445.52
593.876	17769.8
594.235	17998.27
594.593	18286.62
594.952	18598.03
595.311	18929.54
595.67	19226.71
596.029	19644.1
596.387	19922.06
596.746	20286.8
597.104	20330.19
597.463	20665.32
597.822	21197.51
598.18	21339.2
598.538	21608.57
598.897	22069.58
599.255	22172.85
599.613	22749.56
599.972	22891.47
600.33	23223.9
600.688	23433.38
601.046	23805.12
601.404	24230.87
601.762	24446.46
602.12	24754.25
602.478	24953.57
602.836	25274.24
603.194	25328.47
603.552	25690.72
603.91	25854.11
604.268	26364.6
604.625	26437.6
604.983	26840.07
605.341	26783.8
605.698	27387.4
606.056	27633.04
606.413	27799.14
606.771	28108.51
607.128	28403.19
607.485	28407.71
607.843	28708.27
608.2	29063.06
608.557	29342.15
608.914	29459.89
609.272	29845.64
609.629	30112.08
609.986	30388.9
610.343	30537.15
610.7	30921.09
611.057	30950.92
611.414	31041.09
611.771	31290.12
612.127	31582.77
612.484	31739.6
612.841	32061.85
613.198	32049.65
613.554	32281.51
613.911	32637.66
614.267	32714.04
614.624	32722.63
614.98	32981.38
615.337	33375.27
615.693	33399.9
616.05	33490.74
616.406	33908.59
616.762	33812.09
617.118	34085.3
617.475	34124.63
617.831	34465.86
618.187	34585.4
618.543	34663.59
618.899	34974.32
619.255	35041.89
619.611	35095
619.967	35280.08
620.323	35502.22
620.678	35519.39
621.034	35523.68
621.39	35693.17
621.746	35684.13
622.101	36235.53
622.457	36005.93
622.812	36073.5
623.168	36378.35
623.523	36407.5
623.879	36548.74
624.234	36471
624.589	36652.69
624.945	36663.77
625.3	36870.99
625.655	36827.38
626.01	37041.61
626.365	37110.76
626.72	37006.13
627.075	37127.26
627.43	37049.29
627.785	37109.86
628.14	37354.82
628.495	37452.67
628.85	37459.9
629.205	37270.31
629.559	37712.78
629.914	37535.38
630.269	37586.91
630.623	37660.35
630.978	37578.32
631.332	37700.12
631.687	37846.56
632.041	37665.55
632.396	37813.57
632.75	37696.51
633.104	37782.61
633.459	37695.15
633.813	37816.51
634.167	37847.01
634.521	37701.03
634.875	37840.69
635.229	37813.34
635.583	37836.17
635.937	37800.46
636.291	37845.21
636.645	37850.63
636.999	37860.8
637.352	37892.66
637.706	37727.02
638.06	37928.82
638.413	37793.46
638.767	37833.68
639.121	37866
639.474	37695.38
639.828	37786.22
640.181	37715.72
640.534	37896.5
640.888	37789.39
641.241	37776.28
641.594	37709.62
641.947	37800.46
642.301	37681.82
642.654	37670.75
643.007	37754.81
643.36	37838.65
643.713	37690.86
644.066	37805.88
644.419	37531.77
644.771	37443.86
645.124	37205
645.477	37214.26
645.83	36921.84
646.182	36746.03
646.535	36750.77
646.888	36614.73
647.24	36494.05
647.593	36699.25
647.945	36690.89
648.298	36513.04
648.65	36499.48
649.002	36367.05
649.355	36623.09
649.707	36434.62
650.059	36611.11
650.411	37156.18
650.763	37157.54
651.115	37487.47
651.467	37426.23
651.819	37355.05
652.171	37290.87
652.523	37318.67
652.875	37267.59
653.227	37235.96
653.578	37412.9
653.93	37367.93
654.282	37170.42
654.633	37033.48
654.985	37128.84
655.337	37116.86
655.688	37199.35
656.039	37295.84
656.391	37041.84
656.742	37008.62
657.094	37032.57
657.445	37224.66
657.796	37123.64
658.147	37066.02
658.498	36910.99
658.849	36948.28
659.2	37010.43
659.551	36936.98
659.902	37155.28
660.253	37024.66
660.604	37108.05
660.955	36871.67
661.306	36901.5
661.656	36881.39
662.007	37027.37
662.358	36854.05
662.708	36974.95
663.059	36926.36
663.409	36726.82
663.76	37073.7
664.11	36932.01
664.461	36887.72
664.811	37001.39
665.161	36966.58
665.511	36794.84
665.862	36931.56
666.212	37053.14
666.562	36996.19
666.912	36932.91
667.262	36762.3
667.612	36793.71
667.962	36906.47
668.312	36758.23
668.662	36963.42
669.011	36932.24
669.361	36715.29
669.711	36724.33
670.06	36690.66
670.41	36623.77
670.76	36666.03
671.109	36871.67
671.459	36629.42
671.808	36687.27
672.157	36774.27
672.507	36449.76
672.856	36603.66
673.205	36744.22
673.554	36928.62
673.904	36591
674.253	36929.07
674.602	36677.1
674.951	36175.19
675.3	36090.45
675.649	36604.11
675.998	36537.9
676.346	36355.08
676.695	36649.08
677.044	36353.49
677.393	36433.49
677.741	36604.56
678.09	36347.84
678.438	36320.95
678.787	36450.44
679.135	36448.63
679.484	36184.91
679.832	36348.3
680.181	36033.28
680.529	36291.12
680.877	36113.27
681.225	36064.46
681.573	36147.85
681.922	35981.53
682.27	35867.86
682.618	35906.5
682.966	35904.01
683.314	35910.34
683.661	35880.51
684.009	35672.61
684.357	35681.65
684.705	35461.77
685.053	35506.74
685.4	35439.39
685.748	35336.8
686.095	35320.75
686.443	35261.09
686.79	35226.29
687.138	35154.43
687.485	35231.26
687.832	35102.9
688.18	35125.95
688.527	34992.17
688.874	34906.3
689.221	34835.79
689.568	34845.96
689.915	34694.33
690.262	34700.66
690.609	34504.28
690.956	34541.11
691.303	34429.25
691.65	34336.82
691.997	34448.01
692.344	34111.07
692.69	34108.58
693.037	34141.57
693.383	33809.15
693.73	33895.93
694.077	33831.75
694.423	33675.37
694.769	33539.1
695.116	33589.72
695.462	33570.29
695.808	33359.67
696.155	33582.94
696.501	33200.58
696.847	33111.54
697.193	32995.62
697.539	33233.58
697.885	32843.53
698.231	32782.06
698.577	32801.04
698.923	32683.76
699.269	32548.62
699.614	32472.92
699.96	32379.81
700.306	32435.4
700.651	32227.95
700.997	32190.44
701.342	32151.34
701.688	32159.48
702.033	31936.43
702.379	32004.46
702.724	31907.28
703.069	31872.93
703.415	31502.1
703.76	31592.04
704.105	31714.52
704.45	31472.27
704.795	31494.19
705.14	31206.96
705.485	31226.4
705.83	31091.48
706.175	31131.94
706.52	31095.1
706.865	30931.49
707.209	30894.2
707.554	30696.47
707.899	30955.44
708.243	30671.83
708.588	30769.01
708.932	30390.03
709.277	30324.5
709.621	30589.58
709.966	30259.64
710.31	30439.07
710.654	30067.33
710.998	30111.17
711.342	30050.16
711.687	30017.61
712.031	29967.22
712.375	29872.08
712.719	29865.53
713.063	29893.55
713.407	29899.43
713.75	29677.51
714.094	29630.28
714.438	29582.6
714.782	29592.54
715.125	29412.66
715.469	29443.39
715.812	29310.06
716.156	29154.81
716.499	29293.34
716.843	29163.85
717.186	28935.38
717.53	29086.57
717.873	29099.67
718.216	29072.1
718.559	28826.23
718.902	28680.7
719.246	28835.05
719.589	28732.68
719.932	28607.71
720.275	28649.06
720.617	28637.99
720.96	28541.5
721.303	28565.22
721.646	28544.66
721.989	28382.63
722.331	28454.94
722.674	28309.64
723.016	28376.3
723.359	28318
723.701	28234.16
724.044	28010.21
724.386	27918.69
724.729	28084.56
725.071	27944
725.413	27982.64
725.755	27878.01
726.097	27824
726.439	27642.31
726.782	27828.75
727.124	27918.46
727.465	27670.56
727.807	27729.31
728.149	27549.88
728.491	27548.08
728.833	27567.51
729.175	27421.52
729.516	27380.85
729.858	27417.23
730.199	27352.15
730.541	27436.21
730.882	27403.22
731.224	27340.4
731.565	27213.85
731.906	27141.76
732.248	27285.71
732.589	26955.55
732.93	26902.22
733.271	26945.38
733.612	26855.21
733.953	27021.76
734.294	26911.48
734.635	26860.41
734.976	26827.64
735.317	26778.6
735.658	26814.99
735.999	26776.8
736.339	26684.14
736.68	26639.85
737.021	26594.65
737.361	26453.87
737.702	26561.43
738.042	26555.11
738.383	26453.64
738.723	26516.92
739.063	26418.84
739.404	26430.82
739.744	26287.32
740.084	26222.01
740.424	26302.68
740.764	26182.01
741.104	26354.21
741.444	26049.36
741.784	25961.9
742.124	26161.9
742.464	26014.1
742.804	25908.12
743.143	25866.76
743.483	25907.89
743.823	25829.02
744.162	25776.82
744.502	25758.97
744.841	25610.05
745.181	25669.25
745.52	25603.72
745.86	25595.58
746.199	25516.04
746.538	25542.25
746.877	25635.36
747.216	25504.96
747.556	25303.16
747.895	25441.46
748.234	25314.24
748.573	25182.49
748.911	25182.04
749.25	25113.56
749.589	25065.43
749.928	25133
750.267	25115.37
750.605	25062.49
750.944	24984.75
751.283	24785.44
751.621	24950.4
751.96	24817.3
752.298	24790.63
752.636	24855.49
752.975	24680.81
753.313	24614.14
753.651	24723.97
753.989	24547.25
754.327	24450.08
754.666	24430.42
755.004	24481.72
755.342	24370.08
755.679	24360.59
756.017	24333.02
756.355	24327.59
756.693	24138.22
757.031	24290.08
757.368	24013.7
757.706	24054.16
758.044	23999.24
758.381	23938
758.719	23808.29
759.056	23749.53
759.394	23672.47
759.731	23611.91
760.068	23486.49
760.405	23556.99
760.743	23521.06
761.08	23476.09
761.417	23392.25
761.754	23255.53
762.091	23249.88
762.428	23143.45
762.765	22978.48
763.102	23100.28
763.438	23039.04
763.775	22782.32
764.112	22935.09
764.449	22728.09
764.785	22734.64
765.122	22610.58
765.458	22523.57
765.795	22555.21
766.131	22416.23
766.467	22362.22
766.804	22279.97
767.14	22170.59
767.476	22160.42
767.812	22050.37
768.148	22148.22
768.485	21983.7
768.821	21796.36
769.157	21812.63
769.492	21786.87
769.828	21696.48
770.164	21497.84
770.5	21438.18
770.836	21510.04
771.171	21378.52
771.507	21295.58
771.842	21137.17
772.178	21134.68
772.513	21050.84
772.849	21065.99
773.184	20990.28
773.519	20898.98
773.855	20701.93
774.19	20769.27
774.525	20616.73
774.86	20626.68
775.195	20594.81
775.53	20442.73
775.865	20305.55
776.2	20160.47
776.535	20085.67
776.87	20112.79
777.205	20067.37
777.539	19942.4
777.874	19962.74
778.209	19692.01
778.543	19683.65
778.878	19613.37
779.212	19581.96
779.547	19448.85
779.881	19487.72
780.215	19353.04
780.55	19372.92
780.884	19233.49
781.218	19164.57
781.552	19244.79
781.886	19152.82
782.22	19000.05
782.554	18926.61
782.888	18786.95
783.222	18664.69
783.556	18630.57
783.889	18624.69
784.223	18547.63
784.557	18467.86
784.89	18457.47
785.224	18325.49
785.557	18273.29
785.891	18217.25
786.224	18147.87
786.558	18136.8
786.891	17961.89
787.224	17941.77
787.557	17977.25
787.891	17840.99
788.224	17791.5
788.557	17838.73
788.89	17760.31
789.223	17725.96
789.556	17553.99
789.888	17534.55
790.221	17487.32
790.554	17347.44
790.887	17318.97
791.219	17220.89
791.552	17228.57
791.884	17107.9
792.217	17094.79
792.549	16988.35
792.882	16899.32
793.214	16783.16
793.546	16871.07
793.879	16776.61
794.211	16642.83
794.543	16636.05
794.875	16654.12
795.207	16718.53
795.539	16465.88
795.871	16512.43
796.203	16317.64
796.535	16277.19
796.867	16248.71
797.198	16263.4
797.53	16179.56
797.862	16117.19
798.193	16046.23
798.525	16050.52
798.856	16069.73
799.188	15882.17
799.519	15836.97
799.85	15781.6
800.182	15776.63
800.513	15722.4
800.844	15608.95
801.175	15646.02
801.506	15579.12
801.837	15562.18
802.168	15467.71
802.499	15489.18
802.83	15410.54
803.161	15337.32
803.491	15247.16
803.822	15411.45
804.153	15212.58
804.483	15158.57
804.814	15080.38
805.145	14978.24
805.475	14964
805.805	14968.52
806.136	14889.65
806.466	14914.06
806.796	14863.21
807.126	14703.67
807.457	14801.29
807.787	14789.09
808.117	14618.47
808.447	14653.27
808.777	14647.4
809.107	14596.1
809.436	14519.27
809.766	14614.4
810.096	14571.69
810.426	14347.07
810.755	14369.21
811.085	14333.73
811.414	14330.57
811.744	14223.91
812.073	14224.58
812.403	14197.47
812.732	14090.35
813.061	14084.47
813.39	14076.11
813.719	14012.61
814.049	14017.36
814.378	13976.91
814.707	13936.23
815.036	13956.79
815.365	13863.01
815.693	13784.37
816.022	13725.61
816.351	13761.32
816.68	13602.23
817.008	13677.03
817.337	13530.59
817.665	13488.56
817.994	13576.01
818.322	13547.99
818.651	13455.34
818.979	13379.86
819.307	13460.76
819.636	13433.19
819.964	13212.18
820.292	13362.01
820.62	13346.87
820.948	13352.97
821.276	13314.78
821.604	13302.12
821.932	13274.33
822.259	13390.48
822.587	13257.6
822.915	13254.89
823.243	13243.37
823.57	13251.73
823.898	13294.21
824.225	13225.74
824.553	13255.12
824.88	13202.24
825.207	13265.51
825.535	13218.06
825.862	13246.98
826.189	13091.73
826.516	13167.66
826.843	13234.1
827.17	13181.67
827.497	13179.64
827.824	13218.28
828.151	13208.11
828.478	13170.6
828.805	13283.37
829.131	13139.64
829.458	13185.06
829.785	13028.23
830.111	13141
830.438	13144.84
830.764	13184.38
831.09	13203.37
831.417	13188
831.743	13216.25
832.069	13195.46
832.395	13061.9
832.722	13197.04
833.048	13063.26
833.374	13051.28
833.7	13075.24
834.026	13024.16
834.351	13077.27
834.677	13076.14
835.003	13046.54
835.329	12981.23
835.654	13065.07
835.98	12917.73
836.306	12969.02
836.631	12964.28
836.956	12961.34
837.282	12909.14
837.607	12819.2
837.932	12865.52
838.258	12783.94
838.583	12871.85
838.908	12750.27
839.233	12729.03
839.558	12802.93
839.883	12696.49
840.208	12696.94
840.533	12654.91
840.858	12660.78
841.182	12663.49
841.507	12669.37
841.832	12552.99
842.156	12606.1
842.481	12521.58
842.805	12419.43
843.13	12520.45
843.454	12492.88
843.778	12350.51
844.103	12401.81
844.427	12349.38
844.751	12317.52
845.075	12316.61
845.399	12301.7
845.723	12187.12
846.047	12196.84
846.371	12174.02
846.695	12179.44
847.019	12094.24
847.343	11925.21
847.666	11902.84
847.99	11794.59
848.313	11804.08
848.637	11729.96
848.96	11754.59
849.284	11742.16
849.607	11655.39
849.931	11626.23
850.254	11500.59
850.577	11506.01
850.9	11416.52
851.223	11421.04
851.546	11394.83
851.869	11242.29
852.192	11340.14
852.515	11208.62
852.838	11219.01
853.161	11207.94
853.483	11146.25
853.806	11069.19
854.129	11102.63
854.451	11024.22
854.774	10922.3
855.096	10894.73
855.419	10934.05
855.741	10875.07
856.063	10834.39
856.385	10725.69
856.708	10747.84
857.03	10668.74
857.352	10650.89
857.674	10651.8
857.996	10639.82
858.318	10538.13
858.64	10536.32
858.961	10608.41
859.283	10548.97
859.605	10396.21
859.926	10484.57
860.248	10502.2
860.57	10346.49
860.891	10401.41
861.212	10392.59
861.534	10337.45
861.855	10312.6
862.176	10354.18
862.498	10292.03
862.819	10295.2
863.14	10299.26
863.461	10206.38
863.782	10133.39
864.103	10225.59
864.424	10141.08
864.745	10113.96
865.065	10036.45
865.386	10029.44
865.707	10108.08
866.027	10134.3
866.348	10022.43
866.668	9992.15
866.989	10019.72
867.309	9900.18
867.63	9869.67
867.95	9947.86
868.27	9891.59
868.59	9929.33
868.91	9859.05
869.23	9875.55
869.55	9815.21
869.87	9910.57
870.19	9820.63
870.51	9776.79
870.83	9805.49
871.15	9701.54
871.469	9726.62
871.789	9805.94
872.109	9770.92
872.428	9715.1
872.748	9725.04
873.067	9689.56
873.386	9706.74
873.706	9708.09
874.025	9642.56
874.344	9590.13
874.663	9626.96
874.982	9589
875.301	9612.05
875.62	9521.2
875.939	9536.8
876.258	9521.88
876.577	9497.93
876.896	9528.89
877.214	9477.14
877.533	9462.9
877.852	9458.16
878.17	9374.99
878.489	9451.6
878.807	9396.91
879.125	9416.57
879.444	9346.07
879.762	9339.06
880.08	9376.12
880.398	9323.92
880.716	9340.64
881.034	9257.26
881.352	9257.26
881.67	9280.08
881.988	9204.15
882.306	9212.29
882.624	9200.31
882.941	9112.85
883.259	9142.23
883.577	9107.88
883.894	9031.5
884.212	9043.48
884.529	9010.71
884.846	9020.2
885.164	8980.65
885.481	8970.71
885.798	8953.76
886.115	8930.49
886.432	8897.72
886.75	8890.26
887.067	8913.08
887.383	8825.63
887.7	8862.46
888.017	8819.75
888.334	8750.38
888.651	8798.96
888.967	8792.41
889.284	8763.48
889.6	8728.23
889.917	8647.1
890.233	8680.55
890.55	8592.19
890.866	8657.5
891.182	8584.96
891.498	8563.49
891.815	8483.94
892.131	8496.15
892.447	8542.93
892.763	8440.1
893.079	8441.91
893.395	8336.83
893.71	8397.84
894.026	8336.38
894.342	8361.23
894.657	8310.16
894.973	8274.01
895.289	8311.97
895.604	8272.2
895.92	8235.14
896.235	8098.42
896.55	8138.42
896.865	8143.84
897.181	8030.4
897.496	8062.71
897.811	7999.89
898.126	7962.15
898.441	7996.05
898.756	7981.81
899.071	7932.32
899.386	7890.29
899.7	7865.65
900.015	7784.75
900.33	7800.57
900.644	7780.46
900.959	7743.85
901.273	7719.22
901.588	7710.63
901.902	7683.96
902.216	7603.06
902.531	7669.95
902.845	7585.89
903.159	7641.25
903.473	7533.01
903.787	7495.95
904.101	7416.18
904.415	7463.63
904.729	7420.24
905.042	7417.3
905.356	7426.12
905.67	7292.11
905.984	7398.32
906.297	7363.07
906.611	7223.86
906.924	7262.51
907.237	7189.74
907.551	7237.65
907.864	7196.07
908.177	7100.93
908.491	7149.52
908.804	7082.17
909.117	7040.37
909.43	7018.22
909.743	6974.83
910.056	6966.47
910.368	6911.56
910.681	6911.56
910.994	6822.52
911.307	6868.39
911.619	6810.99
911.932	6737.32
912.244	6751.11
912.557	6743.65
912.869	6670.66
913.181	6728.28
913.494	6674.27
913.806	6578.23
914.118	6591.34
914.43	6559.7
914.742	6559.93
915.054	6492.81
915.366	6463.66
915.678	6454.17
915.99	6451.91
916.302	6408.29
916.613	6377.11
916.925	6376.65
917.236	6348.86
917.548	6313.15
917.859	6247.39
918.171	6256.43
918.482	6225.25
918.794	6194.51
919.105	6194.06
919.416	6166.72
919.727	6143.44
920.038	6141.63
920.349	6048.53
920.66	6055.31
920.971	6023.44
921.282	6027.29
921.593	5939.6
921.903	5932.15
922.214	5967.63
922.525	5899.15
922.835	5802.21
923.146	5851.92
923.456	5860.06
923.767	5785.48
924.077	5771.47
924.387	5757.01
924.697	5722.89
925.008	5688.76
925.318	5715.43
925.628	5687.63
925.938	5631.59
926.248	5640.4
926.558	5602.66
926.867	5585.49
927.177	5592.04
927.487	5491.03
927.796	5495.77
928.106	5420.07
928.416	5465.72
928.725	5453.97
929.034	5375.78
929.344	5411.26
929.653	5353.86
929.962	5293.52
930.271	5336.68
930.581	5332.84
930.89	5253.29
931.199	5214.43
931.508	5284.71
931.817	5194.09
932.125	5182.34
932.434	5190.47
932.743	5139.62
933.051	5079.29
933.36	5081.55
933.669	5052.17
933.977	5065.73
934.286	5044.49
934.594	4977.37
934.902	4961.55
935.21	4949.57
935.519	4957.03
935.827	4937.82
936.135	4917.71
936.443	4847.2
936.751	4857.37
937.059	4862.8
937.367	4774.44
937.674	4810.37
937.982	4771.27
938.29	4726.53
938.597	4694.21
938.905	4678.39
939.213	4682.24
939.52	4639.3
939.827	4729.47
940.135	4592.97
940.442	4587.77
940.749	4583.93
941.056	4578.51
941.363	4557.04
941.67	4535.35
941.977	4516.14
942.284	4465.97
942.591	4434.11
942.898	4408.8
943.205	4421.23
943.511	4374.67
943.818	4389.81
944.125	4378.74
944.431	4375.13
944.738	4311.17
945.044	4329.02
945.35	4254.9
945.657	4290.38
945.963	4282.47
946.269	4239.76
946.575	4233.21
946.881	4196.37
947.187	4219.2
947.493	4170.84
947.799	4140.1
948.105	4155.47
948.41	4118.63
948.716	4124.28
949.022	4139.43
949.327	4107.11
949.633	4024.17
949.938	4029.37
950.244	4056.26
950.549	4005.87
950.854	3973.78
951.16	3961.12
951.465	3945.76
951.77	3925.42
952.075	3963.84
952.38	3894.23
952.685	3906.89
952.99	3870.05
953.294	3906.21
953.599	3861.01
953.904	3824.86
954.209	3806.55
954.513	3808.59
954.818	3756.38
955.122	3728.14
955.426	3754.58
955.731	3714.58
956.035	3663.51
956.339	3682.94
956.643	3668.03
956.948	3626.44
957.252	3627.35
957.556	3639.33
957.86	3663.96
958.163	3567.46
958.467	3595.94
958.771	3604.52
959.075	3547.58
959.378	3467.13
959.682	3509.39
959.985	3493.57
960.289	3487.24
960.592	3476.62
960.896	3442.49
961.199	3422.38
961.502	3445.66
961.805	3415.38
962.108	3388.71
962.411	3364.76
962.714	3328.82
963.017	3328.6
963.32	3392.1
963.623	3375.83
963.926	3323.4
964.228	3289.73
964.531	3290.41
964.833	3265.32
965.136	3238.43
965.438	3188.94
965.741	3225.32
966.043	3222.61
966.345	3185.78
966.648	3182.61
966.95	3195.72
967.252	3108.04
967.554	3137.64
967.856	3156.4
968.158	3113.46
968.46	3086.57
968.761	3064.2
969.063	3109.17
969.365	3058.32
969.666	3075.27
969.968	3022.62
970.269	3012
970.571	3032.56
970.872	3009.06
971.174	2964.09
971.475	3012.68
971.776	2962.96
972.077	2932.68
972.378	2933.13
972.679	2922.51
972.98	2931.55
973.281	2903.75
973.582	2885.67
973.883	2884.54
974.183	2852.23
974.484	2899.91
974.785	2852.45
975.085	2818.1
975.386	2832.11
975.686	2807.48
975.986	2820.59
976.287	2799.8
976.587	2754.6
976.887	2736.52
977.187	2760.48
977.487	2717.77
977.787	2729.97
978.087	2666.24
978.387	2677.09
978.687	2667.83
978.987	2667.15
979.286	2621.27
979.586	2643.87
979.885	2650.42
980.185	2636.19
980.484	2602.52
980.784	2594.83
981.083	2583.31
981.382	2580.82
981.682	2580.6
981.981	2547.38
982.28	2563.87
982.579	2500.6
982.878	2508.73
983.177	2509.41
983.475	2485.46
983.774	2465.57
984.073	2496.08
984.372	2457.66
984.67	2461.28
984.969	2449.3
985.267	2444.1
985.566	2426.7
985.864	2418.79
986.162	2382.41
986.461	2380.15
986.759	2413.59
987.057	2383.09
987.355	2355.74
987.653	2331.34
987.951	2342.18
988.249	2324.33
988.547	2325.24
988.844	2266.93
989.142	2304.67
989.44	2293.15
989.737	2306.7
990.035	2240.72
990.332	2252.92
990.63	2252.02
990.927	2233.03
991.224	2194.62
991.521	2228.51
991.819	2200.72
992.116	2201.85
992.413	2207.72
992.71	2172.02
993.006	2165.01
993.303	2131.79
993.6	2170.66
993.897	2116.2
994.193	2126.14
994.49	2155.75
994.787	2129.99
995.083	2097.44
995.379	2104.68
995.676	2080.27
995.972	2060.61
996.268	2071.46
996.565	2031.91
996.861	2014.96
997.157	2040.72
997.453	2002.76
997.749	2014.51
998.044	1981.97
998.34	1982.65
998.636	1978.8
998.932	1954.85
999.227	1964.57
999.523	1928.86
999.818	1949.43
1000.114	1943.1
1000.409	1918.24
1000.704	1884.12
1001	1879.82
1001.295	1904
1001.59	1894.51
1001.885	1883.44
1002.18	1864.46
1002.475	1860.61
1002.77	1905.36
1003.065	1828.75
1003.359	1824.23
1003.654	1833.72
1003.949	1813.16
1004.243	1793.05
1004.538	1807.51
1004.832	1787.85
1005.127	1747.4
1005.421	1751.01
1005.715	1722.99
1006.009	1724.12
1006.304	1733.39
1006.598	1742.65
1006.892	1686.16
1007.186	1688.87
1007.48	1695.87
1007.773	1668.08
1008.067	1693.16
1008.361	1641.19
1008.655	1660.85
1008.948	1614.97
1009.242	1611.58
1009.535	1658.81
1009.829	1613.84
1010.122	1608.42
1010.415	1596.67
1010.708	1593.28
1011.001	1574.29
1011.295	1560.74
1011.588	1558.93
1011.881	1591.92
1012.173	1573.16
1012.466	1532.49
1012.759	1539.95
1013.052	1524.35
1013.344	1494.75
1013.637	1487.29
1013.93	1476.9
1014.222	1473.51
1014.514	1465.6
1014.807	1474.86
1015.099	1483.9
1015.391	1465.37
1015.683	1412.27
1015.976	1477.8
1016.268	1423.11
1016.56	1418.82
1016.851	1423.56
1017.143	1431.7
1017.435	1404.58
1017.727	1399.61
1018.018	1366.39
1018.31	1341.08
1018.602	1367.52
1018.893	1354.41
1019.185	1341.98
1019.476	1323.91
1019.767	1338.59
1020.058	1328.65
1020.35	1323
1020.641	1318.03
1020.932	1294.53
1021.223	1308.77
1021.514	1266.51
1021.804	1259.95
1022.095	1241.87
1022.386	1243.68
1022.677	1264.92
1022.967	1225.15
1023.258	1245.72
1023.548	1220.41
1023.839	1219.28
1024.129	1199.16
1024.419	1209.78
1024.709	1204.81
1025	1177.47
1025.29	1158.26
1025.58	1172.5
1025.87	1157.81
1026.16	1130.46
1026.449	1135.21
1026.739	1144.93
1027.029	1151.48
1027.319	1133.85
1027.608	1127.98
1027.898	1121.43
1028.187	1113.06
1028.477	1080.3
1028.766	1087.75
1029.055	1083.46
1029.344	1069.45
1029.634	1072.84
1029.923	1062.44
1030.212	1059.05
1030.501	1039.62
1030.79	1046.17
1031.078	1025.16
1031.367	1005.72
1031.656	1026.51
1031.945	1020.86
1032.233	988.77
1032.522	1032.16
1032.81	995.1
1033.099	981.54
1033.387	985.61
1033.675	1010.24
1033.963	976.12
1034.251	968.89
1034.54	949.23
1034.828	959.4
1035.116	954.42
1035.403	963.46
1035.691	954.2
1035.979	946.51
1036.267	915.1
1036.554	948.77
1036.842	934.99
1037.129	934.31
1037.417	900.87
1037.704	922.11
1037.992	909.68
1038.279	908.78
1038.566	891.15
1038.853	891.15
1039.14	891.15
