Data from hue_290_FLMS001491_00022.txt Node
Date: Tue Feb 07 15:52:31 GMT 2017
User: dcchb
Spectrometer: FLMS00149
Trigger mode: 0
Integration Time (sec): 2.000000E-2
Scans to average: 10
Electric dark correction enabled: true
Nonlinearity correction enabled: false
Boxcar width: 0
XAxis mode: Wavelengths
Number of Pixels in Spectrum: 2048
>>>>>Begin Spectral Data<<<<<
341.393	-21.86
341.776	-21.86
342.16	-21.86
342.543	-59.38
342.927	-68.19
343.31	-74.97
343.693	-48.53
344.077	-51.02
344.46	-59.15
344.843	-62.31
345.226	-28.64
345.61	-27.29
345.993	-14.41
346.376	-2.66
346.759	6.38
347.142	15.42
347.525	33.28
347.908	39.83
348.291	75.08
348.674	94.97
349.057	104.01
349.44	116.21
349.823	123.22
350.206	163.89
350.588	210.67
350.971	225.36
351.354	231.91
351.737	250.9
352.119	254.29
352.502	254.29
352.884	262.87
353.267	269.88
353.65	264.91
354.032	284.34
354.414	306.26
354.797	297.45
355.179	325.47
355.562	323.44
355.944	308.75
356.326	315.75
356.709	329.77
357.091	333.16
357.473	331.12
357.855	339.26
358.238	340.84
358.62	318.24
359.002	344.68
359.384	327.05
359.766	328.18
360.148	322.08
360.53	326.15
360.912	338.13
361.294	347.62
361.676	317.79
362.057	305.59
362.439	334.06
362.821	318.69
363.203	325.25
363.584	354.62
363.966	308.97
364.348	328.86
364.729	305.13
365.111	305.36
365.493	329.77
365.874	304.46
366.256	318.47
366.637	304.46
367.019	298.35
367.4	312.59
367.781	300.16
368.163	289.99
368.544	286.83
368.925	304
369.306	327.05
369.688	312.36
370.069	323.21
370.45	313.04
370.831	307.17
371.212	325.7
371.593	322.31
371.974	319.14
372.355	319.14
372.736	292.7
373.117	293.83
373.498	294.06
373.879	295.42
374.26	299.71
374.641	302.65
375.021	296.77
375.402	315.53
375.783	316.21
376.163	321.4
376.544	316.88
376.925	351.01
377.305	331.8
377.686	314.4
378.066	326.83
378.447	348.97
378.827	310.78
379.208	333.61
379.588	344.91
379.968	321.4
380.349	332.25
380.729	323.66
381.109	344.45
381.489	346.04
381.87	314.17
382.25	331.57
382.63	337.45
383.01	348.75
383.39	331.57
383.77	326.15
384.15	339.71
384.53	319.14
384.91	347.39
385.29	369.99
385.67	354.62
386.049	339.48
386.429	359.82
386.809	364.11
387.189	338.35
387.568	344.68
387.948	367.28
388.328	357.56
388.707	364.57
389.087	346.04
389.466	344.68
389.846	343.55
390.225	364.57
390.605	364.79
390.984	367.73
391.363	357.11
391.743	355.98
392.122	360.5
392.501	356.43
392.881	372.02
393.26	369.99
393.639	390.33
394.018	392.36
394.397	367.96
394.776	365.7
395.155	367.73
395.534	391.01
395.913	382.87
396.292	387.16
396.671	388.29
397.05	396.2
397.429	406.15
397.808	385.58
398.186	391.01
398.565	390.78
398.944	387.84
399.323	390.1
399.701	422.19
400.08	401.85
400.458	396.66
400.837	431.68
401.215	394.17
401.594	429.65
401.972	404.34
402.351	443.21
402.729	425.81
403.107	431.68
403.486	426.26
403.864	436.43
404.242	442.3
404.62	432.81
404.999	416.99
405.377	437.56
405.755	448.18
406.133	461.29
406.511	461.97
406.889	453.6
407.267	483.89
407.645	464.9
408.023	489.54
408.401	496.54
408.779	488.63
409.156	504.68
409.534	525.92
409.912	499.7
410.29	517.56
410.667	494.05
411.045	533.83
411.422	514.85
411.8	516.65
412.178	551.45
412.555	547.39
412.933	564.56
413.31	576.99
413.687	597.55
414.065	576.09
414.442	606.82
414.819	590.1
415.197	637.55
415.574	617.22
415.951	610.66
416.328	636.88
416.705	608.18
417.082	622.86
417.46	648.18
417.837	662.86
418.214	654.95
418.591	670.77
418.967	661.28
419.344	676.2
419.721	673.26
420.098	705.8
420.475	697.67
420.852	709.42
421.228	723.43
421.605	754.39
421.982	738.79
422.358	743.99
422.735	759.13
423.111	766.59
423.488	764.1
423.864	761.39
424.241	795.97
424.617	811.79
424.994	802.97
425.37	835.97
425.746	853.14
426.123	837.32
426.499	817.89
426.875	853.14
427.251	862.86
427.627	889.75
428.003	875.97
428.379	903.99
428.756	921.61
429.132	922.29
429.507	906.02
429.883	940.14
430.259	929.07
430.635	965.91
431.011	942.86
431.387	977.66
431.763	997.54
432.138	1021.72
432.514	1013.59
432.89	1035.51
433.265	1074.15
433.641	1059.46
434.016	1089.29
434.392	1078.22
434.767	1121.16
435.143	1102.63
435.518	1101.04
435.894	1126.58
436.269	1126.81
436.644	1145.11
437.02	1181.04
437.395	1177.88
437.77	1176.97
438.145	1188.5
438.52	1216.52
438.895	1203.64
439.271	1211.55
439.646	1266.46
440.021	1253.58
440.395	1275.05
440.77	1267.82
441.145	1263.07
441.52	1306.91
441.895	1292.68
442.27	1312.79
442.645	1330.87
443.019	1344.2
443.394	1328.84
443.769	1343.3
444.143	1363.86
444.518	1362.28
444.892	1375.39
445.267	1360.92
445.641	1394.6
446.016	1368.16
446.39	1371.32
446.764	1401.6
447.139	1398.21
447.513	1407.7
447.887	1419.23
448.262	1422.39
448.636	1433.69
449.01	1433.01
449.384	1448.83
449.758	1412
450.132	1483.18
450.506	1462.39
450.88	1495.38
451.254	1516.17
451.628	1515.95
452.002	1509.62
452.376	1506.91
452.75	1522.05
453.123	1541.94
453.497	1510.07
453.871	1543.07
454.244	1579.45
454.618	1562.28
454.992	1608.15
455.365	1594.14
455.739	1622.61
456.112	1640.47
456.486	1660.58
456.859	1658.32
457.232	1689.5
457.606	1666.45
457.979	1703.74
458.352	1699.67
458.725	1741.25
459.099	1747.36
459.472	1765.21
459.845	1743.74
460.218	1820.12
460.591	1766.34
460.964	1811.53
461.337	1849.05
461.71	1853.79
462.083	1882.04
462.456	1874.58
462.829	1860.35
463.201	1874.13
463.574	1905.54
463.947	1916.84
464.32	1942.15
464.692	1966.33
465.065	1995.26
465.438	1971.53
465.81	1997.07
466.183	2034.81
466.555	2050.62
466.928	2039.78
467.3	2083.17
467.672	2079.32
468.045	2117.06
468.417	2138.08
468.789	2155.93
469.161	2149.83
469.534	2186.89
469.906	2236.38
470.278	2206.78
470.65	2235.48
471.022	2274.8
471.394	2288.36
471.766	2310.96
472.138	2359.99
472.51	2396.38
472.882	2382.37
473.253	2426.66
473.625	2448.58
473.997	2444.51
474.369	2507.56
474.74	2533.1
475.112	2512.08
475.484	2549.82
475.855	2606.99
476.227	2627.56
476.598	2692.42
476.97	2700.1
477.341	2757.95
477.713	2733.77
478.084	2741.91
478.455	2844.05
478.827	2863.71
479.198	2898.74
479.569	2886.76
479.94	2981.45
480.311	2976.25
480.682	3057.83
481.053	3055.12
481.424	3077.04
481.795	3127.21
482.166	3148
482.537	3227.77
482.908	3273.87
483.279	3259.63
483.65	3292.63
484.021	3343.25
484.391	3401.55
484.762	3377.14
485.133	3399.97
485.503	3441.32
485.874	3547.08
486.244	3552.51
486.615	3594.54
486.985	3617.59
487.356	3692.39
487.726	3673.63
488.097	3740.98
488.467	3717.47
488.837	3822.33
489.207	3860.52
489.578	3897.13
489.948	3922.21
490.318	3916.79
490.688	3960.18
491.058	4015.77
491.428	4059.38
491.798	4058.25
492.168	4120.63
492.538	4157.46
492.908	4133.06
493.278	4179.38
493.648	4142.55
494.017	4253.28
494.387	4238.59
494.757	4289.89
495.126	4342.77
495.496	4341.19
495.866	4338.25
496.235	4388.87
496.605	4435.19
496.974	4426.38
497.344	4484.01
497.713	4469.54
498.082	4528.52
498.452	4540.95
498.821	4578.02
499.19	4576.89
499.559	4614.17
499.928	4570.56
500.298	4653.27
500.667	4669.09
501.036	4613.27
501.405	4705.24
501.774	4708.86
502.143	4771.23
502.512	4761.29
502.88	4780.27
503.249	4765.81
503.618	4843.09
503.987	4837.22
504.356	4859.36
504.724	4857.1
505.093	4875.18
505.462	4886.26
505.83	4918.57
506.199	4918.57
506.567	4957.44
506.936	4996.76
507.304	4977.33
507.672	5029.3
508.041	5020.94
508.409	5059.58
508.777	5097.78
509.145	5144.78
509.514	5151.79
509.882	5108.85
510.25	5104.1
510.618	5178.45
510.986	5154.05
511.354	5210.99
511.722	5272.46
512.09	5242.18
512.458	5302.29
512.826	5302.74
513.193	5298.67
513.561	5315.17
513.929	5366.47
514.297	5361.05
514.664	5432.68
515.032	5346.13
515.4	5407.15
515.767	5489.86
516.135	5457.09
516.502	5392.68
516.869	5530.31
517.237	5497.99
517.604	5464.55
517.972	5478.33
518.339	5560.81
518.706	5540.48
519.073	5572.57
519.44	5542.96
519.808	5576.63
520.175	5617.31
520.542	5625.9
520.909	5697.76
521.276	5628.16
521.643	5710.64
522.009	5765.55
522.376	5739.79
522.743	5753.8
523.11	5760.13
523.477	5799.45
523.843	5855.27
524.21	5892.78
524.577	5917.87
524.943	5934.36
525.31	5944.76
525.676	6032.21
526.043	5993.35
526.409	6024.53
526.776	6087.35
527.142	6100.69
527.508	6140.01
527.874	6147.92
528.241	6135.26
528.607	6212.32
528.973	6161.02
529.339	6207.12
529.705	6304.98
530.071	6248.71
530.437	6346.33
530.803	6330.29
531.169	6410.51
531.535	6325.99
531.901	6399.89
532.267	6405.76
532.632	6405.09
532.998	6481.02
533.364	6523.5
533.73	6480.11
534.095	6618.64
534.461	6516.95
534.826	6603.95
535.192	6609.6
535.557	6634.01
535.923	6586.32
536.288	6665.19
536.653	6658.64
537.019	6622.03
537.384	6683.04
537.749	6662.25
538.114	6766.66
538.479	6787.45
538.845	6788.35
539.21	6753.55
539.575	6752.65
539.94	6798.75
540.305	6864.51
540.67	6843.04
541.034	6868.12
541.399	6894.79
541.764	6930.27
542.129	6949.03
542.494	6978.4
542.858	6933.89
543.223	7026.99
543.587	7042.81
543.952	7022.02
544.316	7012.08
544.681	7078.74
545.045	7059.08
545.41	7122.58
545.774	7145.41
546.138	7122.81
546.503	7206.42
546.867	7207.32
547.231	7203.71
547.595	7194.67
547.959	7270.6
548.324	7253.2
548.688	7266.08
549.052	7255.91
549.416	7296.81
549.779	7337.94
550.143	7363.25
550.507	7423.82
550.871	7394.44
551.235	7371.16
551.599	7417.26
551.962	7434.66
552.326	7487.54
552.689	7484.61
553.053	7436.92
553.417	7540.2
553.78	7549.24
554.143	7514.66
554.507	7573.64
554.87	7586.98
555.234	7652.51
555.597	7655.22
555.96	7613.19
556.323	7659.52
556.686	7653.41
557.05	7719.18
557.413	7692.06
557.776	7721.66
558.139	7715.56
558.502	7765.05
558.865	7782.22
559.228	7832.62
559.59	7846.18
559.953	7789.46
560.316	7944.71
560.679	7889.34
561.041	7951.26
561.404	7981.77
561.767	8046.62
562.129	7961.2
562.492	8024.03
562.854	8024.25
563.217	8040.3
563.579	8046.85
563.941	8141.99
564.304	8170.24
564.666	8155.1
565.028	8230.8
565.39	8158.71
565.753	8261.76
566.115	8287.07
566.477	8279.16
566.839	8351.7
567.201	8370.23
567.563	8477.57
567.925	8433.06
568.287	8481.87
568.648	8449.1
569.01	8496.33
569.372	8512.6
569.734	8551.02
570.095	8563.22
570.457	8646.16
570.819	8651.58
571.18	8689.32
571.542	8684.57
571.903	8709.43
572.265	8793.05
572.626	8795.76
572.987	8750.56
573.349	8876.21
573.71	8905.81
574.071	8973.83
574.432	8967.96
574.794	9129.99
575.155	9106.48
575.516	9023.77
575.877	9169.31
576.238	9138.12
576.599	9225.35
576.96	9291.34
577.32	9312.13
577.681	9424.89
578.042	9411.56
578.403	9562.29
578.763	9591.67
579.124	9605.91
579.485	9667.82
579.845	9736.52
580.206	9730.42
580.566	9890.64
580.927	9953.47
581.287	10056.97
581.648	10053.58
582.008	10187.13
582.368	10290.63
582.728	10361.14
583.089	10413.79
583.449	10397.52
583.809	10584.41
584.169	10705.54
584.529	10809.04
584.889	10968.13
585.249	10938.3
585.609	11061.91
585.969	11209.93
586.329	11346.65
586.688	11423.26
587.048	11509.58
587.408	11605.63
587.768	11709.13
588.127	11821.21
588.487	11957.48
588.846	12110.25
589.206	12168.78
589.565	12351.37
589.925	12594.75
590.284	12597.47
590.643	12731.93
591.003	12900.51
591.362	13123.78
591.721	13182.76
592.08	13290.55
592.44	13477.22
592.799	13542.07
593.158	13698.45
593.517	13831.11
593.876	13962.4
594.235	14001.5
594.593	14232.45
594.952	14416.63
595.311	14495.27
595.67	14678.09
596.029	14829.95
596.387	14994.92
596.746	15223.61
597.104	15104.07
597.463	15270.16
597.822	15457.5
598.18	15486.2
598.538	15627.89
598.897	15918.28
599.255	15935.91
599.613	16297.03
599.972	16232.62
600.33	16401.66
600.688	16478.49
601.046	16643.23
601.404	16773.17
601.762	16890.69
602.12	17045.94
602.478	17135.65
602.836	17226.95
603.194	17240.28
603.552	17443.89
603.91	17346.49
604.268	17673.72
604.625	17649.08
604.983	17675.52
605.341	17776.09
605.698	17880.72
606.056	18054.72
606.413	18197.09
606.771	18211.1
607.128	18428.72
607.485	18374.71
607.843	18510.3
608.2	18640.47
608.557	18800.47
608.914	18792.78
609.272	19022.61
609.629	18951.2
609.986	19031.19
610.343	19092.66
610.7	19298.76
611.057	19249.49
611.414	19376.04
611.771	19461.69
612.127	19497.62
612.484	19558.64
612.841	19766.99
613.198	19724.28
613.554	19763.15
613.911	19952.3
614.267	19964.73
614.624	19910.27
614.98	20174.44
615.337	20152.52
615.693	20249.24
616.05	20215.12
616.406	20334.66
616.762	20387.99
617.118	20391.84
617.475	20430.25
617.831	20549.12
618.187	20542.57
618.543	20578.72
618.899	20779.85
619.255	20792.5
619.611	20749.79
619.967	20966.06
620.323	20818.72
620.678	20905.27
621.034	20854.65
621.39	20856.46
621.746	20996.79
622.101	21142.78
622.457	21049.9
622.812	21167.86
623.168	21280.85
623.523	21245.83
623.879	21396.78
624.234	21155.43
624.589	21306.39
624.945	21281.53
625.3	21436.33
625.655	21427.74
626.01	21400.17
626.365	21503.67
626.72	21454.41
627.075	21415.31
627.43	21467.06
627.785	21383.22
628.14	21427.97
628.495	21405.82
628.85	21439.04
629.205	21425.93
629.559	21500.06
629.914	21503.67
630.269	21399.49
630.623	21458.93
630.978	21462.99
631.332	21514.97
631.687	21529.43
632.041	21447.63
632.396	21481.75
632.75	21385.03
633.104	21442.66
633.459	21425.93
633.813	21433.17
634.167	21346.61
634.521	21405.82
634.875	21434.52
635.229	21480.85
635.583	21325.15
635.937	21456.44
636.291	21338.25
636.645	21389.78
636.999	21242.89
637.352	21430.91
637.706	21305.48
638.06	21325.15
638.413	21413.05
638.767	21244.92
639.121	21263.68
639.474	21238.14
639.828	21294.64
640.181	21350.46
640.534	21218.93
640.888	21203.79
641.241	20986.17
641.594	21279.95
641.947	21249.22
642.301	21080.18
642.654	21157.69
643.007	21125.6
643.36	21134.42
643.713	21164.7
644.066	21260.51
644.419	21027.53
644.771	21005.15
645.124	20705.73
645.477	20879.06
645.83	20639.74
646.182	20443.81
646.535	20418.73
646.888	20551.61
647.24	20420.99
647.593	20541.21
647.945	20594.09
648.298	20512.06
648.65	20491.95
649.002	20458.95
649.355	20546.18
649.707	20513.42
650.059	20586.86
650.411	20889
650.763	20926.06
651.115	20966.06
651.467	20931.48
651.819	21068.88
652.171	20911.6
652.523	20987.75
652.875	21009.22
653.227	20882.67
653.578	20997.47
653.93	20999.28
654.282	20915.66
654.633	20829.57
654.985	20935.1
655.337	20894.65
655.688	20987.3
656.039	21041.31
656.391	20896.91
656.742	20902.33
657.094	20856.46
657.445	21004.25
657.796	21020.29
658.147	20871.37
658.498	20922.22
658.849	20944.82
659.2	20948.88
659.551	20927.64
659.902	20970.8
660.253	20948.66
660.604	21040.63
660.955	20767.19
661.306	20957.7
661.656	20923.12
662.007	21049.22
662.358	21037.7
662.708	20998.6
663.059	21016.91
663.409	20914.08
663.76	21036.57
664.11	20965.61
664.461	21098.03
664.811	21003.12
665.161	20977.58
665.511	21067.3
665.862	20925.38
666.212	21126.73
666.562	21062.78
666.912	21020.07
667.262	20997.24
667.612	20963.57
667.962	20981.2
668.312	20970.13
668.662	21021.88
669.011	20997.7
669.361	20980.52
669.711	20943.91
670.06	20947.53
670.41	20986.85
670.76	20934.2
671.109	21001.09
671.459	20971.93
671.808	20851.49
672.157	20963.35
672.507	20802
672.856	20891.71
673.205	20905.5
673.554	20929.45
673.904	20896.91
674.253	20926.29
674.602	20809
674.951	20492.17
675.3	20416.69
675.649	20810.13
675.998	20672.73
676.346	20788.44
676.695	20787.31
677.044	20689.46
677.393	20730.36
677.741	20806.52
678.09	20664.15
678.438	20702.34
678.787	20636.8
679.135	20663.24
679.484	20430.48
679.832	20554.09
680.181	20466.64
680.529	20506.41
680.877	20460.76
681.225	20471.61
681.573	20510.25
681.922	20448.56
682.27	20229.58
682.618	20371.5
682.966	20269.81
683.314	20326.3
683.661	20283.82
684.009	20276.13
684.357	20038.4
684.705	20115.46
685.053	20098.96
685.4	19979.64
685.748	19952.3
686.095	19921.57
686.443	19881.57
686.79	19798.63
687.138	19774
687.485	19752.53
687.832	19720.89
688.18	19773.77
688.527	19701.69
688.874	19589.37
689.221	19629.82
689.568	19508.47
689.915	19398.42
690.262	19491.75
690.609	19439.09
690.956	19355.71
691.303	19307.8
691.65	19178.54
691.997	19174.02
692.344	19116.39
692.69	19037.52
693.037	19016.28
693.383	18886.11
693.73	18909.84
694.077	18821.48
694.423	18802.95
694.769	18729.06
695.116	18587.59
695.462	18626.69
695.808	18626.91
696.155	18551.43
696.501	18435.96
696.847	18454.71
697.193	18196.64
697.539	18306.02
697.885	18196.19
698.231	18077.32
698.577	18115.29
698.923	18082.52
699.269	17933.14
699.614	17845.24
699.96	17843.66
700.306	17873.71
700.651	17738.57
700.997	17658.8
701.342	17638.91
701.688	17556.88
702.033	17444.8
702.379	17552.82
702.724	17497
703.069	17522.53
703.415	17287.06
703.76	17311.47
704.105	17238.25
704.45	17226.5
704.795	17079.16
705.14	17033.73
705.485	16970.23
705.83	16852.72
706.175	16963
706.52	16839.84
706.865	16817.92
707.209	16774.76
707.554	16645.95
707.899	16737.24
708.243	16744.25
708.588	16648.43
708.932	16511.26
709.277	16428.78
709.621	16483.69
709.966	16382.9
710.31	16331.38
710.654	16219.07
710.998	16249.8
711.342	16260.87
711.687	16204.15
712.031	16133.64
712.375	16103.81
712.719	16087.77
713.063	16083.93
713.407	16093.87
713.75	16027.21
714.094	15974.33
714.438	15932.97
714.782	15902.01
715.125	15806.42
715.469	15928.68
715.812	15859.98
716.156	15765.97
716.499	15707.44
716.843	15741.34
717.186	15629.93
717.53	15726.42
717.873	15641.68
718.216	15652.07
718.559	15577.95
718.902	15514.9
719.246	15579.53
719.589	15546.54
719.932	15480.33
720.275	15498.41
720.617	15470.16
720.96	15456.6
721.303	15435.81
721.646	15389.03
721.989	15420.44
722.331	15366.66
722.674	15347.45
723.016	15318.07
723.359	15261.8
723.701	15320.78
724.044	15325.76
724.386	15018.42
724.729	15291.63
725.071	15174.12
725.413	15107
725.755	15109.49
726.097	15092.99
726.439	15051.86
726.782	15095.25
727.124	15126.89
727.465	15096.16
727.807	15022.94
728.149	14935.03
728.491	14970.06
728.833	15058.19
729.175	14971.41
729.516	14899.33
729.858	14930.51
730.199	15022.26
730.541	14933
730.882	14856.84
731.224	14932.32
731.565	14822.94
731.906	14906.33
732.248	14892.32
732.589	14947.01
732.93	14744.75
733.271	14894.35
733.612	14926.22
733.953	14858.2
734.294	14918.53
734.635	14791.76
734.976	14861.36
735.317	14744.75
735.658	14845.32
735.999	14827.01
736.339	14825.66
736.68	14961.02
737.021	14778.88
737.361	14752.21
737.702	14890.96
738.042	14815.03
738.383	14789.05
738.723	14781.36
739.063	14844.41
739.404	14897.29
739.744	14809.61
740.084	14786.56
740.424	14872.43
740.764	14843.06
741.104	14868.14
741.444	14901.13
741.784	14894.58
742.124	14892.77
742.464	14933.22
742.804	14934.35
743.143	14865.2
743.483	14897.07
743.823	14817.52
744.162	14905.2
744.502	14959.66
744.841	14962.37
745.181	15065.2
745.52	15065.65
745.86	15085.31
746.199	15111.52
746.538	15222.93
746.877	15230.39
747.216	15188.81
747.556	15247.79
747.895	15389.26
748.234	15215.7
748.573	15314.46
748.911	15492.98
749.25	15496.37
749.589	15541.79
749.928	15713.32
750.267	15758.06
750.605	15701.11
750.944	15897.72
751.283	15867.66
751.621	16007.32
751.96	16029.01
752.298	16112.18
752.636	16170.7
752.975	16223.36
753.313	16280.53
753.651	16412.28
753.989	16524.14
754.327	16478.04
754.666	16687.75
755.004	16745.15
755.342	16932.04
755.679	16992.15
756.017	16985.82
756.355	17247.96
756.693	17249.55
757.031	17428.07
757.368	17355.08
757.706	17456.55
758.044	17642.98
758.381	17711
758.719	17926.82
759.056	18010.88
759.394	17989.64
759.731	18120.94
760.068	18165.45
760.405	18294.94
760.743	18403.64
761.08	18547.37
761.417	18612.9
761.754	18706.23
762.091	18868.26
762.428	18844.08
762.765	18940.58
763.102	19068.48
763.438	19103.73
763.775	19164.98
764.112	19331.98
764.449	19402.48
764.785	19521.13
765.122	19475.48
765.458	19565.64
765.795	19618.98
766.131	19699.88
766.467	19720.89
766.804	19783.94
767.14	19700.33
767.476	19839.31
767.812	19917.72
768.148	20025.29
768.485	19862.81
768.821	19974.22
769.157	20016.71
769.492	20056.7
769.828	20160.43
770.164	19923.15
770.5	20128.11
770.836	20212.41
771.171	20100.77
771.507	20229.81
771.842	19964.05
772.178	20204.05
772.513	20254.44
772.849	20185.06
773.184	20121.11
773.519	20156.81
773.855	20153.65
774.19	20158.4
774.525	20077.49
774.86	20153.88
775.195	20086.99
775.53	20162.01
775.865	20020.1
776.2	19946.42
776.535	19962.7
776.87	19917.95
777.205	19859.2
777.539	19911.17
777.874	19963.6
778.209	19837.95
778.543	19770.16
778.878	19687.45
779.212	19804.28
779.547	19639.77
779.881	19790.72
780.215	19593.89
780.55	19667.79
780.884	19604.74
781.218	19614
781.552	19596.83
781.886	19502.82
782.22	19429.6
782.554	19393.22
782.888	19281.58
783.222	19186.67
783.556	19263.05
783.889	19157.29
784.223	19032.1
784.557	19017.18
784.89	19136.5
785.224	19033.91
785.557	18840.01
785.891	18815.15
786.224	18888.37
786.558	18847.02
786.891	18712.33
787.224	18648.61
787.557	18562.73
787.891	18638.89
788.224	18571.77
788.557	18535.16
788.89	18482.51
789.223	18445.67
789.556	18327.03
789.888	18284.32
790.221	18301.5
790.554	18184.89
790.887	18137.21
791.219	18135.85
791.552	18017.89
791.884	18035.51
792.217	18026.48
792.549	17877.33
792.882	17810.89
793.214	17713.26
793.546	17787.84
793.879	17587.84
794.211	17486.6
794.543	17588.29
794.875	17539.26
795.207	17577.45
795.539	17379.26
795.871	17416.32
796.203	17354.4
796.535	17248.64
796.867	17246.16
797.198	17144.46
797.53	17235.54
797.862	17062.21
798.193	17086.61
798.525	16873.74
798.856	16965.94
799.188	16800.29
799.519	16726.62
799.85	16625.83
800.182	16738.83
800.513	16702.67
800.844	16566.63
801.175	16593.97
801.506	16535.67
801.837	16547.42
802.168	16456.57
802.499	16434.2
802.83	16399.17
803.161	16386.74
803.491	16388.33
803.822	16281.44
804.153	16127.54
804.483	16115.79
804.814	16032.86
805.145	16042.35
805.475	15971.39
805.805	15995.12
806.136	15932.52
806.466	15975.23
806.796	15847.78
807.126	15723.03
807.457	15715.58
807.787	15788.79
808.117	15659.98
808.447	15621.79
808.777	15704.95
809.107	15615.01
809.436	15594.45
809.766	15483.94
810.096	15388.35
810.426	15350.16
810.755	15361.46
811.085	15328.47
811.414	15361.46
811.744	15197.62
812.073	15234.68
812.403	15179.32
812.732	15064.52
813.061	15210.5
813.39	15032.2
813.719	15045.08
814.049	15092.77
814.378	14978.65
814.707	14949.27
815.036	14880.12
815.365	14862.94
815.693	14684.42
816.022	14778.88
816.351	14707.92
816.68	14588.15
817.008	14606.45
817.337	14524.87
817.665	14527.13
817.994	14558.54
818.322	14619.33
818.651	14476.74
818.979	14376.18
819.307	14461.6
819.636	14433.35
819.964	14359
820.292	14421.37
820.62	14296.18
820.948	14379.11
821.276	14363.52
821.604	14263.64
821.932	14324.88
822.259	14350.87
822.587	14319.45
822.915	14341.15
823.243	14315.39
823.57	14281.49
823.898	14342.96
824.225	14244.2
824.553	14277.42
824.88	14226.35
825.207	14331.66
825.535	14236.74
825.862	14244.2
826.189	14278.55
826.516	14289.62
826.843	14354.26
827.17	14276.97
827.497	14248.5
827.824	14250.53
828.151	14321.94
828.478	14238.55
828.805	14301.38
829.131	14265.22
829.458	14194.71
829.785	14194.94
830.111	14207.82
830.438	14199.91
830.764	14181.15
831.09	14182.06
831.417	14169.18
831.743	14223.64
832.069	14196.52
832.395	14223.86
832.722	14233.13
833.048	14101.38
833.374	14170.08
833.7	14081.27
834.026	14071.55
834.351	14128.05
834.677	14169.85
835.003	14038.56
835.329	14088.73
835.654	14202.85
835.98	13992
836.306	14093.25
836.631	14029.29
836.956	13996.07
837.282	14041.95
837.607	13906.58
837.932	13908.39
838.258	13945.23
838.583	13859.35
838.908	13741.39
839.233	13879.69
839.558	13797.43
839.883	13777.55
840.208	13711.33
840.533	13757.21
840.858	13734.16
841.182	13748.62
841.507	13698.45
841.832	13597.21
842.156	13652.35
842.481	13636.99
842.805	13536.2
843.13	13473.83
843.454	13547.5
843.778	13393.83
844.103	13350.89
844.427	13371
844.751	13328.97
845.075	13345.47
845.399	13263.21
845.723	13206.49
846.047	13211.46
846.371	13075.64
846.695	13139.82
847.019	12959.94
847.343	13024.8
847.666	12859.15
847.99	12846.95
848.313	12782.09
848.637	12753.39
848.96	12743.9
849.284	12658.48
849.607	12616.45
849.931	12487.64
850.254	12503.46
850.577	12414.87
850.9	12323.57
851.223	12323.57
851.546	12258.72
851.869	12163.35
852.192	12295.1
852.515	12165.16
852.838	12078.16
853.161	12057.59
853.483	11973.75
853.806	11956.8
854.129	12028.67
854.451	11953.64
854.774	11896.01
855.096	11893.3
855.419	11779.41
855.741	11712.97
856.063	11702.12
856.385	11679.3
856.708	11685.85
857.03	11656.47
857.352	11654.67
857.674	11562.46
857.996	11455.8
858.318	11417.38
858.64	11482.69
858.961	11438.4
859.283	11327.44
859.605	11297.61
859.926	11325.86
860.248	11285.64
860.57	11262.13
860.891	11230.04
861.212	11240.21
861.534	11168.12
861.855	11130.16
862.176	11118.86
862.498	11086.77
862.819	11171.06
863.14	11045.42
863.461	11057.84
863.782	10993.44
864.103	11002.48
864.424	10994.57
864.745	10956.38
865.065	10971.29
865.386	10875.93
865.707	10837.29
866.027	10912.31
866.348	10849.26
866.668	10832.31
866.989	10831.64
867.309	10764.97
867.63	10765.88
867.95	10794.57
868.27	10684.97
868.59	10694.69
868.91	10646.33
869.23	10666.44
869.55	10614.24
869.87	10679.55
870.19	10670.06
870.51	10642.26
870.83	10669.83
871.15	10594.35
871.469	10588.03
871.789	10497.63
872.109	10516.62
872.428	10456.28
872.748	10516.84
873.067	10497.41
873.386	10497.18
873.706	10434.36
874.025	10386.22
874.344	10383.51
874.663	10381.03
874.982	10409.95
875.301	10396.85
875.62	10314.81
875.939	10351.2
876.258	10276.62
876.577	10303.74
876.896	10200.01
877.214	10210.18
877.533	10271.65
877.852	10199.11
878.17	10200.01
878.489	10248.6
878.807	10245.89
879.125	10167.25
879.444	10155.72
879.762	10147.13
880.08	10151.65
880.398	10072.11
880.716	10026.46
881.034	9980.13
881.352	10044.99
881.67	10024.88
881.988	9977.65
882.306	9945.11
882.624	9898.1
882.941	9814.26
883.259	9823.3
883.577	9797.31
883.894	9822.62
884.212	9843.64
884.529	9816.52
884.846	9792.57
885.164	9789.18
885.481	9691.33
885.798	9677.99
886.115	9611.56
886.432	9679.35
886.75	9623.76
887.067	9621.95
887.383	9513.25
887.7	9559.81
888.017	9552.8
888.334	9458.56
888.651	9460.15
888.967	9442.97
889.284	9429.19
889.6	9452.01
889.917	9315.07
890.233	9400.04
890.55	9341.51
890.866	9286.14
891.182	9256.08
891.498	9200.72
891.815	9274.84
892.131	9198.01
892.447	9235.29
892.763	9162.3
893.079	9150.32
893.395	9122.98
893.71	9077.56
894.026	9134.51
894.342	9022.64
894.657	8974.74
894.973	9000.72
895.289	8917.56
895.604	8907.84
895.92	8895.42
896.235	8869.65
896.55	8836.66
896.865	8818.13
897.181	8773.61
897.496	8781.29
897.811	8697
898.126	8671.92
898.441	8651.58
898.756	8630.11
899.071	8548.53
899.386	8560.74
899.7	8443.9
900.015	8457.69
900.33	8393.51
900.644	8402.55
900.959	8387.86
901.273	8370.23
901.588	8266.96
901.902	8289.33
902.216	8233.51
902.531	8224.7
902.845	8256.34
903.159	8147.86
903.473	8099.73
903.787	8076
904.101	8083.91
904.415	8055.44
904.729	8030.35
905.042	7884.37
905.356	7998.72
905.67	7964.82
905.984	7938.6
906.297	7840.08
906.611	7819.29
906.924	7800.76
907.237	7778.16
907.551	7808.21
907.864	7759.85
908.177	7708.78
908.491	7647.99
908.804	7623.13
909.117	7611.16
909.43	7536.58
909.743	7542.68
910.056	7518.05
910.368	7563.7
910.681	7442.8
910.994	7452.97
911.307	7412.52
911.619	7316.25
911.932	7361.67
912.244	7270.37
912.557	7279.64
912.869	7197.38
913.181	7200.55
913.494	7116.93
913.806	7162.58
914.118	7130.04
914.43	7061.57
914.742	7089.59
915.054	7019.53
915.366	7027.22
915.678	6982.47
915.99	6945.64
916.302	6884.85
916.613	6886.88
916.925	6883.72
917.236	6840.33
917.548	6739.54
917.859	6792.42
918.171	6721.69
918.482	6693.89
918.794	6668.13
919.105	6660.67
919.416	6537.51
919.727	6616.83
920.038	6620
920.349	6562.82
920.66	6516.72
920.971	6510.85
921.282	6458.64
921.593	6444.63
921.903	6425.65
922.214	6420.9
922.525	6286.22
922.835	6318.53
923.146	6307.01
923.456	6274.24
923.767	6324.64
924.077	6242.15
924.387	6237.86
924.697	6202.15
925.008	6135.04
925.318	6131.65
925.628	6122.61
925.938	6091.42
926.248	6015.49
926.558	5983.18
926.867	6049.39
927.177	5985.21
927.487	5969.17
927.796	5961.48
928.106	5904.99
928.416	5886.46
928.725	5836.74
929.034	5825.89
929.344	5819.56
929.653	5813.01
929.962	5695.05
930.271	5708.38
930.581	5727.82
930.89	5706.57
931.199	5582.73
931.508	5645.33
931.817	5603.75
932.125	5568.95
932.434	5584.32
932.743	5505.9
933.051	5534.15
933.36	5495.51
933.669	5450.99
933.977	5441.04
934.286	5412.57
934.594	5354.94
934.902	5334.61
935.21	5366.92
935.519	5313.14
935.827	5276.53
936.135	5267.49
936.443	5248.28
936.751	5253.7
937.059	5228.62
937.367	5165.57
937.674	5154.72
937.982	5126.02
938.29	5133.93
938.597	5147.04
938.905	5058.45
939.213	5099.36
939.52	5061.17
939.827	5035.18
940.135	4976.2
940.442	4954.95
940.749	4923.09
941.056	4933.71
941.363	4849.65
941.67	4902.07
941.977	4841.29
942.284	4821.17
942.591	4813.94
942.898	4795.18
943.205	4847.84
943.511	4806.71
943.818	4754.51
944.125	4727.39
944.431	4648.3
944.738	4695.75
945.044	4640.61
945.35	4661.4
945.657	4612.82
945.963	4583.89
946.269	4563.78
946.575	4570.78
946.881	4525.59
947.187	4508.19
947.493	4489.2
947.799	4479.71
948.105	4427.28
948.41	4419.38
948.716	4437.45
949.022	4393.39
949.327	4401.97
949.633	4364.46
949.938	4361.75
950.244	4306.61
950.549	4296.67
950.854	4243.56
951.16	4254.41
951.465	4233.39
951.77	4226.16
952.075	4196.78
952.38	4165.37
952.685	4180.74
952.99	4132.15
953.294	4171.02
953.599	4115.43
953.904	4083.34
954.209	4083.56
954.513	4051.48
954.818	4038.14
955.122	4022.1
955.426	3998.6
955.731	3959.95
956.035	3930.35
956.339	3961.53
956.643	3949.11
956.948	3905.72
957.252	3884.47
957.556	3891.03
957.86	3880.63
958.163	3855.1
958.467	3857.58
958.771	3855.32
959.075	3811.03
959.378	3811.93
959.682	3775.1
959.985	3762.22
960.289	3736.46
960.592	3719.05
960.896	3700.3
961.199	3636.57
961.502	3709.11
961.805	3670.24
962.108	3627.76
962.411	3657.14
962.714	3614.2
963.017	3591.6
963.32	3606.97
963.623	3584.6
963.926	3568.78
964.228	3539.85
964.531	3497.82
964.833	3502.56
965.136	3483.13
965.438	3496.24
965.741	3459.85
966.043	3517.03
966.345	3442.68
966.648	3423.47
966.95	3418.95
967.252	3368.78
967.554	3368.33
967.856	3360.65
968.158	3327.65
968.46	3308.44
968.761	3314.32
969.063	3260.76
969.365	3312.74
969.666	3301.89
969.968	3277.03
970.269	3246.07
970.571	3269.12
970.872	3223.02
971.174	3216.02
971.475	3189.58
971.776	3202.23
972.077	3125.85
972.378	3161.56
972.679	3133.76
972.98	3112.29
973.281	3114.1
973.582	3056.47
973.883	3046.76
974.183	3085.4
974.484	3018.51
974.785	3029.36
975.085	3002.92
975.386	3049.02
975.686	2976.93
975.986	2930.6
976.287	2957.72
976.587	2980.54
976.887	2934.22
977.187	2931.96
977.487	2918.85
977.787	2884.5
978.087	2875.69
978.387	2881.56
978.687	2858.29
978.987	2883.82
979.286	2871.85
979.586	2818.29
979.885	2792.53
980.185	2778.97
980.484	2802.02
980.784	2802.24
981.083	2799.76
981.382	2767.89
981.682	2748.46
981.981	2725.41
982.28	2725.63
982.579	2706.2
982.878	2715.69
983.177	2674.11
983.475	2663.26
983.774	2648.8
984.073	2627.78
984.372	2614.9
984.67	2620.1
984.969	2602.02
985.267	2599.08
985.566	2580.55
985.864	2595.24
986.162	2582.14
986.461	2577.39
986.759	2494
987.057	2526.77
987.355	2510.27
987.653	2489.71
987.951	2500.33
988.249	2486.09
988.547	2524.74
988.844	2460.1
989.142	2470.05
989.44	2442.48
989.737	2439.09
990.035	2439.99
990.332	2404.74
990.63	2395.02
990.927	2355.93
991.224	2354.8
991.521	2363.16
991.819	2342.82
992.116	2314.57
992.413	2317.96
992.71	2314.12
993.006	2289.49
993.303	2289.94
993.6	2273.9
993.897	2281.58
994.193	2268.02
994.49	2265.76
994.787	2246.78
995.083	2227.79
995.379	2231.18
995.676	2222.82
995.972	2201.35
996.268	2192.09
996.565	2188.02
996.861	2192.09
997.157	2172.65
997.453	2163.39
997.749	2135.14
998.044	2098.98
998.34	2096.95
998.636	2094.24
998.932	2102.83
999.227	2059.66
999.523	2079.1
999.818	2058.53
1000.114	2062.6
1000.409	2033.45
1000.704	2002.72
1001	2008.37
1001.295	1998.87
1001.59	1974.92
1001.885	1953.45
1002.18	1975.37
1002.475	1948.48
1002.77	1944.86
1003.065	1925.66
1003.359	1911.42
1003.654	1945.54
1003.949	1892.44
1004.243	1898.09
1004.538	1889.05
1004.832	1908.48
1005.127	1876.17
1005.421	1842.72
1005.715	1840.46
1006.009	1821.48
1006.304	1830.29
1006.598	1783.06
1006.892	1778.77
1007.186	1785.32
1007.48	1781.03
1007.773	1764.98
1008.067	1775.83
1008.361	1729.73
1008.655	1713.23
1008.948	1720.69
1009.242	1748.03
1009.535	1701.03
1009.829	1695.61
1010.122	1669.17
1010.415	1670.07
1010.708	1675.04
1011.001	1651.76
1011.295	1658.32
1011.588	1655.61
1011.881	1614.03
1012.173	1618.09
1012.466	1622.84
1012.759	1605.89
1013.052	1618.32
1013.344	1595.04
1013.637	1559.34
1013.93	1536.74
1014.222	1557.98
1014.514	1528.38
1014.807	1539
1015.099	1532.22
1015.391	1550.52
1015.683	1517.3
1015.976	1535.61
1016.268	1490.19
1016.56	1475.72
1016.851	1468.94
1017.143	1468.49
1017.435	1462.16
1017.727	1453.8
1018.018	1448.83
1018.31	1434.6
1018.602	1433.01
1018.893	1463.07
1019.185	1421.26
1019.476	1399.34
1019.767	1398.44
1020.058	1394.6
1020.35	1355.05
1020.641	1370.19
1020.932	1392.11
1021.223	1317.76
1021.514	1357.08
1021.804	1339.46
1022.095	1312.34
1022.386	1338.33
1022.677	1309.85
1022.967	1310.98
1023.258	1277.31
1023.548	1291.1
1023.839	1283.86
1024.129	1256.52
1024.419	1273.24
1024.709	1260.81
1025	1225.11
1025.29	1239.35
1025.58	1208.61
1025.87	1223.53
1026.16	1214.26
1026.449	1194.38
1026.739	1187.14
1027.029	1188.27
1027.319	1168.39
1027.608	1154.83
1027.898	1146.47
1028.187	1170.65
1028.477	1180.36
1028.766	1141.27
1029.055	1112.34
1029.344	1121.16
1029.634	1116.64
1029.923	1113.25
1030.212	1117.09
1030.501	1092.68
1030.79	1063.53
1031.078	1080.03
1031.367	1066.7
1031.656	1087.71
1031.945	1075.73
1032.233	1057.66
1032.522	1023.76
1032.81	1033.25
1033.099	1049.97
1033.387	1037.77
1033.675	1034.15
1033.963	1024.21
1034.251	1018.79
1034.54	990.54
1034.828	998
1035.116	979.92
1035.403	982.4
1035.691	972.46
1035.979	986.7
1036.267	974.72
1036.554	966.13
1036.842	942.63
1037.129	934.04
1037.417	947.6
1037.704	969.52
1037.992	915.29
1038.279	925.68
1038.566	910.99
1038.853	910.99
1039.14	910.99
