Data from hue_350_FLMS001491_77.txt Node
Date: Mon Feb 06 15:38:30 GMT 2017
User: dcchb
Spectrometer: FLMS00149
Trigger mode: 0
Integration Time (sec): 2.000000E-2
Scans to average: 10
Electric dark correction enabled: true
Nonlinearity correction enabled: false
Boxcar width: 0
XAxis mode: Wavelengths
Number of Pixels in Spectrum: 2048
>>>>>Begin Spectral Data<<<<<
341.393	-0.86
341.776	-0.86
342.16	-0.86
342.543	-74.98
342.927	-84.93
343.31	-77.92
343.693	-71.59
344.077	-73.4
344.46	-64.59
344.843	-59.62
345.226	-34.31
345.61	-35.89
345.993	-18.71
346.376	-4.25
346.759	21.28
347.142	28.29
347.525	37.33
347.908	54.73
348.291	77.78
348.674	88.63
349.057	132.24
349.44	119.36
349.823	139.7
350.206	159.36
350.588	190.32
350.971	195.07
351.354	225.12
351.737	215.4
352.119	248.17
352.502	247.72
352.884	264.89
353.267	269.87
353.65	260.83
354.032	300.15
354.414	298.79
354.797	309.64
355.179	310.99
355.562	328.4
355.944	337.43
356.326	325.68
356.709	310.54
357.091	323.65
357.473	338.56
357.855	355.97
358.238	354.16
358.62	340.6
359.002	340.6
359.384	320.49
359.766	341.28
360.148	334.04
360.53	321.84
360.912	342.41
361.294	333.14
361.676	308.06
362.057	325.68
362.439	312.58
362.821	318.45
363.203	336.98
363.584	319.36
363.966	310.54
364.348	301.05
364.729	294.72
365.111	334.95
365.493	329.07
365.874	320.94
366.256	316.87
366.637	328.62
367.019	319.58
367.4	299.92
367.781	320.94
368.163	313.25
368.544	324.55
368.925	298.57
369.306	326.36
369.688	317.1
370.069	310.99
370.45	322.07
370.831	320.03
371.212	322.07
371.593	324.33
371.974	301.28
372.355	311.9
372.736	317.77
373.117	304.67
373.498	319.36
373.879	327.04
374.26	319.36
374.641	336.98
375.021	308.06
375.402	309.41
375.783	307.38
376.163	317.1
376.544	317.55
376.925	314.16
377.305	318.23
377.686	312.12
378.066	319.58
378.447	312.8
378.827	310.99
379.208	326.36
379.588	324.1
379.968	322.07
380.349	307.38
380.729	350.32
381.109	345.34
381.489	341.28
381.87	335.85
382.25	326.36
382.63	332.24
383.01	317.55
383.39	333.82
383.77	320.71
384.15	345.34
384.53	333.82
384.91	329.75
385.29	351.45
385.67	336.3
386.049	356.42
386.429	346.93
386.809	328.4
387.189	342.18
387.568	327.94
387.948	344.21
388.328	359.81
388.707	330.2
389.087	355.51
389.466	352.58
389.846	352.8
390.225	347.38
390.605	349.19
390.984	358.23
391.363	345.34
391.743	358.9
392.122	385.12
392.501	357.1
392.881	359.58
393.26	362.74
393.639	367.04
394.018	348.06
394.397	359.13
394.776	357.32
395.155	361.16
395.534	369.3
395.913	357.32
396.292	347.38
396.671	375.85
397.05	349.64
397.429	360.48
397.808	366.81
398.186	384.89
398.565	360.48
398.944	367.49
399.323	383.99
399.701	378.34
400.08	395.06
400.458	370.65
400.837	405.23
401.215	404.1
401.594	379.24
401.972	378.11
402.351	387.83
402.729	409.75
403.107	416.3
403.486	383.54
403.864	394.61
404.242	401.61
404.62	405.46
404.999	382.86
405.377	377.21
405.755	380.82
406.133	401.61
406.511	398
406.889	419.69
407.267	418.11
407.645	435.96
408.023	404.55
408.401	388.96
408.779	414.04
409.156	424.44
409.534	432.8
409.912	426.92
410.29	416.08
410.667	433.25
411.045	426.7
411.422	434.38
411.8	443.42
412.178	442.52
412.555	455.62
412.933	455.17
413.31	457.21
413.687	469.41
414.065	481.39
414.442	447.94
414.819	457.21
415.197	475.74
415.574	465.57
415.951	482.52
416.328	485.45
416.705	479.13
417.082	477.77
417.46	488.84
417.837	465.79
418.214	474.15
418.591	511.22
418.967	499.69
419.344	515.28
419.721	493.59
420.098	510.31
420.475	493.36
420.852	512.8
421.228	506.92
421.605	508.5
421.982	516.19
422.358	522.29
422.735	556.41
423.111	521.38
423.488	526.58
423.864	530.42
424.241	529.97
424.617	560.03
424.994	544.89
425.37	550.08
425.746	557.77
426.123	531.55
426.499	556.64
426.875	569.07
427.251	572.91
427.627	581.5
428.003	581.04
428.379	583.53
428.756	575.85
429.132	578.11
429.507	594.38
429.883	600.25
430.259	587.6
430.635	581.5
431.011	601.83
431.387	644.09
431.763	614.72
432.138	617.88
432.514	636.64
432.89	637.09
433.265	646.13
433.641	623.75
434.016	645.68
434.392	669.86
434.767	685.67
435.143	649.74
435.518	653.58
435.894	685.45
436.269	680.25
436.644	679.8
437.02	679.8
437.395	678.89
437.77	710.76
438.145	714.37
438.52	712.57
438.895	751.66
439.271	735.39
439.646	717.09
440.021	739.46
440.395	721.83
440.77	708.72
441.145	730.42
441.52	744.43
441.895	734.03
442.27	751.44
442.645	753.47
443.019	766.8
443.394	773.13
443.769	746.92
444.143	762.96
444.518	776.07
444.892	770.42
445.267	779.68
445.641	759.57
446.016	797.31
446.39	791.43
446.764	786.01
447.139	804.54
447.513	792.34
447.887	782.17
448.262	799.8
448.636	806.12
449.01	793.24
449.384	830.53
449.758	820.59
450.132	844.54
450.506	842.51
450.88	830.98
451.254	831.66
451.628	861.26
452.002	829.85
452.376	829.4
452.75	866.91
453.123	868.04
453.497	863.97
453.871	867.82
454.244	894.48
454.618	908.72
454.992	908.49
455.365	905.56
455.739	899.23
456.112	907.14
456.486	933.35
456.859	947.36
457.232	930.64
457.606	949.4
457.979	942.16
458.352	973.58
458.725	973.12
459.099	977.42
459.472	968.15
459.845	1014.7
460.218	1013.8
460.591	1004.99
460.964	1029.17
461.337	1027.81
461.71	1055.83
462.083	1059.68
462.456	1071.2
462.829	1065.55
463.201	1068.71
463.574	1075.72
463.947	1099.45
464.32	1096.28
464.692	1115.49
465.065	1135.38
465.438	1150.52
465.81	1160.24
466.183	1167.47
466.555	1151.88
466.928	1217.64
467.3	1188.94
467.672	1207.92
468.045	1254.92
468.417	1247.47
468.789	1228.03
469.161	1266.22
469.534	1297.41
469.906	1305.77
470.278	1340.57
470.65	1322.72
471.022	1331.98
471.394	1354.81
471.766	1375.6
472.138	1381.93
472.51	1413.56
472.882	1459.21
473.253	1462.15
473.625	1470.06
473.997	1504.41
474.369	1505.77
474.74	1528.36
475.112	1563.62
475.484	1573.79
475.855	1597.97
476.227	1608.14
476.598	1685.42
476.97	1664.18
477.341	1695.14
477.713	1732.43
478.084	1738.98
478.455	1773.56
478.827	1785.98
479.198	1838.41
479.569	1853.1
479.94	1898.07
480.311	1910.95
480.682	1955.92
481.053	2002.02
481.424	2012.19
481.795	2047.67
482.166	2061.68
482.537	2091.29
482.908	2137.61
483.279	2148.46
483.65	2216.48
484.021	2236.59
484.391	2260.77
484.762	2259.64
485.133	2328.57
485.503	2377.38
485.874	2406.53
486.244	2442.92
486.615	2422.58
486.985	2499.41
487.356	2548.9
487.726	2554.33
488.097	2606.75
488.467	2629.13
488.837	2673.42
489.207	2689.46
489.578	2753.64
489.948	2800.65
490.318	2806.07
490.688	2852.62
491.058	2886.07
491.428	2938.04
491.798	2942.56
492.168	2999.96
492.538	3023.69
492.908	3004.26
493.278	3080.64
493.648	3098.49
494.017	3132.39
494.387	3111.6
494.757	3152.28
495.126	3185.95
495.496	3236.12
495.866	3256.91
496.235	3254.65
496.605	3322.44
496.974	3307.53
497.344	3336.68
497.713	3391.14
498.082	3441.76
498.452	3437.01
498.821	3467.3
499.19	3503.45
499.559	3519.27
499.928	3494.87
500.298	3514.3
500.667	3552.49
501.036	3589.55
501.405	3634.3
501.774	3558.82
502.143	3629.33
502.512	3623
502.88	3698.25
503.249	3703
503.618	3745.93
503.987	3715.65
504.356	3750.23
504.724	3803.11
505.093	3778.7
505.462	3744.58
505.83	3831.13
506.199	3849.66
506.567	3870.9
506.936	3882.43
507.304	3933.05
507.672	3930.56
508.041	3930.11
508.409	3942.31
508.777	3923.56
509.145	4015.3
509.514	4006.72
509.882	4028.64
510.25	4052.14
510.618	4063.89
510.986	4046.94
511.354	4091.46
511.722	4145.24
512.09	4142.76
512.458	4173.04
512.826	4166.26
513.193	4201.51
513.561	4185.7
513.929	4220.72
514.297	4234.73
514.664	4255.3
515.032	4285.58
515.4	4256.2
515.767	4296.65
516.135	4279.25
516.502	4282.87
516.869	4315.86
517.237	4286.48
517.604	4319.02
517.972	4333.49
518.339	4404.45
518.706	4403.54
519.073	4367.39
519.44	4414.62
519.808	4467.04
520.175	4467.95
520.542	4468.63
520.909	4522.41
521.276	4477.89
521.643	4518.57
522.009	4538.68
522.376	4596.98
522.743	4581.39
523.11	4649.41
523.477	4610.99
523.843	4686.92
524.21	4676.3
524.577	4707.94
524.943	4692.8
525.31	4825.45
525.676	4799.24
526.043	4849.41
526.409	4858.9
526.776	4824.55
527.142	4874.72
527.508	4924.66
527.874	4917.88
528.241	4926.92
528.607	4991.1
528.973	5069.29
529.339	5007.14
529.705	5046.24
530.071	5086.24
530.437	5057.08
530.803	5152.22
531.169	5132.79
531.535	5163.97
531.901	5184.09
532.267	5183.63
532.632	5219.79
532.998	5281.94
533.364	5286.46
533.73	5324.87
534.095	5350.41
534.461	5279.68
534.826	5372.33
535.192	5384.08
535.557	5416.85
535.923	5392.44
536.288	5418.66
536.653	5418.88
537.019	5482.61
537.384	5472.89
537.749	5519.22
538.114	5573.23
538.479	5570.97
538.845	5559.67
539.21	5564.87
539.575	5627.01
539.94	5627.01
540.305	5641.48
540.67	5720.12
541.034	5722.38
541.399	5726.45
541.764	5777.07
542.129	5779.33
542.494	5773.22
542.858	5832.43
543.223	5801.92
543.587	5881.47
543.952	5856.61
544.316	5926.21
544.681	5890.06
545.045	5953.78
545.41	5964.86
545.774	6011.86
546.138	5969.15
546.503	6088.24
546.867	6026.1
547.231	6068.13
547.595	6080.56
547.959	6156.49
548.324	6165.76
548.688	6158.3
549.052	6203.5
549.416	6202.59
549.779	6236.49
550.143	6281.69
550.507	6265.19
550.871	6300.89
551.235	6328.24
551.599	6348.8
551.962	6403.04
552.326	6397.39
552.689	6391.96
553.053	6425.41
553.417	6352.42
553.78	6481.68
554.143	6463.38
554.507	6525.29
554.87	6502.47
555.234	6610.72
555.597	6529.36
555.96	6576.14
556.323	6557.84
556.686	6608
557.05	6612.07
557.413	6629.02
557.776	6716.93
558.139	6688.91
558.502	6672.86
558.865	6713.99
559.228	6739.07
559.59	6728.68
559.953	6827.66
560.316	6853.42
560.679	6866.3
561.041	6887.54
561.404	6927.32
561.767	6912.85
562.129	6874.66
562.492	6978.84
562.854	7030.14
563.217	6980.42
563.579	7013.87
563.941	7069.46
564.304	7064.49
564.666	7114.21
565.028	7082.79
565.39	7165.05
565.753	7173.87
566.115	7242.11
566.477	7212.73
566.839	7236.46
567.201	7312.62
567.563	7333.63
567.925	7369.79
568.287	7397.59
568.648	7369.34
569.01	7433.52
569.372	7464.7
569.734	7444.14
570.095	7593.97
570.457	7534.53
570.819	7542.89
571.18	7576.57
571.542	7650.91
571.903	7693.17
572.265	7748.31
572.626	7711.7
572.987	7760.74
573.349	7839.38
573.71	7835.09
574.071	7905.82
574.432	7930.23
574.794	8030.57
575.155	8056.1
575.516	8125.03
575.877	8195.31
576.238	8222.88
576.599	8256.32
576.96	8397.34
577.32	8393.49
577.681	8475.3
578.042	8548.29
578.403	8638.46
578.763	8661.06
579.124	8798
579.485	8901.96
579.845	8935.4
580.206	9023.31
580.566	9144.21
580.927	9274.37
581.287	9376.97
581.648	9465.33
582.008	9644.31
582.368	9751.88
582.728	9798.2
583.089	10047.24
583.449	10055.6
583.809	10224.41
584.169	10419.43
584.529	10532.19
584.889	10739.87
585.249	10796.59
585.609	11024.39
585.969	11209.92
586.329	11387.09
586.688	11557.93
587.048	11728.55
587.408	12068.65
587.768	12205.6
588.127	12447.17
588.487	12594.29
588.846	12892.58
589.206	12993.15
589.565	13187.49
589.925	13652.56
590.284	13750.19
590.643	13976.62
591.003	14384.3
591.362	14535.93
591.721	14795.36
592.08	15103.37
592.44	15279.64
592.799	15568.9
593.158	15806.63
593.517	16033.75
593.876	16416.11
594.235	16614.29
594.593	16895.87
594.952	17181.06
595.311	17477.32
595.67	17807.26
596.029	18158.89
596.387	18397.52
596.746	18784.86
597.104	18903.73
597.463	19213.55
597.822	19607.21
598.18	19681.56
598.538	20050.81
598.897	20488.32
599.255	20500.75
599.613	21193.16
599.972	21232.7
600.33	21539.36
600.688	21735.97
601.046	22133.92
601.404	22437.42
601.762	22558.09
602.12	23017.06
602.478	23246.44
602.836	23492.76
603.194	23714.67
603.552	24050.94
603.91	24183.36
604.268	24489.57
604.625	24728.66
604.983	25078.48
605.341	25247.29
605.698	25528.86
606.056	25782.19
606.413	26043.2
606.771	26256.53
607.128	26707.14
607.485	26741.49
607.843	26875.04
608.2	27388.02
608.557	27631.18
608.914	27716.15
609.272	28084.05
609.629	28253.54
609.986	28552.74
610.343	28587.99
610.7	28984.82
611.057	29123.34
611.414	29382.09
611.771	29625.7
612.127	29893.04
612.484	30059.36
612.841	30166.93
613.198	30206.25
613.554	30673.59
613.911	30780.93
614.267	31064.76
614.624	31103.63
614.98	31391.76
615.337	31545.2
615.693	31681.47
616.05	31816.15
616.406	32169.14
616.762	32179.76
617.118	32373.2
617.475	32431.05
617.831	32692.74
618.187	32905.62
618.543	32940.42
618.899	33323.91
619.255	33212.5
619.611	33301.09
619.967	33607.07
620.323	33771.81
620.678	33762.32
621.034	33852.94
621.39	33975.42
621.746	34115.3
622.101	34472.81
622.457	34228.29
622.812	34496.31
623.168	34672.35
623.523	34650.88
623.879	34891.1
624.234	34785.12
624.589	34892.23
624.945	35049.97
625.3	35328.83
625.655	35344.42
626.01	35382.39
626.365	35546.9
626.72	35458.55
627.075	35523.4
627.43	35550.97
627.785	35534.93
628.14	35768.59
628.495	35951.64
628.85	35835.26
629.205	35754.13
629.559	36176.04
629.914	35994.12
630.269	36155.48
630.623	36056.72
630.978	35998.19
631.332	36162.03
631.687	36253.1
632.041	36185.76
632.396	36316.6
632.75	36232.76
633.104	36342.36
633.459	36222.82
633.813	36158.19
634.167	36163.16
634.521	36201.58
634.875	36336.04
635.229	36336.49
635.583	36167.45
635.937	36297.39
636.291	36351.18
636.645	36353.44
636.999	36312.99
637.352	36266.66
637.706	36191.63
638.06	36450.38
638.413	36430.5
638.767	36215.81
639.121	36475.02
639.474	36216.49
639.828	36229.37
640.181	36276.83
640.534	36338.3
640.888	36241.8
641.241	36197.96
641.594	36245.64
641.947	36340.33
642.301	36211.75
642.654	36265.76
643.007	36268.47
643.36	36338.07
643.713	36205.64
644.066	36465.07
644.419	36004.52
644.771	35924.97
645.124	35573.12
645.477	35660.35
645.83	35251.77
646.182	35138.55
646.535	35189.17
646.888	35263.3
647.24	35053.13
647.593	35253.58
647.945	35185.11
648.298	35106.92
648.65	35019.69
649.002	34963.64
649.355	34984.21
649.707	34995.96
650.059	35304.42
650.411	35565.66
650.763	35714.58
651.115	35922.26
651.467	36034.58
651.819	35809.95
652.171	35788.71
652.523	35824.86
652.875	35857.63
653.227	35820.12
653.578	36068.7
653.93	35877.07
654.282	35778.54
654.633	35679.56
654.985	35763.4
655.337	35811.08
655.688	35773.79
656.039	35894.92
656.391	35562.05
656.742	35612.44
657.094	35643.4
657.445	35771.31
657.796	35626.9
658.147	35735.15
658.498	35557.75
658.849	35695.15
659.2	35593.23
659.551	35517.07
659.902	35573.8
660.253	35509.84
660.604	35502.84
660.955	35451.77
661.306	35480.69
661.656	35475.95
662.007	35546.9
662.358	35477.75
662.708	35594.13
663.059	35353.92
663.409	35262.84
663.76	35538.77
664.11	35485.89
664.461	35550.97
664.811	35426.91
665.161	35447.92
665.511	35447.92
665.862	35431.2
666.212	35530.86
666.562	35513.46
666.912	35419.9
667.262	35435.27
667.612	35415.61
667.962	35457.64
668.312	35343.75
668.662	35488.6
669.011	35447.25
669.361	35376.29
669.711	35439.11
670.06	35295.84
670.41	35365.89
670.76	35317.76
671.109	35374.03
671.459	35328.83
671.808	35269.85
672.157	35398.43
672.507	35151.66
672.856	35224.65
673.205	35301.49
673.554	35280.47
673.904	35170.19
674.253	35321.83
674.602	35245.44
674.951	34671.22
675.3	34676.19
675.649	35140.36
675.998	35040.02
676.346	35188.72
676.695	35172.68
677.044	34996.41
677.393	35143.98
677.741	35145.56
678.09	35025.79
678.438	34870.54
678.787	35082.74
679.135	34961.61
679.484	34787.6
679.832	34825.12
680.181	34712.12
680.529	34761.84
680.877	34729.98
681.225	34652.01
681.573	34912.57
681.922	34681.84
682.27	34565.91
682.618	34568.85
682.966	34521.17
683.314	34489.98
683.661	34406.14
684.009	34305.36
684.357	34300.61
684.705	34222.87
685.053	34186.49
685.4	34214.06
685.748	34041.86
686.095	34066.27
686.443	33977.23
686.79	33868.3
687.138	33906.04
687.485	33823.11
687.832	33741.3
688.18	33784.24
688.527	33558.03
688.874	33530.23
689.221	33536.79
689.568	33305.38
689.915	33544.47
690.262	33471.25
690.609	33324.36
690.956	33194.88
691.303	33137.02
691.65	32966.86
691.997	32976.12
692.344	32931.61
692.69	32852.29
693.037	32921.21
693.383	32651.84
693.73	32602.35
694.077	32498.4
694.423	32593.31
694.769	32380.66
695.116	32278.74
695.462	32425.18
695.808	32219.76
696.155	32278.06
696.501	31940.67
696.847	31904.29
697.193	31714.24
697.539	31932.76
697.885	31709.27
698.231	31632.43
698.577	31648.93
698.923	31498.88
699.269	31372.55
699.614	31256.85
699.96	31187.92
700.306	31328.48
700.651	31047.36
700.997	31079.23
701.342	30946.8
701.688	30910.42
702.033	30801.04
702.379	30807.82
702.724	30658.45
703.069	30703.64
703.415	30416.64
703.76	30402.86
704.105	30299.58
704.45	30429.3
704.795	30201.28
705.14	30105.92
705.485	30048.52
705.83	29940.27
706.175	30064.56
706.52	29964.45
706.865	29729.66
707.209	29738.92
707.554	29614.86
707.899	29777.79
708.243	29525.59
708.588	29477.69
708.932	29319.05
709.277	29198.6
709.621	29300.51
709.966	29153.63
710.31	29134.19
710.654	28992.27
710.998	28998.6
711.342	29020.75
711.687	28937.81
712.031	28859.17
712.375	28714.54
712.719	28715.22
713.063	28731.94
713.407	28788.44
713.75	28542.57
714.094	28595.67
714.438	28508.45
714.782	28543.02
715.125	28246.98
715.469	28428.22
715.812	28127.44
716.156	28082.02
716.499	28048.8
716.843	27976.26
717.186	27943.94
717.53	28038.85
717.873	28042.24
718.216	28042.02
718.559	27892.42
718.902	27599.54
719.246	27745.3
719.589	27664.4
719.932	27548.24
720.275	27553.22
720.617	27531.52
720.96	27324.07
721.303	27474.8
721.646	27461.02
721.989	27279.33
722.331	27388.47
722.674	27161.36
723.016	27268.93
723.359	27226.9
723.701	27239.33
724.044	27040.69
724.386	26889.73
724.729	27066.9
725.071	27046.34
725.413	27008.37
725.755	27027.35
726.097	26921.59
726.439	26673.24
726.782	26704.42
727.124	26898.77
727.465	26557.54
727.807	26569.06
728.149	26532.45
728.491	26550.98
728.833	26665.1
729.175	26435.28
729.516	26361.61
729.858	26405
730.199	26411.78
730.541	26236.41
730.882	26123.65
731.224	26371.33
731.565	26190.77
731.906	26094.5
732.248	26109.19
732.589	26050.88
732.93	26027.83
733.271	25988.96
733.612	25989.64
733.953	25984.9
734.294	25978.57
734.635	25830.78
734.976	25848.63
735.317	25651.8
735.658	25708.29
735.999	25729.54
736.339	25675.75
736.68	25665.58
737.021	25644.79
737.361	25497.68
737.702	25582.87
738.042	25561.63
738.383	25532.48
738.723	25572.25
739.063	25382.65
739.404	25517.11
739.744	25445.48
740.084	25347.62
740.424	25373.39
740.764	25259.72
741.104	25329.55
741.444	25102.89
741.784	24968.2
742.124	25056.56
742.464	24980.18
742.804	24901.76
743.143	24988.54
743.483	25038.48
743.823	24805.49
744.162	24835.55
744.502	24859.05
744.841	24879.61
745.181	24822.67
745.52	24668.55
745.86	24742.22
746.199	24693.18
746.538	24573.63
746.877	24658.15
747.216	24715.78
747.556	24529.57
747.895	24553.3
748.234	24483.24
748.573	24391.94
748.911	24469.91
749.25	24410.93
749.589	24287.99
749.928	24214.09
750.267	24317.37
750.605	24107.43
750.944	24181.33
751.283	24104.95
751.621	24169.35
751.96	23952.18
752.298	23967.1
752.636	24061.33
752.975	23899.53
753.313	23760.55
753.651	23941.11
753.989	23759.19
754.327	23848.23
754.666	23549.48
755.004	23794.67
755.342	23580.67
755.679	23701.57
756.017	23405.98
756.355	23657.27
756.693	23454.57
757.031	23427.9
757.368	23362.37
757.706	23227.23
758.044	23235.59
758.381	23144.29
758.719	23115.14
759.056	23013.45
759.394	23032.43
759.731	22887.8
760.068	22893.68
760.405	22826.11
760.743	22687.13
761.08	22846.22
761.417	22687.81
761.754	22610.75
762.091	22598.32
762.428	22443.29
762.765	22288.95
763.102	22378.21
763.438	22297.54
763.775	22215.5
764.112	22276.97
764.449	22245.33
764.785	22041.04
765.122	21964.44
765.458	21943.87
765.795	21834.04
766.131	21805.34
766.467	21676.31
766.804	21688.96
767.14	21502.53
767.476	21506.6
767.812	21415.07
768.148	21396.32
768.485	21295.98
768.821	21309.09
769.157	21256.21
769.492	21121.29
769.828	21178.92
770.164	20915.88
770.5	20875.2
770.836	20793.62
771.171	20670.69
771.507	20758.59
771.842	20486.28
772.178	20560.63
772.513	20504.36
772.849	20447.19
773.184	20305.27
773.519	20366.29
773.855	20246.97
774.19	20126.29
774.525	20067.99
774.86	20140.98
775.195	19995.22
775.53	19915.68
775.865	19716.81
776.2	19755
776.535	19584.84
776.87	19557.49
777.205	19472.75
777.539	19444.28
777.874	19382.13
778.209	19272.3
778.543	19164.28
778.878	19135.58
779.212	19123.83
779.547	18983.95
779.881	18968.13
780.215	18879.55
780.55	18836.38
780.884	18740.34
781.218	18712.09
781.552	18680
781.886	18657.4
782.22	18452.89
782.554	18422.83
782.888	18280.92
783.222	18197.53
783.556	18213.35
783.889	18003.86
784.223	17950.76
784.557	17972.45
784.89	18005.22
785.224	17882.28
785.557	17801.61
785.891	17716.19
786.224	17673.7
786.558	17704.44
786.891	17575.4
787.224	17514.16
787.557	17504.21
787.891	17359.13
788.224	17409.98
788.557	17326.59
788.89	17238.69
789.223	17219.02
789.556	17184.22
789.888	17082.76
790.221	17039.82
790.554	16953.04
790.887	16812.26
791.219	16816.1
791.552	16816.1
791.884	16677.8
792.217	16713.95
792.549	16605.26
792.882	16479.38
793.214	16461.08
793.546	16438.93
793.879	16303.57
794.211	16273.06
794.543	16264.25
794.875	16191.93
795.207	16156.45
795.539	16124.82
795.871	16026.97
796.203	15927.76
796.535	15871.72
796.867	15898.61
797.198	15755.79
797.53	15800.76
797.862	15695.45
798.193	15689.12
798.525	15658.61
798.856	15673.08
799.188	15400.77
799.519	15485.96
799.85	15279.19
800.182	15347.66
800.513	15319.41
800.844	15236.03
801.175	15292.52
801.506	15257.27
801.837	15149.02
802.168	15083.71
802.499	15005.52
802.83	14960.1
803.161	14938.63
803.491	14892.98
803.822	14911.51
804.153	14784.51
804.483	14704.74
804.814	14557.63
805.145	14647.79
805.475	14713.33
805.805	14601.69
806.136	14600.34
806.466	14536.38
806.796	14478.08
807.126	14421.81
807.457	14365.31
807.787	14403.73
808.117	14374.81
808.447	14283.73
808.777	14307.01
809.107	14165.55
809.436	14208.71
809.766	14137.75
810.096	14095.72
810.426	14065.44
810.755	13968.26
811.085	13998.77
811.414	13940.24
811.744	13879
812.073	13780.25
812.403	13864.08
812.732	13729.17
813.061	13660.7
813.39	13660.93
813.719	13619.12
814.049	13676.52
814.378	13709.74
814.707	13502.06
815.036	13518.33
815.365	13529.4
815.693	13318.56
816.022	13330.99
816.351	13274.5
816.68	13246.02
817.008	13374.15
817.337	13197.89
817.665	13170.09
817.994	13195.85
818.322	13162.63
818.651	13121.73
818.979	13071.34
819.307	13121.05
819.636	13069.08
819.964	13045.58
820.292	13026.14
820.62	13026.59
820.948	12902.3
821.276	12990.66
821.604	12925.13
821.932	12987.05
822.259	13002.41
822.587	12912.47
822.915	12959.02
823.243	12973.71
823.57	12894.39
823.898	12918.12
824.225	12895.97
824.553	12811.91
824.88	12855.52
825.207	12847.16
825.535	12867.73
825.862	12903.88
826.189	12829.08
826.516	12996.54
826.843	12849.87
827.17	12993.37
827.497	12910.21
827.824	12897.56
828.151	12938.69
828.478	12886.94
828.805	12878.35
829.131	12821.4
829.458	12808.97
829.785	12752.93
830.111	12780.95
830.438	12846.26
830.764	12863.66
831.09	12869.31
831.417	12752.93
831.743	12738.69
832.069	12842.64
832.395	12732.59
832.722	12838.57
833.048	12815.3
833.374	12771.46
833.7	12714.06
834.026	12768.52
834.351	12772.59
834.677	12691.46
835.003	12721.52
835.329	12785.47
835.654	12671.35
835.98	12645.59
836.306	12674.96
836.631	12618.92
836.956	12701.63
837.282	12622.08
837.607	12571.01
837.932	12538.7
838.258	12545.25
838.583	12461.64
838.908	12492.82
839.233	12445.59
839.558	12465.48
839.883	12384.12
840.208	12346.84
840.533	12378.7
840.858	12290.79
841.182	12320.17
841.507	12260.51
841.832	12275.2
842.156	12126.5
842.481	12187.74
842.805	12165.6
843.13	12201.53
843.454	12168.76
843.778	12100.29
844.103	12080.4
844.427	12014.42
844.751	12008.09
845.075	12024.13
845.399	11943.91
845.723	11874.31
846.047	11883.12
846.371	11819.84
846.695	11799.51
847.019	11739.85
847.343	11618.72
847.666	11646.97
847.99	11574.43
848.313	11519.06
848.637	11467.76
848.96	11419.4
849.284	11458.72
849.607	11337.82
849.931	11311.38
850.254	11303.93
850.577	11205.4
850.9	11143.25
851.223	11065.29
851.546	11091.28
851.869	11016.02
852.192	11052.41
852.515	10943.26
852.838	10923.82
853.161	10831.17
853.483	10895.58
853.806	10833.2
854.129	10799.53
854.451	10760.21
854.774	10662.36
855.096	10567.22
855.419	10557.5
855.741	10622.14
856.063	10475.47
856.385	10467.11
856.708	10531.29
857.03	10360.22
857.352	10430.05
857.674	10368.81
857.996	10272.54
858.318	10345.76
858.64	10236.61
858.961	10259.66
859.283	10183.73
859.605	10202.26
859.926	10229.15
860.248	10198.19
860.57	10084.75
860.891	10156.16
861.212	10120.68
861.534	10103.28
861.855	10083.62
862.176	10039.78
862.498	10046.78
862.819	9955.71
863.14	9926.34
863.461	9919.1
863.782	9875.26
864.103	9884.3
864.424	9890.18
864.745	9894.47
865.065	9877.97
865.386	9815.38
865.707	9803.17
866.027	9827.13
866.348	9760.69
866.668	9742.39
866.989	9691.99
867.309	9644.76
867.63	9663.29
867.95	9667.13
868.27	9597.53
868.59	9672.33
868.91	9593.91
869.23	9600.47
869.55	9576.51
869.87	9629.85
870.19	9656.06
870.51	9525.67
870.83	9572.45
871.15	9509.62
871.469	9579.23
871.789	9512.56
872.109	9528.15
872.428	9437.08
872.748	9463.97
873.067	9442.05
873.386	9444.54
873.706	9479.57
874.025	9353.24
874.344	9338.55
874.663	9432.34
874.982	9353.24
875.301	9333.13
875.62	9312.57
875.939	9252.91
876.258	9248.61
876.577	9206.35
876.896	9237.31
877.214	9256.07
877.533	9194.83
877.852	9240.7
878.17	9209.07
878.489	9153.25
878.807	9158.67
879.125	9137.2
879.444	9108.05
879.762	9041.16
880.08	9113.93
880.398	9061.95
880.716	9050.65
881.034	9072.8
881.352	8991.9
881.67	8992.35
881.988	8968.17
882.306	9017.43
882.624	8932.91
882.941	8880.94
883.259	8894.95
883.577	8870.54
883.894	8887.04
884.212	8864.89
884.529	8786.25
884.846	8792.13
885.164	8819.92
885.481	8763.88
885.798	8783.99
886.115	8678.46
886.432	8669.87
886.75	8656.31
887.067	8699.47
887.383	8623.32
887.7	8633.71
888.017	8578.12
888.334	8624.22
888.651	8554.17
888.967	8554.39
889.284	8507.84
889.6	8488.41
889.917	8444.79
890.233	8465.13
890.55	8345.81
890.866	8410.67
891.182	8304.46
891.498	8310.33
891.815	8330.9
892.131	8287.28
892.447	8250.22
892.763	8273.05
893.079	8226.49
893.395	8163.67
893.71	8184.69
894.026	8138.13
894.342	8077.34
894.657	8129.77
894.973	8044.58
895.289	8038.93
895.604	8018.14
895.92	7953.73
896.235	7950.57
896.55	7964.13
896.865	7939.27
897.181	7907.18
897.496	7896.33
897.811	7819.95
898.126	7768.88
898.441	7819.95
898.756	7778.82
899.071	7729.78
899.386	7712.61
899.7	7719.39
900.015	7632.38
900.33	7612.95
900.644	7635.55
900.959	7618.83
901.273	7586.96
901.588	7528.88
901.902	7446.85
902.216	7455.44
902.531	7469
902.845	7369.57
903.159	7387.87
903.473	7330.47
903.787	7253.86
904.101	7288.66
904.415	7301.32
904.729	7282.79
905.042	7181.1
905.356	7191.49
905.67	7135.45
905.984	7159.18
906.297	7108.1
906.611	7086.86
906.924	7036.69
907.237	7031.72
907.551	7062.91
907.864	7018.39
908.177	6939.52
908.491	6960.54
908.804	6897.49
909.117	6864.27
909.43	6778.62
909.743	6796.47
910.056	6793.99
910.368	6733.88
910.681	6692.52
910.994	6694.56
911.307	6689.58
911.619	6657.27
911.932	6639.19
912.244	6574.11
912.557	6573.2
912.869	6554.45
913.181	6535.01
913.494	6517.39
913.806	6462.47
914.118	6447.1
914.43	6361.23
914.742	6370.5
915.054	6357.16
915.366	6302.7
915.678	6339.31
915.99	6232.65
916.302	6224.96
916.613	6184.74
916.925	6205.53
917.236	6170.95
917.548	6190.84
917.859	6153.33
918.171	6117.17
918.482	6070.62
918.794	6069.04
919.105	6020.22
919.416	6054.35
919.727	5992.65
920.038	5959.66
920.349	5886.44
920.66	5850.74
920.971	5900
921.282	5856.16
921.593	5809.16
921.903	5832.88
922.214	5784.3
922.525	5778.2
922.835	5705.2
923.146	5757.86
923.456	5677.41
923.767	5676.05
924.077	5694.36
924.387	5616.17
924.697	5569.16
925.008	5552.21
925.318	5540.01
925.628	5527.58
925.938	5499.56
926.248	5467.24
926.558	5465.89
926.867	5419.79
927.177	5424.53
927.487	5371.88
927.796	5347.02
928.106	5359.68
928.416	5295.04
928.725	5319.22
929.034	5289.62
929.344	5271.32
929.653	5256.85
929.962	5197.65
930.271	5172.11
930.581	5182.28
930.89	5159.68
931.199	5103.19
931.508	5077.87
931.817	5152
932.125	5072
932.434	5027.93
932.743	5036.29
933.051	4971.89
933.36	4990.65
933.669	4935.05
933.977	4952.23
934.286	4900.93
934.594	4927.14
934.902	4869.52
935.21	4818.67
935.519	4804.44
935.827	4851.21
936.135	4799.46
936.443	4768.05
936.751	4734.38
937.059	4756.08
937.367	4694.38
937.674	4691.67
937.982	4719.01
938.29	4632.01
938.597	4665.91
938.905	4542.07
939.213	4568.96
939.52	4536.19
939.827	4571.22
940.135	4594.27
940.442	4491.45
940.749	4468.63
941.056	4515.63
941.363	4437.89
941.67	4446.71
941.977	4396.99
942.284	4399.47
942.591	4375.52
942.898	4378.23
943.205	4391.34
943.511	4334.39
943.818	4304.79
944.125	4274.96
944.431	4259.37
944.738	4226.6
945.044	4222.98
945.35	4182.76
945.657	4150.89
945.963	4207.84
946.269	4162.42
946.575	4164.45
946.881	4119.48
947.187	4112.25
947.493	4135.75
947.799	4103.66
948.105	4056.43
948.41	4018.47
948.716	4023.89
949.022	4008.3
949.327	4040.61
949.633	3947.96
949.938	3927.4
950.244	3947.28
950.549	3880.62
950.854	3884.23
951.16	3899.83
951.465	3846.49
951.77	3818.47
952.075	3813.73
952.38	3826.38
952.685	3816.89
952.99	3760.62
953.294	3781.41
953.599	3748.64
953.904	3743.45
954.209	3678.59
954.513	3695.09
954.818	3717.46
955.122	3675.88
955.426	3651.47
955.731	3659.16
956.035	3616.9
956.339	3595.65
956.643	3633.17
956.948	3564.24
957.252	3550.91
957.556	3576.45
957.86	3563.11
958.163	3513.17
958.467	3486.5
958.771	3525.83
959.075	3443.12
959.378	3469.33
959.682	3401.53
959.985	3408.77
960.289	3394.98
960.592	3419.39
960.896	3328.32
961.199	3371.25
961.502	3325.6
961.805	3309.56
962.108	3292.16
962.411	3323.57
962.714	3284.93
963.017	3310.24
963.32	3293.06
963.623	3282.22
963.926	3241.31
964.228	3215.33
964.531	3164.25
964.833	3207.64
965.136	3176.68
965.438	3185.95
965.741	3136.91
966.043	3136.01
966.345	3164.03
966.648	3133.75
966.95	3124.03
967.252	3113.63
967.554	3068.66
967.856	3103.24
968.158	3036.35
968.46	3085.61
968.761	3050.13
969.063	3016.91
969.365	3013.3
969.666	3029.34
969.968	2965.39
970.269	2954.31
970.571	2962.68
970.872	2958.83
971.174	2937.59
971.475	2896.24
971.776	2931.94
972.077	2867.99
972.378	2853.3
972.679	2840.42
972.98	2890.36
973.281	2821.89
973.582	2834.77
973.883	2824.37
974.183	2794.32
974.484	2757.26
974.785	2755.9
975.085	2801.32
975.386	2745.28
975.686	2701.21
975.986	2738.28
976.287	2740.54
976.587	2714.77
976.887	2721.33
977.187	2675.68
977.487	2674.77
977.787	2654.66
978.087	2627.54
978.387	2660.31
978.687	2652.85
978.987	2598.62
979.286	2548.68
979.586	2589.8
979.885	2587.09
980.185	2559.07
980.484	2570.14
980.784	2544.83
981.083	2509.81
981.382	2526.53
981.682	2507.1
981.981	2524.27
982.28	2475.23
982.579	2486.3
982.878	2463.71
983.177	2491.05
983.475	2464.61
983.774	2445.18
984.073	2477.72
984.372	2422.13
984.67	2394.56
984.969	2401.56
985.267	2377.61
985.566	2362.24
985.864	2368.12
986.162	2389.58
986.461	2375.12
986.759	2373.09
987.057	2326.31
987.355	2320.89
987.653	2315.24
987.951	2304.61
988.249	2307.78
988.547	2285.41
988.844	2254.9
989.142	2275.91
989.44	2260.55
989.737	2237.5
990.035	2244.28
990.332	2205.86
990.63	2209.7
990.927	2200.44
991.224	2168.35
991.521	2160.89
991.819	2179.87
992.116	2176.26
992.413	2146.2
992.71	2116.6
993.006	2115.24
993.303	2135.35
993.6	2093.77
993.897	2072.08
994.193	2133.09
994.49	2084.28
994.787	2072.98
995.083	2036.82
995.379	2052.64
995.676	2070.95
995.972	2043.15
996.268	2014.45
996.565	1990.72
996.861	2008.8
997.157	1984.17
997.453	1962.25
997.749	1965.87
998.044	1970.84
998.34	1948.92
998.636	1942.14
998.932	1936.71
999.227	1935.13
999.523	1936.94
999.818	1925.64
1000.114	1930.39
1000.409	1898.3
1000.704	1896.26
1001	1843.84
1001.295	1849.26
1001.59	1824.4
1001.885	1836.15
1002.18	1801.12
1002.475	1800.45
1002.77	1819.66
1003.065	1808.36
1003.359	1792.31
1003.654	1776.49
1003.949	1763.84
1004.243	1768.36
1004.538	1734.69
1004.832	1754.57
1005.127	1749.15
1005.421	1710.28
1005.715	1714.35
1006.009	1713.9
1006.304	1708.47
1006.598	1667.8
1006.892	1661.47
1007.186	1669.83
1007.48	1633.9
1007.773	1637.97
1008.067	1605.65
1008.361	1604.75
1008.655	1628.02
1008.948	1636.38
1009.242	1576.5
1009.535	1603.84
1009.829	1566.33
1010.122	1573.33
1010.415	1580.57
1010.708	1557.29
1011.001	1564.3
1011.295	1553.45
1011.588	1530.4
1011.881	1505.77
1012.173	1523.84
1012.466	1535.6
1012.759	1493.56
1013.052	1503.51
1013.344	1480.91
1013.637	1479.78
1013.93	1440.23
1014.222	1470.96
1014.514	1483.62
1014.807	1437.74
1015.099	1423.51
1015.391	1430.29
1015.683	1407.91
1015.976	1397.07
1016.268	1386.9
1016.56	1373.34
1016.851	1399.33
1017.143	1376.5
1017.435	1367.92
1017.727	1368.82
1018.018	1365.43
1018.31	1329.27
1018.602	1356.84
1018.893	1345.09
1019.185	1341.7
1019.476	1316.84
1019.767	1331.76
1020.058	1291.31
1020.35	1267.58
1020.641	1282.04
1020.932	1279.56
1021.223	1287.69
1021.514	1281.14
1021.804	1247.24
1022.095	1241.82
1022.386	1248.37
1022.677	1225.55
1022.967	1230.74
1023.258	1216.06
1023.548	1175.83
1023.839	1170.41
1024.129	1219.9
1024.419	1177.86
1024.709	1183.74
1025	1167.92
1025.29	1143.29
1025.58	1160.69
1025.87	1136.28
1026.16	1139.45
1026.449	1102.84
1026.739	1118.43
1027.029	1110.3
1027.319	1113.91
1027.608	1129.05
1027.898	1099.45
1028.187	1082.95
1028.477	1092.44
1028.766	1084.76
1029.055	1053.35
1029.344	1095.15
1029.634	1075.27
1029.923	1056.51
1030.212	1035.04
1030.501	1045.44
1030.79	1015.16
1031.078	1010.19
1031.367	1000.02
1031.656	1009.73
1031.945	1000.92
1032.233	998.66
1032.522	1013.8
1032.81	1000.47
1033.099	988.94
1033.387	965.44
1033.675	978.1
1033.963	973.12
1034.251	956.63
1034.54	966.8
1034.828	961.6
1035.116	931.09
1035.403	927.48
1035.691	919.57
1035.979	962.5
1036.267	923.18
1036.554	920.92
1036.842	917.31
1037.129	871.88
1037.417	910.98
1037.704	898.1
1037.992	892.45
1038.279	855.61
1038.566	876.63
1038.853	876.63
1039.14	876.63
