Data from hue_32_FLMS001491_00015.txt Node
Date: Tue Feb 07 17:22:58 GMT 2017
User: dcchb
Spectrometer: FLMS00149
Trigger mode: 0
Integration Time (sec): 2.000000E-2
Scans to average: 10
Electric dark correction enabled: true
Nonlinearity correction enabled: false
Boxcar width: 0
XAxis mode: Wavelengths
Number of Pixels in Spectrum: 2048
>>>>>Begin Spectral Data<<<<<
341.393	4.56
341.776	4.56
342.16	4.56
342.543	-63.68
342.927	-58.26
343.31	-79.28
343.693	-65.49
344.077	-55.1
344.46	-56.23
344.843	-57.81
345.226	-41.54
345.61	-41.09
345.993	-20.3
346.376	6.6
346.759	13.15
347.142	44.79
347.525	25.13
347.908	48.18
348.291	76.42
348.674	90.21
349.057	112.36
349.44	127.72
349.823	141.96
350.206	190.55
350.588	205.46
350.971	231.45
351.354	217.66
351.737	249.75
352.119	265.8
352.502	275.29
352.884	292.46
353.267	274.84
353.65	297.89
354.032	284.55
354.414	331.79
354.797	329.75
355.179	319.13
355.562	325.91
355.944	337.21
356.326	328.4
356.709	338.11
357.091	337.21
357.473	353.93
357.855	340.15
358.238	332.46
358.62	344.89
359.002	354.38
359.384	360.26
359.766	335.4
360.148	352.58
360.53	343.99
360.912	334.72
361.294	324.33
361.676	353.48
362.057	345.8
362.439	342.41
362.821	325.46
363.203	327.04
363.584	332.91
363.966	336.3
364.348	349.64
364.729	322.52
365.111	320.03
365.493	351.67
365.874	313.03
366.256	322.07
366.637	321.62
367.019	311.45
367.4	303.54
367.781	318
368.163	343.54
368.544	325.46
368.925	315.51
369.306	337.89
369.688	315.74
370.069	302.41
370.45	327.04
370.831	327.72
371.212	341.28
371.593	323.88
371.974	313.71
372.355	334.5
372.736	320.94
373.117	307.38
373.498	333.59
373.879	320.26
374.26	321.39
374.641	331.11
375.021	325.23
375.402	336.08
375.783	349.41
376.163	328.62
376.544	325.01
376.925	337.43
377.305	345.57
377.686	315.74
378.066	339.69
378.447	315.97
378.827	334.5
379.208	346.93
379.588	354.84
379.968	349.41
380.349	325.46
380.729	329.98
381.109	345.12
381.489	343.54
381.87	358.45
382.25	347.38
382.63	339.47
383.01	354.61
383.39	362.52
383.77	352.8
384.15	363.65
384.53	360.94
384.91	351.45
385.29	357.32
385.67	361.39
386.049	366.36
386.429	358
386.809	379.02
387.189	348.73
387.568	357.1
387.948	349.41
388.328	348.06
388.707	367.72
389.087	360.71
389.466	368.62
389.846	379.69
390.225	373.37
390.605	382.41
390.984	380.6
391.363	383.54
391.743	379.47
392.122	383.54
392.501	384.21
392.881	389.86
393.26	369.3
393.639	375.63
394.018	407.72
394.397	391.9
394.776	390.31
395.155	394.61
395.534	389.64
395.913	391.44
396.292	412.91
396.671	406.13
397.05	410.2
397.429	371.56
397.808	380.82
398.186	388.05
398.565	405
398.944	398.9
399.323	398.68
399.701	411.11
400.08	411.56
400.458	412.91
400.837	395.29
401.215	403.65
401.594	426.47
401.972	405.46
402.351	431.9
402.729	403.65
403.107	430.99
403.486	424.44
403.864	419.92
404.242	430.09
404.62	443.19
404.999	428.73
405.377	424.21
405.755	404.78
406.133	431.22
406.511	442.06
406.889	426.25
407.267	456.98
407.645	430.99
408.023	438.67
408.401	452.01
408.779	448.62
409.156	457.88
409.534	449.97
409.912	466.47
410.29	449.97
410.667	459.47
411.045	458.56
411.422	463.53
411.8	491.1
412.178	477.77
412.555	475.51
412.933	478.9
413.31	485.68
413.687	475.96
414.065	486.81
414.442	510.09
414.819	484.78
415.197	513.25
415.574	485.45
415.951	503.31
416.328	481.16
416.705	508.5
417.082	519.8
417.46	517.32
417.837	518.67
418.214	526.36
418.591	523.19
418.967	519.8
419.344	518.67
419.721	536.07
420.098	538.33
420.475	534.94
420.852	538.56
421.228	554.6
421.605	528.62
421.982	541.95
422.358	560.25
422.735	560.03
423.111	575.62
423.488	557.09
423.864	563.42
424.241	581.27
424.617	583.98
424.994	569.07
425.37	571.55
425.746	578.56
426.123	587.82
426.499	572
426.875	588.05
427.251	603.19
427.627	595.73
428.003	591.89
428.379	595.28
428.756	618.78
429.132	615.39
429.507	635.96
429.883	637.77
430.259	628.5
430.635	618.11
431.011	645.68
431.387	651.55
431.763	654.04
432.138	664.21
432.514	647.48
432.89	663.75
433.265	686.8
433.641	670.53
434.016	698.78
434.392	688.16
434.767	673.92
435.143	712.34
435.518	716.86
435.894	714.83
436.269	710.31
436.644	729.29
437.02	726.8
437.395	730.87
437.77	720.02
438.145	736.29
438.52	759.34
438.895	760.02
439.271	757.76
439.646	744.43
440.021	773.13
440.395	779.68
440.77	762.96
441.145	781.26
441.52	795.05
441.895	786.01
442.27	820.59
442.645	780.13
443.019	794.37
443.394	795.05
443.769	783.07
444.143	819.68
444.518	814.71
444.892	827.82
445.267	817.87
445.641	818.33
446.016	836.86
446.39	831.21
446.764	830.75
447.139	819.68
447.513	870.75
447.887	836.18
448.262	836.18
448.636	868.04
449.01	861.04
449.384	883.63
449.758	869.62
450.132	876.4
450.506	882.28
450.88	901.71
451.254	871.21
451.628	890.64
452.002	936.74
452.376	924.31
452.75	923.63
453.123	926.57
453.497	940.58
453.871	956.85
454.244	959.57
454.618	971.99
454.992	984.65
455.365	996.17
455.739	1013.58
456.112	1007.93
456.486	1008.15
456.859	1003.86
457.232	1034.59
457.606	1041.82
457.979	1044.31
458.352	1058.55
458.725	1069.39
459.099	1064.87
459.472	1089.05
459.845	1142.39
460.218	1128.37
460.591	1116.17
460.964	1144.42
461.337	1146
461.71	1171.99
462.083	1207.92
462.456	1185.1
462.829	1183.97
463.201	1211.54
463.574	1195.49
463.947	1235.26
464.32	1252.21
464.692	1256.73
465.065	1270.29
465.438	1310.74
465.81	1309.61
466.183	1328.14
466.555	1356.84
466.928	1364.07
467.3	1360.68
467.672	1399.55
468.045	1394.58
468.417	1437.07
468.789	1463.51
469.161	1428.93
469.534	1469.38
469.906	1514.35
470.278	1542.37
470.65	1562.71
471.022	1576.27
471.394	1601.81
471.766	1649.26
472.138	1625.08
472.51	1662.82
472.882	1663.05
473.253	1748.02
473.625	1750.28
473.997	1807.45
474.369	1821.46
474.74	1820.11
475.112	1873.21
475.484	1933.55
475.855	1952.76
476.227	1987.11
476.598	2040.21
476.97	2096.03
477.341	2130.61
477.713	2144.39
478.084	2212.19
478.455	2256.71
478.827	2284.5
479.198	2369.25
479.569	2380.32
479.94	2458.51
480.311	2476.36
480.682	2578.51
481.053	2633.42
481.424	2673.42
481.795	2768.11
482.166	2802.45
482.537	2846.75
482.908	2923.58
483.279	2984.14
483.65	3076.57
484.021	3160.41
484.391	3233.86
484.762	3263.69
485.133	3363.57
485.503	3427.07
485.874	3533.73
486.244	3563.34
486.615	3640.62
486.985	3674.07
487.356	3787.74
487.726	3847.85
488.097	4002.2
488.467	4010.33
488.837	4126.26
489.207	4200.61
489.578	4296.43
489.948	4372.13
490.318	4480.83
490.688	4533.03
491.058	4581.16
491.428	4668.39
491.798	4757.21
492.168	4887.6
492.538	4923.08
492.908	5045.33
493.278	5156.74
493.648	5195.61
494.017	5258.89
494.387	5326.46
494.757	5443.74
495.126	5471.31
495.496	5507.47
495.866	5631.76
496.235	5692.55
496.605	5801.7
496.974	5873.33
497.344	5930.28
497.713	5964.63
498.082	6057.74
498.452	6161.69
498.821	6201.24
499.19	6271.29
499.559	6326.2
499.928	6398.52
500.298	6451.85
500.667	6577.27
501.036	6562.81
501.405	6657.72
501.774	6731.16
502.143	6776.14
502.512	6791.05
502.88	6920.99
503.249	6936.36
503.618	6977.26
503.987	6980.2
504.356	7100.65
504.724	7189.91
505.093	7175.22
505.462	7190.81
505.83	7263.81
506.199	7305.16
506.567	7582.22
506.936	7484.82
507.304	7552.61
507.672	7605.27
508.041	7629.9
508.409	7714.87
508.777	7816.11
509.145	7883.45
509.514	7837.8
509.882	7971.58
510.25	7970
510.618	7985.37
510.986	8064.92
511.354	8138.81
511.722	8196.89
512.09	8292.71
512.458	8274.4
512.826	8333.16
513.193	8405.92
513.561	8439.82
513.929	8467.39
514.297	8521.63
514.664	8580.61
515.032	8623.09
515.4	8730.43
515.767	8730.21
516.135	8769.08
516.502	8672.36
516.869	8911.67
517.237	8938.56
517.604	8850.43
517.972	9010.43
518.339	9091.55
518.706	9088.84
519.073	9132.68
519.44	9162.06
519.808	9296.07
520.175	9212.91
520.542	9372
520.909	9369.51
521.276	9344.66
521.643	9469.17
522.009	9548.72
522.376	9574.93
522.743	9630.3
523.11	9703.52
523.477	9759.33
523.843	9780.58
524.21	9959.55
524.577	10009.5
524.943	9983.73
525.31	10127.23
525.676	10150.74
526.043	10216.95
526.409	10231.86
526.776	10281.13
527.142	10289.72
527.508	10400.67
527.874	10468.24
528.241	10541.91
528.607	10555.92
528.973	10705.52
529.339	10723.6
529.705	10742.81
530.071	10845.18
530.437	10830.27
530.803	10948.23
531.169	11009.7
531.535	11023.03
531.901	11093.31
532.267	11210.37
532.632	11247.43
532.998	11222.12
533.364	11266.19
533.73	11293.53
534.095	11416.24
534.461	11483.81
534.826	11537.59
535.192	11631.37
535.557	11506.41
535.923	11605.16
536.288	11685.61
536.653	11710.69
537.019	11692.84
537.384	11750.69
537.749	11805.61
538.114	11905.27
538.479	11914.31
538.845	11987.75
539.21	11963.57
539.575	12048.77
539.94	12088.76
540.305	12208.08
540.67	12133.28
541.034	12239.27
541.399	12229.55
541.764	12374.41
542.129	12402.2
542.494	12441.07
542.858	12510.45
543.223	12544.8
543.587	12585.93
543.952	12556.77
544.316	12626.6
544.681	12697.11
545.045	12761.29
545.41	12885.58
545.774	12919.93
546.138	12875.64
546.503	13001.28
546.867	13032.47
547.231	13030.66
547.595	13091.45
547.959	13154.27
548.324	13185.23
548.688	13200.15
549.052	13231.78
549.416	13274.5
549.779	13332.8
550.143	13434.94
550.507	13496.18
550.871	13481.72
551.235	13495.05
551.599	13655.05
551.962	13592.68
552.326	13727.59
552.689	13753.81
553.053	13691.21
553.417	13808.94
553.78	13922.39
554.143	13814.37
554.507	13985.66
554.87	13984.31
555.234	14104.08
555.597	13991.76
555.96	14115.15
556.323	14156.05
556.686	14220.01
557.05	14249.84
557.413	14312.21
557.776	14344.3
558.139	14411.19
558.502	14442.83
558.865	14436.05
559.228	14617.51
559.59	14610.51
559.953	14624.52
560.316	14803.04
560.679	14799.43
561.041	14882.81
561.404	14852.99
561.767	15042.81
562.129	14958.52
562.492	15073.09
562.854	15049.59
563.217	15054.11
563.579	15144.73
563.941	15311.5
564.304	15347.44
564.666	15410.71
565.028	15384.04
565.39	15363.93
565.753	15523.25
566.115	15524.15
566.477	15628.11
566.839	15669.23
567.201	15749.46
567.563	15729.35
567.925	15900.64
568.287	15856.12
568.648	15908.32
569.01	16055.89
569.372	16191.48
569.734	16125.04
570.095	16206.4
570.457	16305.6
570.819	16337.24
571.18	16352.38
571.542	16546.73
571.903	16485.71
572.265	16661.3
572.626	16614.52
572.987	16821.97
573.349	16797.11
573.71	16849.77
574.071	17072.14
574.432	17067.39
574.794	17300.38
575.155	17254.96
575.516	17303.09
575.877	17471.22
576.238	17522.29
576.599	17696.75
576.96	17737.2
577.32	17803.42
577.681	17909.85
578.042	18107.14
578.403	18186
578.763	18266
579.124	18523.4
579.485	18651.53
579.845	18839.1
580.206	18933.56
580.566	19018.3
580.927	19204.51
581.287	19486.76
581.648	19517.04
582.008	19724.95
582.368	19828.67
582.728	20090.81
583.089	20291.26
583.449	20378.04
583.809	20594.76
584.169	20812.38
584.529	20927.85
584.889	21350.67
585.249	21447.61
585.609	21637.21
585.969	21907.94
586.329	22005.11
586.688	22444.65
587.048	22548.6
587.408	22789.5
587.768	22983.84
588.127	23140
588.487	23522.81
588.846	23828.79
589.206	23873.76
589.565	24154.21
589.925	24632.39
590.284	24691.14
590.643	25032.38
591.003	25273.05
591.362	25656.99
591.721	25870.55
592.08	26168.39
592.44	26409.52
592.799	26743.07
593.158	26973.12
593.517	27274.58
593.876	27568.58
594.235	27680.44
594.593	28119.75
594.952	28320.88
595.311	28512.06
595.67	28873.86
596.029	29212.16
596.387	29525.82
596.746	29825.02
597.104	29840.84
597.463	30074.73
597.822	30600.82
598.18	30717.2
598.538	31005.78
598.897	31248.26
599.255	31371.87
599.613	31980.44
599.972	32000.56
600.33	32375.24
600.688	32489.81
601.046	32866.75
601.404	33109.68
601.762	33365.27
602.12	33677.35
602.478	33893.39
602.836	33987.62
603.194	34114.85
603.552	34394.39
603.91	34449.76
604.268	34787.83
604.625	34864.44
604.983	35390.3
605.341	35280.24
605.698	35599.33
606.056	35999.55
606.413	35990.06
606.771	36414.68
607.128	36574.22
607.485	36696.25
607.843	36805.18
608.2	37246.97
608.557	37369
608.914	37467.31
609.272	37684.02
609.629	37972.38
609.986	38185.93
610.343	38226.83
610.7	38656.2
611.057	38658.01
611.414	38860.72
611.771	38985.46
612.127	39326.47
612.484	39408.27
612.841	39525.33
613.198	39640.81
613.554	39767.58
613.911	40010.74
614.267	40099.55
614.624	40179.78
614.98	40325.08
615.337	40542.93
615.693	40696.83
616.05	40666.77
616.406	41031.05
616.762	40874.9
617.118	41142.46
617.475	41287.09
617.831	41429.91
618.187	41560.98
618.543	41739.96
618.899	41911.48
619.255	41890.69
619.611	42007.75
619.967	42173.4
620.323	42242.77
620.678	42197.12
621.034	42277.57
621.39	42341.98
621.746	42291.81
622.101	42859.93
622.457	42700.39
622.812	42815.41
623.168	43044.79
623.523	42942.19
623.879	43204.33
624.234	42996.88
624.589	43178.57
624.945	43395.29
625.3	43370.88
625.655	43435.74
626.01	43354.83
626.365	43589.86
626.72	43483.42
627.075	43585.56
627.43	43598.67
627.785	43671.44
628.14	43646.8
628.495	43767.48
628.85	43784.88
629.205	43603.19
629.559	43980.58
629.914	43757.31
630.269	43896.29
630.623	43748.72
630.978	43682.51
631.332	44005.66
631.687	44127.47
632.041	43955.5
632.396	43905.33
632.75	43938.1
633.104	43880.24
633.459	43852
633.813	43774.48
634.167	43887.93
634.521	43907.36
634.875	43948.49
635.229	43843.64
635.583	43701.94
635.937	43775.84
636.291	43808.38
636.645	43859.23
636.999	43713.02
637.352	43977.87
637.706	43601.61
638.06	43858.55
638.413	43810.42
638.767	43745.11
639.121	43937.87
639.474	43738.1
639.828	43817.2
640.181	43727.25
640.534	43776.52
640.888	43654.71
641.241	43560.93
641.594	43604.32
641.947	43763.41
642.301	43641.15
642.654	43587.14
643.007	43521.61
643.36	43486.13
643.713	43508.5
644.066	43703.3
644.419	43397.32
644.771	43333.14
645.124	42783.55
645.477	42753.72
645.83	42551.69
646.182	42570.45
646.535	42295.2
646.888	42403.22
647.24	42149.89
647.593	42460.62
647.945	42293.17
648.298	42206.84
648.65	42057.92
649.002	42130.01
649.355	42221.31
649.707	42273.96
650.059	42419.04
650.411	42850.44
650.763	42883.43
651.115	43292.92
651.467	43024.45
651.819	43041.62
652.171	43106.48
652.523	42928.18
652.875	42979.7
653.227	42896.54
653.578	43146.93
653.93	43049.98
654.282	42985.8
654.633	42747.62
654.985	42862.87
655.337	42874.85
655.688	42800.5
656.039	42920.95
656.391	42677.34
656.742	42815.19
657.094	42759.14
657.445	42948.07
657.796	42721.4
658.147	42742.42
658.498	42716.89
658.849	42751.23
659.2	42671.91
659.551	42582.43
659.902	42796.88
660.253	42552.14
660.604	42705.81
660.955	42459.72
661.306	42728.86
661.656	42725.47
662.007	42703.78
662.358	42635.08
662.708	42591.01
663.059	42779.71
663.409	42395.31
663.76	42605.25
664.11	42677.79
664.461	42648.19
664.811	42718.92
665.161	42548.53
665.511	42534.74
665.862	42626.27
666.212	42586.27
666.562	42680.5
666.912	42564.8
667.262	42401.87
667.612	42516.44
667.962	42534.97
668.312	42451.81
668.662	42652.93
669.011	42417.01
669.361	42435.31
669.711	42524.12
670.06	42359.83
670.41	42316.9
670.76	42275.99
671.109	42496.33
671.459	42301.98
671.808	42329.55
672.157	42485.93
672.507	42075.55
672.856	42213.62
673.205	42095.21
673.554	42337.01
673.904	42229.21
674.253	42403.22
674.602	42348.76
674.951	41836.68
675.3	41518.05
675.649	42235.77
675.998	42006.4
676.346	42131.36
676.695	42166.17
677.044	42043.46
677.393	42057.24
677.741	42038.03
678.09	41988.99
678.438	41931.6
678.787	41984.48
679.135	42015.66
679.484	41698.16
679.832	41814.99
680.181	41759.85
680.529	41751.49
680.877	41685.5
681.225	41516.92
681.573	41841.88
681.922	41532.28
682.27	41434.43
682.618	41385.85
682.966	41328.45
683.314	41519.85
683.661	41299.07
684.009	41240.99
684.357	41108.11
684.705	41090.49
685.053	41024.95
685.4	40934.33
685.748	40861.11
686.095	40890.27
686.443	40631.06
686.79	40647.56
687.138	40832.19
687.485	40773.66
687.832	40519.65
688.18	40536.38
688.527	40419.54
688.874	40384.74
689.221	40303.16
689.568	39995.37
689.915	40046.67
690.262	40076.73
690.609	39865.21
690.956	39803.74
691.303	39818.66
691.65	39698.21
691.997	39707.02
692.344	39401.27
692.69	39356.3
693.037	39339.35
693.383	39100.71
693.73	39334.15
694.077	39143.42
694.423	38984.1
694.769	38841.73
695.116	38728.29
695.462	38788.63
695.808	38714.28
696.155	38855.29
696.501	38553.83
696.847	38434.29
697.193	38065.71
697.539	38355.19
697.885	38154.07
698.231	37966.95
698.577	38033.17
698.923	38011.7
699.269	37680.63
699.614	37568.32
699.96	37534.65
700.306	37498.04
700.651	37405.39
700.997	37157.94
701.342	37160.65
701.688	37202
702.033	36932.4
702.379	37114.77
702.724	36977.83
703.069	36934.44
703.415	36479.08
703.76	36543.26
704.105	36580.1
704.45	36470.27
704.795	36282.93
705.14	36278.64
705.485	36173.55
705.83	35955.48
706.175	36054.46
706.52	35841.36
706.865	35791.87
707.209	35644.98
707.554	35603.85
707.899	35649.73
708.243	35536.51
708.588	35481.82
708.932	35329.06
709.277	35231.66
709.621	35360.47
709.966	35042.06
710.31	35130.87
710.654	34923.64
710.998	34874.83
711.342	34859.92
711.687	34905.34
712.031	34561.62
712.375	34567.72
712.719	34665.35
713.063	34593.26
713.407	34676.87
713.75	34380.16
714.094	34342.19
714.438	34132.48
714.782	34395.07
715.125	34023.78
715.469	34080.73
715.812	34095.87
716.156	33791.7
716.499	33819.04
716.843	33789.21
717.186	33639.16
717.53	33812.49
717.873	33850.45
718.216	33711.92
718.559	33604.58
718.902	33391.93
719.246	33433.51
719.589	33370.01
719.932	33239.62
720.275	33345.15
720.617	33130.47
720.96	33099.96
721.303	33064.94
721.646	33143.8
721.989	32820.2
722.331	32948.33
722.674	32963.47
723.016	32944.03
723.359	32856.58
723.701	32918.72
724.044	32652.29
724.386	32358.74
724.729	32638.05
725.071	32515.57
725.413	32583.82
725.755	32481.45
726.097	32326.42
726.439	32266.99
726.782	32161.46
727.124	32291.17
727.465	32100.89
727.807	32097.96
728.149	32053.44
728.491	32122.14
728.833	32106.77
729.175	31880.56
729.516	31687.8
729.858	31758.3
730.199	31798.08
730.541	31762.37
730.882	31783.16
731.224	31875.81
731.565	31498.65
731.906	31562.38
732.248	31600.12
732.589	31405.54
732.93	31251.2
733.271	31156.51
733.612	31366.68
733.953	31355.15
734.294	31217.75
734.635	31238.09
734.976	31204.42
735.317	31003.29
735.658	30999.91
735.999	31073.58
736.339	30994.71
736.68	31056.17
737.021	30927.59
737.361	30807.37
737.702	30853.69
738.042	30847.59
738.383	30768.5
738.723	30777.99
739.063	30689.18
739.404	30606.02
739.744	30603.98
740.084	30546.58
740.424	30517.43
740.764	30402.18
741.104	30596.75
741.444	30352.69
741.784	30330.32
742.124	30266.14
742.464	30297.32
742.804	30192.92
743.143	30262.75
743.483	30164.45
743.823	30003.32
744.162	29937.56
744.502	30024.56
744.841	29933.04
745.181	29833.83
745.52	29883.55
745.86	29808.98
746.199	29866.6
746.538	29760.84
746.877	29878.8
747.216	29814.85
747.556	29681.3
747.895	29715.87
748.234	29608.53
748.573	29549.55
748.911	29437.23
749.25	29391.36
749.589	29364.47
749.928	29409.66
750.267	29498.48
750.605	29293.06
750.944	29215.55
751.283	29105.04
751.621	29337.35
751.96	29070.69
752.298	29106.85
752.636	29011.48
752.975	28871.15
753.313	28831.15
753.651	28894.88
753.989	28740.76
754.327	28646.75
754.666	28607.43
755.004	28639.74
755.342	28697.82
755.679	28652.62
756.017	28369.24
756.355	28471.84
756.693	28183.03
757.031	28324.5
757.368	28142.58
757.706	28092.41
758.044	28060.77
758.381	28016.25
758.719	27958.86
759.056	27943.26
759.394	27896.48
759.731	27675.7
760.068	27709.6
760.405	27499.66
760.743	27449.26
761.08	27564.52
761.417	27316.61
761.754	27274.35
762.091	27238.2
762.428	27136.73
762.765	26982.84
763.102	27111.19
763.438	26975.83
763.775	26826.91
764.112	26821.48
764.449	26810.64
764.785	26649.06
765.122	26640.02
765.458	26507.59
765.795	26417.2
766.131	26349.41
766.467	26278.22
766.804	26225.34
767.14	26099.47
767.476	25992.58
767.812	25971.34
768.148	25974.5
768.485	25775.18
768.821	25771.12
769.157	25612.48
769.492	25541.07
769.828	25526.6
770.164	25234.63
770.5	25231.02
770.836	25313.28
771.171	24968.43
771.507	24984.7
771.842	24772.05
772.178	24868.77
772.513	24824.02
772.849	24731.82
773.184	24543.58
773.519	24636.23
773.855	24436.69
774.19	24369.35
774.525	24281.44
774.86	24143.14
775.195	24171.16
775.53	23958.51
775.865	23904.5
776.2	23715.58
776.535	23690.27
776.87	23712.41
777.205	23576.82
777.539	23507.67
777.874	23495.02
778.209	23280.79
778.543	23248.24
778.878	23071.98
779.212	23141.35
779.547	23100.23
779.881	23050.51
780.215	22922.83
780.55	22807.8
780.884	22764.87
781.218	22610.52
781.552	22695.72
781.886	22555.38
782.22	22389.74
782.554	22337.31
782.888	22167.37
783.222	22145.9
783.556	21948.39
783.889	21915.17
784.223	21825.01
784.557	21767.15
784.89	21767.61
785.224	21505.47
785.557	21519.02
785.891	21452.59
786.224	21282.65
786.558	21406.26
786.891	21096.66
787.224	21120.62
787.557	21032.48
787.891	21100.5
788.224	20995.65
788.557	20931.92
788.89	20855.99
789.223	20889.21
789.556	20752.27
789.888	20567.19
790.221	20577.35
790.554	20398.83
790.887	20377.13
791.219	20277.93
791.552	20243.58
791.884	20221.43
792.217	20251.49
792.549	19986.41
792.882	19916.35
793.214	19748.22
793.546	19886.53
793.879	19679.75
794.211	19548.68
794.543	19701.45
794.875	19576.93
795.207	19612.41
795.539	19470.49
795.871	19466.88
796.203	19296.26
796.535	19134.68
796.867	19123.83
797.198	19115.47
797.53	19098.3
797.862	18903.5
798.193	18965.19
798.525	18929.94
798.856	18953.89
799.188	18713.45
799.519	18585.54
799.85	18585.77
800.182	18526.11
800.513	18453.12
800.844	18374.25
801.175	18502.83
801.506	18494.25
801.837	18320.69
802.168	18319.33
802.499	18255.38
802.83	18180.36
803.161	18066.69
803.491	18037.76
803.822	17992.34
804.153	17935.39
804.483	17885.67
804.814	17745.34
805.145	17741.27
805.475	17682.52
805.805	17650.43
806.136	17589.86
806.466	17668.73
806.796	17552.12
807.126	17465.57
807.457	17433.93
807.787	17415.63
808.117	17398.45
808.447	17310.1
808.777	17303.54
809.107	17180.83
809.436	17068.07
809.766	17171.79
810.096	17104.9
810.426	16940.61
810.755	16998.69
811.085	16940.61
811.414	16888.86
811.744	16774.06
812.073	16738.81
812.403	16753.27
812.732	16584.69
813.061	16620.62
813.39	16542.43
813.719	16474.41
814.049	16583.79
814.378	16610.23
814.707	16431.47
815.036	16429.89
815.365	16349.67
815.693	16221.08
816.022	16304.25
816.351	16186.96
816.68	16062.22
817.008	16076.23
817.337	15907.87
817.665	15944.93
817.994	15969.34
818.322	15961.88
818.651	15813.19
818.979	15844.6
819.307	15842.11
819.636	15772.28
819.964	15680.99
820.292	15753.07
820.62	15768.89
820.948	15727.54
821.276	15722.79
821.604	15674.21
821.932	15704.49
822.259	15669.01
822.587	15668.56
822.915	15608.9
823.243	15623.13
823.57	15584.72
823.898	15571.38
824.225	15558.28
824.553	15567.77
824.88	15555.11
825.207	15725.05
825.535	15572.29
825.862	15669.46
826.189	15533.65
826.516	15664.72
826.843	15643.7
827.17	15641.21
827.497	15679.63
827.824	15649.12
828.151	15608.67
828.478	15529.13
828.805	15644.15
829.131	15535.45
829.458	15563.02
829.785	15481.9
830.111	15563.25
830.438	15522.12
830.764	15518.5
831.09	15495.23
831.417	15443.93
831.743	15526.64
832.069	15655.68
832.395	15368.68
832.722	15483.93
833.048	15405.29
833.374	15458.84
833.7	15373.88
834.026	15458.17
834.351	15393.99
834.677	15385.4
835.003	15386.76
835.329	15357.83
835.654	15425.63
835.98	15335.68
836.306	15285.06
836.631	15238.96
836.956	15289.58
837.282	15199.42
837.607	15159.19
837.932	15227.66
838.258	15146.99
838.583	15135.01
838.908	15020.66
839.233	15089.82
839.558	14983.38
839.883	14997.84
840.208	14958.75
840.533	14918.29
840.858	14824.74
841.182	14879.65
841.507	14846.43
841.832	14779.99
842.156	14773.89
842.481	14841.23
842.805	14734.12
843.13	14752.2
843.454	14641.92
843.778	14573.67
844.103	14559.66
844.427	14566.21
844.751	14546.78
845.075	14429.95
845.399	14440.79
845.723	14302.72
846.047	14294.36
846.371	14242.61
846.695	14257.52
847.019	14181.14
847.343	14129.84
847.666	14053.01
847.99	13962.61
848.313	13980.24
848.637	13944.08
848.96	13874.93
849.284	13781.37
849.607	13698.89
849.931	13678.55
850.254	13634.03
850.577	13559.01
850.9	13463.19
851.223	13503.42
851.546	13310.2
851.869	13300.71
852.192	13339.8
852.515	13186.36
852.838	13145.01
853.161	13158.57
853.483	13084.67
853.806	13122.41
854.129	13066.59
854.451	12997.44
854.774	12920.15
855.096	12797.67
855.419	12891
855.741	12812.36
856.063	12748.63
856.385	12770.78
856.708	12744.34
857.03	12615.98
857.352	12701.18
857.674	12559.49
857.996	12529.2
858.318	12485.59
858.64	12474.52
858.961	12450.56
859.283	12376.67
859.605	12289.44
859.926	12385.48
860.248	12271.36
860.57	12281.75
860.891	12297.57
861.212	12210.57
861.534	12084.24
861.855	12119.27
862.176	12070.23
862.498	12116.56
862.819	12056.9
863.14	12023
863.461	11996.56
863.782	12008.09
864.103	11987.3
864.424	11951.82
864.745	11965.83
865.065	11888.54
865.386	11758.38
865.707	11835.66
866.027	11797.25
866.348	11790.47
866.668	11794.76
866.989	11761.54
867.309	11683.35
867.63	11753.41
867.95	11697.59
868.27	11716.12
868.59	11656.23
868.91	11654.65
869.23	11570.59
869.55	11560.19
869.87	11592.96
870.19	11560.19
870.51	11571.04
870.83	11658.04
871.15	11496.69
871.469	11523.36
871.789	11510.93
872.109	11459.4
872.428	11362
872.748	11409.01
873.067	11426.18
873.386	11432.96
873.706	11359.52
874.025	11437.03
874.344	11288.33
874.663	11361.33
874.982	11260.99
875.301	11215.79
875.62	11265.28
875.939	11239.52
876.258	11233.65
876.577	11247.43
876.896	11190.48
877.214	11083.14
877.533	11117.04
877.852	11114.33
878.17	11162.01
878.489	11115.46
878.807	11029.58
879.125	11059.41
879.444	11044.27
879.762	10985.29
880.08	10979.41
880.398	10897.38
880.716	11003.37
881.034	10915.46
881.352	10831.4
881.67	10829.14
881.988	10879.08
882.306	10857.84
882.624	10733.55
882.941	10690.16
883.259	10731.74
883.577	10687.44
883.894	10638.18
884.212	10620.78
884.529	10606.54
884.846	10602.48
885.164	10547.79
885.481	10537.84
885.798	10597.96
886.115	10459.43
886.432	10544.17
886.75	10501.91
887.067	10418.75
887.383	10387.11
887.7	10407.9
888.017	10351.18
888.334	10397.51
888.651	10280.68
888.967	10311.86
889.284	10253.56
889.6	10261.24
889.917	10182.83
890.233	10209.04
890.55	10146.22
890.866	10120.91
891.182	10042.49
891.498	10127.23
891.815	10026.9
892.131	9998.2
892.447	9956.39
892.763	9939.67
893.079	9873.91
893.395	9826.68
893.71	9788.03
894.026	9846.56
894.342	9793.46
894.657	9708.71
894.973	9689.05
895.289	9663.52
895.604	9705.32
895.92	9571.77
896.235	9587.81
896.55	9597.98
896.865	9543.07
897.181	9530.87
897.496	9490.64
897.811	9461.49
898.126	9421.04
898.441	9397.76
898.756	9293.81
899.071	9262.17
899.386	9309.63
899.7	9207.94
900.015	9204.32
900.33	9172.68
900.644	9110.09
900.959	9184.66
901.273	9090.2
901.588	9044.55
901.902	9063.98
902.216	9053.14
902.531	8930.2
902.845	8954.16
903.159	8909.41
903.473	8848.4
903.787	8842.97
904.101	8695.41
904.415	8722.75
904.729	8728.17
905.042	8695.41
905.356	8693.37
905.67	8690.89
905.984	8634.17
906.297	8582.87
906.611	8501.06
906.924	8539.93
907.237	8483.44
907.551	8406.83
907.864	8466.94
908.177	8435.75
908.491	8374.51
908.804	8344.68
909.117	8251.58
909.43	8179.71
909.743	8217.68
910.056	8123.67
910.368	8170.22
910.681	8149.43
910.994	8085.48
911.307	8005.26
911.619	7951.47
911.932	7942.88
912.244	7953.28
912.557	7904.69
912.869	7899.72
913.181	7845.94
913.494	7853.4
913.806	7726.17
914.118	7773.85
914.43	7719.39
914.742	7702.21
915.054	7685.49
915.366	7583.35
915.678	7596.9
915.99	7596.45
916.302	7493.18
916.613	7471.03
916.925	7530.24
917.236	7443.91
917.548	7363.92
917.859	7411.6
918.171	7320.53
918.482	7291.6
918.794	7321.66
919.105	7278.5
919.416	7227.65
919.727	7191.49
920.038	7162.11
920.349	7046.41
920.66	7104.49
920.971	7103.36
921.282	7090.25
921.593	6996.02
921.903	6929.35
922.214	6930.93
922.525	6868.56
922.835	6911.05
923.146	6857.49
923.456	6838.51
923.767	6852.97
924.077	6752.86
924.387	6772.75
924.697	6696.14
925.008	6681
925.318	6664.27
925.628	6649.36
925.938	6627.66
926.248	6503.6
926.558	6563.49
926.867	6481.91
927.177	6528.23
927.487	6447.1
927.796	6363.26
928.106	6392.19
928.416	6321.68
928.725	6332.53
929.034	6326.88
929.344	6295.92
929.653	6319.2
929.962	6212.53
930.271	6194
930.581	6171.41
930.89	6146.55
931.199	6124.85
931.508	6088.02
931.817	6102.93
932.125	6040.56
932.434	6067
932.743	6003.95
933.051	5921.02
933.36	5980.45
933.669	5916.5
933.977	5913.79
934.286	5940
934.594	5854.13
934.902	5846.22
935.21	5797.18
935.519	5812.77
935.827	5750.17
936.135	5706.56
936.443	5661.14
936.751	5682.6
937.059	5646.22
937.367	5594.02
937.674	5592.66
937.982	5594.92
938.29	5516.96
938.597	5615.49
938.905	5533.23
939.213	5464.53
939.52	5450.75
939.827	5436.96
940.135	5380.01
940.442	5368.71
940.749	5353.57
941.056	5415.72
941.363	5300.24
941.67	5313.57
941.977	5274.48
942.284	5210.98
942.591	5240.81
942.898	5221.37
943.205	5194.71
943.511	5196.06
943.818	5141.83
944.125	5125.11
944.431	5131.21
944.738	5083.52
945.044	5060.47
945.35	4976.86
945.657	4952.91
945.963	5033.13
946.269	4953.81
946.575	4959.01
946.881	4903.42
947.187	4900.48
947.493	4881.5
947.799	4805.79
948.105	4846.69
948.41	4786.13
948.716	4811.44
949.022	4786.13
949.327	4770.09
949.633	4713.82
949.938	4725.34
950.244	4695.96
950.549	4690.54
950.854	4622.29
951.16	4605.8
951.465	4616.42
951.77	4595.18
952.075	4553.37
952.38	4564.44
952.685	4566.48
952.99	4508.4
953.294	4504.56
953.599	4437.44
953.904	4413.03
954.209	4427.72
954.513	4409.87
954.818	4388.63
955.122	4367.84
955.426	4390.21
955.731	4375.97
956.035	4360.83
956.339	4331.68
956.643	4314.28
956.948	4293.26
957.252	4254.62
957.556	4237.67
957.86	4236.54
958.163	4211.46
958.467	4180.27
958.771	4145.02
959.075	4131.46
959.378	4111.8
959.682	4128.07
959.985	4104.12
960.289	4113.61
960.592	4082.19
960.896	4067.28
961.199	4013.5
961.502	4035.64
961.805	3966.72
962.108	3966.27
962.411	3969.2
962.714	3959.94
963.017	3908.41
963.32	3893.95
963.623	3884.91
963.926	3874.06
964.228	3842.43
964.531	3836.1
964.833	3829.32
965.136	3752.26
965.438	3795.42
965.741	3761.3
966.043	3728.08
966.345	3719.94
966.648	3709.55
966.95	3750.45
967.252	3720.4
967.554	3653.96
967.856	3658.48
968.158	3579.61
968.46	3617.35
968.761	3617.8
969.063	3603.11
969.365	3558.82
969.666	3555.2
969.968	3550.46
970.269	3522.66
970.571	3510.01
970.872	3524.92
971.174	3464.81
971.475	3469.78
971.776	3437.47
972.077	3434.08
972.378	3404.92
972.679	3401.31
972.98	3383
973.281	3389.56
973.582	3317.7
973.883	3315.21
974.183	3368.54
974.484	3335.32
974.785	3305.49
975.085	3284.02
975.386	3297.58
975.686	3258.26
975.986	3222.33
976.287	3248.54
976.587	3224.14
976.887	3191.82
977.187	3178.72
977.487	3180.75
977.787	3176.91
978.087	3116.8
978.387	3130.13
978.687	3125.38
978.987	3090.36
979.286	3087.42
979.586	3066.18
979.885	3039.51
980.185	3058.04
980.484	2978.95
980.784	3004.94
981.083	3002.9
981.382	2971.49
981.682	2960.42
981.981	2953.86
982.28	2957.03
982.579	2927.2
982.878	2922.23
983.177	2919.51
983.475	2904.6
983.774	2883.81
984.073	2907.54
984.372	2819.86
984.67	2866.41
984.969	2843.81
985.267	2844.71
985.566	2841.32
985.864	2793.42
986.162	2779.18
986.461	2754.55
986.759	2746.64
987.057	2714.55
987.355	2718.39
987.653	2724.04
987.951	2728.33
988.249	2738.73
988.547	2715.23
988.844	2700.08
989.142	2647.88
989.44	2634.55
989.737	2611.95
990.035	2628.22
990.332	2643.59
990.63	2596.36
990.927	2576.47
991.224	2574.66
991.521	2553.2
991.819	2540.99
992.116	2536.25
992.413	2543.93
992.71	2486.3
993.006	2519.75
993.303	2528.11
993.6	2485.4
993.897	2500.32
994.193	2409.02
994.49	2453.99
994.787	2455.57
995.083	2419.64
995.379	2398.4
995.676	2449.7
995.972	2410.15
996.268	2358.85
996.565	2408.34
996.861	2367.44
997.157	2326.08
997.453	2351.39
997.749	2324.73
998.044	2309.36
998.34	2319.3
998.636	2277.95
998.932	2294.45
999.227	2222.81
999.523	2247.89
999.818	2212.41
1000.114	2206.54
1000.409	2210.61
1000.704	2180.1
1001	2163.83
1001.295	2192.08
1001.59	2161.12
1001.885	2146.88
1002.18	2110.27
1002.475	2098.97
1002.77	2110.04
1003.065	2128.12
1003.359	2089.7
1003.654	2091.51
1003.949	2062.36
1004.243	2085.19
1004.538	2023.49
1004.832	2050.16
1005.127	2040.44
1005.421	1975.58
1005.715	1993.44
1006.009	2004.28
1006.304	1960.89
1006.598	1984.17
1006.892	2003.38
1007.186	1929.71
1007.48	1958.63
1007.773	1919.54
1008.067	1898.75
1008.361	1901.24
1008.655	1898.3
1008.948	1901.24
1009.242	1867.34
1009.535	1883.16
1009.829	1851.97
1010.122	1818.75
1010.415	1841.12
1010.708	1800.67
1011.001	1808.13
1011.295	1802.48
1011.588	1798.87
1011.881	1808.81
1012.173	1779.2
1012.466	1757.74
1012.759	1771.52
1013.052	1738.08
1013.344	1751.86
1013.637	1723.39
1013.93	1696.49
1014.222	1699.66
1014.514	1684.74
1014.807	1684.07
1015.099	1702.14
1015.391	1663.05
1015.683	1673.67
1015.976	1637.29
1016.268	1647.91
1016.56	1628.25
1016.851	1615.37
1017.143	1614.69
1017.435	1583.05
1017.727	1585.31
1018.018	1580.57
1018.31	1563.62
1018.602	1569.94
1018.893	1546.67
1019.185	1548.7
1019.476	1506.9
1019.767	1507.35
1020.058	1500.79
1020.35	1494.24
1020.641	1481.81
1020.932	1462.83
1021.223	1457.41
1021.514	1467.35
1021.804	1444.07
1022.095	1417.86
1022.386	1458.31
1022.677	1424.86
1022.967	1393.23
1023.258	1423.06
1023.548	1390.51
1023.839	1375.83
1024.129	1358.88
1024.419	1362.04
1024.709	1357.29
1025	1380.8
1025.29	1365.88
1025.58	1334.7
1025.87	1348.93
1026.16	1311.65
1026.449	1324.75
1026.739	1288.14
1027.029	1301.93
1027.319	1293.12
1027.608	1262.61
1027.898	1263.74
1028.187	1267.13
1028.477	1214.7
1028.766	1227.13
1029.055	1232.33
1029.344	1223.29
1029.634	1208.15
1029.923	1202.72
1030.212	1194.81
1030.501	1193.23
1030.79	1186.45
1031.078	1163.4
1031.367	1182.16
1031.656	1164.08
1031.945	1151.2
1032.233	1134.7
1032.522	1149.39
1032.81	1137.19
1033.099	1140.58
1033.387	1089.96
1033.675	1110.07
1033.963	1113.46
1034.251	1108.49
1034.54	1066.46
1034.828	1077.53
1035.116	1057.64
1035.403	1077.98
1035.691	1089.73
1035.979	1068.04
1036.267	1060.58
1036.554	1034.59
1036.842	1003.86
1037.129	1010.64
1037.417	995.04
1037.704	1011.32
1037.992	1011.32
1038.279	1005.67
1038.566	998.43
1038.853	998.43
1039.14	998.43
