Data from hue_270_FLMS001491_00048.txt Node
Date: Tue Feb 07 15:57:15 GMT 2017
User: dcchb
Spectrometer: FLMS00149
Trigger mode: 0
Integration Time (sec): 2.000000E-2
Scans to average: 10
Electric dark correction enabled: true
Nonlinearity correction enabled: false
Boxcar width: 0
XAxis mode: Wavelengths
Number of Pixels in Spectrum: 2048
>>>>>Begin Spectral Data<<<<<
341.393	3.62
341.776	3.62
342.16	3.62
342.543	-75.25
342.927	-58.3
343.31	-65.08
343.693	-78.87
344.077	-62.15
344.46	-45.2
344.843	-58.53
345.226	-41.58
345.61	-46.33
345.993	-5.65
346.376	-3.16
346.759	16.04
347.142	33.67
347.525	41.58
347.908	68.7
348.291	66.21
348.674	70.73
349.057	109.6
349.44	125.19
349.823	136.04
350.206	151.41
350.588	168.36
350.971	208.13
351.354	216.04
351.737	222.82
352.119	240.9
352.502	242.93
352.884	277.51
353.267	277.05
353.65	305.3
354.032	290.39
354.414	304.62
354.797	308.24
355.179	291.07
355.562	294.23
355.944	325.87
356.326	341.46
356.709	341.69
357.091	327.45
357.473	321.57
357.855	315.25
358.238	340.56
358.62	315.7
359.002	341.46
359.384	330.61
359.766	335.81
360.148	340.56
360.53	329.26
360.912	331.52
361.294	329.48
361.676	335.81
362.057	314.57
362.439	308.92
362.821	313.21
363.203	326.55
363.584	320.22
363.966	307.79
364.348	313.66
364.729	317.96
365.111	348.92
365.493	321.57
365.874	296.94
366.256	302.14
366.637	289.71
367.019	289.26
367.4	317.73
367.781	326.32
368.163	286.32
368.544	302.82
368.925	311.86
369.306	314.34
369.688	302.59
370.069	310.27
370.45	313.89
370.831	296.26
371.212	296.04
371.593	306.66
371.974	323.61
372.355	326.77
372.736	323.38
373.117	316.83
373.498	310.95
373.879	318.41
374.26	327.9
374.641	319.31
375.021	324.74
375.402	326.32
375.783	319.31
376.163	319.99
376.544	332.42
376.925	324.96
377.305	315.02
377.686	330.84
378.066	331.06
378.447	328.35
378.827	319.09
379.208	339.88
379.588	317.51
379.968	338.07
380.349	331.06
380.729	329.93
381.109	328.13
381.489	328.13
381.87	332.65
382.25	329.93
382.63	367.22
383.01	332.87
383.39	337.62
383.77	331.97
384.15	342.59
384.53	335.13
384.91	356.83
385.29	337.84
385.67	331.74
386.049	355.47
386.429	355.92
386.809	335.13
387.189	343.95
387.568	341.91
387.948	357.05
388.328	358.41
388.707	332.42
389.087	362.25
389.466	368.8
389.846	366.32
390.225	376.49
390.605	367.45
390.984	387.56
391.363	377.62
391.743	379.65
392.122	388.69
392.501	374.45
392.881	381.68
393.26	392.76
393.639	366.32
394.018	367.22
394.397	374.68
394.776	391.4
395.155	393.89
395.534	379.43
395.913	395.92
396.292	370.84
396.671	416.26
397.05	386.43
397.429	382.59
397.808	396.37
398.186	408.12
398.565	391.63
398.944	393.21
399.323	409.03
399.701	418.29
400.08	419.42
400.458	411.06
400.837	389.14
401.215	417.39
401.594	410.38
401.972	427.11
402.351	446.99
402.729	435.69
403.107	439.54
403.486	427.11
403.864	428.24
404.242	436.6
404.62	441.57
404.999	456.26
405.377	468.69
405.755	458.74
406.133	442.93
406.511	457.39
406.889	484.06
407.267	461.46
407.645	487.67
408.023	484.51
408.401	483.15
408.779	496.03
409.156	502.36
409.534	491.96
409.912	507.78
410.29	529.7
410.667	532.19
411.045	532.42
411.422	523.15
411.8	541.45
412.178	536.26
412.555	538.06
412.933	554.11
413.31	537.84
413.687	569.02
414.065	569.02
414.442	594.11
414.819	591.62
415.197	590.72
415.574	625.97
415.951	602.47
416.328	633.2
416.705	611.51
417.082	649.25
417.46	630.72
417.837	681.34
418.214	663.03
418.591	655.12
418.967	672.07
419.344	651.06
419.721	669.13
420.098	679.08
420.475	668.23
420.852	719.08
421.228	705.97
421.605	722.47
421.982	736.48
422.358	750.71
422.735	764.05
423.111	762.47
423.488	782.8
423.864	807.89
424.241	796.36
424.617	781
424.994	809.92
425.37	823.71
425.746	829.13
426.123	827.32
426.499	858.51
426.875	854.67
427.251	883.82
427.627	874.78
428.003	888.11
428.379	887.89
428.756	904.38
429.132	923.59
429.507	924.04
429.883	915.23
430.259	944.38
430.635	976.25
431.011	967.21
431.387	993.19
431.763	992.52
432.138	994.32
432.514	1027.32
432.89	1044.04
433.265	1057.83
433.641	1083.14
434.016	1086.3
434.392	1113.42
434.767	1111.84
435.143	1135.56
435.518	1145.28
435.894	1161.55
436.269	1157.48
436.644	1223.02
437.02	1222.34
437.395	1239.52
437.77	1243.36
438.145	1251.49
438.52	1269.57
438.895	1300.98
439.271	1311.6
439.646	1345.95
440.021	1338.72
440.395	1331.94
440.77	1351.6
441.145	1374.43
441.52	1395.44
441.895	1397.7
442.27	1415.78
442.645	1426.86
443.019	1451.94
443.394	1445.84
443.769	1461.88
444.143	1451.71
444.518	1487.19
444.892	1491.03
445.267	1493.07
445.641	1515.21
446.016	1513.18
446.39	1543.69
446.764	1536.46
447.139	1517.93
447.513	1538.94
447.887	1571.94
448.262	1544.59
448.636	1566.06
449.01	1585.27
449.384	1592.73
449.758	1610.13
450.132	1622.56
450.506	1635.44
450.88	1633.63
451.254	1623.01
451.628	1665.27
452.002	1675.66
452.376	1695.55
452.75	1712.27
453.123	1720.86
453.497	1741.65
453.871	1753.17
454.244	1781.65
454.618	1782.1
454.992	1789.78
455.365	1806.28
455.739	1867.3
456.112	1885.83
456.486	1877.01
456.859	1913.62
457.232	1930.57
457.606	1930.57
457.979	1915.66
458.352	1972.15
458.725	1966.28
459.099	1990
459.472	2065.48
459.845	2041.08
460.218	2072.71
460.591	2073.39
460.964	2088.08
461.337	2122.43
461.71	2159.04
462.083	2149.77
462.456	2190.9
462.829	2210.34
463.201	2226.38
463.574	2233.84
463.947	2246.95
464.32	2270.45
464.692	2303.89
465.065	2338.7
465.438	2346.15
465.81	2328.3
466.183	2434.06
466.555	2441.07
466.928	2445.13
467.3	2465.7
467.672	2490.56
468.045	2554.74
468.417	2538.24
468.789	2552.48
469.161	2581.18
469.534	2643.55
469.906	2671.34
470.278	2667.73
470.65	2703.43
471.022	2773.49
471.394	2816.88
471.766	2802.64
472.138	2816.2
472.51	2858
472.882	2949.98
473.253	2928.74
473.625	2963.31
473.997	3025.46
474.369	3048.96
474.74	3043.08
475.112	3113.36
475.484	3162.4
475.855	3175.74
476.227	3225.9
476.598	3257.99
476.97	3339.12
477.341	3382.28
477.713	3402.85
478.084	3410.98
478.455	3488.04
478.827	3556.74
479.198	3576.4
479.569	3624.76
479.94	3647.14
480.311	3684.2
480.682	3767.13
481.053	3805.1
481.424	3897.75
481.795	3909.5
482.166	3953.34
482.537	3990.4
482.908	4072.89
483.279	4116.73
483.65	4174.35
484.021	4200.34
484.391	4240.34
484.762	4231.53
485.133	4298.42
485.503	4380
485.874	4422.26
486.244	4478.53
486.615	4548.58
486.985	4600.78
487.356	4675.58
487.726	4663.61
488.097	4717.62
488.467	4733.66
488.837	4826.54
489.207	4890.04
489.578	4880.1
489.948	4937.72
490.318	5027.21
490.688	4992.41
491.058	5105.63
491.428	5104.72
491.798	5209.35
492.168	5256.81
492.538	5317.15
492.908	5362.8
493.278	5363.93
493.648	5375.23
494.017	5439.86
494.387	5486.64
494.757	5502.68
495.126	5565.05
495.496	5565.5
495.866	5617.25
496.235	5671.04
496.605	5664.26
496.974	5658.83
497.344	5760.53
497.713	5755.33
498.082	5775.22
498.452	5853.18
498.821	5823.35
499.19	5866.29
499.559	5897.92
499.928	5916.23
500.298	6006.85
500.667	5992.61
501.036	6027.64
501.405	6009.79
501.774	6022.21
502.143	6090.91
502.512	6059.28
502.88	6115.55
503.249	6132.27
503.618	6156.9
503.987	6142.89
504.356	6229.67
504.724	6221.98
505.093	6205.94
505.462	6249.33
505.83	6290.23
506.199	6345.82
506.567	6382.66
506.936	6373.39
507.304	6413.16
507.672	6418.81
508.041	6466.04
508.409	6465.82
508.777	6564.12
509.145	6535.2
509.514	6498.59
509.882	6581.3
510.25	6597.34
510.618	6637.79
510.986	6606.61
511.354	6663.55
511.722	6694.51
512.09	6698.35
512.458	6675.3
512.826	6747.39
513.193	6788.75
513.561	6781.06
513.929	6815.19
514.297	6865.58
514.664	6882.98
515.032	6894.28
515.4	6858.12
515.767	6903.32
516.135	6912.36
516.502	6859.71
516.869	6985.81
517.237	7021.74
517.604	6950.1
517.972	7005.01
518.339	7049.53
518.706	7047.95
519.073	7017.22
519.44	7035.52
519.808	7063.09
520.175	7054.73
520.542	7127.04
520.909	7112.58
521.276	7142.86
521.643	7204.78
522.009	7211.56
522.376	7195.74
522.743	7299.47
523.11	7355.74
523.477	7285.01
523.843	7337.21
524.21	7440.26
524.577	7357.32
524.943	7460.37
525.31	7436.19
525.676	7488.16
526.043	7515.51
526.409	7538.11
526.776	7661.95
527.142	7496.3
527.508	7606.13
527.874	7692.23
528.241	7626.01
528.607	7670.08
528.973	7736.07
529.339	7744.88
529.705	7751.66
530.071	7820.81
530.437	7795.05
530.803	7828.27
531.169	7862.84
531.535	7820.59
531.901	7827.82
532.267	7836.18
532.632	7834.82
532.998	7938.55
533.364	7938.77
533.73	7938.55
534.095	7980.36
534.461	7970.64
534.826	7977.87
535.192	8011.77
535.557	8102.61
535.923	8062.61
536.288	8103.29
536.653	8046.12
537.019	8106.45
537.384	8095.61
537.749	8105.78
538.114	8111.65
538.479	8133.57
538.845	8129.28
539.21	8096.06
539.575	8142.84
539.94	8106.91
540.305	8183.74
540.67	8155.49
541.034	8153.01
541.399	8235.72
541.764	8146.9
542.129	8207.92
542.494	8207.92
542.858	8253.79
543.223	8229.16
543.587	8307.58
543.952	8160.01
544.316	8224.19
544.681	8258.31
545.045	8203.17
545.41	8296.28
545.774	8294.47
546.138	8281.59
546.503	8302.15
546.867	8326.11
547.231	8291.08
547.595	8318.65
547.959	8333.11
548.324	8347.8
548.688	8362.72
549.052	8300.35
549.416	8330.18
549.779	8399.33
550.143	8422.15
550.507	8424.86
550.871	8433
551.235	8419.21
551.599	8493.56
551.962	8495.82
552.326	8449.5
552.689	8524.07
553.053	8479.55
553.417	8520.23
553.78	8590.96
554.143	8488.14
554.507	8580.57
554.87	8590.51
555.234	8681.81
555.597	8591.64
555.96	8592.99
556.323	8630.96
556.686	8635.93
557.05	8651.75
557.413	8741.01
557.776	8727.91
558.139	8668.47
558.502	8710.05
558.865	8774.23
559.228	8842.48
559.59	8783.05
559.953	8857.62
560.316	8900.56
560.679	8941.91
561.041	8964.74
561.404	8925.19
561.767	8994.57
562.129	8985.98
562.492	9087.9
562.854	9088.57
563.217	9028.24
563.579	9081.57
563.941	9098.74
564.304	9214
564.666	9224.16
565.028	9278.85
565.39	9253.32
565.753	9240.66
566.115	9314.56
566.477	9380.32
566.839	9406.08
567.201	9445.18
567.563	9412.86
567.925	9476.14
568.287	9420.09
568.648	9576.02
569.01	9587.54
569.372	9613.53
569.734	9524.04
570.095	9649.01
570.457	9654.89
570.819	9737.15
571.18	9762.68
571.542	9792.74
571.903	9845.84
572.265	9835.22
572.626	9835.45
572.987	9859.4
573.349	9906.18
573.71	9958.38
574.071	10024.6
574.432	9998.83
574.794	10008.78
575.155	10049
575.516	10030.92
575.877	10120.86
576.238	10169
576.599	10194.08
576.96	10224.59
577.32	10225.27
577.681	10279.5
578.042	10304.81
578.403	10345.26
578.763	10330.8
579.124	10390.91
579.485	10420.97
579.845	10435.66
580.206	10480.4
580.566	10413.51
580.927	10534.86
581.287	10597.69
581.648	10613.96
582.008	10559.95
582.368	10648.31
582.728	10690.57
583.089	10626.61
583.449	10641.98
583.809	10721.07
584.169	10780.51
584.529	10708.42
584.889	10930.56
585.249	10838.36
585.609	10811.47
585.969	10914.29
586.329	10858.25
586.688	10965.36
587.048	10962.65
587.408	10992.48
587.768	11002.2
588.127	11003.1
588.487	11013.27
588.846	11128.07
589.206	10996.1
589.565	11001.07
589.925	11149.76
590.284	11190.67
590.643	11181.4
591.003	11265.47
591.362	11353.37
591.721	11291.68
592.08	11212.59
592.44	11311.79
592.799	11360.83
593.158	11353.83
593.517	11317.22
593.876	11386.37
594.235	11366.48
594.593	11452.58
594.952	11433.82
595.311	11441.51
595.67	11444.9
596.029	11551.56
596.387	11526.48
596.746	11595.85
597.104	11584.1
597.463	11578.45
597.822	11677.43
598.18	11610.32
598.538	11630.88
598.897	11669.75
599.255	11568.51
599.613	11729.86
599.972	11730.76
600.33	11707.26
600.688	11656.19
601.046	11750.88
601.404	11754.27
601.762	11806.92
602.12	11832.01
602.478	11886.92
602.836	11829.75
603.194	11798.11
603.552	11814.83
603.91	11796.53
604.268	11861.83
604.625	11833.36
604.983	11894.38
605.341	11859.12
605.698	11869.74
606.056	11937.31
606.413	11897.54
606.771	11937.77
607.128	12002.62
607.485	11958.1
607.843	11956.3
608.2	12015.5
608.557	11990.19
608.914	12006.69
609.272	12072
609.629	12075.39
609.986	12159.45
610.343	12099.79
610.7	12155.39
611.057	12126.23
611.414	12105.22
611.771	12105.67
612.127	12174.14
612.484	12158.32
612.841	12293.69
613.198	12234.71
613.554	12136.4
613.911	12322.84
614.267	12263.18
614.624	12285.1
614.98	12266.12
615.337	12328.72
615.693	12253.24
616.05	12258.43
616.406	12373.46
616.762	12325.78
617.118	12315.61
617.475	12389.96
617.831	12347.25
618.187	12362.84
618.543	12371.65
618.899	12476.73
619.255	12438.99
619.611	12364.87
619.967	12466.11
620.323	12492.1
620.678	12438.54
621.034	12448.03
621.39	12347.92
621.746	12431.09
622.101	12432.67
622.457	12386.57
622.812	12391.76
623.168	12504.53
623.523	12481.25
623.879	12525.32
624.234	12480.12
624.589	12579.78
624.945	12467.69
625.3	12446
625.655	12438.32
626.01	12470.86
626.365	12430.63
626.72	12436.51
627.075	12414.36
627.43	12486.45
627.785	12441.48
628.14	12426.57
628.495	12493.68
628.85	12416.85
629.205	12368.04
629.559	12405.78
629.914	12377.98
630.269	12390.86
630.623	12410.07
630.978	12349.96
631.332	12403.52
631.687	12409.84
632.041	12400.13
632.396	12392.89
632.75	12302.73
633.104	12340.69
633.459	12241.49
633.813	12246.46
634.167	12268.15
634.521	12281.71
634.875	12320.13
635.229	12269.28
635.583	12222.96
635.937	12253.69
636.291	12178.66
636.645	12255.72
636.999	12149.96
637.352	12197.42
637.706	12088.72
638.06	12095.73
638.413	12161.26
638.767	12088.27
639.121	12083.75
639.474	12064.99
639.828	12078.78
640.181	12021.15
640.534	12060.7
640.888	11975.5
641.241	11970.76
641.594	11922.17
641.947	12017.99
642.301	12017.31
642.654	11992.45
643.007	12035.16
643.36	11957.2
643.713	11993.81
644.066	12017.54
644.419	11928.5
644.771	11804.66
645.124	11796.53
645.477	11767.15
645.83	11625.46
646.182	11603.76
646.535	11547.27
646.888	11551.56
647.24	11542.75
647.593	11587.49
647.945	11554.72
648.298	11488.29
648.65	11407.38
649.002	11490.55
649.355	11483.31
649.707	11559.92
650.059	11488.96
650.411	11778.45
650.763	11677.43
651.115	11789.07
651.467	11778.67
651.819	11702.29
652.171	11772.57
652.523	11717.88
652.875	11712.69
653.227	11679.69
653.578	11791.55
653.93	11757.66
654.282	11674.04
654.633	11608.06
654.985	11667.94
655.337	11692.35
655.688	11683.31
656.039	11759.01
656.391	11691.67
656.742	11606.93
657.094	11719.01
657.445	11804.66
657.796	11700.26
658.147	11674.27
658.498	11648.06
658.849	11794.04
659.2	11714.72
659.551	11666.59
659.902	11736.41
660.253	11769.86
660.604	11723.08
660.955	11672.24
661.306	11720.37
661.656	11647.38
662.007	11692.12
662.358	11699.13
662.708	11650.09
663.059	11771.22
663.409	11687.6
663.76	11683.08
664.11	11796.53
664.461	11636.3
664.811	11730.09
665.161	11716.3
665.511	11742.74
665.862	11723.53
666.212	11715.62
666.562	11721.05
666.912	11750.88
667.262	11777.77
667.612	11767.6
667.962	11658.9
668.312	11764.66
668.662	11781.84
669.011	11682.63
669.361	11669.98
669.711	11696.42
670.06	11746.13
670.41	11780.93
670.76	11737.09
671.109	11759.46
671.459	11726.25
671.808	11629.52
672.157	11650.54
672.507	11638.11
672.856	11574.16
673.205	11594.05
673.554	11683.53
673.904	11559.24
674.253	11673.82
674.602	11582.29
674.951	11441.73
675.3	11347.5
675.649	11547.04
675.998	11575.74
676.346	11533.93
676.695	11565.12
677.044	11428.63
677.393	11500.26
677.741	11555.18
678.09	11510.43
678.438	11476.31
678.787	11463.88
679.135	11503.88
679.484	11404.45
679.832	11433.37
680.181	11416.65
680.529	11354.5
680.877	11339.36
681.225	11361.28
681.573	11349.31
681.922	11276.77
682.27	11378.23
682.618	11286.93
682.966	11281.96
683.314	11277.44
683.661	11290.32
684.009	11145.7
684.357	11211.91
684.705	11115.87
685.053	11182.3
685.4	11191.57
685.748	11032.93
686.095	11023.89
686.443	11013.04
686.79	11012.82
687.138	10989.99
687.485	10993.84
687.832	10945.7
688.18	10972.14
688.527	10827.29
688.874	10944.12
689.221	10828.87
689.568	10799.94
689.915	10762.43
690.262	10804.69
690.609	10739.38
690.956	10651.92
691.303	10666.61
691.65	10701.41
691.997	10601.3
692.344	10554.3
692.69	10536.67
693.037	10511.81
693.383	10433.85
693.73	10540.06
694.077	10356.34
694.423	10430.69
694.769	10372.16
695.116	10247.19
695.462	10268.43
695.808	10287.41
696.155	10304.14
696.501	10247.19
696.847	10228.43
697.193	10119.28
697.539	10129.9
697.885	10056.46
698.231	10007.87
698.577	9971.94
698.923	9973.3
699.269	9940.53
699.614	9936.91
699.96	9876.58
700.306	9810.59
700.651	9768.78
700.997	9786.64
701.342	9692.17
701.688	9709.12
702.033	9624.61
702.379	9610.82
702.724	9556.13
703.069	9626.87
703.415	9532.18
703.76	9519.75
704.105	9549.58
704.45	9518.62
704.795	9409.47
705.14	9372.18
705.485	9339.19
705.83	9255.12
706.175	9356.82
706.52	9356.14
706.865	9263.49
707.209	9327.89
707.554	9239.98
707.899	9300.32
708.243	9186.65
708.588	9172.64
708.932	9141.45
709.277	9117.05
709.621	9145.3
709.966	9030.27
710.31	9016.94
710.654	8940.78
710.998	8959.76
711.342	8910.27
711.687	8912.31
712.031	8923.16
712.375	8867.56
712.719	8928.8
713.063	8917.28
713.407	8895.81
713.75	8851.74
714.094	8911.18
714.438	8814.46
714.782	8730.17
715.125	8784.4
715.469	8778.3
715.812	8733.1
716.156	8713.44
716.499	8701.01
716.843	8676.83
717.186	8652.2
717.53	8706.66
717.873	8722.26
718.216	8696.49
718.559	8641.58
718.902	8577.4
719.246	8597.29
719.589	8510.96
719.932	8552.77
720.275	8504.41
720.617	8525.88
720.96	8514.8
721.303	8535.59
721.646	8517.52
721.989	8483.84
722.331	8510.06
722.674	8514.8
723.016	8512.32
723.359	8440.68
723.701	8477.97
724.044	8413.79
724.386	8396.84
724.729	8373.34
725.071	8427.12
725.413	8415.82
725.755	8395.71
726.097	8333.79
726.439	8332.66
726.782	8357.07
727.124	8404.75
727.465	8358.42
727.807	8350.29
728.149	8293.12
728.491	8269.61
728.833	8322.49
729.175	8278.43
729.516	8275.71
729.858	8312.78
730.199	8303.06
730.541	8270.52
730.882	8221.93
731.224	8321.36
731.565	8247.92
731.906	8293.12
732.248	8283.85
732.589	8232.78
732.93	8191.42
733.271	8253.12
733.612	8244.53
733.953	8284.98
734.294	8181.71
734.635	8184.19
734.976	8222.61
735.317	8171.54
735.658	8209.05
735.999	8210.18
736.339	8191.2
736.68	8212.44
737.021	8214.25
737.361	8166.34
737.702	8255.38
738.042	8250.4
738.383	8272.32
738.723	8265.32
739.063	8240.69
739.404	8257.18
739.744	8304.41
740.084	8227.35
740.424	8318.88
740.764	8267.35
741.104	8316.62
741.444	8298.99
741.784	8281.36
742.124	8265.32
742.464	8332.44
742.804	8352.55
743.143	8363.62
743.483	8405.43
743.823	8342.15
744.162	8382.83
744.502	8361.36
744.841	8387.12
745.181	8458.53
745.52	8454.01
745.86	8540.11
746.199	8496.95
746.538	8578.98
746.877	8608.81
747.216	8658.08
747.556	8649.04
747.895	8739.43
748.234	8719.77
748.573	8718.64
748.911	8775.81
749.25	8868.47
749.589	8883.61
749.928	8935.36
750.267	9030.05
750.605	9082.93
750.944	9152.53
751.283	9106.65
751.621	9288.57
751.96	9344.61
752.298	9393.43
752.636	9470.26
752.975	9519.75
753.313	9606.75
753.651	9737.15
753.989	9749.57
754.327	9893.98
754.666	9923.13
755.004	10077.02
755.342	10175.1
755.679	10321.31
756.017	10377.13
756.355	10507.52
756.693	10546.62
757.031	10725.59
757.368	10796.55
757.706	11005.59
758.044	11075.41
758.381	11236.09
758.719	11384.79
759.056	11504.78
759.394	11643.08
759.731	11712.01
760.068	11895.28
760.405	12093.47
760.743	12152
761.08	12376.4
761.417	12466.34
761.754	12573.91
762.091	12785.88
762.428	12947.68
762.765	12966.89
763.102	13221.8
763.438	13269.71
763.775	13504.05
764.112	13699.75
764.449	13869.47
764.785	13979.52
765.122	14094.32
765.458	14174.54
765.795	14351.94
766.131	14526.62
766.467	14625.15
766.804	14805.26
767.14	14842.1
767.476	14986.27
767.812	15035.76
768.148	15314.63
768.485	15349.43
768.821	15423.78
769.157	15529.31
769.492	15731.56
769.828	15809.3
770.164	15847.49
770.5	15897.66
770.836	16194.6
771.171	16095.62
771.507	16318.44
771.842	16348.04
772.178	16408.61
772.513	16607.47
772.849	16626.91
773.184	16723.63
773.519	16783.06
773.855	16879.1
774.19	16911.65
774.525	17011.08
774.86	17073.9
775.195	17137.18
775.53	17216.95
775.865	17117.97
776.2	17197.97
776.535	17087.91
776.87	17269.83
777.205	17312.54
777.539	17382.14
777.874	17524.74
778.209	17385.98
778.543	17456.26
778.878	17433.67
779.212	17484.51
779.547	17557.28
779.881	17743.49
780.215	17657.84
780.55	17699.87
780.884	17618.29
781.218	17683.15
781.552	17682.25
781.886	17677.05
782.22	17608.58
782.554	17649.71
782.888	17487.68
783.222	17599.76
783.556	17512.08
783.889	17502.59
784.223	17471.63
784.557	17516.15
784.89	17602.25
785.224	17487
785.557	17429.37
785.891	17420.11
786.224	17517.96
786.558	17565.64
786.891	17374.68
787.224	17318.64
787.557	17285.2
787.891	17329.49
788.224	17354.12
788.557	17439.54
788.89	17382.59
789.223	17443.61
789.556	17421.91
789.888	17240.22
790.221	17247.91
790.554	17193.45
790.887	17223.28
791.219	17178.31
791.552	17159.55
791.884	17113.22
792.217	17117.06
792.549	17074.81
792.882	16944.19
793.214	16930.63
793.546	16992.32
793.879	16943.96
794.211	16782.16
794.543	16950.51
794.875	16930.85
795.207	16882.27
795.539	16885.66
795.871	16882.04
796.203	16691.76
796.535	16655.83
796.867	16543.29
797.198	16726.79
797.53	16597.98
797.862	16508.27
798.193	16514.14
798.525	16414.03
798.856	16503.52
799.188	16341.04
799.519	16299.91
799.85	16198.22
800.182	16210.2
800.513	16259.69
800.844	16055.4
801.175	16144.43
801.506	16167.94
801.837	16192.79
802.168	16061.05
802.499	16087.49
802.83	16010.65
803.161	15954.83
803.491	15938.79
803.822	15876.42
804.153	15876.87
804.483	15717.33
804.814	15644.79
805.145	15683.88
805.475	15735.41
805.805	15607.27
806.136	15675.29
806.466	15592.81
806.796	15623.32
807.126	15472.36
807.457	15442.53
807.787	15470.78
808.117	15352.82
808.447	15316.43
808.777	15468.97
809.107	15366.38
809.436	15344
809.766	15312.59
810.096	15261.07
810.426	15140.84
810.755	15173.84
811.085	15195.08
811.414	15104.91
811.744	15046.38
812.073	15038.02
812.403	15027.85
812.732	14899.04
813.061	14951.92
813.39	14907.18
813.719	14929.1
814.049	15010.9
814.378	14840.74
814.707	14836.9
815.036	14799.38
815.365	14733.4
815.693	14678.94
816.022	14667.18
816.351	14588.54
816.68	14513.06
817.008	14636.9
817.337	14410.92
817.665	14494.31
817.994	14513.97
818.322	14445.27
818.651	14444.14
818.979	14425.38
819.307	14370.47
819.636	14375.89
819.964	14418.15
820.292	14386.74
820.62	14334.09
820.948	14288.21
821.276	14376.35
821.604	14269.46
821.932	14256.8
822.259	14268.55
822.587	14306.29
822.915	14204.6
823.243	14346.06
823.57	14264.71
823.898	14305.61
824.225	14239.63
824.553	14292.51
824.88	14279.17
825.207	14336.8
825.535	14271.72
825.862	14269.91
826.189	14298.38
826.516	14416.57
826.843	14426.74
827.17	14333.18
827.497	14414.54
827.824	14324.82
828.151	14391.26
828.478	14337.7
828.805	14312.84
829.131	14280.08
829.458	14284.6
829.785	14233.07
830.111	14306.29
830.438	14338.38
830.764	14446.17
831.09	14379.06
831.417	14320.75
831.743	14354.2
832.069	14309.45
832.395	14287.99
832.722	14292.05
833.048	14296.8
833.374	14347.65
833.7	14195.11
834.026	14263.58
834.351	14228.78
834.677	14266.97
835.003	14158.05
835.329	14331.6
835.654	14201.66
835.98	14163.02
836.306	14121.66
836.631	14163.02
836.956	14161.66
837.282	14171.83
837.607	14016.35
837.932	14039.63
838.258	14055.68
838.583	14020.87
838.908	13945.17
839.233	13995.56
839.558	13980.42
839.883	13823.59
840.208	13815.23
840.533	13820.65
840.858	13854.32
841.182	13871.5
841.507	13855
841.832	13706.31
842.156	13719.64
842.481	13710.6
842.805	13682.58
843.13	13667.44
843.454	13658.62
843.778	13520.32
844.103	13569.36
844.427	13456.37
844.751	13573.65
845.075	13441.91
845.399	13462.7
845.723	13320.33
846.047	13332.98
846.371	13244.85
846.695	13277.62
847.019	13189.71
847.343	13043.27
847.666	13072.88
847.99	13008.92
848.313	13020.9
848.637	12856.16
848.96	12971.64
849.284	12863.84
849.607	12748.37
849.931	12729.83
850.254	12603.28
850.577	12654.58
850.9	12503.17
851.223	12528.48
851.546	12452.78
851.869	12316.51
852.192	12374.36
852.515	12338.21
852.838	12271.09
853.161	12279.45
853.483	12121.26
853.806	12183.86
854.129	12079.68
854.451	12151.09
854.774	12029.97
855.096	12000.59
855.419	11954.26
855.741	11972.34
856.063	11900.03
856.385	11872.91
856.708	11836.75
857.03	11738.9
857.352	11764.89
857.674	11697.55
857.996	11670.43
858.318	11582.29
858.64	11689.86
858.961	11560.37
859.283	11551.33
859.605	11471.56
859.926	11472.01
860.248	11532.8
860.57	11438.8
860.891	11464.11
861.212	11399.02
861.534	11297.33
861.855	11309.31
862.176	11301.4
862.498	11269.53
862.819	11287.16
863.14	11189.99
863.461	11221.85
863.782	11159.03
864.103	11224.79
864.424	11126.94
864.745	11074.06
865.065	11050.78
865.386	11024.79
865.707	11056.88
866.027	11083.78
866.348	10959.03
866.668	10931.24
866.989	11002.42
867.309	10936.66
867.63	10941.86
867.95	10921.97
868.27	10882.88
868.59	10885.14
868.91	10916.55
869.23	10893.72
869.55	10805.82
869.87	10822.31
870.19	10856.89
870.51	10818.47
870.83	10793.16
871.15	10706.16
871.469	10713.39
871.789	10726.5
872.109	10651.47
872.428	10596.78
872.748	10712.49
873.067	10693.5
873.386	10742.99
873.706	10657.35
874.025	10543
874.344	10549.55
874.663	10578.03
874.982	10556.11
875.301	10487.41
875.62	10454.64
875.939	10505.94
876.258	10482.44
876.577	10403.57
876.896	10429.33
877.214	10367.41
877.533	10423.23
877.852	10375.09
878.17	10374.19
878.489	10382.78
878.807	10343
879.125	10312.5
879.444	10309.79
879.762	10285.38
880.08	10364.47
880.398	10267.07
880.716	10222.56
881.034	10194.53
881.352	10215.78
881.67	10164.93
881.988	10214.42
882.306	10142.78
882.624	10073.41
882.941	10092.84
883.259	9947.76
883.577	10013.3
883.894	10023.47
884.212	9993.64
884.529	9978.27
884.846	9916.12
885.164	9971.72
885.481	9909.57
885.798	9919.74
886.115	9782.12
886.432	9818.72
886.75	9773.53
887.067	9801.78
887.383	9779.86
887.7	9724.94
888.017	9743.47
888.334	9690.82
888.651	9600.43
888.967	9628.22
889.284	9638.39
889.6	9640.65
889.917	9561.33
890.233	9531.27
890.55	9460.99
890.866	9461.22
891.182	9480.2
891.498	9416.93
891.815	9367.66
892.131	9360.88
892.447	9343.48
892.763	9322.69
893.079	9263.71
893.395	9216.93
893.71	9263.26
894.026	9205.41
894.342	9178.97
894.657	9073.43
894.973	9094.9
895.289	9041.12
895.604	9046.77
895.92	9015.81
896.235	8968.35
896.55	8931.74
896.865	8933.55
897.181	8935.36
897.496	8872.31
897.811	8820.33
898.126	8775.81
898.441	8756.61
898.756	8729.26
899.071	8702.14
899.386	8677.06
899.7	8573.56
900.015	8554.35
900.33	8534.92
900.644	8562.71
900.959	8533.11
901.273	8507.35
901.588	8468.93
901.902	8451.98
902.216	8371.31
902.531	8285.88
902.845	8350.51
903.159	8297.18
903.473	8241.37
903.787	8218.09
904.101	8159.79
904.415	8160.92
904.729	8098.54
905.042	8025.1
905.356	8104.65
905.67	8048.38
905.984	7983.97
906.297	8005.67
906.611	7944.42
906.924	7923.86
907.237	7890.19
907.551	7889.51
907.864	7859.68
908.177	7809.51
908.491	7763.64
908.804	7694.94
909.117	7720.47
909.43	7675.73
909.743	7701.27
910.056	7580.37
910.368	7574.72
910.681	7553.7
910.994	7522.06
911.307	7466.47
911.619	7403.87
911.932	7433.48
912.244	7312.12
912.557	7392.35
912.869	7304.21
913.181	7277.1
913.494	7260.83
913.806	7193.94
914.118	7148.51
914.43	7160.72
914.742	7184.44
915.054	7085.69
915.366	7082.07
915.678	7010.21
915.99	6994.62
916.302	6984.45
916.613	7001.85
916.925	6937.67
917.236	6907.16
917.548	6836.2
917.859	6864
918.171	6826.71
918.482	6779.71
918.794	6760.05
919.105	6777.9
919.416	6674.4
919.727	6693.16
920.038	6684.8
920.349	6590.56
920.66	6628.98
920.971	6584.91
921.282	6606.61
921.593	6473.5
921.903	6465.37
922.214	6451.36
922.525	6438.47
922.835	6411.81
923.146	6388.53
923.456	6394.63
923.767	6371.81
924.077	6299.95
924.387	6348.53
924.697	6285.94
925.008	6266.95
925.318	6235.77
925.628	6225.82
925.938	6192.83
926.248	6188.31
926.558	6122.32
926.867	6067.64
927.177	6050.69
927.487	6038.71
927.796	5944.25
928.106	5949.9
928.416	5983.12
928.725	5947.64
929.034	5858.15
929.344	5929.56
929.653	5901.09
929.962	5852.05
930.271	5818.15
930.581	5790.36
930.89	5802.79
931.199	5764.82
931.508	5718.72
931.817	5768.44
932.125	5711.26
932.434	5728.66
932.743	5645.5
933.051	5609.8
933.36	5669.46
933.669	5548.78
933.977	5544.94
934.286	5559.18
934.594	5543.36
934.902	5480.99
935.21	5464.72
935.519	5426.52
935.827	5413.19
936.135	5405.73
936.443	5316.02
936.751	5325.74
937.059	5328
937.367	5318.28
937.674	5290.71
937.982	5274.89
938.29	5240.77
938.597	5153.31
938.905	5156.25
939.213	5137.49
939.52	5146.08
939.827	5150.83
940.135	5093.65
940.442	5071.51
940.749	5046.42
941.056	5080.09
941.363	5015.91
941.67	4987.67
941.977	4956.71
942.284	4942.02
942.591	4932.3
942.898	4879.19
943.205	4909.02
943.511	4857.05
943.818	4869.02
944.125	4834.22
944.431	4833.09
944.738	4798.74
945.044	4757.62
945.35	4735.24
945.657	4730.5
945.963	4714.23
946.269	4671.97
946.575	4689.59
946.881	4687.79
947.187	4666.09
947.493	4619.09
947.799	4576.6
948.105	4546.77
948.41	4507.45
948.716	4550.84
949.022	4513.55
949.327	4461.58
949.633	4441.24
949.938	4397.17
950.244	4428.13
950.549	4383.84
950.854	4373.9
951.16	4323.5
951.465	4331.41
951.77	4335.48
952.075	4319.66
952.38	4253.45
952.685	4279.21
952.99	4226.33
953.294	4251.41
953.599	4184.52
953.904	4170.74
954.209	4180.68
954.513	4210.06
954.818	4115.6
955.122	4121.93
955.426	4109.72
955.731	4100.46
956.035	4033.11
956.339	4063.85
956.643	4070.63
956.948	3994.47
957.252	3986.79
957.556	3981.14
957.86	3990.18
958.163	3976.39
958.467	3942.95
958.771	3936.85
959.075	3923.29
959.378	3925.55
959.682	3910.18
959.985	3839.67
960.289	3849.16
960.592	3865.66
960.896	3831.54
961.199	3793.57
961.502	3807.36
961.805	3764.87
962.108	3694.82
962.411	3706.8
962.714	3720.81
963.017	3679.23
963.32	3709.28
963.623	3677.87
963.926	3696.85
964.228	3607.59
964.531	3633.12
964.833	3642.39
965.136	3563.07
965.438	3553.35
965.741	3568.04
966.043	3496.18
966.345	3526.69
966.648	3489.63
966.95	3507.25
967.252	3474.48
967.554	3468.38
967.856	3460.7
968.158	3391.55
968.46	3427.03
968.761	3423.86
969.063	3370.98
969.365	3353.81
969.666	3379.57
969.968	3315.85
970.269	3340.03
970.571	3318.33
970.872	3310.65
971.174	3267.71
971.475	3274.26
971.776	3271.55
972.077	3219.12
972.378	3251.21
972.679	3213.93
972.98	3234.27
973.281	3178.45
973.582	3208.28
973.883	3130.54
974.183	3159.24
974.484	3128.05
974.785	3142.74
975.085	3118.34
975.386	3114.27
975.686	3085.79
975.986	3069.3
976.287	3051.22
976.587	3022.75
976.887	3046.02
977.187	2990.88
977.487	2984.1
977.787	2960.37
978.087	2976.42
978.387	2953.82
978.687	2924.89
978.987	2959.47
979.286	2929.41
979.586	2926.25
979.885	2903.43
980.185	2862.07
980.484	2865.24
980.784	2846.7
981.083	2840.38
981.382	2816.2
981.682	2794.73
981.981	2795.18
982.28	2814.84
982.579	2769.42
982.878	2797.44
983.177	2810.55
983.475	2723.77
983.774	2765.8
984.073	2736.43
984.372	2700.27
984.67	2692.36
984.969	2667.05
985.267	2647.84
985.566	2617.56
985.864	2610.55
986.162	2602.42
986.461	2612.36
986.759	2603.77
987.057	2590.67
987.355	2555.64
987.653	2561.29
987.951	2556.99
988.249	2529.65
988.547	2527.39
988.844	2511.57
989.142	2521.06
989.44	2484
989.737	2462.53
990.035	2469.09
990.332	2469.54
990.63	2441.97
990.927	2437.45
991.224	2440.39
991.521	2425.47
991.819	2425.7
992.116	2412.82
992.413	2371.92
992.71	2374.4
993.006	2329.66
993.303	2354.29
993.6	2337.11
993.897	2351.35
994.193	2342.99
994.49	2350.9
994.787	2287.17
995.083	2260.28
995.379	2270.9
995.676	2248.08
995.972	2263.44
996.268	2240.17
996.565	2224.12
996.861	2204.69
997.157	2207.17
997.453	2205.59
997.749	2195.87
998.044	2207.63
998.34	2149.55
998.636	2146.38
998.932	2141.19
999.227	2133.5
999.523	2125.14
999.818	2120.17
1000.114	2076.1
1000.409	2073.62
1000.704	2076.33
1001	2058.02
1001.295	2047.4
1001.59	2054.18
1001.885	2033.84
1002.18	2004.69
1002.475	2020.29
1002.77	1987.74
1003.065	1986.84
1003.359	1990.46
1003.654	1933.06
1003.949	1950.23
1004.243	1937.35
1004.538	1908.2
1004.832	1931.25
1005.127	1916.56
1005.421	1895.54
1005.715	1882.66
1006.009	1877.01
1006.304	1855.54
1006.598	1860.74
1006.892	1840.86
1007.186	1823.68
1007.48	1823.68
1007.773	1829.1
1008.067	1818.26
1008.361	1786.85
1008.655	1780.52
1008.948	1776.68
1009.242	1778.03
1009.535	1752.95
1009.829	1741.42
1010.122	1723.34
1010.415	1714.31
1010.708	1689.67
1011.001	1717.47
1011.295	1674.98
1011.588	1703.91
1011.881	1676.79
1012.173	1685.61
1012.466	1648.09
1012.759	1686.06
1013.052	1620.97
1013.344	1641.54
1013.637	1618.71
1013.93	1626.62
1014.222	1602.67
1014.514	1619.84
1014.807	1589.79
1015.099	1600.64
1015.391	1579.17
1015.683	1560.86
1015.976	1522.67
1016.268	1517.25
1016.56	1511.37
1016.851	1519.28
1017.143	1526.06
1017.435	1517.25
1017.727	1474.76
1018.018	1495.78
1018.31	1458.94
1018.602	1468.66
1018.893	1438.38
1019.185	1437.02
1019.476	1435.44
1019.767	1429.34
1020.058	1411.94
1020.35	1399.51
1020.641	1396.12
1020.932	1389.57
1021.223	1369.68
1021.514	1383.24
1021.804	1382.56
1022.095	1334.65
1022.386	1336.24
1022.677	1347.76
1022.967	1307.76
1023.258	1331.26
1023.548	1283.81
1023.839	1305.28
1024.129	1299.63
1024.419	1286.75
1024.709	1251.04
1025	1252.17
1025.29	1249.23
1025.58	1231.38
1025.87	1261.21
1026.16	1251.94
1026.449	1221.44
1026.739	1217.37
1027.029	1215.56
1027.319	1215.56
1027.608	1186.41
1027.898	1193.87
1028.187	1167.65
1028.477	1151.38
1028.766	1176.92
1029.055	1166.52
1029.344	1168.56
1029.634	1136.69
1029.923	1143.25
1030.212	1125.62
1030.501	1110.03
1030.79	1134.21
1031.078	1098.73
1031.367	1093.76
1031.656	1090.59
1031.945	1081.33
1032.233	1080.2
1032.522	1075.23
1032.81	1058.96
1033.099	1065.28
1033.387	1051.95
1033.675	1069.35
1033.963	1037.94
1034.251	1047.66
1034.54	1034.55
1034.828	1033.42
1035.116	1011.27
1035.403	1008.11
1035.691	999.75
1035.979	971.73
1036.267	997.26
1036.554	979.86
1036.842	950.48
1037.129	987.09
1037.417	921.78
1037.704	955.91
1037.992	974.66
1038.279	902.8
1038.566	910.26
1038.853	910.26
1039.14	910.26
