Data from hue_200_FLMS001491_00011.txt Node
Date: Tue Feb 07 16:42:52 GMT 2017
User: dcchb
Spectrometer: FLMS00149
Trigger mode: 0
Integration Time (sec): 2.000000E-2
Scans to average: 10
Electric dark correction enabled: true
Nonlinearity correction enabled: false
Boxcar width: 0
XAxis mode: Wavelengths
Number of Pixels in Spectrum: 2048
>>>>>Begin Spectral Data<<<<<
341.393	-4.94
341.776	-4.94
342.16	-4.94
342.543	-60.31
342.927	-57.15
343.31	-72.74
343.693	-71.38
344.077	-69.35
344.46	-76.81
344.843	-49.91
345.226	-46.07
345.61	-28.67
345.993	-12.85
346.376	2.29
346.759	7.71
347.142	34.6
347.525	41.16
347.908	66.02
348.291	76.64
348.674	91.55
349.057	107.82
349.44	116.18
349.823	122.96
350.206	181.94
350.588	194.83
350.971	204.77
351.354	235.05
351.737	230.76
352.119	237.76
352.502	252.45
352.884	280.92
353.267	275.28
353.65	317.76
354.032	292.9
354.414	310.75
354.797	319.79
355.179	343.97
355.562	345.56
355.944	328.83
356.326	344.2
356.709	314.82
357.091	336.74
357.473	359.34
357.855	335.39
358.238	348.49
358.62	345.1
359.002	308.95
359.384	346.91
359.766	352.56
360.148	338.1
360.53	306.69
360.912	340.81
361.294	331.09
361.676	352.79
362.057	329.96
362.439	348.49
362.821	330.42
363.203	318.66
363.584	315.27
363.966	318.44
364.348	337.42
364.729	320.47
365.111	334.71
365.493	340.36
365.874	327.25
366.256	298.33
366.637	308.49
367.019	302.85
367.4	323.64
367.781	296.07
368.163	309.62
368.544	302.39
368.925	326.12
369.306	330.19
369.688	318.66
370.069	300.36
370.45	308.49
370.831	321.83
371.212	294.71
371.593	318.44
371.974	298.78
372.355	342.17
372.736	299.68
373.117	312.34
373.498	309.4
373.879	298.78
374.26	330.64
374.641	313.69
375.021	321.38
375.402	319.34
375.783	328.83
376.163	316.86
376.544	317.08
376.925	314.37
377.305	311.43
377.686	317.31
378.066	335.16
378.447	325.22
378.827	324.77
379.208	333.8
379.588	329.96
379.968	335.61
380.349	338.32
380.729	335.16
381.109	338.1
381.489	326.12
381.87	332.67
382.25	342.84
382.63	349.85
383.01	348.95
383.39	364.09
383.77	355.95
384.15	341.71
384.53	352.79
384.91	353.24
385.29	341.49
385.67	355.95
386.049	366.12
386.429	369.06
386.809	343.52
387.189	351.66
387.568	359.57
387.948	347.14
388.328	366.8
388.707	374.03
389.087	344.88
389.466	365.67
389.846	368.15
390.225	357.53
390.605	370.64
390.984	374.26
391.363	365.44
391.743	369.96
392.122	387.36
392.501	345.1
392.881	392.56
393.26	372.22
393.639	356.63
394.018	370.41
394.397	393.69
394.776	377.19
395.155	393.24
395.534	376.74
395.913	386.23
396.292	404.76
396.671	383.75
397.05	395.27
397.429	403.86
397.808	388.72
398.186	383.07
398.565	408.38
398.944	407.02
399.323	427.59
399.701	401.83
400.08	383.75
400.458	383.52
400.837	420.58
401.215	434.59
401.594	420.81
401.972	419
402.351	420.58
402.729	429.4
403.107	465.1
403.486	445.21
403.864	437.08
404.242	443.63
404.62	464.2
404.999	471.43
405.377	467.59
405.755	454.93
406.133	452.22
406.511	468.49
406.889	468.04
407.267	472.78
407.645	474.59
408.023	482.73
408.401	483.63
408.779	497.64
409.156	527.47
409.534	524.31
409.912	518.88
410.29	515.72
410.667	556.62
411.045	535.83
411.422	545.78
411.8	553.69
412.178	555.27
412.555	570.86
412.933	597.3
413.31	604.53
413.687	583.74
414.065	638.2
414.442	621.48
414.819	611.76
415.197	642.05
415.574	657.64
415.951	645.44
416.328	661.71
416.705	680.91
417.082	678.65
417.46	694.93
417.837	714.36
418.214	717.07
418.591	707.58
418.967	732.21
419.344	720.91
419.721	767.47
420.098	784.64
420.475	767.24
420.852	777.41
421.228	813.57
421.605	806.56
421.982	839.33
422.358	827.58
422.735	860.12
423.111	876.16
423.488	902.15
423.864	902.83
424.241	917.07
424.617	948.25
424.994	957.74
425.37	954.13
425.746	988.02
426.123	987.8
426.499	1025.31
426.875	1023.5
427.251	1035.93
427.627	1078.87
428.003	1082.94
428.379	1065.99
428.756	1087.01
429.132	1077.74
429.507	1121.58
429.883	1131.52
430.259	1155.93
430.635	1159.55
431.011	1158.87
431.387	1200.45
431.763	1215.59
432.138	1216.72
432.514	1252.88
432.89	1259.43
433.265	1283.61
433.641	1307.79
434.016	1348.02
434.392	1379.43
434.767	1377.17
435.143	1421.01
435.518	1425.08
435.894	1463.04
436.269	1464.4
436.644	1518.18
437.02	1558.18
437.395	1534.9
437.77	1583.04
438.145	1614.9
438.52	1628.69
438.895	1675.24
439.271	1652.41
439.646	1714.33
440.021	1733.54
440.395	1718.18
440.77	1799.53
441.145	1788.68
441.52	1836.14
441.895	1845.4
442.27	1897.61
442.645	1872.75
443.019	1872.52
443.394	1919.07
443.769	1938.28
444.143	1932.86
444.518	1987.09
444.892	1992.97
445.267	2018.05
445.641	2034.1
446.016	2081.33
446.39	2056.47
446.764	2091.72
447.139	2128.11
447.513	2086.98
447.887	2132.4
448.262	2134.44
448.636	2156.36
449.01	2194.77
449.384	2220.76
449.758	2221.66
450.132	2273.41
450.506	2255.56
450.88	2282.68
451.254	2326.97
451.628	2349.35
452.002	2387.54
452.376	2395.45
452.75	2418.04
453.123	2440.42
453.497	2435.22
453.871	2507.76
454.244	2535.55
454.618	2499.62
454.992	2578.94
455.365	2563.58
455.739	2678.83
456.112	2695.78
456.486	2661.43
456.859	2700.52
457.232	2808.32
457.606	2735.1
457.979	2758.37
458.352	2840.86
458.725	2896.45
459.099	2911.36
459.472	2915.21
459.845	2983
460.218	2998.14
460.591	3053.96
460.964	3042.43
461.337	3082.66
461.71	3176.67
462.083	3190.9
462.456	3211.24
462.829	3217.12
463.201	3293.5
463.574	3267.06
463.947	3313.84
464.32	3372.59
464.692	3418.24
465.065	3498.47
465.438	3488.98
465.81	3549.99
466.183	3554.51
466.555	3672.02
466.928	3717.22
467.3	3703.43
467.672	3737.33
468.045	3820.49
468.417	3836.54
468.789	3882.19
469.161	3931.22
469.534	3936.87
469.906	4073.59
470.278	4058.23
470.65	4131.45
471.022	4188.39
471.394	4327.82
471.766	4331.21
472.138	4354.49
472.51	4420.48
472.882	4522.4
473.253	4525.56
473.625	4627.7
473.997	4689.62
474.369	4693.92
474.74	4764.87
475.112	4846.23
475.484	4972.1
475.855	5037.18
476.227	5042.16
476.598	5173.23
476.97	5199.89
477.341	5264.75
477.713	5351.98
478.084	5428.13
478.455	5509.26
478.827	5570.5
479.198	5766.88
479.569	5698.41
479.94	5886.65
480.311	5904.05
480.682	6059.76
481.053	6193.99
481.424	6225.4
481.795	6232.18
482.166	6386.53
482.537	6441.44
482.908	6569.35
483.279	6668.78
483.65	6752.85
484.021	6840.53
484.391	6887.53
484.762	7008.88
485.133	7026.06
485.503	7171.82
485.874	7231.48
486.244	7280.06
486.615	7398.93
486.985	7449.78
487.356	7681.18
487.726	7639.6
488.097	7824.46
488.467	7868.75
488.837	7943.77
489.207	8049.31
489.578	8162.3
489.948	8175.18
490.318	8341.28
490.688	8337.21
491.058	8512.57
491.428	8519.13
491.798	8596.64
492.168	8712.34
492.538	8721.38
492.908	8804.32
493.278	8910.08
493.648	8983.52
494.017	8992.33
494.387	9084.31
494.757	9179.9
495.126	9307.13
495.496	9291.99
495.866	9353.45
496.235	9374.47
496.605	9491.08
496.974	9492.43
497.344	9609.72
497.713	9564.97
498.082	9614.46
498.452	9740.11
498.821	9684.97
499.19	9713.67
499.559	9842.03
499.928	9864.85
500.298	9886.1
500.667	10003.83
501.036	9931.97
501.405	10055.81
501.774	10046.09
502.143	10061.91
502.512	10088.8
502.88	10157.5
503.249	10162.47
503.618	10279.08
503.987	10254
504.356	10261.68
504.724	10265.07
505.093	10329.25
505.462	10318.4
505.83	10428.68
506.199	10427.55
506.567	10595
506.936	10527.66
507.304	10618.05
507.672	10538.96
508.041	10627.32
508.409	10602.69
508.777	10711.39
509.145	10792.51
509.514	10714.32
509.882	10809.24
510.25	10756.81
510.618	10790.48
510.986	10823.7
511.354	10908.22
511.722	10868.22
512.09	10998.16
512.458	10899.63
512.826	11021.89
513.193	10904.6
513.561	11004.03
513.929	11039.06
514.297	11037.48
514.664	11097.36
515.032	11056.23
515.4	11163.58
515.767	11133.52
516.135	11163.12
516.502	11071.6
516.869	11294.65
517.237	11223.69
517.604	11121.32
517.972	11248.09
518.339	11256.46
518.706	11181.2
519.073	11188.66
519.44	11279.05
519.808	11305.72
520.175	11271.82
520.542	11317.92
520.909	11343.23
521.276	11312.95
521.643	11427.75
522.009	11373.97
522.376	11404.7
522.743	11353.4
523.11	11444.02
523.477	11512.72
523.843	11449.44
524.21	11555.88
524.577	11489.9
524.943	11553.17
525.31	11495.09
525.676	11632.94
526.043	11614.41
526.409	11557.69
526.776	11676.56
527.142	11637.24
527.508	11604.92
527.874	11683.79
528.241	11670.91
528.607	11600.4
528.973	11620.29
529.339	11588.2
529.705	11594.98
530.071	11632.04
530.437	11620.29
530.803	11628.2
531.169	11610.34
531.535	11500.97
531.901	11514.75
532.267	11458.71
532.632	11471.82
532.998	11503
533.364	11449.67
533.73	11472.72
534.095	11497.13
534.461	11368.77
534.826	11432.5
535.192	11423.91
535.557	11474.98
535.923	11356.79
536.288	11284.25
536.653	11273.63
537.019	11228.21
537.384	11164.25
537.749	11220.75
538.114	11208.1
538.479	11067.99
538.845	11081.77
539.21	10995.22
539.575	11050.36
539.94	10933.3
540.305	11014.43
540.67	10919.97
541.034	10912.96
541.399	10827.99
541.764	10830.7
542.129	10739.41
542.494	10716.36
542.858	10692.4
543.223	10603.82
543.587	10649.47
543.952	10521.79
544.316	10566.76
544.681	10492.86
545.045	10465.74
545.41	10468
545.774	10389.13
546.138	10400.21
546.503	10263.49
546.867	10275.01
547.231	10260.78
547.595	10260.32
547.959	10211.74
548.324	10200.89
548.688	10091.06
549.052	9985.53
549.416	9982.59
549.779	9936.49
550.143	9957.05
550.507	9965.19
550.871	9943.95
551.235	9819.66
551.599	9904.17
551.962	9767.91
552.326	9689.94
552.689	9757.96
553.053	9609.04
553.417	9652.2
553.78	9656.72
554.143	9563.39
554.507	9587.12
554.87	9591.19
555.234	9534.24
555.597	9471.64
555.96	9483.39
556.323	9503.06
556.686	9436.16
557.05	9489.5
557.413	9397.52
557.776	9378.09
558.139	9393.91
558.502	9338.99
558.865	9308.26
559.228	9349.16
559.59	9343.29
559.953	9257.19
560.316	9313
560.679	9327.24
561.041	9362.49
561.404	9250.86
561.767	9322.95
562.129	9230.29
562.492	9259.22
562.854	9221.71
563.217	9188.04
563.579	9158.21
563.941	9179
564.304	9152.1
564.666	9197.98
565.028	9205.21
565.39	9239.11
565.753	9214.7
566.115	9216.51
566.477	9234.14
566.839	9206.11
567.201	9182.84
567.563	9223.74
567.925	9192.33
568.287	9272.78
568.648	9216.96
569.01	9264.64
569.372	9281.59
569.734	9204.31
570.095	9209.28
570.457	9271.65
570.819	9215.83
571.18	9237.3
571.542	9224.19
571.903	9226
572.265	9296.96
572.626	9384.87
572.987	9287.24
573.349	9188.04
573.71	9230.75
574.071	9301.7
574.432	9294.02
574.794	9318.88
575.155	9263.06
575.516	9243.4
575.877	9249.5
576.238	9242.05
576.599	9242.5
576.96	9315.72
577.32	9289.73
577.681	9248.82
578.042	9386.9
578.403	9223.97
578.763	9265.77
579.124	9311.2
579.485	9263.29
579.845	9336.28
580.206	9269.62
580.566	9273.91
580.927	9360.69
581.287	9333.79
581.648	9270.97
582.008	9293.57
582.368	9258.54
582.728	9307.58
583.089	9233.23
583.449	9255.6
583.809	9316.85
584.169	9275.72
584.529	9208.15
584.889	9329.05
585.249	9260.8
585.609	9164.76
585.969	9206.57
586.329	9169.5
586.688	9237.3
587.048	9190.75
587.408	9211.31
587.768	9136.29
588.127	9198.66
588.487	9147.36
588.846	9198.2
589.206	9129.05
589.565	9129.73
589.925	9129.28
590.284	9119.79
590.643	9176.51
591.003	9150.07
591.362	9188.04
591.721	9146.45
592.08	9145.32
592.44	9105.55
592.799	9128.6
593.158	9115.04
593.517	9148.94
593.876	9186.45
594.235	9122.73
594.593	9153.69
594.952	9082.95
595.311	9090.41
595.67	9107.13
596.029	9176.28
596.387	9118.88
596.746	9177.87
597.104	9032.79
597.463	8995.72
597.822	9093.12
598.18	9042.5
598.538	8992.33
598.897	9055.84
599.255	9010.19
599.613	9084.08
599.972	9085.44
600.33	9075.04
600.688	9051.09
601.046	8993.92
601.404	9105.55
601.762	9064.42
602.12	9101.94
602.478	9075.95
602.836	9079.79
603.194	8985.55
603.552	9100.58
603.91	8993.69
604.268	8954.6
604.625	8973.35
604.983	8991.88
605.341	8973.35
605.698	8957.98
606.056	9010.41
606.413	9015.38
606.771	9028.49
607.128	9060.13
607.485	8993.01
607.843	9046.57
608.2	8967.02
608.557	9125.44
608.914	9023.52
609.272	9052.9
609.629	9068.26
609.986	9116.4
610.343	9041.6
610.7	9073.01
611.057	9087.7
611.414	9124.76
611.771	9112.11
612.127	9137.42
612.484	9117.98
612.841	9143.97
613.198	9057.87
613.554	9079.34
613.911	9124.99
614.267	9173.8
614.624	9139.45
614.98	9131.31
615.337	9234.14
615.693	9170.63
616.05	9070.75
616.406	9197.3
616.762	9163.86
617.118	9153.91
617.475	9116.17
617.831	9223.29
618.187	9211.31
618.543	9227.36
618.899	9261.71
619.255	9198.2
619.611	9214.7
619.967	9244.76
620.323	9263.74
620.678	9207.47
621.034	9224.42
621.39	9169.96
621.746	9169.28
622.101	9271.2
622.457	9245.66
622.812	9229.84
623.168	9271.65
623.523	9171.99
623.879	9230.29
624.234	9173.57
624.589	9263.29
624.945	9244.76
625.3	9193.01
625.655	9243.18
626.01	9220.8
626.365	9235.72
626.72	9214.02
627.075	9199.11
627.43	9172.44
627.785	9169.96
628.14	9211.76
628.495	9193.68
628.85	9152.1
629.205	9047.93
629.559	9226.9
629.914	9133.35
630.269	9164.99
630.623	9168.37
630.978	9111.43
631.332	9128.15
631.687	9141.71
632.041	9051.32
632.396	9084.31
632.75	9112.33
633.104	9118.66
633.459	9001.83
633.813	8996.63
634.167	9023.52
634.521	9007.7
634.875	9026.01
635.229	9045.89
635.583	8976.52
635.937	8957.76
636.291	8930.19
636.645	8904.65
636.999	8952.11
637.352	8895.61
637.706	8919.12
638.06	8898.55
638.413	8907.82
638.767	8820.14
639.121	8944.43
639.474	8828.04
639.828	8800.02
640.181	8807.71
640.534	8891.32
640.888	8775.16
641.241	8753.24
641.594	8827.59
641.947	8772.68
642.301	8756.18
642.654	8761.15
643.007	8770.42
643.36	8769.29
643.713	8719.12
644.066	8722.28
644.419	8706.92
644.771	8650.2
645.124	8637.09
645.477	8625.56
645.83	8570.65
646.182	8497.21
646.535	8494.49
646.888	8543.98
647.24	8454.95
647.593	8542.18
647.945	8425.12
648.298	8442.07
648.65	8425.34
649.002	8337.44
649.355	8476.87
649.707	8462.18
650.059	8474.38
650.411	8552.35
650.763	8579.46
651.115	8717.31
651.467	8673.92
651.819	8657.88
652.171	8624.66
652.523	8678.22
652.875	8685.9
653.227	8597.09
653.578	8665.34
653.93	8680.93
654.282	8635.96
654.633	8617.43
654.985	8594.6
655.337	8659.24
655.688	8626.92
656.039	8695.39
656.391	8660.59
656.742	8588.5
657.094	8680.25
657.445	8649.74
657.796	8625.56
658.147	8566.81
658.498	8624.43
658.849	8675.51
659.2	8661.27
659.551	8596.86
659.902	8696.07
660.253	8651.1
660.604	8744.43
660.955	8647.26
661.306	8637.09
661.656	8663.53
662.007	8714.15
662.358	8678.9
662.708	8760.7
663.059	8702.17
663.409	8658.56
663.76	8702.85
664.11	8706.01
664.461	8739.46
664.811	8691.33
665.161	8709.63
665.511	8662.63
665.862	8741.72
666.212	8790.08
666.562	8743.3
666.912	8762.96
667.262	8735.84
667.612	8750.08
667.962	8737.88
668.312	8707.14
668.662	8760.7
669.011	8743.08
669.361	8726.35
669.711	8794.15
670.06	8693.58
670.41	8671.21
670.76	8672.34
671.109	8754.83
671.459	8689.74
671.808	8660.14
672.157	8777.88
672.507	8686.81
672.856	8650.87
673.205	8632.34
673.554	8715.28
673.904	8620.59
674.253	8732
674.602	8677.99
674.951	8501.27
675.3	8447.49
675.649	8578.33
675.998	8631.21
676.346	8618.11
676.695	8614.94
677.044	8601.38
677.393	8615.17
677.741	8629.86
678.09	8529.75
678.438	8507.83
678.787	8540.37
679.135	8538.33
679.484	8476.87
679.832	8484.55
680.181	8485.23
680.529	8466.7
680.877	8440.26
681.225	8386.93
681.573	8464.21
681.922	8375.85
682.27	8357.77
682.618	8421.28
682.966	8375.4
683.314	8378.57
683.661	8369.07
684.009	8262.86
684.357	8246.82
684.705	8248.62
685.053	8257.44
685.4	8226.93
685.748	8218.12
686.095	8229.42
686.443	8127.95
686.79	8178.57
687.138	8186.03
687.485	8179.7
687.832	8125.92
688.18	8082.53
688.527	8062.42
688.874	8043.21
689.221	8002.53
689.568	7974.51
689.915	8020.16
690.262	7975.64
690.609	7952.14
690.956	7915.07
691.303	7911.23
691.65	7817.45
691.997	7832.59
692.344	7799.6
692.69	7757.34
693.037	7782.2
693.383	7691.13
693.73	7710.79
694.077	7666.04
694.423	7632.82
694.769	7619.49
695.116	7606.61
695.462	7538.81
695.808	7526.38
696.155	7546.04
696.501	7452.26
696.847	7469.89
697.193	7419.49
697.539	7461.3
697.885	7340.85
698.231	7324.58
698.577	7306.5
698.923	7321.87
699.269	7236.67
699.614	7257.69
699.96	7229.89
700.306	7195.55
700.651	7150.57
700.997	7145.83
701.342	7114.19
701.688	7102.89
702.033	7101.54
702.379	7041.43
702.724	7009.11
703.069	7031.48
703.415	6956.46
703.76	6917.13
704.105	6944.03
704.45	6844.82
704.795	6871.49
705.14	6836.23
705.485	6893.86
705.83	6786.97
706.175	6826.52
706.52	6807.76
706.865	6778.16
707.209	6777.93
707.554	6714.43
707.899	6708.33
708.243	6618.39
708.588	6649.12
708.932	6643.24
709.277	6631.27
709.621	6593.53
709.966	6583.13
710.31	6592.85
710.654	6510.82
710.998	6565.96
711.342	6513.3
711.687	6475.79
712.031	6449.8
712.375	6471.95
712.719	6448.67
713.063	6476.24
713.407	6455.68
713.75	6388.11
714.094	6380.43
714.438	6367.77
714.782	6428.33
715.125	6338.84
715.469	6354.21
715.812	6303.82
716.156	6280.54
716.499	6275.34
716.843	6260.2
717.186	6292.52
717.53	6260.43
717.873	6259.98
718.216	6211.16
718.559	6232.41
718.902	6171.84
719.246	6146.76
719.589	6164.16
719.932	6197.38
720.275	6178.17
720.617	6191.5
720.96	6205.29
721.303	6143.82
721.646	6142.47
721.989	6138.17
722.331	6104.5
722.674	6162.8
723.016	6154.22
723.359	6147.66
723.701	6145.63
724.044	6103.82
724.386	6097.95
724.729	6110.6
725.071	6063.82
725.413	6077.16
725.755	6118.06
726.097	6056.59
726.439	6057.95
726.782	6069.02
727.124	6061.11
727.465	6066.31
727.807	6078.96
728.149	6039.64
728.491	6083.48
728.833	6045.74
729.175	6055.01
729.516	6042.81
729.858	6076.48
730.199	6075.57
730.541	6041
730.882	6009.81
731.224	6037.61
731.565	6028.34
731.906	6038.06
732.248	5999.87
732.589	6023.37
732.93	5988.35
733.271	6015.69
733.612	6033.54
733.953	6027.44
734.294	6041.45
734.635	6021.34
734.976	6058.17
735.317	6033.09
735.658	6057.72
735.999	6025.86
736.339	6005.75
736.68	6085.52
737.021	6026.31
737.361	6063.82
737.702	6126.87
738.042	6073.31
738.383	6102.47
738.723	6084.61
739.063	6056.14
739.404	6118.74
739.744	6106.53
740.084	6087.78
740.424	6177.27
740.764	6142.92
741.104	6080.77
741.444	6187.89
741.784	6175.01
742.124	6207.1
742.464	6249.58
742.804	6188.34
743.143	6222.24
743.483	6258.85
743.823	6293.2
744.162	6284.61
744.502	6323.25
744.841	6358.73
745.181	6349.69
745.52	6351.73
745.86	6441.89
746.199	6483.93
746.538	6541.1
746.877	6571.38
747.216	6631.72
747.556	6624.71
747.895	6641.66
748.234	6737.48
748.573	6733.41
748.911	6833.29
749.25	6845.72
749.589	6945.83
749.928	7008.21
750.267	7071.03
750.605	7167.3
750.944	7194.42
751.283	7236.67
751.621	7364.13
751.96	7395.09
752.298	7552.15
752.636	7641.64
752.975	7734.29
753.313	7838.69
753.651	7918.24
753.989	7995.52
754.327	8100.61
754.666	8217.89
755.004	8249.98
755.342	8520.93
755.679	8586.7
756.017	8697.2
756.355	8844.77
756.693	9000.47
757.031	9145.78
757.368	9205.44
757.706	9452.89
758.044	9544.41
758.381	9703.05
758.719	9871.86
759.056	10053.1
759.394	10157.73
759.731	10250.38
760.068	10465.06
760.405	10564.27
760.743	10772.4
761.08	10965.84
761.417	11074.77
761.754	11265.27
762.091	11455.32
762.428	11560.18
762.765	11709.32
763.102	11944.8
763.438	12073.38
763.775	12242.87
764.112	12460.72
764.449	12658.68
764.785	12750.2
765.122	12937.77
765.458	13043.53
765.795	13259.11
766.131	13422.73
766.467	13451.88
766.804	13573.68
767.14	13784.52
767.476	14070.62
767.812	14100
768.148	14319.88
768.485	14373.66
768.821	14486.43
769.157	14614.33
769.492	14769.13
769.828	14878.06
770.164	14974.55
770.5	15171.38
770.836	15233.98
771.171	15242.11
771.507	15418.38
771.842	15425.39
772.178	15515.55
772.513	15684.59
772.849	15858.14
773.184	15811.82
773.519	15962.77
773.855	16036.22
774.19	16040.06
774.525	16228.3
774.86	16276.44
775.195	16339.49
775.53	16457.9
775.865	16410.44
776.2	16421.52
776.535	16494.96
776.87	16507.84
777.205	16549.65
777.539	16628.07
777.874	16787.61
778.209	16703.32
778.543	16742.41
778.878	16711.91
779.212	16845.69
779.547	16821.96
779.881	16981.05
780.215	16929.3
780.55	17069.86
780.884	16911.67
781.218	17043.42
781.552	17029.86
781.886	16987.6
782.22	16962.75
782.554	16998.45
782.888	16863.54
783.222	16986.25
783.556	17001.16
783.889	17020.37
784.223	16847.04
784.557	16884.1
784.89	16950.54
785.224	16842.3
785.557	16892.01
785.891	16862.64
786.224	16875.97
786.558	16919.58
786.891	16835.52
787.224	16883.65
787.557	16793.03
787.891	16739.02
788.224	16835.29
788.557	16776.54
788.89	16905.35
789.223	16775.41
789.556	16734.05
789.888	16728.63
790.221	16697.44
790.554	16640.72
790.887	16666.48
791.219	16596.88
791.552	16613.15
791.884	16602.3
792.217	16535.19
792.549	16555.07
792.882	16470.1
793.214	16402.76
793.546	16532.47
793.879	16373.61
794.211	16315.76
794.543	16409.31
794.875	16253.39
795.207	16384.68
795.539	16341.07
795.871	16341.75
796.203	16210.45
796.535	16148.76
796.867	16137.23
797.198	16111.02
797.53	16055.2
797.862	15986.05
798.193	16123.45
798.525	15915.54
798.856	16017.91
799.188	15825.83
799.519	15827.41
799.85	15736.11
800.182	15741.08
800.513	15774.3
800.844	15631.03
801.175	15633.97
801.506	15683.23
801.837	15628.09
802.168	15602.56
802.499	15627.19
802.83	15551.48
803.161	15539.05
803.491	15543.57
803.822	15585.16
804.153	15450.92
804.483	15303.35
804.814	15314.2
805.145	15279.17
805.475	15286.41
805.805	15167.31
806.136	15185.17
806.466	15196.46
806.796	15185.39
807.126	15081.21
807.457	15045.06
807.787	15099.29
808.117	14977.71
808.447	15006.41
808.777	14962.35
809.107	14908.56
809.436	14873.31
809.766	14897.04
810.096	14826.76
810.426	14713.77
810.755	14740.21
811.085	14756.25
811.414	14700.88
811.744	14695.69
812.073	14579.98
812.403	14596.93
812.732	14557.39
813.061	14527.78
813.39	14437.84
813.719	14508.35
814.049	14563.49
814.378	14465.41
814.707	14448.24
815.036	14381.57
815.365	14330.27
815.693	14269.94
816.022	14335.24
816.351	14211.86
816.68	14205.76
817.008	14248.24
817.337	14074.91
817.665	14036.04
817.994	14129.15
818.322	14149.03
818.651	13992.43
818.979	13939.55
819.307	14066.33
819.636	14084.86
819.964	13925.76
820.292	13987.01
820.62	14052.31
820.948	13882.15
821.276	13994.46
821.604	13890.96
821.932	13925.31
822.259	13926.44
822.587	13935.71
822.915	13881.25
823.243	13919.66
823.57	13897.74
823.898	13955.14
824.225	13922.83
824.553	13867.91
824.88	13910.17
825.207	14001.92
825.535	13959.66
825.862	13930.06
826.189	13876.27
826.516	13981.81
826.843	13913.33
827.17	14063.39
827.497	13941.36
827.824	14084.86
828.151	13958.53
828.478	13926.89
828.805	14007.12
829.131	13957.18
829.458	13889.83
829.785	13917.63
830.111	13934.13
830.438	14003.5
830.764	13961.02
831.09	14056.16
831.417	13936.61
831.743	13984.52
832.069	13934.58
832.395	13942.49
832.722	13990.39
833.048	13906.33
833.374	13948.81
833.7	13838.99
834.026	13924.86
834.351	13925.31
834.677	13854.13
835.003	13884.41
835.329	13810.96
835.654	13900.91
835.98	13708.82
836.306	13770.29
836.631	13679.89
836.956	13861.13
837.282	13785.65
837.607	13729.38
837.932	13674.47
838.258	13727.35
838.583	13648.71
838.908	13653.68
839.233	13715.15
839.558	13576.85
839.883	13536.62
840.208	13493.46
840.533	13582.27
840.858	13429.51
841.182	13510.41
841.507	13503.63
841.832	13436.51
842.156	13457.3
842.481	13429.51
842.805	13307.7
843.13	13319
843.454	13342.28
843.778	13195.39
844.103	13208.49
844.427	13218.44
844.751	13220.02
845.075	13057.09
845.399	13044.88
845.723	13027.93
846.047	13070.65
846.371	12982.51
846.695	12943.64
847.019	12928.73
847.343	12787.04
847.666	12778.68
847.99	12644.89
848.313	12656.87
848.637	12652.58
848.96	12598.57
849.284	12559.25
849.607	12435.18
849.931	12435.18
850.254	12373.26
850.577	12267.5
850.9	12205.36
851.223	12208.97
851.546	12152.7
851.869	12076.09
852.192	12107.96
852.515	11942.99
852.838	11962.88
853.161	11918.13
853.483	11900.96
853.806	11831.13
854.129	11860.73
854.451	11652.15
854.774	11718.36
855.096	11658.7
855.419	11697.57
855.741	11615.77
856.063	11550.01
856.385	11493.74
856.708	11491.03
857.03	11383.68
857.352	11462.78
857.674	11418.26
857.996	11420.29
858.318	11326.28
858.64	11363.57
858.961	11254.2
859.283	11270.24
859.605	11188.21
859.926	11246.74
860.248	11271.82
860.57	11126.29
860.891	11145.05
861.212	11079.28
861.534	11020.76
861.855	11032.05
862.176	11032.28
862.498	11011.26
862.819	10992.96
863.14	10934.88
863.461	10958.16
863.782	10920.19
864.103	10903.92
864.424	10858.95
864.745	10871.38
865.065	10727.2
865.386	10817.14
865.707	10798.16
866.027	10696.7
866.348	10725.4
866.668	10793.19
866.989	10717.03
867.309	10691.27
867.63	10696.92
867.95	10646.75
868.27	10597.49
868.59	10566.98
868.91	10609.69
869.23	10510.71
869.55	10488.57
869.87	10559.75
870.19	10574.67
870.51	10662.35
870.83	10551.84
871.15	10570.15
871.469	10560.2
871.789	10500.77
872.109	10531.5
872.428	10401.11
872.748	10460.09
873.067	10477.04
873.386	10443.82
873.706	10371.51
874.025	10329.02
874.344	10401.11
874.663	10322.24
874.982	10308.46
875.301	10345.07
875.62	10290.38
875.939	10291.06
876.258	10275.24
876.577	10240.66
876.896	10233.88
877.214	10166.09
877.533	10156.6
877.852	10162.47
878.17	10132.87
878.489	10126.99
878.807	10112.53
879.125	10127.22
879.444	10114.79
879.762	10081.8
880.08	10052.65
880.398	9999.77
880.716	10051.97
881.034	9898.98
881.352	10027.79
881.67	9952.08
881.988	9910.28
882.306	9909.6
882.624	9881.8
882.941	9792.77
883.259	9806.78
883.577	9822.82
883.894	9794.12
884.212	9792.77
884.529	9705.31
884.846	9711.64
885.164	9720.9
885.481	9610.17
885.798	9681.58
886.115	9636.84
886.432	9565.65
886.75	9538.53
887.067	9583.73
887.383	9541.02
887.7	9548.93
888.017	9428.25
888.334	9491.53
888.651	9489.72
888.967	9426.45
889.284	9334.92
889.6	9353.45
889.917	9333.34
890.233	9237.3
890.55	9324.98
890.866	9280.91
891.182	9252.44
891.498	9202.27
891.815	9123.4
892.131	9139
892.447	9105.33
892.763	9099.9
893.079	9072.56
893.395	9043.41
893.71	9072.33
894.026	9008.15
894.342	8971.54
894.657	8967.25
894.973	8872.34
895.289	8859
895.604	8859.23
895.92	8850.19
896.235	8732.45
896.55	8780.81
896.865	8715.96
897.181	8731.78
897.496	8728.61
897.811	8646.81
898.126	8553.48
898.441	8623.53
898.756	8529.07
899.071	8483.2
899.386	8532.69
899.7	8442.07
900.015	8409.07
900.33	8406.81
900.644	8358
900.959	8366.81
901.273	8286.59
901.588	8191
901.902	8234.39
902.216	8179.02
902.531	8212.92
902.845	8092.7
903.159	8088.63
903.473	8009.31
903.787	8009.08
904.101	7979.48
904.415	7878.24
904.729	7948.07
905.042	7893.15
905.356	7885.92
905.67	7901.74
905.984	7846.15
906.297	7809.77
906.611	7758.47
906.924	7756.43
907.237	7751.24
907.551	7667.4
907.864	7612.94
908.177	7671.01
908.491	7627.4
908.804	7558.02
909.117	7511.47
909.43	7486.39
909.743	7405.03
910.056	7431.92
910.368	7405.48
910.681	7376.33
910.994	7338.59
911.307	7385.82
911.619	7283.68
911.932	7317.12
912.244	7244.36
912.557	7184.47
912.869	7154.87
913.181	7146.06
913.494	7114.19
913.806	7092.72
914.118	7035.78
914.43	6995.1
914.742	6972.5
915.054	6956.68
915.366	6938.15
915.678	6891.15
915.99	6872.84
916.302	6835.33
916.613	6822.9
916.925	6815.44
917.236	6771.15
917.548	6742
917.859	6724.37
918.171	6645.28
918.482	6682.56
918.794	6643.92
919.105	6647.31
919.416	6568.9
919.727	6541.55
920.038	6576.58
920.349	6486.64
920.66	6475.79
920.971	6425.85
921.282	6472.17
921.593	6364.38
921.903	6340.43
922.214	6376.13
922.525	6363.02
922.835	6271.05
923.146	6215.46
923.456	6282.12
923.767	6185.4
924.077	6251.84
924.387	6130.26
924.697	6144.95
925.008	6102.92
925.318	6081.68
925.628	6084.61
925.938	6093.43
926.248	5969.59
926.558	5998.06
926.867	5934.34
927.177	5950.38
927.487	5976.82
927.796	5884.17
928.106	5898.86
928.416	5786.54
928.725	5807.56
929.034	5752.19
929.344	5789.48
929.653	5749.03
929.962	5741.8
930.271	5680.1
930.581	5698.41
930.89	5608.92
931.199	5640.33
931.508	5569.15
931.817	5693.89
932.125	5578.64
932.434	5561.92
932.743	5476.72
933.051	5511.97
933.36	5437.63
933.669	5436.5
933.977	5445.76
934.286	5432.43
934.594	5486.21
934.902	5346.55
935.21	5371.86
935.519	5342.71
935.827	5312.88
936.135	5271.75
936.443	5263.62
936.751	5221.81
937.059	5207.35
937.367	5187.01
937.674	5193.34
937.982	5165.32
938.29	5142.27
938.597	5094.81
938.905	5099.56
939.213	5036.96
939.52	5016.85
939.827	5074.7
940.135	5013.91
940.442	4997.64
940.749	4991.08
941.056	4992.44
941.363	4883.74
941.67	4888.04
941.977	4842.61
942.284	4822.05
942.591	4844.65
942.898	4824.31
943.205	4812.33
943.511	4798.09
943.818	4776.85
944.125	4700.47
944.431	4669.06
944.738	4659.11
945.044	4696.63
945.35	4658.21
945.657	4659.79
945.963	4614.37
946.269	4587.48
946.575	4601.72
946.881	4527.14
947.187	4550.42
947.493	4471.1
947.799	4543.19
948.105	4457.99
948.41	4446.69
948.716	4440.14
949.022	4397.65
949.327	4401.04
949.633	4434.26
949.938	4366.92
950.244	4353.13
950.549	4384.77
950.854	4300.03
951.16	4272.91
951.465	4272.91
951.77	4205.12
952.075	4229.3
952.38	4253.93
952.685	4211.22
952.99	4218.67
953.294	4142.74
953.599	4126.25
953.904	4111.78
954.209	4061.16
954.513	4155.4
954.818	4075.4
955.122	4094.61
955.426	4039.92
955.731	4024.33
956.035	3992.92
956.339	4000.15
956.643	4044.44
956.948	3966.7
957.252	3934.84
957.556	3938.23
957.86	3936.65
958.163	3924.44
958.467	3847.38
958.771	3870.66
959.075	3884.9
959.378	3836.76
959.682	3811.45
959.985	3794.5
960.289	3767.84
960.592	3763.55
960.896	3749.53
961.199	3749.53
961.502	3703.43
961.805	3705.02
962.108	3662.76
962.411	3657.56
962.714	3657.56
963.017	3641.29
963.32	3609.42
963.623	3609.65
963.926	3606.26
964.228	3573.49
964.531	3547.96
964.833	3525.59
965.136	3500.73
965.438	3531.01
965.741	3472.03
966.043	3488.75
966.345	3452.37
966.648	3461.86
966.95	3453.95
967.252	3403.55
967.554	3376.21
967.856	3368.98
968.158	3348.41
968.46	3378.02
968.761	3335.31
969.063	3337.34
969.365	3304.12
969.666	3354.52
969.968	3287.63
970.269	3251.24
970.571	3261.41
970.872	3240.17
971.174	3254.18
971.475	3234.75
971.776	3221.41
972.077	3211.7
972.378	3175.09
972.679	3192.26
972.98	3132.83
973.281	3121.3
973.582	3113.84
973.883	3110.23
974.183	3103.22
974.484	3128.76
974.785	3087.18
975.085	3038.82
975.386	3067.07
975.686	2986.16
975.986	3040.85
976.287	3030.46
976.587	3014.86
976.887	2942.55
977.187	2959.27
977.487	2960.63
977.787	2983
978.087	2933.96
978.387	2915.66
978.687	2882.44
978.987	2905.49
979.286	2856
979.586	2877.24
979.885	2839.95
980.185	2851.03
980.484	2816
980.784	2816
981.083	2783.91
981.382	2790.24
981.682	2761.54
981.981	2742.56
982.28	2751.14
982.579	2762.44
982.878	2705.27
983.177	2709.56
983.475	2695.55
983.774	2673.86
984.073	2674.53
984.372	2644.03
984.67	2632.05
984.969	2657.13
985.267	2656.68
985.566	2613.52
985.864	2602.67
986.162	2573.07
986.461	2577.36
986.759	2556.12
987.057	2557.7
987.355	2540.3
987.653	2526.06
987.951	2503.69
988.249	2495.33
988.547	2531.49
988.844	2510.7
989.142	2491.94
989.44	2446.97
989.737	2452.17
990.035	2419.63
990.332	2449.68
990.63	2424.82
990.927	2430.92
991.224	2434.77
991.521	2386.86
991.819	2388.44
992.116	2351.38
992.413	2345.73
992.71	2365.84
993.006	2336.01
993.303	2350.93
993.6	2312.06
993.897	2289.01
994.193	2277.03
994.49	2239.97
994.787	2264.83
995.083	2252.4
995.379	2203.81
995.676	2214.66
995.972	2216.69
996.268	2220.53
996.565	2206.3
996.861	2209.01
997.157	2199.29
997.453	2154.77
997.749	2160.2
998.044	2137.15
998.34	2141.67
998.636	2151.84
998.932	2137.15
999.227	2129.01
999.523	2075.23
999.818	2072.74
1000.114	2098.28
1000.409	2061.22
1000.704	2057.83
1001	2016.25
1001.295	2018.96
1001.59	2057.83
1001.885	2014.21
1002.18	2005.17
1002.475	1954.1
1002.77	1965.4
1003.065	1991.39
1003.359	1988.9
1003.654	1950.03
1003.949	1942.8
1004.243	1927.44
1004.538	1882.01
1004.832	1898.96
1005.127	1892.86
1005.421	1890.83
1005.715	1855.12
1006.009	1872.07
1006.304	1821.9
1006.598	1842.47
1006.892	1847.44
1007.186	1825.74
1007.48	1786.2
1007.773	1778.96
1008.067	1799.53
1008.361	1783.03
1008.655	1795.24
1008.948	1746.42
1009.242	1745.75
1009.535	1715.24
1009.829	1701
1010.122	1694.67
1010.415	1736.03
1010.708	1689.7
1011.001	1690.83
1011.295	1668.91
1011.588	1679.98
1011.881	1633.43
1012.173	1675.69
1012.466	1625.97
1012.759	1601.79
1013.052	1637.27
1013.344	1636.6
1013.637	1625.3
1013.93	1578.29
1014.222	1566.54
1014.514	1555.47
1014.807	1537.39
1015.099	1564.96
1015.391	1538.07
1015.683	1543.04
1015.976	1540.55
1016.268	1517.28
1016.56	1520.67
1016.851	1509.37
1017.143	1465.98
1017.435	1499.65
1017.727	1486.99
1018.018	1461.68
1018.31	1451.97
1018.602	1422.59
1018.893	1444.96
1019.185	1462.81
1019.476	1432.53
1019.767	1432.76
1020.058	1421.69
1020.35	1389.37
1020.641	1380.1
1020.932	1388.47
1021.223	1372.2
1021.514	1372.2
1021.804	1308.92
1022.095	1362.7
1022.386	1368.35
1022.677	1367.9
1022.967	1313.44
1023.258	1316.83
1023.548	1304.85
1023.839	1316.15
1024.129	1275.02
1024.419	1291.29
1024.709	1264.18
1025	1261.01
1025.29	1256.27
1025.58	1237.28
1025.87	1235.48
1026.16	1249.49
1026.449	1215.59
1026.739	1210.39
1027.029	1207.23
1027.319	1190.51
1027.608	1204.74
1027.898	1192.77
1028.187	1187.57
1028.477	1149.15
1028.766	1157.06
1029.055	1150.28
1029.344	1147.34
1029.634	1164.07
1029.923	1122.71
1030.212	1148.7
1030.501	1110.51
1030.79	1109.83
1031.078	1096.72
1031.367	1081.36
1031.656	1093.33
1031.945	1080.23
1032.233	1059.44
1032.522	1064.18
1032.81	1059.66
1033.099	1063.96
1033.387	1043.16
1033.675	1045.42
1033.963	1004.3
1034.251	1037.52
1034.54	1014.24
1034.828	996.39
1035.116	1000
1035.403	997.97
1035.691	990.06
1035.979	969.95
1036.267	973.79
1036.554	995.03
1036.842	981.25
1037.129	948.25
1037.417	924.52
1037.704	961.36
1037.992	928.82
1038.279	950.51
1038.566	943.28
1038.853	943.28
1039.14	943.28
