Data from hue_340_FLMS001491_54.txt Node
Date: Mon Feb 06 15:43:18 GMT 2017
User: dcchb
Spectrometer: FLMS00149
Trigger mode: 0
Integration Time (sec): 2.000000E-2
Scans to average: 10
Electric dark correction enabled: true
Nonlinearity correction enabled: false
Boxcar width: 0
XAxis mode: Wavelengths
Number of Pixels in Spectrum: 2048
>>>>>Begin Spectral Data<<<<<
341.393	-3.36
341.776	-3.36
342.16	-3.36
342.543	-73.19
342.927	-55.34
343.31	-73.19
343.693	-74.77
344.077	-71.83
344.46	-55.11
344.843	-58.73
345.226	-44.04
345.61	-31.61
345.993	-24.6
346.376	-8.56
346.759	23.53
347.142	39.35
347.525	60.14
347.908	58.78
348.291	77.54
348.674	81.61
349.057	101.49
349.44	135.39
349.823	130.42
350.206	167.71
350.588	201.15
350.971	200.47
351.354	252.9
351.737	209.06
352.119	262.85
352.502	260.59
352.884	287.93
353.267	266.01
353.65	300.81
354.032	274.37
354.414	303.07
354.797	308.49
355.179	317.31
355.562	321.6
355.944	314.6
356.326	316.4
356.709	332.45
357.091	327.03
357.473	326.57
357.855	337.65
358.238	336.74
358.62	326.12
359.002	336.97
359.384	325.9
359.766	347.82
360.148	336.52
360.53	339.91
360.912	331.32
361.294	328.83
361.676	325.9
362.057	331.32
362.439	328.61
362.821	325.44
363.203	306.46
363.584	293.81
363.966	336.29
364.348	303.98
364.729	320.92
365.111	326.8
365.493	330.64
365.874	286.8
366.256	272.79
366.637	294.03
367.019	305.1
367.4	310.3
367.781	297.42
368.163	321.38
368.544	315.95
368.925	320.92
369.306	316.63
369.688	320.47
370.069	301.94
370.45	317.76
370.831	299.91
371.212	322.73
371.593	308.27
371.974	298.33
372.355	313.24
372.736	308.49
373.117	320.92
373.498	316.86
373.879	297.87
374.26	325.67
374.641	324.31
375.021	319.12
375.402	315.73
375.783	331.32
376.163	310.3
376.544	316.4
376.925	307.14
377.305	329.96
377.686	305.33
378.066	312.79
378.447	330.87
378.827	306.23
379.208	336.52
379.588	315.5
379.968	336.29
380.349	311.66
380.729	330.87
381.109	331.54
381.489	313.69
381.87	330.42
382.25	333.8
382.63	329.74
383.01	347.82
383.39	310.53
383.77	339.45
384.15	332.45
384.53	326.57
384.91	334.71
385.29	332
385.67	321.15
386.049	325.22
386.429	335.16
386.809	336.29
387.189	339.91
387.568	342.39
387.948	339.91
388.328	325.67
388.707	347.59
389.087	356.63
389.466	350.08
389.846	361.37
390.225	343.97
390.605	338.55
390.984	360.02
391.363	337.87
391.743	356.4
392.122	350.98
392.501	352.56
392.881	354.14
393.26	373.13
393.639	369.74
394.018	356.63
394.397	354.82
394.776	359.79
395.155	346.01
395.534	381.71
395.913	376.97
396.292	373.35
396.671	379
397.05	369.06
397.429	373.8
397.808	384.2
398.186	370.87
398.565	388.72
398.944	362.28
399.323	370.64
399.701	360.47
400.08	387.14
400.458	385.55
400.837	388.94
401.215	397.31
401.594	384.2
401.972	386.01
402.351	383.97
402.729	375.84
403.107	383.3
403.486	400.7
403.864	392.11
404.242	395.5
404.62	376.74
404.999	422.16
405.377	410.19
405.755	421.26
406.133	428.72
406.511	399.57
406.889	410.41
407.267	417.42
407.645	402.05
408.023	427.81
408.401	431.66
408.779	421.71
409.156	435.72
409.534	425.55
409.912	427.14
410.29	443.18
410.667	455.38
411.045	454.48
411.422	461.03
411.8	437.98
412.178	446.57
412.555	472.78
412.933	458.77
413.31	457.64
413.687	468.04
414.065	477.08
414.442	490.18
414.819	485.21
415.197	490.86
415.574	465.55
415.951	492.44
416.328	510.07
416.705	507.81
417.082	511.43
417.46	536.74
417.837	530.41
418.214	519.34
418.591	521.37
418.967	539.22
419.344	539.9
419.721	543.52
420.098	564.31
420.475	559.79
420.852	541.93
421.228	557.75
421.605	562.95
421.982	554.36
422.358	576.51
422.735	592.56
423.111	578.09
423.488	586.45
423.864	590.97
424.241	583.06
424.617	604.08
424.994	595.49
425.37	599.79
425.746	579.9
426.123	604.31
426.499	610.86
426.875	611.09
427.251	633.01
427.627	638.88
428.003	634.14
428.379	635.72
428.756	640.92
429.132	652.89
429.507	653.8
429.883	658.99
430.259	684.53
430.635	652.89
431.011	709.84
431.387	701.25
431.763	695.15
432.138	723.4
432.514	707.35
432.89	728.14
433.265	721.82
433.641	721.37
434.016	739.67
434.392	733.79
434.767	741.48
435.143	750.74
435.518	770.4
435.894	783.74
436.269	796.84
436.644	786.45
437.02	805.66
437.395	786.22
437.77	819.44
438.145	800.01
438.52	821.7
438.895	802.72
439.271	798.88
439.646	821.7
440.021	860.34
440.395	857.41
440.77	826
441.145	854.7
441.52	844.53
441.895	868.71
442.27	859.89
442.645	858.08
443.019	867.58
443.394	870.29
443.769	882.26
444.143	865.77
444.518	875.03
444.892	889.72
445.267	889.72
445.641	879.33
446.016	896.28
446.39	891.08
446.764	900.12
447.139	910.29
447.513	924.98
447.887	913
448.262	910.96
448.636	917.29
449.01	923.62
449.384	926.33
449.758	948.03
450.132	938.08
450.506	945.31
450.88	965.43
451.254	941.25
451.628	947.35
452.002	967.46
452.376	970.85
452.75	978.76
453.123	1018.98
453.497	1017.4
453.871	972.43
454.244	1010.4
454.618	997.52
454.992	1031.41
455.365	1022.37
455.739	1046.78
456.112	1038.42
456.486	1090.85
456.859	1054.01
457.232	1086.78
457.606	1088.36
457.979	1081.58
458.352	1091.07
458.725	1115.93
459.099	1116.16
459.472	1132.65
459.845	1131.52
460.218	1155.03
460.591	1133.78
460.964	1154.57
461.337	1167.46
461.71	1199.54
462.083	1170.17
462.456	1208.13
462.829	1204.06
463.201	1222.82
463.574	1210.17
463.947	1238.41
464.32	1258.53
464.692	1267.57
465.065	1289.94
465.438	1312.08
465.81	1320.45
466.183	1330.16
466.555	1341.69
466.928	1321.12
467.3	1373.78
467.672	1352.76
468.045	1362.03
468.417	1394.34
468.789	1385.98
469.161	1413.78
469.534	1444.28
469.906	1404.96
470.278	1463.72
470.65	1474.34
471.022	1464.85
471.394	1530.16
471.766	1510.27
472.138	1524.96
472.51	1558.41
472.882	1576.48
473.253	1583.72
473.625	1635.47
473.997	1642.02
474.369	1660.1
474.74	1660.78
475.112	1711.85
475.484	1729.02
475.855	1738.97
476.227	1750.72
476.598	1778.29
476.97	1801.79
477.341	1818.96
477.713	1850.15
478.084	1853.09
478.455	1918.85
478.827	1927.44
479.198	1963.59
479.569	1980.54
479.94	2039.97
480.311	2037.94
480.682	2079.3
481.053	2097.83
481.424	2147.77
481.795	2171.5
482.166	2187.54
482.537	2242.23
482.908	2285.62
483.279	2279.52
483.65	2334.66
484.021	2353.86
484.391	2382.79
484.762	2404.48
485.133	2415.33
485.503	2484.48
485.874	2488.55
486.244	2539.85
486.615	2585.27
486.985	2572.16
487.356	2636.57
487.726	2663.24
488.097	2728.54
488.467	2712.95
488.837	2744.59
489.207	2783.68
489.578	2816.68
489.948	2861.42
490.318	2922.66
490.688	2892.61
491.058	2919.05
491.428	2962.44
491.798	3011.7
492.168	3048.54
492.538	3060.51
492.908	3109.33
493.278	3159.72
493.648	3160.62
494.017	3206.72
494.387	3192.03
494.757	3235.2
495.126	3224.8
495.496	3274.97
495.866	3324.46
496.235	3352.26
496.605	3381.63
496.974	3384.35
497.344	3415.53
497.713	3402.2
498.082	3440.16
498.452	3488.98
498.821	3500.95
499.19	3489.43
499.559	3501.41
499.928	3511.12
500.298	3611.01
500.667	3615.3
501.036	3558.8
501.405	3646.49
501.774	3629.99
502.143	3678.8
502.512	3673.38
502.88	3711.12
503.249	3731
503.618	3718.12
503.987	3743.43
504.356	3743.21
504.724	3780.72
505.093	3814.39
505.462	3806.93
505.83	3826.59
506.199	3870.89
506.567	3855.97
506.936	3851.45
507.304	3918.12
507.672	3956.31
508.041	3925.57
508.409	3936.2
508.777	3969.64
509.145	4028.62
509.514	3984.78
509.882	4025.91
510.25	4042.63
510.618	4067.49
510.986	4053.03
511.354	4067.04
511.722	4093.93
512.09	4161.5
512.458	4069.07
512.826	4184.55
513.193	4194.27
513.561	4149.52
513.929	4188.17
514.297	4197.88
514.664	4230.2
515.032	4204.66
515.4	4222.52
515.767	4272.46
516.135	4253.93
516.502	4270.2
516.869	4305.68
517.237	4313.14
517.604	4257.77
517.972	4331.89
518.339	4350.65
518.706	4338.9
519.073	4318.11
519.44	4406.69
519.808	4441.27
520.175	4432.45
520.542	4508.61
520.909	4474.26
521.276	4482.85
521.643	4470.42
522.009	4508.38
522.376	4537.31
522.743	4538.89
523.11	4558.78
523.477	4620.25
523.843	4628.38
524.21	4624.54
524.577	4711.09
524.943	4671.77
525.31	4713.58
525.676	4711.54
526.043	4775.04
526.409	4773.69
526.776	4847.58
527.142	4847.13
527.508	4875.38
527.874	4938.88
528.241	4956.28
528.607	4911.76
528.973	4972.55
529.339	4955.6
529.705	4989.95
530.071	5042.38
530.437	5064.98
530.803	5091.19
531.169	5120.57
531.535	5071.76
531.901	5115.83
532.267	5130.51
532.632	5184.98
532.998	5184.98
533.364	5261.81
533.73	5234.24
534.095	5333.45
534.461	5279.89
534.826	5309.72
535.192	5388.59
535.557	5344.52
535.923	5325.54
536.288	5361.92
536.653	5433.78
537.019	5433.78
537.384	5488.47
537.749	5470.17
538.114	5493.9
538.479	5509.94
538.845	5549.71
539.21	5506.32
539.575	5547.9
539.94	5558.53
540.305	5641.46
540.67	5632.65
541.034	5662.7
541.399	5680.56
541.764	5660.9
542.129	5698.64
542.494	5735.02
542.858	5762.14
543.223	5792.87
543.587	5848.01
543.952	5822.7
544.316	5823.6
544.681	5821.12
545.045	5902.47
545.41	5899.08
545.774	5940.89
546.138	5937.5
546.503	5967.1
546.867	6052.3
547.231	6016.37
547.595	6052.75
547.959	6093.65
548.324	6062.24
548.688	6097.27
549.052	6128.45
549.416	6130.26
549.779	6124.39
550.143	6179.53
550.507	6185.4
550.871	6242.12
551.235	6176.81
551.599	6278.28
551.962	6327.55
552.326	6326.19
552.689	6363.93
553.053	6321.9
553.417	6352.86
553.78	6399.41
554.143	6382.01
554.507	6441.21
554.87	6460.2
555.234	6528.44
555.597	6522.57
555.96	6491.38
556.323	6534.32
556.686	6512.63
557.05	6541.33
557.413	6609.35
557.776	6611.83
558.139	6662.9
558.502	6656.58
558.865	6677.14
559.228	6721.66
559.59	6724.15
559.953	6707.65
560.316	6772.05
560.679	6814.09
561.041	6865.61
561.404	6837.36
561.767	6842.11
562.129	6845.5
562.492	6909.9
562.854	6900.41
563.217	6932.73
563.579	7003.23
563.941	6988.77
564.304	6991.48
564.666	7066.06
565.028	7113.29
565.39	7088.66
565.753	7093.85
566.115	7153.74
566.477	7179.27
566.839	7200.97
567.201	7232.83
567.563	7232.15
567.925	7291.36
568.287	7319.38
568.648	7267.18
569.01	7340.17
569.372	7416.56
569.734	7353.51
570.095	7413.84
570.457	7466.72
570.819	7469.21
571.18	7579.04
571.542	7583.78
571.903	7612.71
572.265	7650
572.626	7693.84
572.987	7724.8
573.349	7756.66
573.71	7825.13
574.071	7866.71
574.432	7886.6
574.794	7977.22
575.155	7971.8
575.516	7970.89
575.877	8128.18
576.238	8122.53
576.599	8197.1
576.96	8294.05
577.32	8334.72
577.681	8406.13
578.042	8489.75
578.403	8524.1
578.763	8637.99
579.124	8645.45
579.485	8872.11
579.845	8978.1
580.206	8946.23
580.566	9062.16
580.927	9133.35
581.287	9336.73
581.648	9393.91
582.008	9545.09
582.368	9673.67
582.728	9801.58
583.089	9908.24
583.449	10074.57
583.809	10208.57
584.169	10368.34
584.529	10537.83
584.889	10773.98
585.249	10824.83
585.609	10977.59
585.969	11263.46
586.329	11429.78
586.688	11583.9
587.048	11763.56
587.408	11899.38
587.768	12216.43
588.127	12383.21
588.487	12567.16
588.846	12946.35
589.206	13019.8
589.565	13359.23
589.925	13598.77
590.284	13827.69
590.643	14020.9
591.003	14309.93
591.362	14595.8
591.721	14834.21
592.08	15013.42
592.44	15356.91
592.799	15619.05
593.158	15781.76
593.517	16077.35
593.876	16398.69
594.235	16679.59
594.593	16877.55
594.952	17225.11
595.311	17439.12
595.67	17671.2
596.029	18077.29
596.387	18366.78
596.746	18689.25
597.104	18842.7
597.463	19116.14
597.822	19408.56
598.18	19756.12
598.538	19976
598.897	20402.43
599.255	20458.47
599.613	21047.38
599.972	21103.88
600.33	21470.65
600.688	21533.25
601.046	21922.16
601.404	22318.99
601.762	22471.75
602.12	22796.49
602.478	23088.91
602.836	23348.79
603.194	23481.22
603.552	23757.14
603.91	23984.26
604.268	24308.32
604.625	24384.7
604.983	24814.97
605.341	24859.49
605.698	25244.34
606.056	25485.01
606.413	25744.21
606.771	26068.5
607.128	26214.03
607.485	26366.11
607.843	26574.24
608.2	26828.48
608.557	27174.45
608.914	27345.07
609.272	27633.2
609.629	27889.24
609.986	28036.58
610.343	28120.64
610.7	28575.32
611.057	28605.38
611.414	28852.38
611.771	28962.43
612.127	29088.53
612.484	29302.08
612.841	29571.23
613.198	29629.31
613.554	29903.87
613.911	30068.16
614.267	30215.96
614.624	30333.47
614.98	30603.52
615.337	30842.61
615.693	30782.95
616.05	31067.46
616.406	31212.99
616.762	31327.79
617.118	31448.92
617.475	31626.09
617.831	31780.44
618.187	32046.42
618.543	32142.46
618.899	32445.5
619.255	32411.83
619.611	32500.19
619.967	32661.77
620.323	32944.7
620.678	32879.62
621.034	32938.15
621.39	32906.96
621.746	33091.36
622.101	33483.44
622.457	33357.12
622.812	33578.13
623.168	33666.26
623.523	33717.33
623.879	33852.02
624.234	33687.96
624.589	33886.82
624.945	34114.39
625.3	34180.37
625.655	34147.15
626.01	34290.65
626.365	34326.58
626.72	34429.63
627.075	34302.63
627.43	34442.74
627.785	34460.82
628.14	34565.9
628.495	34704.43
628.85	34708.95
629.205	34657.87
629.559	34997.3
629.914	34744.65
630.269	34898.09
630.623	34803.18
630.978	34867.59
631.332	35059.9
631.687	35134.02
632.041	35086.11
632.396	35178.76
632.75	34991.42
633.104	35129.73
633.459	35007.92
633.813	34959.56
634.167	35145.54
634.521	35081.14
634.875	35149.61
635.229	35170.18
635.583	35052.67
635.937	35067.81
636.291	34960.01
636.645	35077.52
636.999	34992.78
637.352	35090.18
637.706	34958.21
638.06	35177.18
638.413	35067.35
638.767	35010.18
639.121	35141.7
639.474	34856.51
639.828	35016.73
640.181	34964.98
640.534	35100.35
640.888	34924.53
641.241	34887.7
641.594	34976.96
641.947	35041.37
642.301	35063.06
642.654	34979.22
643.007	35080.01
643.36	35183.74
643.713	35002.05
644.066	35114.59
644.419	34768.83
644.771	34676.18
645.124	34417.2
645.477	34295.17
645.83	34135.18
646.182	34024.22
646.535	34002.75
646.888	34087.49
647.24	33664.91
647.593	34163.42
647.945	33895.63
648.298	33733.15
648.65	33666.94
649.002	33706.26
649.355	33827.39
649.707	33859.7
650.059	34038
650.411	34335.85
650.763	34487.03
651.115	34596.63
651.467	34627.59
651.819	34637.99
652.171	34614.26
652.523	34593.92
652.875	34619.68
653.227	34535.17
653.578	34622.39
653.93	34529.06
654.282	34379.69
654.633	34419.24
654.985	34462.85
655.337	34493.36
655.688	34450.42
656.039	34498.56
656.391	34349.63
656.742	34365.68
657.094	34464.43
657.445	34497.88
657.796	34431.21
658.147	34228.28
658.498	34235.96
658.849	34318.67
659.2	34267.38
659.551	34246.36
659.902	34476.41
660.253	34340.59
660.604	34426.47
660.955	34189.41
661.306	34330.88
661.656	34176.98
662.007	34189.86
662.358	34249.75
662.708	34113.71
663.059	34307.15
663.409	34042.52
663.76	34396.86
664.11	34250.43
664.461	34228.05
664.811	34238.45
665.161	34194.84
665.511	34216.53
665.862	34158.45
666.212	34112.35
666.562	34275.29
666.912	34181.95
667.262	34079.13
667.612	34148.28
667.962	34215.63
668.312	34147.15
668.662	34262.18
669.011	34090.21
669.361	34170.43
669.711	34117.1
670.06	34095.18
670.41	34028.06
670.76	34063.99
671.109	34238.9
671.459	34118.23
671.808	34024.67
672.157	34126.81
672.507	33914.39
672.856	33826.48
673.205	33893.15
673.554	34069.64
673.904	33810.89
674.253	34114.84
674.602	33974.73
674.951	33460.17
675.3	33252.04
675.649	33886.37
675.998	33740.84
676.346	33812.47
676.695	33904
677.044	33674.85
677.393	33739.25
677.741	33810.21
678.09	33721.18
678.438	33635.98
678.787	33675.08
679.135	33671.69
679.484	33470.79
679.832	33685.92
680.181	33353.73
680.529	33557.34
680.877	33620.84
681.225	33470.56
681.573	33619.71
681.922	33294.75
682.27	33315.31
682.618	33338.36
682.966	33175.2
683.314	33226.05
683.661	33265.14
684.009	33078.48
684.357	32998.03
684.705	32919.84
685.053	32924.81
685.4	32880.29
685.748	32831.48
686.095	32667.87
686.443	32519.85
686.79	32661.99
687.138	32621.32
687.485	32540.19
687.832	32495.67
688.18	32441.89
688.527	32261.33
688.874	32370.02
689.221	32255.45
689.568	32168
689.915	32182.01
690.262	32102.91
690.609	32003.93
690.956	31841.68
691.303	31901.56
691.65	31895.69
691.997	31769.81
692.344	31576.6
692.69	31656.6
693.037	31583.6
693.383	31271.75
693.73	31510.39
694.077	31252.31
694.423	31299.09
694.769	31115.59
695.116	31066.78
695.462	31083.5
695.808	30947.92
696.155	30982.72
696.501	30689.39
696.847	30830.63
697.193	30615.04
697.539	30688.94
697.885	30391.77
698.231	30285.33
698.577	30411.43
698.923	30303.64
699.269	30218.22
699.614	30012.35
699.96	30026.81
700.306	29954.95
700.651	29920.6
700.997	29901.39
701.342	29802.41
701.688	29684.67
702.033	29611.23
702.379	29576.88
702.724	29536.2
703.069	29526.94
703.415	29314.96
703.76	29227.28
704.105	29194.74
704.45	29053.05
704.795	29105.93
705.14	28853.05
705.485	28888.76
705.83	28742.55
706.175	28781.64
706.52	28775.77
706.865	28526.51
707.209	28553.4
707.554	28478.6
707.899	28410.81
708.243	28438.15
708.588	28373.29
708.932	28186.18
709.277	28126.75
709.621	28178.27
709.966	28037.71
710.31	28120.64
710.654	27799.75
710.998	27855.79
711.342	27938.05
711.687	27790.03
712.031	27764.04
712.375	27568.34
712.719	27740.77
713.063	27600.88
713.407	27610.15
713.75	27445.18
714.094	27554.11
714.438	27392.3
714.782	27427.56
715.125	27193.66
715.469	27140.56
715.812	27054.68
716.156	26994.57
716.499	27036.61
716.843	27002.26
717.186	26909.38
717.53	27001.13
717.873	26987.12
718.216	26799.1
718.559	26811.3
718.902	26571.98
719.246	26555.49
719.589	26511.87
719.932	26452.21
720.275	26499.22
720.617	26394.36
720.96	26453.8
721.303	26404.31
721.646	26344.87
721.989	26205.44
722.331	26276.4
722.674	26037.99
723.016	26111.88
723.359	26157.08
723.701	26292.44
724.044	26007.93
724.386	25835.28
724.729	25970.19
725.071	25866.69
725.413	25884.77
725.755	25801.84
726.097	25766.58
726.439	25620.82
726.782	25555.51
727.124	25734.72
727.465	25604.78
727.807	25674.16
728.149	25443.88
728.491	25325.24
728.833	25488.62
729.175	25352.81
729.516	25299.93
729.858	25231
730.199	25367.04
730.541	25251.34
730.882	25225.13
731.224	25264.45
731.565	25151.91
731.906	25075.08
732.248	25115.3
732.589	25002.08
732.93	24814.52
733.271	24910.33
733.612	24898.13
733.953	24912.82
734.294	24824.69
734.635	24833.05
734.976	24833.95
735.317	24675.76
735.658	24635.54
735.999	24633.73
736.339	24630.12
736.68	24739.94
737.021	24631.7
737.361	24456.33
737.702	24643.22
738.042	24470.57
738.383	24478.93
738.723	24502.43
739.063	24370.46
739.404	24490.68
739.744	24362.78
740.084	24146.96
740.424	24439.39
740.764	24291.14
741.104	24286.85
741.444	24160.07
741.784	23977.02
742.124	24135.89
742.464	24136.57
742.804	23922.34
743.143	23924.82
743.483	23832.17
743.823	23891.38
744.162	23734.55
744.502	23888.89
744.841	23877.59
745.181	23827.65
745.52	23760.99
745.86	23833.07
746.199	23734.32
746.538	23701.78
746.877	23640.08
747.216	23668.11
747.556	23552.63
747.895	23518.28
748.234	23530.03
748.573	23549.01
748.911	23532.06
749.25	23495.91
749.589	23298.85
749.928	23392.41
750.267	23395.57
750.605	23288.91
750.944	23289.59
751.283	23214.11
751.621	23210.72
751.96	23083.04
752.298	23076.26
752.636	22988.8
752.975	22931.85
753.313	22900.9
753.651	22913.1
753.989	22843.72
754.327	22791.29
754.666	22635.14
755.004	22759.66
755.342	22620.68
755.679	22576.38
756.017	22439.66
756.355	22463.39
756.693	22457.06
757.031	22446.67
757.368	22208.71
757.706	22206.9
758.044	22174.81
758.381	22211.2
758.719	22098.2
759.056	22149.5
759.394	22105.21
759.731	21962.84
760.068	21923.52
760.405	21861.37
760.743	21912.67
761.08	21846.91
761.417	21689.4
761.754	21610.53
762.091	21667.71
762.428	21518.11
762.765	21495.28
763.102	21467.94
763.438	21392.46
763.775	21251.9
764.112	21204.89
764.449	21288.28
764.785	21145.91
765.122	20981.4
765.458	21011.68
765.795	21040.15
766.131	20925.35
766.467	20727.62
766.804	20690.33
767.14	20481.98
767.476	20699.6
767.812	20488.3
768.148	20580.73
768.485	20448.08
768.821	20250.57
769.157	20236.56
769.492	20260.51
769.828	20188.88
770.164	20032.5
770.5	19956.11
770.836	19843.12
771.171	19974.87
771.507	19792.5
771.842	19730.36
772.178	19707.76
772.513	19563.13
772.849	19516.8
773.184	19464.38
773.519	19464.83
773.855	19311.38
774.19	19242.01
774.525	19247.43
774.86	19245.17
775.195	19127.21
775.53	19043.37
775.865	18920.89
776.2	18911.62
776.535	18698.07
776.87	18617.39
777.205	18675.47
777.539	18722.47
777.874	18542.59
778.209	18473.21
778.543	18412.43
778.878	18277.06
779.212	18343.73
779.547	18197.52
779.881	18145.31
780.215	18015.6
780.55	18031.87
780.884	17969.5
781.218	17947.8
781.552	17985.54
781.886	17821.93
782.22	17713.23
782.554	17587.36
782.888	17540.13
783.222	17389.63
783.556	17357.76
783.889	17319.35
784.223	17156.41
784.557	17163.19
784.89	17181.95
785.224	17147.37
785.557	17066.02
785.891	17026.47
786.224	17011.78
786.558	16928.62
786.891	16801.62
787.224	16753.26
787.557	16690.66
787.891	16577.9
788.224	16564.56
788.557	16589.42
788.89	16528.18
789.223	16548.07
789.556	16301.52
789.888	16352.59
790.221	16225.82
790.554	16134.75
790.887	16182.65
791.219	16005.26
791.552	16014.07
791.884	15831.7
792.217	15846.39
792.549	15863.57
792.882	15820.63
793.214	15744.25
793.546	15731.59
793.879	15656.11
794.211	15487.76
794.543	15592.84
794.875	15483.69
795.207	15496.12
795.539	15414.09
795.871	15379.06
796.203	15242.57
796.535	15117.6
796.867	15223.58
797.198	15141.1
797.53	15106.98
797.862	15084.38
798.193	14977.26
798.525	14945.17
798.856	14933.87
799.188	14724.39
799.519	14657.04
799.85	14721.45
800.182	14728
800.513	14660.89
800.844	14538.4
801.175	14629.25
801.506	14562.58
801.837	14470.16
802.168	14422.02
802.499	14430.61
802.83	14325.75
803.161	14344.28
803.491	14285.75
803.822	14305.64
804.153	14190.84
804.483	14101.13
804.814	14022.48
805.145	13958.98
805.475	14035.14
805.805	13935.48
806.136	13935.93
806.466	13908.14
806.796	13956.5
807.126	13822.04
807.457	13806.22
807.787	13690.29
808.117	13659.33
808.447	13595.83
808.777	13651.42
809.107	13591.54
809.436	13553.8
809.766	13502.95
810.096	13525.32
810.426	13435.16
810.755	13501.82
811.085	13431.31
811.414	13322.84
811.744	13233.35
812.073	13287.59
812.403	13220.02
812.732	13169.85
813.061	13152.45
813.39	13101.6
813.719	13013.02
814.049	13155.61
814.378	13096.63
814.707	12954.49
815.036	13013.02
815.365	12942.51
815.693	12800.37
816.022	12825.45
816.351	12698
816.68	12693.93
817.008	12764.66
817.337	12634.5
817.665	12612.8
817.994	12648.06
818.322	12593.6
818.651	12620.49
818.979	12519.02
819.307	12528.51
819.636	12474.95
819.964	12413.94
820.292	12500.94
820.62	12440.83
820.948	12437.22
821.276	12374.84
821.604	12336.43
821.932	12406.71
822.259	12426.59
822.587	12388.86
822.915	12366.26
823.243	12375.3
823.57	12333.26
823.898	12419.36
824.225	12329.87
824.553	12245.81
824.88	12262.08
825.207	12264.56
825.535	12325.35
825.862	12308.86
826.189	12246.71
826.516	12336.88
826.843	12325.13
827.17	12393.6
827.497	12324.68
827.824	12356.99
828.151	12372.36
828.478	12343.21
828.805	12373.04
829.131	12295.98
829.458	12302.76
829.785	12203.1
830.111	12334.39
830.438	12307.73
830.764	12307.95
831.09	12257.56
831.417	12207.39
831.743	12298.24
832.069	12289.87
832.395	12175.3
832.722	12254.17
833.048	12178.01
833.374	12222.31
833.7	12189.76
834.026	12145.25
834.351	12175.53
834.677	12125.81
835.003	12171.23
835.329	12204
835.654	12159.26
835.98	12119.26
836.306	12039.94
836.631	12018.02
836.956	12064.8
837.282	12052.14
837.607	11991.58
837.932	12014.18
838.258	11985.7
838.583	11913.84
838.908	11877.91
839.233	11952.93
839.558	11858.25
839.883	11864.8
840.208	11785.26
840.533	11737.57
840.858	11780.28
841.182	11833.16
841.507	11791.13
841.832	11707.52
842.156	11647.41
842.481	11690.57
842.805	11652.6
843.13	11662.09
843.454	11581.64
843.778	11546.17
844.103	11479.27
844.427	11495.32
844.751	11534.41
845.075	11472.72
845.399	11393.18
845.723	11397.24
846.047	11332.39
846.371	11279.51
846.695	11294.19
847.019	11177.14
847.343	11109.34
847.666	11070.47
847.99	11018.95
848.313	11042
848.637	10953.19
848.96	10976.46
849.284	10931.72
849.607	10796.35
849.931	10857.37
850.254	10705.96
850.577	10732.4
850.9	10636.81
851.223	10632.74
851.546	10577.38
851.869	10515.91
852.192	10520.2
852.515	10420.55
852.838	10395.01
853.161	10437.95
853.483	10394.11
853.806	10298.06
854.129	10268.91
854.451	10197.05
854.774	10215.35
855.096	10196.37
855.419	10144.39
855.741	10073.21
856.063	10062.59
856.385	10037.73
856.708	10027.79
857.03	10057.39
857.352	9980.56
857.674	9933.1
857.996	9917.06
858.318	9853.33
858.64	9840.22
858.961	9828.24
859.283	9819.88
859.605	9653.11
859.926	9701.69
860.248	9724.52
860.57	9690.85
860.891	9708.47
861.212	9685.2
861.534	9657.18
861.855	9565.43
862.176	9609.04
862.498	9531.76
862.819	9587.35
863.14	9525.65
863.461	9517.07
863.782	9448.14
864.103	9425.09
864.424	9460.34
864.745	9416.96
865.065	9464.41
865.386	9398.88
865.707	9375.37
866.027	9426.45
866.348	9374.25
866.668	9264.87
866.989	9356.62
867.309	9222.84
867.63	9241.59
867.95	9240.92
868.27	9251.76
868.59	9259.22
868.91	9230.75
869.23	9168.83
869.55	9144.87
869.87	9180.58
870.19	9120.92
870.51	9179.67
870.83	9142.84
871.15	9114.59
871.469	9086.57
871.789	9131.54
872.109	9109.85
872.428	9075.95
872.748	9055.61
873.067	9041.15
873.386	9049.96
873.706	9002.5
874.025	9007.02
874.344	8945.78
874.663	8976.29
874.982	8910.98
875.301	8954.37
875.62	8901.94
875.939	8866.46
876.258	8853.81
876.577	8841.83
876.896	8811.55
877.214	8767.71
877.533	8805.22
877.852	8820.81
878.17	8748.27
878.489	8827.82
878.807	8793.02
879.125	8772.45
879.444	8748.5
879.762	8732.91
880.08	8709.4
880.398	8656.75
880.716	8666.24
881.034	8645
881.352	8635.51
881.67	8598.22
881.988	8564.1
882.306	8643.42
882.624	8552.8
882.941	8594.38
883.259	8488.62
883.577	8460.37
883.894	8490.88
884.212	8411.33
884.529	8363.65
884.846	8409.98
885.164	8390.32
885.481	8395.74
885.798	8324.1
886.115	8252.24
886.432	8306.48
886.75	8341.05
887.067	8232.35
887.383	8225.35
887.7	8241.85
888.017	8256.31
888.334	8195.97
888.651	8201.62
888.967	8150.32
889.284	8084.11
889.6	8121.62
889.917	8048.63
890.233	8088.18
890.55	8028.52
890.866	8092.47
891.182	8046.82
891.498	8018.8
891.815	7938.8
892.131	7943.1
892.447	7877.79
892.763	7898.58
893.079	7899.71
893.395	7807.51
893.71	7798.47
894.026	7812.25
894.342	7772.71
894.657	7789.88
894.973	7766.6
895.289	7723.22
895.604	7687.96
895.92	7614.97
896.235	7598.25
896.55	7590.34
896.865	7540.17
897.181	7551.92
897.496	7570
897.811	7448.87
898.126	7464.01
898.441	7417.46
898.756	7409.1
899.071	7350.12
899.386	7358.03
899.7	7299.27
900.015	7315.99
900.33	7257.01
900.644	7236.22
900.959	7265.6
901.273	7168.2
901.588	7190.8
901.902	7146.96
902.216	7111.48
902.531	7196
902.845	7096.56
903.159	7009.79
903.473	7034.87
903.787	7012.05
904.101	6951.48
904.415	6901.99
904.729	6892.95
905.042	6910.81
905.356	6918.49
905.67	6857.7
905.984	6878.04
906.297	6790.13
906.611	6753.75
906.924	6783.8
907.237	6676.69
907.551	6648.22
907.864	6694.32
908.177	6633.75
908.491	6691.6
908.804	6597.59
909.117	6543.36
909.43	6519.86
909.743	6558.73
910.056	6499.29
910.368	6478.73
910.681	6465.85
910.994	6374.1
911.307	6416.58
911.619	6272.63
911.932	6359.18
912.244	6302.01
912.557	6257.49
912.869	6203.48
913.181	6244.38
913.494	6220.43
913.806	6219.3
914.118	6174.33
914.43	6117.16
914.742	6153.54
915.054	6096.59
915.366	6047.78
915.678	6042.81
915.99	5994.45
916.302	5969.14
916.613	5918.06
916.925	5967.1
917.236	5887.33
917.548	5863.6
917.859	5878.74
918.171	5864.96
918.482	5802.59
918.794	5816.37
919.105	5774.11
919.416	5708.58
919.727	5737.5
920.038	5719.88
920.349	5644.17
920.66	5645.53
920.971	5659.54
921.282	5606.89
921.593	5566.66
921.903	5537.96
922.214	5529.15
922.525	5524.85
922.835	5481.92
923.146	5489.15
923.456	5433.11
923.767	5466.78
924.077	5425.42
924.387	5326.22
924.697	5362.83
925.008	5363.73
925.318	5342.26
925.628	5325.99
925.938	5316.05
926.248	5276.27
926.558	5218.2
926.867	5249.16
927.177	5168.93
927.487	5206.45
927.796	5075.38
928.106	5120.12
928.416	5103.4
928.725	5085.09
929.034	5053
929.344	5064.08
929.653	5059.78
929.962	4959.67
930.271	4996.06
930.581	4951.54
930.89	4897.98
931.199	4910.41
931.508	4912.89
931.817	4912.22
932.125	4883.74
932.434	4834.93
932.743	4815.95
933.051	4785.44
933.36	4746.8
933.669	4713.58
933.977	4687.14
934.286	4701.37
934.594	4726.46
934.902	4618.21
935.21	4659.79
935.519	4592.68
935.827	4612.11
936.135	4565.33
936.443	4564.43
936.751	4559.68
937.059	4570.98
937.367	4503.19
937.674	4481.94
937.982	4448.05
938.29	4448.05
938.597	4432.68
938.905	4373.7
939.213	4373.92
939.52	4382.74
939.827	4367.6
940.135	4309.97
940.442	4312.46
940.749	4305.23
941.056	4317.88
941.363	4230.65
941.67	4250.99
941.977	4205.57
942.284	4181.61
942.591	4187.26
942.898	4160.37
943.205	4203.99
943.511	4143.65
943.818	4159.24
944.125	4085.57
944.431	4104.33
944.738	4089.86
945.044	4087.6
945.35	4023.43
945.657	3989.75
945.963	3947.95
946.269	3973.03
946.575	4031.33
946.881	3944.11
947.187	3953.6
947.493	3941.17
947.799	3903.43
948.105	3913.15
948.41	3837.22
948.716	3907.5
949.022	3820.27
949.327	3850.77
949.633	3775.75
949.938	3809.87
950.244	3827.95
950.549	3787.27
950.854	3756.31
951.16	3710.21
951.465	3730.78
951.77	3719.48
952.075	3705.24
952.38	3637.22
952.685	3708.86
952.99	3644.45
953.294	3612.59
953.599	3597.9
953.904	3565.58
954.209	3552.7
954.513	3554.29
954.818	3563.55
955.122	3536.66
955.426	3532.14
955.731	3488.98
956.035	3499.6
956.339	3495.3
956.643	3454.85
956.948	3459.15
957.252	3401.29
957.556	3397.68
957.86	3409.88
958.163	3400.62
958.467	3398.13
958.771	3382.99
959.075	3339.6
959.378	3326.27
959.682	3329.88
959.985	3302.77
960.289	3278.81
960.592	3272.48
960.896	3230.45
961.199	3240.85
961.502	3250.79
961.805	3211.47
962.108	3211.7
962.411	3192.26
962.714	3174.63
963.017	3121.53
963.32	3139.15
963.623	3106.16
963.926	3097.35
964.228	3093.96
964.531	3119.95
964.833	3075.88
965.136	3081.08
965.438	3061.42
965.741	3022.77
966.043	3007.86
966.345	2997.69
966.648	3008.08
966.95	2998.37
967.252	2958.59
967.554	2967.18
967.856	2964.02
968.158	2898.94
968.46	2922.44
968.761	2920.4
969.063	2896.9
969.365	2887.86
969.666	2867.52
969.968	2877.47
970.269	2838.6
970.571	2788.88
970.872	2823.46
971.174	2815.55
971.475	2798.37
971.776	2809.67
972.077	2781.2
972.378	2752.27
972.679	2728.54
972.98	2734.87
973.281	2715.21
973.582	2721.76
973.883	2696.23
974.183	2683.12
974.484	2670.24
974.785	2649.9
975.085	2674.76
975.386	2667.3
975.686	2660.52
975.986	2651.03
976.287	2585.72
976.587	2597.93
976.887	2552.73
977.187	2583.01
977.487	2581.88
977.787	2540.53
978.087	2520.64
978.387	2518.61
978.687	2548.66
978.987	2526.06
979.286	2526.74
979.586	2510.02
979.885	2491.26
980.185	2474.54
980.484	2472.51
980.784	2426.63
981.083	2447.42
981.382	2408.78
981.682	2437.7
981.981	2380.3
982.28	2404.71
982.579	2367.65
982.878	2413.3
983.177	2378.95
983.475	2354.54
983.774	2337.14
984.073	2312.96
984.372	2300.08
984.67	2338.5
984.969	2285.17
985.267	2343.02
985.566	2300.53
985.864	2258.5
986.162	2291.27
986.461	2230.48
986.759	2221.21
987.057	2206.07
987.355	2227.77
987.653	2227.31
987.951	2189.35
988.249	2200.42
988.547	2166.07
988.844	2190.71
989.142	2155.9
989.44	2150.93
989.737	2145.96
990.035	2143.7
990.332	2115.9
990.63	2151.84
990.927	2109.13
991.224	2120.65
991.521	2084.27
991.819	2103.48
992.116	2095.34
992.413	2074.55
992.71	2076.13
993.006	2065.06
993.303	2056.25
993.6	2012.86
993.897	2017.15
994.193	2032.74
994.49	1984.61
994.787	1990.71
995.083	1961.33
995.379	1975.57
995.676	1943.25
995.972	1937.38
996.268	1938.96
996.565	1958.85
996.861	1918.85
997.157	1921.79
997.453	1925.18
997.749	1906.19
998.044	1912.52
998.34	1889.47
998.636	1864.84
998.932	1917.94
999.227	1853.31
999.523	1821.45
999.818	1846.53
1000.114	1795.24
1000.409	1802.47
1000.704	1790.26
1001	1810.38
1001.295	1807.21
1001.59	1772.64
1001.885	1769.02
1002.18	1756.37
1002.475	1727.44
1002.77	1783.48
1003.065	1720.43
1003.359	1736.03
1003.654	1718.4
1003.949	1697.84
1004.243	1666.43
1004.538	1717.72
1004.832	1644.28
1005.127	1668.46
1005.421	1684.96
1005.715	1673.2
1006.009	1630.72
1006.304	1638.86
1006.598	1657.61
1006.892	1609.93
1007.186	1619.65
1007.48	1611.06
1007.773	1576.71
1008.067	1594.56
1008.361	1567.22
1008.655	1566.31
1008.948	1576.48
1009.242	1559.31
1009.535	1545.98
1009.829	1540.78
1010.122	1515.47
1010.415	1503.72
1010.708	1521.8
1011.001	1471.85
1011.295	1503.49
1011.588	1498.52
1011.881	1485.41
1012.173	1453.1
1012.466	1469.59
1012.759	1455.36
1013.052	1451.52
1013.344	1459.88
1013.637	1434.79
1013.93	1413.32
1014.222	1381.46
1014.514	1444.74
1014.807	1375.81
1015.099	1376.26
1015.391	1388.92
1015.683	1370.61
1015.976	1365.87
1016.268	1343.72
1016.56	1333.78
1016.851	1338.98
1017.143	1352.31
1017.435	1309.15
1017.727	1329.48
1018.018	1320.45
1018.31	1318.41
1018.602	1310.95
1018.893	1289.03
1019.185	1255.36
1019.476	1266.66
1019.767	1265.76
1020.058	1254.46
1020.35	1253.55
1020.641	1229.6
1020.932	1249.26
1021.223	1226.21
1021.514	1225.98
1021.804	1195.25
1022.095	1200.67
1022.386	1158.42
1022.677	1190.51
1022.967	1179.43
1023.258	1165.87
1023.548	1170.62
1023.839	1155.48
1024.129	1167.46
1024.419	1148.7
1024.709	1127.46
1025	1131.3
1025.29	1140.11
1025.58	1131.07
1025.87	1099.21
1026.16	1109.83
1026.449	1117.74
1026.739	1091.98
1027.029	1079.32
1027.319	1093.11
1027.608	1056.5
1027.898	1065.31
1028.187	1064.18
1028.477	1053.33
1028.766	1033.9
1029.055	1034.8
1029.344	1007.01
1029.634	1025.76
1029.923	1047.68
1030.212	1005.2
1030.501	1016.27
1030.79	989.61
1031.078	998.42
1031.367	985.77
1031.656	963.62
1031.945	986.22
1032.233	972.21
1032.522	960.45
1032.81	961.13
1033.099	933.79
1033.387	955.26
1033.675	933.56
1033.963	930.4
1034.251	951.42
1034.54	929.27
1034.828	904.86
1035.116	916.39
1035.403	902.15
1035.691	924.07
1035.979	918.42
1036.267	908.7
1036.554	903.06
1036.842	882.26
1037.129	898.31
1037.417	886.78
1037.704	879.78
1037.992	864.41
1038.279	863.28
1038.566	848.82
1038.853	848.82
1039.14	848.82
