Data from hue_210_FLMS001491_00018.txt Node
Date: Tue Feb 07 16:40:50 GMT 2017
User: dcchb
Spectrometer: FLMS00149
Trigger mode: 0
Integration Time (sec): 2.000000E-2
Scans to average: 10
Electric dark correction enabled: true
Nonlinearity correction enabled: false
Boxcar width: 0
XAxis mode: Wavelengths
Number of Pixels in Spectrum: 2048
>>>>>Begin Spectral Data<<<<<
341.393	4.83
341.776	4.83
342.16	4.83
342.543	-58.44
342.927	-54.38
343.31	-75.17
343.693	-74.49
344.077	-74.26
344.46	-48.5
344.843	-41.27
345.226	-34.72
345.61	-33.36
345.993	-36.52
346.376	-7.15
346.759	0.54
347.142	28.56
347.525	54.32
347.908	68.56
348.291	90.03
348.674	89.57
349.057	93.87
349.44	124.15
349.823	142
350.206	158.27
350.588	201.44
350.971	219.29
351.354	222.9
351.737	240.08
352.119	255.67
352.502	264.48
352.884	266.29
353.267	297.7
353.65	299.51
354.032	306.29
354.414	310.36
354.797	329.12
355.179	321.88
355.562	339.06
355.944	326.4
356.326	336.12
356.709	337.7
357.091	346.29
357.473	346.74
357.855	325.73
358.238	345.84
358.62	337.93
359.002	336.35
359.384	347.65
359.766	349.91
360.148	333.86
360.53	337.03
360.912	339.06
361.294	328.66
361.676	340.41
362.057	330.7
362.439	323.92
362.821	333.64
363.203	329.34
363.584	336.57
363.966	323.92
364.348	325.05
364.729	322.56
365.111	323.24
365.493	308.78
365.874	325.27
366.256	313.07
366.637	298.83
367.019	330.7
367.4	309
367.781	310.59
368.163	318.04
368.544	321.66
368.925	331.15
369.306	297.93
369.688	340.64
370.069	317.14
370.45	318.04
370.831	323.47
371.212	309.68
371.593	318.27
371.974	312.39
372.355	323.01
372.736	313.07
373.117	315.56
373.498	303.13
373.879	308.33
374.26	319.17
374.641	313.97
375.021	325.05
375.402	314.2
375.783	337.25
376.163	314.65
376.544	318.72
376.925	336.8
377.305	326.63
377.686	364.59
378.066	326.86
378.447	330.02
378.827	316.23
379.208	339.06
379.588	343.35
379.968	326.18
380.349	332.05
380.729	323.47
381.109	318.49
381.489	345.84
381.87	337.7
382.25	342.45
382.63	346.29
383.01	345.84
383.39	355.33
383.77	346.29
384.15	363.69
384.53	358.49
384.91	341.32
385.29	348.1
385.67	366.4
386.049	357.36
386.429	353.97
386.809	360.53
387.189	353.97
387.568	366.18
387.948	361.43
388.328	361.21
388.707	366.4
389.087	369.34
389.466	365.27
389.846	387.19
390.225	383.13
390.605	379.28
390.984	345.39
391.363	378.38
391.743	366.85
392.122	384.26
392.501	377.7
392.881	399.17
393.26	383.8
393.639	385.39
394.018	387.65
394.397	407.08
394.776	383.8
395.155	375.22
395.534	394.88
395.913	384.71
396.292	418.6
396.671	411.37
397.05	384.03
397.429	408.44
397.808	402.79
398.186	405.95
398.565	411.6
398.944	409.57
399.323	427.87
399.701	413.41
400.08	423.8
400.458	413.18
400.837	427.87
401.215	438.72
401.594	437.14
401.972	423.58
402.351	439.17
402.729	448.21
403.107	443.69
403.486	441.43
403.864	432.16
404.242	440.75
404.62	460.64
404.999	437.81
405.377	465.84
405.755	469
406.133	447.53
406.511	489.79
406.889	495.89
407.267	478.72
407.645	482.11
408.023	480.52
408.401	492.95
408.779	514.65
409.156	509
409.534	509.9
409.912	516.23
410.29	521.88
410.667	543.35
411.045	572.95
411.422	560.75
411.8	590.35
412.178	574.31
412.555	577.92
412.933	567.08
413.31	590.58
413.687	603.68
414.065	596
414.442	624.93
414.819	622.89
415.197	658.82
415.574	664.02
415.951	657.24
416.328	673.51
416.705	684.13
417.082	663.57
417.46	693.85
417.837	714.87
418.214	714.42
418.591	719.39
418.967	701.08
419.344	720.74
419.721	738.14
420.098	753.51
420.475	765.26
420.852	792.83
421.228	798.48
421.605	797.35
421.982	821.76
422.358	831.7
422.735	829.44
423.111	844.58
423.488	882.32
423.864	870.8
424.241	914.86
424.617	897.01
424.994	929.55
425.37	918.48
425.746	950.12
426.123	963.22
426.499	989.21
426.875	991.02
427.251	981.08
427.627	1005.26
428.003	1028.08
428.379	1019.72
428.756	1037.57
429.132	1074.41
429.507	1080.51
429.883	1105.59
430.259	1110.56
430.635	1148.3
431.011	1135.42
431.387	1145.14
431.763	1176.1
432.138	1160.96
432.514	1209.77
432.89	1217.45
433.265	1228.08
433.641	1262.42
434.016	1272.59
434.392	1312.37
434.767	1339.48
435.143	1352.14
435.518	1370.67
435.894	1385.13
436.269	1421.52
436.644	1444.79
437.02	1489.99
437.395	1472.81
437.77	1504
438.145	1514.85
438.52	1578.35
438.895	1621.74
439.271	1609.99
439.646	1603.88
440.021	1671.68
440.395	1682.98
440.77	1673.26
441.145	1692.02
441.52	1766.14
441.895	1756.65
442.27	1747.38
442.645	1799.13
443.019	1798.23
443.394	1830.55
443.769	1827.83
444.143	1842.75
444.518	1895.85
444.892	1881.62
445.267	1915.51
445.641	1936.08
446.016	1898.79
446.39	1969.3
446.764	1969.98
447.139	1952.35
447.513	2002.97
447.887	2018.79
448.262	2040.94
448.636	2070.31
449.01	2069.41
449.384	2079.13
449.758	2081.39
450.132	2097.43
450.506	2129.97
450.88	2153.7
451.254	2193.02
451.628	2175.85
452.002	2153.02
452.376	2230.31
452.75	2228.05
453.123	2272.12
453.497	2285.22
453.871	2303.75
454.244	2350.76
454.618	2370.19
454.992	2384.2
455.365	2421.49
455.739	2441.83
456.112	2457.87
456.486	2507.14
456.859	2487.7
457.232	2567.25
457.606	2574.71
457.979	2612.22
458.352	2635.04
458.725	2696.74
459.099	2666.23
459.472	2725.66
459.845	2748.26
460.218	2794.81
460.591	2814.25
460.964	2823.29
461.337	2850.86
461.71	2946.67
462.083	2965.66
462.456	2946
462.829	2996.62
463.201	3009.72
463.574	3020.8
463.947	3056.05
464.32	3149.38
464.692	3159.55
465.065	3179.89
465.438	3222.15
465.81	3291.98
466.183	3306.44
466.555	3338.75
466.928	3396.15
467.3	3379.2
467.672	3425.76
468.045	3494.23
468.417	3569.03
468.789	3580.56
469.161	3632.08
469.534	3658.75
469.906	3728.8
470.278	3767.67
470.65	3807.67
471.022	3841.57
471.394	3903.48
471.766	3947.78
472.138	3969.92
472.51	4048.34
472.882	4084.5
473.253	4123.82
473.625	4179.41
473.997	4258.05
474.369	4294.66
474.74	4286.53
475.112	4394.77
475.484	4492.62
475.855	4534.88
476.227	4566.29
476.598	4644.48
476.97	4767.19
477.341	4795.44
477.713	4839.51
478.084	4854.19
478.455	5047.64
478.827	5044.7
479.198	5175.32
479.569	5187.97
479.94	5309.78
480.311	5317.46
480.682	5478.58
481.053	5555.87
481.424	5651.24
481.795	5645.13
482.166	5747.73
482.537	5806.49
482.908	5917.22
483.279	5920.61
483.65	6040.15
484.021	6137.55
484.391	6177.32
484.762	6267.49
485.133	6357.43
485.503	6390.43
485.874	6459.35
486.244	6541.61
486.615	6716.29
486.985	6700.93
487.356	6870.19
487.726	6931.2
488.097	7044.65
488.467	7064.53
488.837	7151.99
489.207	7206
489.578	7267.01
489.948	7371.42
490.318	7434.24
490.688	7451.87
491.058	7574.12
491.428	7660.22
491.798	7645.99
492.168	7806.21
492.538	7865.64
492.908	7868.8
493.278	7953.1
493.648	8040.33
494.017	8110.38
494.387	8105.41
494.757	8169.81
495.126	8269.02
495.496	8256.14
495.866	8285.29
496.235	8368.9
496.605	8414.78
496.974	8493.19
497.344	8532.29
497.713	8558.5
498.082	8603.93
498.452	8688.22
498.821	8695
499.19	8646.86
499.559	8787.2
499.928	8731.83
500.298	8772.06
500.667	8945.61
501.036	8893.86
501.405	9005.05
501.774	8951.49
502.143	8997.14
502.512	8990.13
502.88	9107.87
503.249	9066.96
503.618	9139.51
503.987	9180.63
504.356	9151.93
504.724	9207.07
505.093	9215.21
505.462	9254.76
505.83	9232.38
506.199	9346.28
506.567	9323.68
506.936	9395.09
507.304	9471.02
507.672	9464.24
508.041	9553.51
508.409	9525.71
508.777	9561.64
509.145	9629.44
509.514	9564.81
509.882	9580.4
510.25	9604.13
510.618	9613.84
510.986	9648.19
511.354	9735.65
511.722	9690.9
512.09	9764.8
512.458	9695.65
512.826	9803.44
513.193	9817.91
513.561	9763.22
513.929	9840.28
514.297	9924.34
514.664	9884.34
515.032	9891.8
515.4	9946.49
515.767	9870.56
516.135	10003.66
516.502	9820.84
516.869	9986.94
517.237	10010.67
517.604	9914.17
517.972	9993.72
518.339	9987.62
518.706	9939.03
519.073	9991.23
519.44	9924.8
519.808	10066.03
520.175	10085.7
520.542	10079.14
520.909	10148.07
521.276	10033.49
521.643	10073.72
522.009	10214.73
522.376	10178.57
522.743	10139.03
523.11	10197.78
523.477	10260.61
523.843	10227.84
524.21	10296.54
524.577	10321.62
524.943	10342.64
525.31	10286.14
525.676	10317.33
526.043	10324.79
526.409	10299.02
526.776	10330.66
527.142	10417.66
527.508	10347.84
527.874	10350.55
528.241	10358.23
528.607	10390.09
528.973	10336.31
529.339	10322.75
529.705	10380.83
530.071	10381.96
530.437	10349.19
530.803	10384.22
531.169	10378.34
531.535	10245.47
531.901	10250.44
532.267	10349.87
532.632	10256.54
532.998	10366.37
533.364	10239.36
533.73	10218.8
534.095	10356.65
534.461	10239.14
534.826	10265.35
535.192	10306.93
535.557	10259.25
535.923	10192.36
536.288	10202.98
536.653	10099.48
537.019	10073.72
537.384	10134.73
537.749	10061.52
538.114	10124.11
538.479	10015.87
538.845	9997.34
539.21	9949.2
539.575	9915.08
539.94	9948.3
540.305	9945.13
540.67	9869.88
541.034	9795.76
541.399	9861.75
541.764	9840.5
542.129	9820.62
542.494	9734.74
542.858	9741.3
543.223	9667.18
543.587	9729.77
543.952	9675.08
544.316	9587.18
544.681	9622.2
545.045	9554.41
545.41	9587.18
545.774	9573.17
546.138	9498.82
546.503	9479.61
546.867	9403.68
547.231	9458.37
547.595	9439.84
547.959	9404.81
548.324	9352.61
548.688	9404.58
549.052	9289.11
549.416	9324.36
549.779	9221.99
550.143	9191.26
550.507	9227.41
550.871	9087.98
551.235	9133.18
551.599	9150.58
551.962	9130.47
552.326	9091.37
552.689	9059.28
553.053	9007.76
553.417	8992.39
553.78	9072.61
554.143	8978.38
554.507	8958.49
554.87	8933.64
555.234	8989.9
555.597	8851.83
555.96	8893.64
556.323	8902.9
556.686	8869.91
557.05	8948.55
557.413	8841.21
557.776	8803.47
558.139	8883.69
558.502	8786.97
558.865	8808.21
559.228	8807.76
559.59	8853.19
559.953	8764.15
560.316	8884.6
560.679	8797.14
561.041	8806.41
561.404	8797.14
561.767	8810.02
562.129	8734.32
562.492	8836.01
562.854	8861.09
563.217	8852.96
563.579	8795.79
563.941	8836.69
564.304	8819.51
564.666	8826.07
565.028	8826.75
565.39	8841.66
565.753	8880.3
566.115	8882.34
566.477	8937.7
566.839	8877.82
567.201	8889.79
567.563	8868.33
567.925	8949.23
568.287	8842.34
568.648	8881.21
569.01	9007.08
569.372	8976.35
569.734	8932.05
570.095	8918.04
570.457	8982.9
570.819	8967.08
571.18	8951.49
571.542	8938.15
571.903	8977.93
572.265	8978.38
572.626	9040.3
572.987	9062.45
573.349	9060.64
573.71	9066.06
574.071	9048.43
574.432	9035.55
574.794	9197.36
575.155	9120.07
575.516	9091.15
575.877	9091.37
576.238	9064.25
576.599	9117.36
576.96	9095.44
577.32	9162.1
577.681	9158.49
578.042	9109
578.403	9182.89
578.763	9182.44
579.124	9217.02
579.485	9194.42
579.845	9160.07
580.206	9211.37
580.566	9164.59
580.927	9259.05
581.287	9256.34
581.648	9235.1
582.008	9260.86
582.368	9252.5
582.728	9306.28
583.089	9244.36
583.449	9224.7
583.809	9283.23
584.169	9313.51
584.529	9258.6
584.889	9353.06
585.249	9304.02
585.609	9245.49
585.969	9262.67
586.329	9244.59
586.688	9321.87
587.048	9320.52
587.408	9311.25
587.768	9313.96
588.127	9277.81
588.487	9300.63
588.846	9358.03
589.206	9336.56
589.565	9358.93
589.925	9350.35
590.284	9322.1
590.643	9353.74
591.003	9348.31
591.362	9359.61
591.721	9384.7
592.08	9398.71
592.44	9444.36
592.799	9401.19
593.158	9409.1
593.517	9390.12
593.876	9414.07
594.235	9357.8
594.593	9367.97
594.952	9395.09
595.311	9289.11
595.67	9444.13
596.029	9393.51
596.387	9473.06
596.746	9399.84
597.104	9432.61
597.463	9396.9
597.822	9488.65
598.18	9409.55
598.538	9398.48
598.897	9411.59
599.255	9378.37
599.613	9534.98
599.972	9397.13
600.33	9452.72
600.688	9391.25
601.046	9439.38
601.404	9500.85
601.762	9455.88
602.12	9465.82
602.478	9530.23
602.836	9477.8
603.194	9410.01
603.552	9447.29
603.91	9453.17
604.268	9445.26
604.625	9391.02
604.983	9479.38
605.341	9420.18
605.698	9464.47
606.056	9495.88
606.413	9465.82
606.771	9535.88
607.128	9553.73
607.485	9490.46
607.843	9510.34
608.2	9496.11
608.557	9547.86
608.914	9512.83
609.272	9561.19
609.629	9550.12
609.986	9623.11
610.343	9526.16
610.7	9598.7
611.057	9534.07
611.414	9564.81
611.771	9559.38
612.127	9612.49
612.484	9601.87
612.841	9578.59
613.198	9591.92
613.554	9621.75
613.911	9673.28
614.267	9605.71
614.624	9659.49
614.98	9645.93
615.337	9652.94
615.693	9690.45
616.05	9664.24
616.406	9685.25
616.762	9659.72
617.118	9693.39
617.475	9659.49
617.831	9744.01
618.187	9681.86
618.543	9728.42
618.899	9751.24
619.255	9732.48
619.611	9704.69
619.967	9723.44
620.323	9821.75
620.678	9748.3
621.034	9697.68
621.39	9721.86
621.746	9709.43
622.101	9811.13
622.457	9822.88
622.812	9765.03
623.168	9739.72
623.523	9768.19
623.879	9793.95
624.234	9744.69
624.589	9768.87
624.945	9774.97
625.3	9740.39
625.655	9776.78
626.01	9845.02
626.365	9799.38
626.72	9709.66
627.075	9747.63
627.43	9798.47
627.785	9732.48
628.14	9750.11
628.495	9712.6
628.85	9761.64
629.205	9707.4
629.559	9709.66
629.914	9743.11
630.269	9699.04
630.623	9725.48
630.978	9696.55
631.332	9646.84
631.687	9675.31
632.041	9648.64
632.396	9599.15
632.75	9617.46
633.104	9615.88
633.459	9633.05
633.813	9597.12
634.167	9630.34
634.521	9514.18
634.875	9600.51
635.229	9536.56
635.583	9504.24
635.937	9498.37
636.291	9512.6
636.645	9529.1
636.999	9460.85
637.352	9524.58
637.706	9371.59
638.06	9468.99
638.413	9487.29
638.767	9448.42
639.121	9422.89
639.474	9363
639.828	9390.57
640.181	9380.86
640.534	9432.15
640.888	9426.96
641.241	9327.75
641.594	9410.91
641.947	9405.49
642.301	9365.26
642.654	9379.5
643.007	9390.35
643.36	9337.69
643.713	9339.5
644.066	9378.37
644.419	9339.05
644.771	9271.25
645.124	9194.19
645.477	9106.51
645.83	9013.63
646.182	9049.56
646.535	9020.41
646.888	9047.08
647.24	8936.35
647.593	9058.83
647.945	9012.28
648.298	9038.49
648.65	8953.3
649.002	9017.93
649.355	9051.6
649.707	8929.79
650.059	9009.57
650.411	9150.8
650.763	9160.75
651.115	9237.36
651.467	9233.97
651.819	9213.18
652.171	9161.88
652.523	9142.44
652.875	9198.26
653.227	9205.94
653.578	9253.63
653.93	9170.92
654.282	9194.65
654.633	9133.4
654.985	9172.95
655.337	9162.33
655.688	9200.29
656.039	9235.55
656.391	9227.64
656.742	9137.25
657.094	9174.98
657.445	9165.49
657.796	9218.6
658.147	9146.28
658.498	9217.47
658.849	9217.47
659.2	9210.24
659.551	9247.3
659.902	9198.94
660.253	9233.06
660.604	9190.35
660.955	9183.35
661.306	9200.29
661.656	9195.55
662.007	9178.6
662.358	9239.62
662.708	9198.71
663.059	9208.66
663.409	9169.11
663.76	9236.23
664.11	9222.67
664.461	9216.34
664.811	9257.24
665.161	9234.42
665.511	9168.21
665.862	9257.47
666.212	9215.21
666.562	9198.26
666.912	9210.92
667.262	9188.54
667.612	9264.47
667.962	9252.04
668.312	9241.42
668.662	9257.92
669.011	9239.39
669.361	9226.73
669.711	9206.4
670.06	9190.35
670.41	9204.81
670.76	9183.35
671.109	9152.39
671.459	9217.92
671.808	9144.7
672.157	9225.83
672.507	9076.23
672.856	9174.98
673.205	9169.79
673.554	9188.77
673.904	9167.08
674.253	9209.56
674.602	9143.35
674.951	8995.1
675.3	8915.78
675.649	9033.07
675.998	9105.38
676.346	9078.04
676.695	9052.5
677.044	9041.88
677.393	9000.07
677.741	9035.1
678.09	8995.33
678.438	9024.03
678.787	9026.29
679.135	8981.54
679.484	8957.36
679.832	8963.69
680.181	8881.43
680.529	8996.91
680.877	8921.43
681.225	8955.33
681.573	8920.75
681.922	8815.67
682.27	8864.26
682.618	8847.54
682.966	8807.99
683.314	8873.07
683.661	8779.06
684.009	8709.46
684.357	8768.22
684.705	8759.85
685.053	8718.73
685.4	8753.98
685.748	8723.47
686.095	8662
686.443	8642.34
686.79	8611.61
687.138	8659.97
687.485	8649.57
687.832	8613.87
688.18	8517.15
688.527	8519.41
688.874	8540.65
689.221	8456.59
689.568	8556.7
689.915	8453.87
690.262	8397.15
690.609	8349.7
690.956	8414.1
691.303	8290.71
691.65	8393.54
691.997	8342.46
692.344	8268.12
692.69	8241.9
693.037	8237.83
693.383	8180.89
693.73	8179.08
694.077	8190.15
694.423	8151.06
694.769	8124.84
695.116	8130.49
695.462	8038.74
695.808	8044.17
696.155	8043.26
696.501	7983.6
696.847	7936.15
697.193	7870.84
697.539	7881.91
697.885	7853.66
698.231	7841.69
698.577	7808.69
698.923	7764.63
699.269	7782.93
699.614	7618.19
699.96	7729.6
700.306	7693.22
700.651	7609.15
700.997	7546.55
701.342	7642.37
701.688	7549.49
702.033	7567.8
702.379	7514.92
702.724	7455.26
703.069	7433.34
703.415	7368.25
703.76	7384.75
704.105	7473.79
704.45	7388.82
704.795	7352.43
705.14	7365.77
705.485	7308.59
705.83	7264.3
706.175	7306.56
706.52	7278.54
706.865	7177.75
707.209	7147.69
707.554	7196.51
707.899	7187.01
708.243	7120.8
708.588	7147.02
708.932	7034.7
709.277	7097.3
709.621	7057.53
709.966	7004.19
710.31	6994.48
710.654	6981.82
710.998	6941.15
711.342	6982.05
711.687	6928.04
712.031	6916.74
712.375	6921.26
712.719	6912.45
713.063	6874.25
713.407	6928.26
713.75	6851.43
714.094	6806.46
714.438	6793.8
714.782	6825.44
715.125	6781.6
715.469	6740.92
715.812	6767.59
716.156	6737.31
716.499	6776.86
716.843	6767.36
717.186	6716.29
717.53	6751.32
717.873	6747.7
718.216	6684.43
718.559	6690.3
718.902	6672.68
719.246	6676.52
719.589	6636.75
719.932	6572.34
720.275	6637.88
720.617	6632.68
720.96	6605.79
721.303	6617.31
721.646	6586.13
721.989	6538.44
722.331	6614.83
722.674	6597.88
723.016	6571.66
723.359	6555.39
723.701	6559.01
724.044	6516.3
724.386	6543.87
724.729	6559.69
725.071	6534.38
725.413	6526.69
725.755	6506.35
726.097	6493.47
726.439	6463.64
726.782	6508.61
727.124	6445.79
727.465	6499.8
727.807	6483.76
728.149	6525.56
728.491	6450.08
728.833	6485.56
729.175	6412.12
729.516	6464.55
729.858	6420.48
730.199	6488.5
730.541	6425
730.882	6380.71
731.224	6461.38
731.565	6399.24
731.906	6413.25
732.248	6403.76
732.589	6454.6
732.93	6395.4
733.271	6364.66
733.612	6431.33
733.953	6471.1
734.294	6414.38
734.635	6366.25
734.976	6447.37
735.317	6414.38
735.658	6410.54
735.999	6386.36
736.339	6467.71
736.68	6441.5
737.021	6435.62
737.361	6418
737.702	6487.15
738.042	6464.77
738.383	6394.49
738.723	6460.48
739.063	6483.53
739.404	6460.03
739.744	6500.03
740.084	6440.82
740.424	6524.43
740.764	6514.94
741.104	6575.05
741.444	6539.35
741.784	6470.88
742.124	6559.01
742.464	6541.61
742.804	6515.62
743.143	6642.17
743.483	6680.14
743.823	6648.5
744.162	6663.19
744.502	6653.92
744.841	6663.86
745.181	6719
745.52	6674.94
745.86	6858.21
746.199	6840.58
746.538	6849.85
746.877	6922.39
747.216	6964.65
747.556	7003.97
747.895	7065.89
748.234	7006.45
748.573	7102.72
748.911	7166.9
749.25	7239.44
749.589	7230.86
749.928	7313.79
750.267	7430.85
750.605	7434.47
750.944	7509.72
751.283	7575.48
751.621	7653.89
751.96	7735.02
752.298	7736.83
752.636	7915.58
752.975	8006.88
753.313	8038.74
753.651	8205.97
753.989	8283.71
754.327	8389.02
754.666	8467.88
755.004	8583.81
755.342	8729.12
755.679	8829.01
756.017	8962.33
756.355	9084.37
756.693	9186.51
757.031	9322.1
757.368	9466.95
757.706	9614.07
758.044	9694.07
758.381	9917.79
758.719	10029.65
759.056	10165.02
759.394	10338.12
759.731	10490.2
760.068	10623.99
760.405	10679.8
760.743	10872.12
761.08	11096.52
761.417	11264.2
761.754	11392.78
762.091	11641.13
762.428	11737.18
762.765	11946.66
763.102	12166.54
763.438	12275.24
763.775	12408.35
764.112	12606.31
764.449	12899.18
764.785	12944.6
765.122	13081.77
765.458	13271.15
765.795	13454.42
766.131	13528.54
766.467	13732.15
766.804	13831.13
767.14	13978.93
767.476	14135.08
767.812	14272.25
768.148	14523.54
768.485	14570.32
768.821	14650.1
769.157	14798.34
769.492	14965.11
769.828	15096.41
770.164	15144.32
770.5	15259.12
770.836	15496.4
771.171	15504.99
771.507	15687.81
771.842	15646
772.178	15789.27
772.513	15996.05
772.849	15979.33
773.184	16138.87
773.519	16192.88
773.855	16321.01
774.19	16356.49
774.525	16415.7
774.86	16563.94
775.195	16686.2
775.53	16709.25
775.865	16734.56
776.2	16828.57
776.535	16641.46
776.87	16826.53
777.205	16932.75
777.539	16910.15
777.874	17032.63
778.209	17044.16
778.543	17014.33
778.878	17004.16
779.212	17117.83
779.547	17079.41
779.881	17318.95
780.215	17184.04
780.55	17363.47
780.884	17309.23
781.218	17390.81
781.552	17447.54
781.886	17375.9
782.22	17400.53
782.554	17402.34
782.888	17250.03
783.222	17284.83
783.556	17360.98
783.889	17361.44
784.223	17221.1
784.557	17264.49
784.89	17388.78
785.224	17247.09
785.557	17224.26
785.891	17262.23
786.224	17270.14
786.558	17309.46
786.891	17184.27
787.224	17233.76
787.557	17163.25
787.891	17146.53
788.224	17186.3
788.557	17257.26
788.89	17177.49
789.223	17202.57
789.556	17063.82
789.888	17168.9
790.221	17102.69
790.554	16926.65
790.887	17004.61
791.219	16941.79
791.552	16937.94
791.884	16928.23
792.217	16818.85
792.549	16873.99
792.882	16798.74
793.214	16742.7
793.546	16852.52
793.879	16725.75
794.211	16647.56
794.543	16728.01
794.875	16693.21
795.207	16815.69
795.539	16654.56
795.871	16671.74
796.203	16503.83
796.535	16552.87
796.867	16505.87
797.198	16448.47
797.53	16493.66
797.862	16274.23
798.193	16445.98
798.525	16247.79
798.856	16419.54
799.188	16176.83
799.519	16100
799.85	16132.77
800.182	16144.07
800.513	16166.21
800.844	15954.69
801.175	16149.04
801.506	16064.52
801.837	16015.26
802.168	15912.43
802.499	15937.29
802.83	15821.36
803.161	15799.22
803.491	15841.48
803.822	15872.21
804.153	15780.91
804.483	15609.84
804.814	15686.45
805.145	15665.44
805.475	15658.2
805.805	15615.95
806.136	15502.73
806.466	15511.77
806.796	15555.83
807.126	15399.23
807.457	15397.42
807.787	15412.33
808.117	15353.35
808.447	15272.9
808.777	15347.03
809.107	15176.18
809.436	15210.76
809.766	15200.36
810.096	15174.83
810.426	15131.66
810.755	15054.6
811.085	14978.9
811.414	15004.66
811.744	14920.6
812.073	14806.02
812.403	14961.73
812.732	14893.7
813.061	14845.8
813.39	14745.01
813.719	14766.7
814.049	14824.1
814.378	14735.06
814.707	14767.61
815.036	14695.97
815.365	14705.46
815.693	14588.85
816.022	14587.95
816.351	14514.96
816.68	14537.33
817.008	14549.98
817.337	14408.29
817.665	14401.97
817.994	14400.84
818.322	14411.23
818.651	14289.88
818.979	14296.43
819.307	14402.64
819.636	14274.06
819.964	14246.26
820.292	14292.59
820.62	14285.13
820.948	14245.59
821.276	14349.09
821.604	14277.22
821.932	14321.97
822.259	14279.71
822.587	14280.16
822.915	14213.27
823.243	14364.9
823.57	14191.12
823.898	14194.97
824.225	14228.41
824.553	14259.14
824.88	14283.33
825.207	14210.33
825.535	14194.74
825.862	14264.12
826.189	14147.96
826.516	14276.32
826.843	14324.68
827.17	14334.62
827.497	14319.03
827.824	14279.71
828.151	14385.02
828.478	14274.51
828.805	14474.51
829.131	14235.19
829.458	14239.48
829.785	14277
830.111	14276.09
830.438	14295.53
830.764	14316.54
831.09	14294.17
831.417	14221.63
831.743	14226.83
832.069	14345.24
832.395	14136.66
832.722	14222.31
833.048	14200.16
833.374	14191.35
833.7	14272.48
834.026	14194.51
834.351	14128.07
834.677	14178.02
835.003	14178.02
835.329	14131.01
835.654	14129.66
835.98	14056.66
836.306	14087.17
836.631	14064.57
836.956	14081.52
837.282	14103.44
837.607	14105.93
837.932	14012.15
838.258	13941.87
838.583	13997.68
838.908	14003.56
839.233	13934.63
839.558	13930.11
839.883	13842.43
840.208	13830.23
840.533	13791.81
840.858	13879.04
841.182	13826.84
841.507	13813.96
841.832	13683.34
842.156	13780.74
842.481	13699.84
842.805	13623.23
843.13	13612.61
843.454	13649.9
843.778	13545.49
844.103	13564.02
844.427	13519.73
844.751	13495.55
845.075	13448.54
845.399	13441.31
845.723	13406.06
846.047	13383.69
846.371	13291.94
846.695	13236.12
847.019	13165.16
847.343	13073.19
847.666	13011.27
847.99	12965.62
848.313	12914.77
848.637	12898.73
848.96	12886.53
849.284	12913.19
849.607	12686.98
849.931	12615.35
850.254	12656.93
850.577	12614.67
850.9	12502.35
851.223	12492.64
851.546	12458.51
851.869	12331.29
852.192	12446.99
852.515	12294.68
852.838	12270.04
853.161	12229.59
853.483	12212.87
853.806	12021.46
854.129	12112.08
854.451	12012.88
854.774	11985.08
855.096	11976.49
855.419	11951.18
855.741	11884.97
856.063	11862.37
856.385	11784.86
856.708	11784.41
857.03	11708.25
857.352	11767.01
857.674	11634.13
857.996	11650.4
858.318	11538.54
858.64	11548.48
858.961	11580.57
859.283	11449.73
859.605	11479.78
859.926	11502.83
860.248	11459.67
860.57	11373.8
860.891	11343.06
861.212	11377.41
861.534	11299.45
861.855	11354.14
862.176	11291.54
862.498	11355.49
862.819	11299
863.14	11209.06
863.461	11164.08
863.782	11146.23
864.103	11198.43
864.424	11139.45
864.745	11146.23
865.065	11108.49
865.386	11068.04
865.707	11071.21
866.027	10938.33
866.348	11019.23
866.668	11019.91
866.989	10964.77
867.309	10893.36
867.63	10885.9
867.95	10932
868.27	10836.41
868.59	10810.42
868.91	10837.99
869.23	10818.78
869.55	10737.43
869.87	10810.2
870.19	10764.32
870.51	10789.18
870.83	10701.27
871.15	10695.62
871.469	10728.16
871.789	10739.69
872.109	10734.27
872.428	10594.16
872.748	10592.35
873.067	10664.89
873.386	10625.34
873.706	10641.84
874.025	10583.08
874.344	10590.31
874.663	10588.96
874.982	10553.25
875.301	10537.66
875.62	10484.78
875.939	10449.53
876.258	10483.42
876.577	10386.48
876.896	10487.72
877.214	10391.45
877.533	10411.79
877.852	10431
878.17	10384.44
878.489	10305.8
878.807	10313.49
879.125	10337.21
879.444	10332.69
879.762	10266.03
880.08	10250.89
880.398	10221.28
880.716	10279.81
881.034	10196.43
881.352	10199.82
881.67	10146.26
881.988	10115.52
882.306	10130.21
882.624	10078.69
882.941	10012.7
883.259	9999.82
883.577	10019.93
883.894	10017.22
884.212	10003.66
884.529	9954.17
884.846	9847.28
885.164	9897.45
885.481	9897.9
885.798	9878.7
886.115	9763.67
886.432	9796.21
886.75	9811.35
887.067	9827.17
887.383	9704.46
887.7	9704.46
888.017	9713.05
888.334	9599.61
888.651	9666.5
888.967	9641.87
889.284	9659.94
889.6	9590.12
889.917	9452.27
890.233	9468.08
890.55	9433.51
890.866	9475.54
891.182	9465.82
891.498	9417.92
891.815	9393.28
892.131	9344.02
892.447	9299.05
892.763	9313.51
893.079	9314.64
893.395	9256.79
893.71	9203.46
894.026	9226.73
894.342	9186.74
894.657	9073.07
894.973	9078.94
895.289	9080.52
895.604	9037.59
895.92	9003.46
896.235	8988.1
896.55	8971.15
896.865	8955.1
897.181	8893.64
897.496	8906.74
897.811	8786.52
898.126	8787.2
898.441	8743.13
898.756	8678.27
899.071	8626.52
899.386	8676.92
899.7	8609.35
900.015	8575.68
900.33	8536.13
900.644	8557.83
900.959	8563.7
901.273	8492.52
901.588	8527.54
901.902	8394.89
902.216	8362.35
902.531	8347.21
902.845	8349.7
903.159	8284.84
903.473	8275.12
903.787	8225.41
904.101	8145.86
904.415	8198.06
904.729	8141.79
905.042	8077.84
905.356	7991.29
905.67	8042.13
905.984	8081.91
906.297	7940.89
906.611	7990.61
906.924	7949.93
907.237	7886.66
907.551	7844.85
907.864	7817.51
908.177	7862.7
908.491	7802.37
908.804	7664.29
909.117	7692.99
909.43	7676.72
909.743	7578.19
910.056	7554.01
910.368	7530.96
910.681	7512.2
910.994	7512.43
911.307	7506.1
911.619	7467.46
911.932	7434.24
912.244	7387.24
912.557	7346.11
912.869	7265.43
913.181	7290.06
913.494	7253.23
913.806	7212.55
914.118	7232.89
914.43	7158.09
914.742	7154.7
915.054	7097.3
915.366	7137.07
915.678	7047.13
915.99	7021.6
916.302	6990.64
916.613	6920.81
916.925	6988.15
917.236	6896.85
917.548	6921.03
917.859	6848.72
918.171	6859.57
918.482	6838.77
918.794	6810.3
919.105	6768.72
919.416	6697.99
919.727	6696.18
920.038	6697.76
920.349	6617.54
920.66	6613.7
920.971	6585.45
921.282	6607.14
921.593	6477.2
921.903	6469.97
922.214	6467.94
922.525	6441.5
922.835	6442.18
923.146	6438.79
923.456	6355.4
923.767	6332.12
924.077	6298.45
924.387	6269.52
924.697	6315.62
925.008	6255.97
925.318	6234.95
925.628	6194.27
925.938	6210.09
926.248	6146.14
926.558	6160.15
926.867	6130.55
927.177	6091.22
927.487	6100.49
927.796	6012.36
928.106	5979.14
928.416	5977.78
928.725	5973.94
929.034	5898.23
929.344	5928.06
929.653	5896.2
929.962	5841.97
930.271	5842.42
930.581	5780.5
930.89	5721.29
931.199	5728.3
931.508	5728.07
931.817	5745.02
932.125	5674.74
932.434	5681.97
932.743	5673.38
933.051	5589.32
933.36	5570.79
933.669	5538.92
933.977	5556.77
934.286	5560.62
934.594	5528.75
934.902	5449.88
935.21	5469.55
935.519	5512.26
935.827	5402.88
936.135	5334.18
936.443	5321.07
936.751	5304.58
937.059	5352.03
937.367	5308.87
937.674	5288.53
937.982	5277.01
938.29	5274.07
938.597	5253.05
938.905	5173.96
939.213	5150.68
939.52	5102.1
939.827	5150.68
940.135	5088.31
940.442	5085.83
940.749	5072.95
941.056	5037.92
941.363	4930.35
941.67	4983.68
941.977	4939.39
942.284	4920.41
942.591	4957.24
942.898	4940.75
943.205	4891.71
943.511	4844.48
943.818	4876.11
944.125	4816.68
944.431	4836.79
944.738	4783.24
945.044	4799.05
945.35	4730.13
945.657	4737.59
945.963	4686.97
946.269	4643.58
946.575	4740.07
946.881	4669.79
947.187	4602
947.493	4615.56
947.799	4582.34
948.105	4568.1
948.41	4492.4
948.716	4557.71
949.022	4536.91
949.327	4476.58
949.633	4448.78
949.938	4446.3
950.244	4396.58
950.549	4391.38
950.854	4410.36
951.16	4377.82
951.465	4368.56
951.77	4326.3
952.075	4330.82
952.38	4335.79
952.685	4320.88
952.99	4242.91
953.294	4234.78
953.599	4230.03
953.904	4195.23
954.209	4211.73
954.513	4191.39
954.818	4166.3
955.122	4162.01
955.426	4161.56
955.731	4103.03
956.035	4072.29
956.339	4045.63
956.643	4072.52
956.948	4009.92
957.252	4011.28
957.556	4018.28
957.86	3978.96
958.163	3999.75
958.467	3972.86
958.771	3948.91
959.075	3936.03
959.378	3919.98
959.682	3898.97
959.985	3892.19
960.289	3850.83
960.592	3834.79
960.896	3794.34
961.199	3813.09
961.502	3787.1
961.805	3794.79
962.108	3760.89
962.411	3749.59
962.714	3701.91
963.017	3711.85
963.32	3680.67
963.623	3643.38
963.926	3661.01
964.228	3640.67
964.531	3647.67
964.833	3649.48
965.136	3592.53
965.438	3577.17
965.741	3571.52
966.043	3575.58
966.345	3566.77
966.648	3509.6
966.95	3515.47
967.252	3482.03
967.554	3445.19
967.856	3474.57
968.158	3431.63
968.46	3411.52
968.761	3433.89
969.063	3430.05
969.365	3396.83
969.666	3384.63
969.968	3334.46
970.269	3368.81
970.571	3293.33
970.872	3312.77
971.174	3269.83
971.475	3244.07
971.776	3277.51
972.077	3245.65
972.378	3254.91
972.679	3200.68
972.98	3231.64
973.281	3215.37
973.582	3214.92
973.883	3180.79
974.183	3155.48
974.484	3148.7
974.785	3136.95
975.085	3132.43
975.386	3138.08
975.686	3108.93
975.986	3052.89
976.287	3052.21
976.587	3061.02
976.887	3058.54
977.187	3011.98
977.487	3014.24
977.787	3009.27
978.087	2995.26
978.387	2954.13
978.687	2957.97
978.987	2931.08
979.286	2921.59
979.586	2911.65
979.885	2896.05
980.185	2888.82
980.484	2879.33
980.784	2872.55
981.083	2890.18
981.382	2822.61
981.682	2818.54
981.981	2820.12
982.28	2820.35
982.579	2784.19
982.878	2791.42
983.177	2774.7
983.475	2777.64
983.774	2739.9
984.073	2741.48
984.372	2706
984.67	2722.73
984.969	2688.83
985.267	2674.59
985.566	2688.83
985.864	2635.95
986.162	2653.35
986.461	2586.91
986.759	2646.12
987.057	2606.8
987.355	2583.52
987.653	2590.3
987.951	2576.97
988.249	2534.03
988.547	2579
988.844	2557.31
989.142	2533.8
989.44	2501.49
989.737	2511.21
990.035	2506.91
990.332	2536.97
990.63	2483.41
990.927	2459
991.224	2455.16
991.521	2425.56
991.819	2440.92
992.116	2426.69
992.413	2423.07
992.71	2390.08
993.006	2391.21
993.303	2377.2
993.6	2357.99
993.897	2327.48
994.193	2362.73
994.49	2309.63
994.787	2326.58
995.083	2309.63
995.379	2298.1
995.676	2270.99
995.972	2265.56
996.268	2234.6
996.565	2249.29
996.861	2222.17
997.157	2223.08
997.453	2237.77
997.749	2196.19
998.044	2179.91
998.34	2174.94
998.636	2147.82
998.932	2185.56
999.227	2143.98
999.523	2125.9
999.818	2103.76
1000.114	2098.56
1000.409	2105.34
1000.704	2076.87
1001	2075.51
1001.295	2085.91
1001.59	2029.18
1001.885	2068.05
1002.18	2037.09
1002.475	2046.81
1002.77	2022.86
1003.065	2021.73
1003.359	1976.53
1003.654	2022.86
1003.949	1970.43
1004.243	1944.21
1004.538	1965
1004.832	1930.43
1005.127	1954.84
1005.421	1933.82
1005.715	1907.61
1006.009	1880.94
1006.304	1880.26
1006.598	1845.69
1006.892	1843.88
1007.186	1823.99
1007.48	1878
1007.773	1827.83
1008.067	1818.57
1008.361	1818.12
1008.655	1823.77
1008.948	1782.18
1009.242	1759.59
1009.535	1784.9
1009.829	1746.71
1010.122	1764.56
1010.415	1743.54
1010.708	1745.8
1011.001	1733.82
1011.295	1702.86
1011.588	1705.12
1011.881	1666.93
1012.173	1693.37
1012.466	1661.74
1012.759	1655.86
1013.052	1669.19
1013.344	1665.13
1013.637	1686.59
1013.93	1651.34
1014.222	1612.02
1014.514	1622.19
1014.807	1606.14
1015.099	1579.7
1015.391	1591.23
1015.683	1565.92
1015.976	1567.5
1016.268	1545.13
1016.56	1556.2
1016.851	1536.09
1017.143	1542.19
1017.435	1485.24
1017.727	1533.6
1018.018	1468.07
1018.31	1473.04
1018.602	1466.26
1018.893	1462.65
1019.185	1461.52
1019.476	1466.03
1019.767	1434.85
1020.058	1463.55
1020.35	1396.88
1020.641	1401.4
1020.932	1411.35
1021.223	1396.66
1021.514	1400.05
1021.804	1367.05
1022.095	1380.39
1022.386	1379.48
1022.677	1363.21
1022.967	1361.18
1023.258	1325.93
1023.548	1320.5
1023.839	1302.2
1024.129	1344.91
1024.419	1318.02
1024.709	1299.49
1025	1287.73
1025.29	1244.8
1025.58	1249.09
1025.87	1245.48
1026.16	1276.21
1026.449	1264.46
1026.739	1213.61
1027.029	1194.63
1027.319	1225.14
1027.608	1232.82
1027.898	1198.7
1028.187	1177
1028.477	1181.97
1028.766	1168.19
1029.055	1162.77
1029.344	1187.17
1029.634	1161.41
1029.923	1152.82
1030.212	1157.34
1030.501	1137.23
1030.79	1134.29
1031.078	1115.54
1031.367	1127.96
1031.656	1111.47
1031.945	1116.67
1032.233	1079.6
1032.522	1090.9
1032.81	1063.56
1033.099	1059.72
1033.387	1059.27
1033.675	1046.84
1033.963	1045.71
1034.251	1040.51
1034.54	1035.31
1034.828	1053.84
1035.116	1027.63
1035.403	983.34
1035.691	1007.74
1035.979	1026.5
1036.267	987.63
1036.554	1031.92
1036.842	953.51
1037.129	975.43
1037.417	997.8
1037.704	953.96
1037.992	946.27
1038.279	947.18
1038.566	942.43
1038.853	942.43
1039.14	942.43
