Data from hue_180_FLMS001491_00047.txt Node
Date: Tue Feb 07 16:47:03 GMT 2017
User: dcchb
Spectrometer: FLMS00149
Trigger mode: 0
Integration Time (sec): 2.000000E-2
Scans to average: 10
Electric dark correction enabled: true
Nonlinearity correction enabled: false
Boxcar width: 0
XAxis mode: Wavelengths
Number of Pixels in Spectrum: 2048
>>>>>Begin Spectral Data<<<<<
341.393	-17.95
341.776	-17.95
342.16	-17.95
342.543	-61.11
342.927	-69.25
343.31	-52.75
343.693	-60.44
344.077	-58.63
344.46	-67.22
344.843	-64.73
345.226	-47.1
345.61	-24.05
345.993	-21.34
346.376	-0.32
346.759	-0.78
347.142	52.56
347.525	25.89
347.908	58.88
348.291	53.01
348.674	88.49
349.057	118.54
349.44	133.23
349.823	122.84
350.206	152.21
350.588	179.11
350.971	201.7
351.354	220.23
351.737	230.4
352.119	248.26
352.502	223.85
352.884	267.92
353.267	267.69
353.65	294.36
354.032	277.63
354.414	290.51
354.797	301.14
355.179	317.41
355.562	342.27
355.944	325.32
356.326	337.52
356.709	325.77
357.091	323.28
357.473	360.12
357.855	350.4
358.238	337.97
358.62	324.64
359.002	333.23
359.384	327.8
359.766	339.1
360.148	321.47
360.53	344.3
360.912	323.51
361.294	329.38
361.676	322.15
362.057	317.18
362.439	326.45
362.821	323.73
363.203	294.13
363.584	324.41
363.966	322.38
364.348	324.64
364.729	298.42
365.111	296.62
365.493	302.49
365.874	306.33
366.256	305.2
366.637	307.92
367.019	294.36
367.4	295.94
367.781	304.75
368.163	300.46
368.544	327.58
368.925	311.53
369.306	305.66
369.688	326.45
370.069	281.93
370.45	304.53
370.831	317.86
371.212	317.41
371.593	322.6
371.974	304.3
372.355	328.48
372.736	316.5
373.117	313.34
373.498	309.5
373.879	292.77
374.26	323.28
374.641	318.08
375.021	316.73
375.402	317.41
375.783	316.5
376.163	322.15
376.544	312.44
376.925	320.34
377.305	315.37
377.686	315.6
378.066	326.9
378.447	329.16
378.827	323.73
379.208	319.44
379.588	349.5
379.968	300.91
380.349	326.67
380.729	310.63
381.109	335.03
381.489	327.12
381.87	334.36
382.25	307.46
382.63	323.06
383.01	332.1
383.39	325.32
383.77	313.57
384.15	344.98
384.53	320.8
384.91	342.49
385.29	354.02
385.67	334.81
386.049	333.45
386.429	366.67
386.809	357.18
387.189	343.85
387.568	349.5
387.948	328.48
388.328	363.96
388.707	388.59
389.087	366.45
389.466	355.37
389.846	342.49
390.225	354.02
390.605	369.16
390.984	380.46
391.363	363.73
391.743	378.87
392.122	348.37
392.501	358.08
392.881	371.87
393.26	386.78
393.639	372.32
394.018	384.98
394.397	375.48
394.776	376.39
395.155	373.45
395.534	378.2
395.913	393.11
396.292	399.66
396.671	395.14
397.05	387.46
397.429	396.73
397.808	375.94
398.186	372.77
398.565	396.95
398.944	407.35
399.323	398.99
399.701	395.14
400.08	407.8
400.458	389.5
400.837	411.42
401.215	430.85
401.594	406.22
401.972	424.97
402.351	429.72
402.729	424.3
403.107	424.3
403.486	428.59
403.864	438.76
404.242	391.3
404.62	430.17
404.999	428.14
405.377	458.42
405.755	427.23
406.133	426.78
406.511	438.08
406.889	467.91
407.267	452.54
407.645	476.72
408.023	474.01
408.401	463.17
408.779	481.24
409.156	463.62
409.534	510.17
409.912	482.6
410.29	515.59
410.667	493.67
411.045	527.34
411.422	519.89
411.8	528.93
412.178	544.07
412.555	536.84
412.933	539.77
413.31	510.4
413.687	551.98
414.065	580.9
414.442	571.64
414.819	575.71
415.197	582.03
415.574	586.1
415.951	575.03
416.328	587.68
416.705	607.12
417.082	608.7
417.46	603.73
417.837	622.71
418.214	623.61
418.591	650.28
418.967	627.91
419.344	651.18
419.721	667.23
420.098	680.56
420.475	681.47
420.852	681.24
421.228	700
421.605	691.18
421.982	724.18
422.358	715.81
422.735	725.08
423.111	723.72
423.488	741.35
423.864	764.63
424.241	777.06
424.617	777.51
424.994	799.2
425.37	801.91
425.746	797.85
426.123	815.02
426.499	824.74
426.875	857.73
427.251	856.15
427.627	870.39
428.003	887.34
428.379	885.08
428.756	888.01
429.132	920.1
429.507	915.13
429.883	912.19
430.259	916.94
430.635	953.1
431.011	952.64
431.387	948.58
431.763	990.38
432.138	980.89
432.514	1014.11
432.89	1021.8
433.265	992.19
433.641	1037.61
434.016	1070.16
434.392	1080.55
434.767	1089.36
435.143	1095.69
435.518	1159.64
435.894	1164.16
436.269	1184.28
436.644	1183.6
437.02	1217.5
437.395	1251.62
437.77	1226.76
438.145	1276.93
438.52	1287.55
438.895	1288
439.271	1292.3
439.646	1321.45
440.021	1365.06
440.395	1369.58
440.77	1332.3
441.145	1362.8
441.52	1401.9
441.895	1407.77
442.27	1428.56
442.645	1428.79
443.019	1481.67
443.394	1465.4
443.769	1471.5
444.143	1475.34
444.518	1539.75
444.892	1528
445.267	1505.85
445.641	1572.29
446.016	1567.54
446.39	1538.17
446.764	1596.02
447.139	1579.75
447.513	1610.71
447.887	1587.66
448.262	1614.55
448.636	1650.03
449.01	1648.22
449.384	1681.66
449.758	1697.26
450.132	1724.6
450.506	1712.62
450.88	1692.74
451.254	1747.88
451.628	1760.53
452.002	1767.76
452.376	1749.91
452.75	1830.14
453.123	1817.25
453.497	1879.85
453.871	1918.04
454.244	1922.34
454.618	1927.76
454.992	1953.97
455.365	1950.58
455.739	2008.66
456.112	2041.2
456.486	2018.83
456.859	2050.02
457.232	2073.07
457.606	2098.15
457.979	2121.2
458.352	2177.92
458.725	2190.35
459.099	2204.59
459.472	2237.81
459.845	2255.21
460.218	2273.29
460.591	2296.11
460.964	2324.81
461.337	2400.06
461.71	2407.3
462.083	2441.64
462.456	2453.4
462.829	2452.72
463.201	2538.82
463.574	2572.71
463.947	2591.92
464.32	2644.8
464.692	2649.77
465.065	2656.33
465.438	2720.51
465.81	2744.91
466.183	2777
466.555	2882.99
466.928	2893.38
467.3	2899.94
467.672	2916.66
468.045	3033.27
468.417	3018.13
468.789	3067.39
469.161	3057
469.534	3153.04
469.906	3238.69
470.278	3228.97
470.65	3279.81
471.022	3349.19
471.394	3416.76
471.766	3466.02
472.138	3506.25
472.51	3590.09
472.882	3661.05
473.253	3718.9
473.625	3732.91
473.997	3777.2
474.369	3876.41
474.74	3895.62
475.112	3975.62
475.484	4079.34
475.855	4140.58
476.227	4213.8
476.598	4275.27
476.97	4359.79
477.341	4443.4
477.713	4555.49
478.084	4623.06
478.455	4744.86
478.827	4747.57
479.198	4898.98
479.569	4930.62
479.94	5042.93
480.311	5134
480.682	5294
481.053	5373.09
481.424	5501.45
481.795	5534.22
482.166	5650.83
482.537	5745.96
482.908	5835.68
483.279	5898.5
483.65	6067.99
484.021	6183.69
484.391	6305.27
484.762	6305.95
485.133	6361.77
485.503	6510.92
485.874	6646.51
486.244	6752.04
486.615	6907.74
486.985	6921.75
487.356	7080.17
487.726	7187.51
488.097	7272.25
488.467	7332.59
488.837	7512.47
489.207	7637.89
489.578	7750.21
489.948	7825.01
490.318	7965.57
490.688	8001.05
491.058	8090.08
491.428	8173.7
491.798	8246.69
492.168	8480.13
492.538	8527.13
492.908	8660.24
493.278	8732.33
493.648	8695.72
494.017	8874.47
494.387	8891.64
494.757	9041.47
495.126	9165.31
495.496	9183.84
495.866	9257.96
496.235	9286.21
496.605	9340.9
496.974	9420.67
497.344	9564.85
497.713	9582.47
498.082	9666.31
498.452	9699.53
498.821	9791.73
499.19	9812.3
499.559	9879.19
499.928	10002.58
500.298	9960.77
500.667	10052.97
501.036	10082.8
501.405	10246.41
501.774	10127.09
502.143	10277.6
502.512	10229.01
502.88	10368.89
503.249	10351.04
503.618	10398.5
503.987	10438.5
504.356	10469.91
504.724	10568.44
505.093	10539.74
505.462	10579.74
505.83	10625.84
506.199	10718.49
506.567	10825.83
506.936	10724.14
507.304	10876.45
507.672	10878.03
508.041	10875.77
508.409	10950.35
508.777	11057.46
509.145	11070.12
509.514	11018.37
509.882	11079.84
510.25	11039.61
510.618	11117.57
510.986	11196.44
511.354	11253.62
511.722	11270.11
512.09	11311.24
512.458	11280.06
512.826	11358.25
513.193	11367.29
513.561	11360.51
513.929	11421.07
514.297	11476.89
514.664	11513.95
515.032	11526.6
515.4	11478.24
515.767	11562.76
516.135	11640.95
516.502	11478.7
516.869	11708.97
517.237	11662.42
517.604	11529.32
517.972	11717.33
518.339	11687.05
518.706	11656.32
519.073	11731.57
519.44	11704.23
519.808	11748.07
520.175	11745.58
520.542	11837.56
520.909	11821.51
521.276	11741.51
521.643	11854.96
522.009	11833.26
522.376	11869.65
522.743	11913.94
523.11	11984.9
523.477	12001.39
523.843	12031.22
524.21	11969.76
524.577	12051.56
524.943	12079.36
525.31	12081.17
525.676	12137.44
526.043	12145.34
526.409	12103.31
526.776	12184.89
527.142	12142.18
527.508	12143.31
527.874	12114.38
528.241	12148.28
528.607	12093.59
528.973	12184.67
529.339	12127.49
529.705	12127.27
530.071	12186.25
530.437	12139.47
530.803	12171.11
531.169	12140.37
531.535	12037.32
531.901	12023.31
532.267	12086.14
532.632	12056.53
532.998	12066.25
533.364	11996.2
533.73	12046.59
534.095	12088.17
534.461	11983.77
534.826	11938.57
535.192	11911.45
535.557	11922.07
535.923	11861.74
536.288	11856.54
536.653	11894.28
537.019	11770.67
537.384	11728.86
537.749	11652.7
538.114	11644.11
538.479	11562.31
538.845	11589.65
539.21	11487.28
539.575	11514.17
539.94	11423.33
540.305	11462.65
540.67	11417.68
541.034	11419.71
541.399	11326.16
541.764	11322.09
542.129	11245.03
542.494	11233.73
542.858	11164.35
543.223	11180.62
543.587	11160.51
543.952	11063.11
544.316	11081.87
544.681	10953.51
545.045	10980.63
545.41	10995.54
545.774	10911.48
546.138	10776.11
546.503	10812.95
546.867	10774.53
547.231	10759.84
547.595	10677.81
547.959	10696.57
548.324	10515.56
548.688	10528.66
549.052	10469.23
549.416	10449.8
549.779	10492.05
550.143	10337.03
550.507	10393.98
550.871	10376.58
551.235	10227.2
551.599	10301.55
551.962	10254.09
552.326	10189.69
552.689	10169.58
553.053	10095.23
553.417	10068.34
553.78	10122.57
554.143	10058.17
554.507	9985.63
554.87	9953.54
555.234	9995.12
555.597	9922.8
555.96	9904.05
556.323	9816.82
556.686	9900.66
557.05	9893.88
557.413	9807.78
557.776	9750.61
558.139	9714.22
558.502	9753.54
558.865	9709.25
559.228	9767.33
559.59	9696.14
559.953	9693.66
560.316	9729.36
560.679	9669.25
561.041	9693.88
561.404	9692.53
561.767	9657.95
562.129	9608.69
562.492	9630.38
562.854	9627.22
563.217	9533.89
563.579	9562.59
563.941	9639.2
564.304	9522.14
564.666	9578.86
565.028	9580.89
565.39	9568.01
565.753	9607.33
566.115	9568.24
566.477	9538.63
566.839	9612.53
567.201	9616.6
567.563	9572.08
567.925	9594
568.287	9524.62
568.648	9538.86
569.01	9635.13
569.372	9567.79
569.734	9539.54
570.095	9578.18
570.457	9551.51
570.819	9531.85
571.18	9559.2
571.542	9575.69
571.903	9575.92
572.265	9558.97
572.626	9535.47
572.987	9548.58
573.349	9612.08
573.71	9585.19
574.071	9653.88
574.432	9569.37
574.794	9704.28
575.155	9643.49
575.516	9588.8
575.877	9582.02
576.238	9567.79
576.599	9572.76
576.96	9606.43
577.32	9574.11
577.681	9647.78
578.042	9605.07
578.403	9539.54
578.763	9619.08
579.124	9624.96
579.485	9674
579.845	9601.68
580.206	9595.81
580.566	9597.84
580.927	9567.33
581.287	9594.45
581.648	9507.9
582.008	9574.79
582.368	9553.32
582.728	9587.22
583.089	9590.61
583.449	9552.19
583.809	9493.21
584.169	9543.83
584.529	9479.2
584.889	9603.72
585.249	9542.25
585.609	9489.37
585.969	9491.63
586.329	9496.83
586.688	9490.95
587.048	9472.19
587.408	9467
587.768	9456.15
588.127	9421.35
588.487	9352.2
588.846	9414.34
589.206	9323.5
589.565	9364.63
589.925	9409.6
590.284	9341.12
590.643	9357.17
591.003	9356.49
591.362	9354.91
591.721	9393.55
592.08	9355.81
592.44	9330.5
592.799	9305.19
593.158	9299.32
593.517	9231.97
593.876	9293.22
594.235	9303.84
594.593	9270.39
594.952	9242.14
595.311	9258.87
595.67	9239.88
596.029	9317.85
596.387	9309.94
596.746	9287.57
597.104	9250.05
597.463	9226.1
597.822	9218.42
598.18	9191.07
598.538	9236.04
598.897	9237.85
599.255	9137.97
599.613	9204.4
599.972	9182.71
600.33	9164.86
600.688	9134.35
601.046	9214.12
601.404	9198.3
601.762	9201.69
602.12	9249.38
602.478	9219.09
602.836	9173.45
603.194	9108.59
603.552	9221.58
603.91	9120.34
604.268	9221.35
604.625	9173.67
604.983	9191.98
605.341	9169.6
605.698	9173.45
606.056	9157.85
606.413	9190.62
606.771	9176.61
607.128	9234.69
607.485	9129.15
607.843	9158.53
608.2	9212.09
608.557	9218.64
608.914	9150.62
609.272	9191.98
609.629	9216.38
609.986	9243.05
610.343	9198.3
610.7	9268.13
611.057	9221.13
611.414	9182.71
611.771	9231.97
612.127	9195.37
612.484	9259.77
612.841	9208.92
613.198	9210.73
613.554	9263.61
613.911	9274.46
614.267	9317.4
614.624	9281.92
614.98	9296.38
615.337	9302.71
615.693	9265.65
616.05	9288.7
616.406	9322.14
616.762	9330.05
617.118	9297.96
617.475	9242.14
617.831	9363.04
618.187	9334.8
618.543	9345.42
618.899	9387.9
619.255	9334.57
619.611	9384.97
619.967	9385.42
620.323	9397.39
620.678	9417.51
621.034	9348.36
621.39	9312.88
621.746	9338.86
622.101	9427
622.457	9316.49
622.812	9370.73
623.168	9342.71
623.523	9395.36
623.879	9384.06
624.234	9247.57
624.589	9429.48
624.945	9343.16
625.3	9390.84
625.655	9304.52
626.01	9331.41
626.365	9364.4
626.72	9374.57
627.075	9316.94
627.43	9322.37
627.785	9399.65
628.14	9328.47
628.495	9353.33
628.85	9340.22
629.205	9264.74
629.559	9376.83
629.914	9347.45
630.269	9310.84
630.623	9349.49
630.978	9282.59
631.332	9273.1
631.687	9381.12
632.041	9227.91
632.396	9301.58
632.75	9180.9
633.104	9277.4
633.459	9187.68
633.813	9255.25
634.167	9060.68
634.521	9154.01
634.875	9184.74
635.229	9155.82
635.583	9141.13
635.937	9086.44
636.291	9156.04
636.645	9141.13
636.999	9121.02
637.352	9109.72
637.706	9022.49
638.06	9090.28
638.413	9065.2
638.767	9060.23
639.121	9018.65
639.474	8946.11
639.828	8973.22
640.181	9064.52
640.534	8972.32
640.888	8953.11
641.241	9017.07
641.594	8971.64
641.947	8987.46
642.301	8987.46
642.654	8994.01
643.007	8959.44
643.36	8975.71
643.713	8930.97
644.066	9012.77
644.419	8900.91
644.771	8854.58
645.124	8757.86
645.477	8778.65
645.83	8744.98
646.182	8719.45
646.535	8690.52
646.888	8625.44
647.24	8697.75
647.593	8708.15
647.945	8645.32
648.298	8624.31
648.65	8577.08
649.002	8570.98
649.355	8646.23
649.707	8668.6
650.059	8636.74
650.411	8756.96
650.763	8808.71
651.115	8798.31
651.467	8787.69
651.819	8801.48
652.171	8763.29
652.523	8793.79
652.875	8706.11
653.227	8755.6
653.578	8883.06
653.93	8804.19
654.282	8773.91
654.633	8732.55
654.985	8833.12
655.337	8839.89
655.688	8781.59
656.039	8830.18
656.391	8792.89
656.742	8820.23
657.094	8811.65
657.445	8860.46
657.796	8788.6
658.147	8815.04
658.498	8822.72
658.849	8876.28
659.2	8814.13
659.551	8861.14
659.902	8880.35
660.253	8879.89
660.604	8848.93
660.955	8806.9
661.306	8836.05
661.656	8951.53
662.007	8894.36
662.358	8847.13
662.708	8911.31
663.059	8868.82
663.409	8797.64
663.76	8927.35
664.11	8894.13
664.461	8893.9
664.811	8918.08
665.161	8911.98
665.511	8903.17
665.862	8937.75
666.212	8908.37
666.562	8915.82
666.912	8928.03
667.262	8928.48
667.612	8942.94
667.962	8912.44
668.312	8870.63
668.662	8927.8
669.011	8865.2
669.361	8921.7
669.711	8927.8
670.06	8894.36
670.41	8817.75
670.76	8891.19
671.109	8868.14
671.459	8870.85
671.808	8857.07
672.157	8914.02
672.507	8798.99
672.856	8838.31
673.205	8785.88
673.554	8853.23
673.904	8829.95
674.253	8857.07
674.602	8860.01
674.951	8719.9
675.3	8631.99
675.649	8800.8
675.998	8773.46
676.346	8798.54
676.695	8824.3
677.044	8724.19
677.393	8766.22
677.741	8749.28
678.09	8737.75
678.438	8741.37
678.787	8781.14
679.135	8740.69
679.484	8662.95
679.832	8687.81
680.181	8641.48
680.529	8691.42
680.877	8668.83
681.225	8588.15
681.573	8631.76
681.922	8584.76
682.27	8510.86
682.618	8580.24
682.966	8541.6
683.314	8565.55
683.661	8529.62
684.009	8483.97
684.357	8404.65
684.705	8466.12
685.053	8468.61
685.4	8434.93
685.748	8379.34
686.095	8382.51
686.443	8352.45
686.79	8307.25
687.138	8344.31
687.485	8366.91
687.832	8297.31
688.18	8327.82
688.527	8257.76
688.874	8181.38
689.221	8191.78
689.568	8148.39
689.915	8192.23
690.262	8170.08
690.609	8136.86
690.956	8120.82
691.303	8055.28
691.65	7990.43
691.997	7998.33
692.344	8012.12
692.69	7907.49
693.037	7978.45
693.383	7807.15
693.73	7864.33
694.077	7871.11
694.423	7817.32
694.769	7790.2
695.116	7793.59
695.462	7767.38
695.808	7702.98
696.155	7703.88
696.501	7651
696.847	7683.77
697.193	7549.99
697.539	7571.23
697.885	7538.23
698.231	7489.2
698.577	7474.05
698.923	7525.13
699.269	7446.94
699.614	7404
699.96	7372.14
700.306	7381.18
700.651	7358.35
700.997	7317
701.342	7275.87
701.688	7227.96
702.033	7261.86
702.379	7209.2
702.724	7174.63
703.069	7156.1
703.415	7075.87
703.76	7125.82
704.105	7058.92
704.45	7046.27
704.795	7003.78
705.14	7006.04
705.485	6952.03
705.83	6916.56
706.175	7026.16
706.52	6838.59
706.865	6893.05
707.209	6832.72
707.554	6820.29
707.899	6848.31
708.243	6820.96
708.588	6793.39
708.932	6747.29
709.277	6761.98
709.621	6723.79
709.966	6677.92
710.31	6731.48
710.654	6659.61
710.998	6617.58
711.342	6643.34
711.687	6651.48
712.031	6566.28
712.375	6572.84
712.719	6587.3
713.063	6496.23
713.407	6569.67
713.75	6495.32
714.094	6503.23
714.438	6464.36
714.782	6516.34
715.125	6472.27
715.469	6456.68
715.812	6422.33
716.156	6362.9
716.499	6437.02
716.843	6431.14
717.186	6364.93
717.53	6439.73
717.873	6436.12
718.216	6381.2
718.559	6377.36
718.902	6335.55
719.246	6319.73
719.589	6360.19
719.932	6317.93
720.275	6336.91
720.617	6312.5
720.96	6238.83
721.303	6283.35
721.646	6364.71
721.989	6223.01
722.331	6246.29
722.674	6236.8
723.016	6264.14
723.359	6261.43
723.701	6248.78
724.044	6239.51
724.386	6266.63
724.729	6268.44
725.071	6248.32
725.413	6237.48
725.755	6190.02
726.097	6214.43
726.439	6189.79
726.782	6174.2
727.124	6193.64
727.465	6147.08
727.807	6157.93
728.149	6179.85
728.491	6185.05
728.833	6182.11
729.175	6172.17
729.516	6134.43
729.858	6184.15
730.199	6176.01
730.541	6145.73
730.882	6170.36
731.224	6172.62
731.565	6154.99
731.906	6230.02
732.248	6196.57
732.589	6102.11
732.93	6169
733.271	6194.77
733.612	6207.2
733.953	6163.58
734.294	6143.92
734.635	6145.73
734.976	6230.47
735.317	6205.84
735.658	6162.22
735.999	6182.79
736.339	6166.29
736.68	6183.69
737.021	6235.67
737.361	6187.54
737.702	6229.57
738.042	6177.82
738.383	6197.48
738.723	6252.62
739.063	6217.36
739.404	6262.79
739.744	6260.98
740.084	6298.94
740.424	6255.56
740.764	6293.52
741.104	6337.59
741.444	6274.54
741.784	6321.32
742.124	6302.56
742.464	6389.79
742.804	6370.81
743.143	6371.94
743.483	6405.83
743.823	6425.72
744.162	6476.79
744.502	6519.05
744.841	6514.98
745.181	6568.09
745.52	6572.84
745.86	6579.62
746.199	6626.17
746.538	6651.25
746.877	6708.65
747.216	6745.26
747.556	6790.91
747.895	6880.17
748.234	6850.34
748.573	6950.9
748.911	6963.79
749.25	7091.92
749.589	7050.79
749.928	7152.71
750.267	7258.24
750.605	7300.27
750.944	7362.19
751.283	7409.65
751.621	7534.62
751.96	7562.41
752.298	7708.4
752.636	7732.58
752.975	7865.01
753.313	7880.82
753.651	8079.01
753.989	8193.81
754.327	8284.66
754.666	8360.13
755.004	8507.25
755.342	8643.52
755.679	8728.03
756.017	8768.94
756.355	8962.83
756.693	9092.32
757.031	9292.31
757.368	9338.86
757.706	9491.63
758.044	9668.8
758.381	9768.01
758.719	9852.3
759.056	10160.76
759.394	10234.21
759.731	10258.61
760.068	10548.78
760.405	10648.89
760.743	10768.21
761.08	11015.43
761.417	11141.53
761.754	11371.13
762.091	11501.52
762.428	11604.79
762.765	11825.58
763.102	11992.81
763.438	12126.59
763.775	12225.79
764.112	12503.98
764.449	12643.64
764.785	12778.32
765.122	12883.4
765.458	13076.62
765.795	13235.03
766.131	13402.03
766.467	13567.68
766.804	13665.3
767.14	13804.74
767.476	14016.03
767.812	14042.24
768.148	14217.15
768.485	14386.19
768.821	14432.52
769.157	14621.44
769.492	14743.24
769.828	14891.71
770.164	14827.76
770.5	15059.84
770.836	15207.41
771.171	15281.08
771.507	15368.99
771.842	15428.2
772.178	15524.69
772.513	15613.28
772.849	15750.9
773.184	15747.51
773.519	15929.2
773.855	15908.86
774.19	15951.12
774.525	16100.27
774.86	16169.87
775.195	16254.84
775.53	16288.51
775.865	16279.7
776.2	16393.82
776.535	16319.7
776.87	16436.08
777.205	16395.4
777.539	16545.23
777.874	16659.58
778.209	16600.82
778.543	16570.76
778.878	16584.32
779.212	16735.96
779.547	16699.12
779.881	16821.38
780.215	16809.85
780.55	16833.81
780.884	16850.08
781.218	16858.44
781.552	16881.94
781.886	16814.6
782.22	16898.21
782.554	16810.76
782.888	16768.95
783.222	16707.71
783.556	16773.47
783.889	16824.32
784.223	16724.43
784.557	16778.89
784.89	16850.53
785.224	16730.53
785.557	16776.64
785.891	16744.09
786.224	16807.82
786.558	16821.15
786.891	16706.81
787.224	16605.79
787.557	16766.24
787.891	16637.2
788.224	16642.85
788.557	16771.66
788.89	16651.89
789.223	16800.59
789.556	16585.23
789.888	16574.61
790.221	16602.85
790.554	16457.55
790.887	16522.18
791.219	16453.03
791.552	16481.73
791.884	16388.17
792.217	16404.89
792.549	16355.4
792.882	16285.12
793.214	16274.05
793.546	16348.85
793.879	16227.5
794.211	16216.2
794.543	16295.97
794.875	16166.48
795.207	16167.61
795.539	16164.45
795.871	16174.84
796.203	16088.74
796.535	15989.09
796.867	15996.99
797.198	15998.58
797.53	15999.71
797.862	15874.06
798.193	15903.66
798.525	15857.79
798.856	15902.99
799.188	15629.09
799.519	15649.43
799.85	15647.17
800.182	15655.99
800.513	15641.3
800.844	15590.68
801.175	15612.82
801.506	15517.69
801.837	15494.18
802.168	15507.74
802.499	15381.87
802.83	15417.8
803.161	15363.79
803.491	15337.12
803.822	15324.24
804.153	15285.6
804.483	15181.65
804.814	15102.1
805.145	15124.93
805.475	15122.22
805.805	14996.12
806.136	15100.52
806.466	15004.03
806.796	15101.88
807.126	14915.22
807.457	14924.03
807.787	14908.89
808.117	14797.7
808.447	14739.63
808.777	14856.23
809.107	14766.29
809.436	14749.57
809.766	14710.7
810.096	14685.62
810.426	14679.06
810.755	14634.54
811.085	14704.15
811.414	14575.34
811.744	14455.57
812.073	14568.33
812.403	14453.08
812.732	14435
813.061	14397.49
813.39	14337.6
813.719	14330.15
814.049	14427.54
814.378	14312.75
814.707	14354.33
815.036	14282.46
815.365	14212.41
815.693	14018.97
816.022	14141.22
816.351	14073.88
816.68	13908.69
817.008	14104.39
817.337	13919.31
817.665	13974.22
817.994	13884.96
818.322	13947.11
818.651	13891.29
818.979	13828.24
819.307	14022.36
819.636	13897.16
819.964	13789.6
820.292	13854.9
820.62	13836.15
820.948	13765.41
821.276	13785.98
821.604	13867.11
821.932	13825.75
822.259	13887.45
822.587	13713.89
822.915	13821.91
823.243	13747.11
823.57	13750.73
823.898	13842.25
824.225	13845.19
824.553	13772.19
824.88	13754.12
825.207	13712.76
825.535	13723.16
825.862	13858.75
826.189	13685.64
826.516	13835.7
826.843	13863.04
827.17	13782.82
827.497	13933.32
827.824	13861.68
828.151	13855.58
828.478	13775.13
828.805	13929.25
829.131	13816.71
829.458	13819.88
829.785	13698.52
830.111	13728.13
830.438	13888.12
830.764	13845.64
831.09	13802.02
831.417	13746.88
831.743	13726.77
832.069	13830.95
832.395	13767.67
832.722	13800.44
833.048	13729.03
833.374	13787.56
833.7	13697.62
834.026	13693.78
834.351	13779.43
834.677	13710.28
835.003	13722.93
835.329	13717.05
835.654	13646.1
835.98	13517.96
836.306	13683.61
836.631	13648.36
836.956	13587.11
837.282	13663.27
837.607	13610.84
837.932	13578.98
838.258	13524.74
838.583	13456.95
838.908	13467.12
839.233	13545.76
839.558	13453.11
839.883	13438.64
840.208	13361.58
840.533	13308.03
840.858	13403.62
841.182	13360.91
841.507	13317.07
841.832	13314.81
842.156	13272.09
842.481	13283.62
842.805	13251.53
843.13	13156.84
843.454	13205.43
843.778	13104.64
844.103	13077.52
844.427	13117.75
844.751	13086.56
845.075	13040.01
845.399	12905.55
845.723	12904.19
846.047	12926.34
846.371	12859
846.695	12858.09
847.019	12724.09
847.343	12739.68
847.666	12593.47
847.99	12612.68
848.313	12558.89
848.637	12427.14
848.96	12420.59
849.284	12373.59
849.607	12376.07
849.931	12287.49
850.254	12209.75
850.577	12153.25
850.9	12024.9
851.223	12082.97
851.546	12094.95
851.869	11976.08
852.192	12093.14
852.515	11861.06
852.838	11802.3
853.161	11763.89
853.483	11685.47
853.806	11769.99
854.129	11696.09
854.451	11652.02
854.774	11621.06
855.096	11667.62
855.419	11534.51
855.741	11507.85
856.063	11437.79
856.385	11362.77
856.708	11364.57
857.03	11358.47
857.352	11316.44
857.674	11235.31
857.996	11271.02
858.318	11211.13
858.64	11190.57
858.961	11176.1
859.283	11195.31
859.605	11066.5
859.926	11094.07
860.248	11033.06
860.57	11066.5
860.891	11069.21
861.212	10981.31
861.534	10911.25
861.855	10904.25
862.176	10937.01
862.498	10963.68
862.819	10835.1
863.14	10803.01
863.461	10811.37
863.782	10775.21
864.103	10884.36
864.424	10740.18
864.745	10811.37
865.065	10657.93
865.386	10766.17
865.707	10691.15
866.027	10703.35
866.348	10655.89
866.668	10656.57
866.989	10640.3
867.309	10575.44
867.63	10604.82
867.95	10560.53
868.27	10532.73
868.59	10523.24
868.91	10479.17
869.23	10496.35
869.55	10365.73
869.87	10532.96
870.19	10477.14
870.51	10424.03
870.83	10454.99
871.15	10433.98
871.469	10376.35
871.789	10362.11
872.109	10403.24
872.428	10311.72
872.748	10330.93
873.067	10348.78
873.386	10335.45
873.706	10320.76
874.025	10224.94
874.344	10189.92
874.663	10267.43
874.982	10268.33
875.301	10199.18
875.62	10129.13
875.939	10128.45
876.258	10106.98
876.577	10099.75
876.896	10066.08
877.214	10070.82
877.533	10040.77
877.852	10077.15
878.17	10065.4
878.489	10013.42
878.807	9951.96
879.125	9979.75
879.444	10021.78
879.762	9965.29
880.08	9939.3
880.398	9904.95
880.716	9918.06
881.034	9873.09
881.352	9856.82
881.67	9837.83
881.988	9788.57
882.306	9791.96
882.624	9756.48
882.941	9712.41
883.259	9714.45
883.577	9682.81
883.894	9637.16
884.212	9680.1
884.529	9695.69
884.846	9602.13
885.164	9643.04
885.481	9553.77
885.798	9584.73
886.115	9494.11
886.432	9538.86
886.75	9485.98
887.067	9425.87
887.383	9450.73
887.7	9435.36
888.017	9362.59
888.334	9446.21
888.651	9375.25
888.967	9370.05
889.284	9341.8
889.6	9291.41
889.917	9216.16
890.233	9213.9
890.55	9236.27
890.866	9174.58
891.182	9170.73
891.498	9082.83
891.815	9096.84
892.131	9039.66
892.447	8995.37
892.763	8975.26
893.079	8915.6
893.395	8931.19
893.71	8894.81
894.026	8894.58
894.342	8878.31
894.657	8798.31
894.973	8787.92
895.289	8797.86
895.604	8749.05
895.92	8666.11
896.235	8711.08
896.55	8698.66
896.865	8648.04
897.181	8554.7
897.496	8643.74
897.811	8587.25
898.126	8530.98
898.441	8499.34
898.756	8442.17
899.071	8393.8
899.386	8431.54
899.7	8410.98
900.015	8333.47
900.33	8298.44
900.644	8196.3
900.959	8302.28
901.273	8209.4
901.588	8203.3
901.902	8173.7
902.216	8104.55
902.531	8171.89
902.845	8116.07
903.159	8037.66
903.473	8006.7
903.787	7948.62
904.101	7937.32
904.415	7961.5
904.729	7898.68
905.042	7859.36
905.356	7834.95
905.67	7827.04
905.984	7770.32
906.297	7714.5
906.611	7678.34
906.924	7640.6
907.237	7661.85
907.551	7620.49
907.864	7570.32
908.177	7538.23
908.491	7526.26
908.804	7495.98
909.117	7420.27
909.43	7402.87
909.743	7403.77
910.056	7352.02
910.368	7338.24
910.681	7293.04
910.994	7280.16
911.307	7234.97
911.619	7145.25
911.932	7240.61
912.244	7159.94
912.557	7123.56
912.869	7046.5
913.181	7119.04
913.494	7050.56
913.806	6980.06
914.118	6976.21
914.43	6930.79
914.742	6951.36
915.054	6896.22
915.366	6859.16
915.678	6812.6
915.99	6809.21
916.302	6747.29
916.613	6721.08
916.925	6731.02
917.236	6692.61
917.548	6645.6
917.859	6634.75
918.171	6654.87
918.482	6583.23
918.794	6557.24
919.105	6547.98
919.416	6553.4
919.727	6447.87
920.038	6457.81
920.349	6418.04
920.66	6408.32
920.971	6381.2
921.282	6319.73
921.593	6351.15
921.903	6318.38
922.214	6276.12
922.525	6257.82
922.835	6246.29
923.146	6214.65
923.456	6216.46
923.767	6164.26
924.077	6104.6
924.387	6114.99
924.697	6051.27
925.008	6040.65
925.318	6033.19
925.628	6024.38
925.938	6011.72
926.248	5942.34
926.558	5920.2
926.867	5901.44
927.177	5865.28
927.487	5879.75
927.796	5764.95
928.106	5842.23
928.416	5755
928.725	5749.81
929.034	5735.57
929.344	5736.02
929.653	5690.82
929.962	5665.74
930.271	5656.93
930.581	5649.7
930.89	5621.67
931.199	5574.22
931.508	5544.16
931.817	5606.76
932.125	5539.19
932.434	5529.93
932.743	5435.24
933.051	5404.05
933.36	5430.49
933.669	5390.95
933.977	5322.93
934.286	5363.6
934.594	5299.65
934.902	5249.03
935.21	5351.17
935.519	5222.14
935.827	5295.58
936.135	5240.44
936.443	5199.99
936.751	5140.33
937.059	5234.57
937.367	5145.98
937.674	5143.95
937.982	5179.88
938.29	5072.99
938.597	5104.85
938.905	5017.4
939.213	5011.07
939.52	4970.39
939.827	5020.33
940.135	4910.05
940.442	4879.77
940.749	4933.78
941.056	4939.88
941.363	4842.26
941.67	4865.99
941.977	4831.19
942.284	4806.78
942.591	4823.28
942.898	4772.66
943.205	4718.42
943.511	4742.15
943.818	4680.46
944.125	4689.27
944.431	4673.22
944.738	4617.63
945.044	4622.83
945.35	4594.81
945.657	4570.85
945.963	4548.03
946.269	4534.25
946.575	4597.07
946.881	4593.9
947.187	4511.19
947.493	4483.17
947.799	4397.07
948.105	4413.8
948.41	4401.14
948.716	4411.31
949.022	4371.99
949.327	4416.28
949.633	4297.87
949.938	4263.07
950.244	4310.97
950.549	4281.37
950.854	4240.92
951.16	4246.8
951.465	4237.98
951.77	4190.07
952.075	4177.19
952.38	4159.11
952.685	4119.34
952.99	4140.81
953.294	4125.89
953.599	4094.93
953.904	4087.93
954.209	4054.94
954.513	4054.71
954.818	4041.15
955.122	4023.07
955.426	3986.46
955.731	3992.34
956.035	3972.45
956.339	3956.41
956.643	3933.81
956.948	3903.98
957.252	3920.48
957.556	3904.88
957.86	3865.11
958.163	3892.68
958.467	3824.21
958.771	3792.8
959.075	3844.55
959.378	3790.31
959.682	3819.24
959.985	3796.19
960.289	3766.13
960.592	3706.92
960.896	3707.37
961.199	3693.82
961.502	3685
961.805	3602.74
962.108	3648.17
962.411	3567.26
962.714	3609.75
963.017	3592.8
963.32	3614.04
963.623	3580.15
963.926	3553.03
964.228	3530.2
964.531	3528.85
964.833	3551.67
965.136	3450.88
965.438	3488.62
965.741	3405.69
966.043	3437.55
966.345	3453.6
966.648	3417.21
966.95	3405.69
967.252	3364.56
967.554	3360.49
967.856	3357.1
968.158	3311.68
968.46	3327.05
968.761	3333.6
969.063	3289.98
969.365	3266.48
969.666	3285.01
969.968	3234.84
970.269	3242.08
970.571	3196.2
970.872	3238.91
971.174	3209.53
971.475	3239.59
971.776	3172.93
972.077	3124.34
972.378	3166.82
972.679	3115.07
972.98	3128.63
973.281	3079.37
973.582	3089.76
973.883	3060.16
974.183	3029.65
974.484	3060.39
974.785	3039.37
975.085	3021.29
975.386	3028.97
975.686	2984.23
975.986	2983.33
976.287	3031.91
976.587	2951.69
976.887	2968.41
977.187	2947.39
977.487	2903.78
977.787	2913.72
978.087	2852.26
978.387	2852.26
978.687	2907.62
978.987	2850.9
979.286	2814.74
979.586	2817.68
979.885	2820.39
980.185	2788.98
980.484	2774.74
980.784	2775.87
981.083	2750.56
981.382	2750.11
981.682	2744.01
981.981	2747.63
982.28	2753.28
982.579	2708.08
982.878	2720.06
983.177	2678.7
983.475	2669.21
983.774	2651.13
984.073	2670.11
984.372	2633.05
984.67	2656.33
984.969	2594.64
985.267	2603
985.566	2585.14
985.864	2572.04
986.162	2603.67
986.461	2554.18
986.759	2527.29
987.057	2510.12
987.355	2496.33
987.653	2500.63
987.951	2509.89
988.249	2487.29
988.547	2459.27
988.844	2453.62
989.142	2446.16
989.44	2456.33
989.737	2428.76
990.035	2436.9
990.332	2368.88
990.63	2379.5
990.927	2413.4
991.224	2364.36
991.521	2325.72
991.819	2354.87
992.116	2346.73
992.413	2343.79
992.71	2335.43
993.006	2340.86
993.303	2310.35
993.6	2286.85
993.897	2279.62
994.193	2237.13
994.49	2287.07
994.787	2278.71
995.083	2238.26
995.379	2218.37
995.676	2213.18
995.972	2201.65
996.268	2193.74
996.565	2175.89
996.861	2143.35
997.157	2158.04
997.453	2134.08
997.749	2158.94
998.044	2129.11
998.34	2137.47
998.636	2112.39
998.932	2125.04
999.227	2123.24
999.523	2079.85
999.818	2074.87
1000.114	2050.69
1000.409	2041.66
1000.704	2019.74
1001	2027.19
1001.295	2012.96
1001.59	1974.76
1001.885	2011.15
1002.18	1976.35
1002.475	1962.34
1002.77	1937.7
1003.065	1926.4
1003.359	1946.06
1003.654	1917.14
1003.949	1921.88
1004.243	1913.75
1004.538	1918.49
1004.832	1915.11
1005.127	1885.5
1005.421	1877.37
1005.715	1838.72
1006.009	1810.02
1006.304	1848.89
1006.598	1794.88
1006.892	1805.28
1007.186	1799.63
1007.48	1774.77
1007.773	1791.27
1008.067	1767.76
1008.361	1748.33
1008.655	1733.19
1008.948	1744.71
1009.242	1753.75
1009.535	1743.81
1009.829	1720.53
1010.122	1699.52
1010.415	1700.2
1010.708	1676.92
1011.001	1656.81
1011.295	1674.89
1011.588	1645.73
1011.881	1654.09
1012.173	1634.66
1012.466	1619.75
1012.759	1639.63
1013.052	1599.41
1013.344	1607.77
1013.637	1611.61
1013.93	1591.5
1014.222	1543.36
1014.514	1577.49
1014.807	1559.41
1015.099	1525.06
1015.391	1546.08
1015.683	1514.89
1015.976	1523.7
1016.268	1530.93
1016.56	1514.89
1016.851	1494.78
1017.143	1509.24
1017.435	1469.02
1017.727	1450.71
1018.018	1464.72
1018.31	1457.49
1018.602	1453.42
1018.893	1421.56
1019.185	1421.78
1019.476	1419.07
1019.767	1388.11
1020.058	1394.21
1020.35	1384.95
1020.641	1365.51
1020.932	1361
1021.223	1362.58
1021.514	1348.79
1021.804	1344.27
1022.095	1333.43
1022.386	1316.93
1022.677	1336.59
1022.967	1323.71
1023.258	1299.3
1023.548	1299.75
1023.839	1276.03
1024.129	1258.4
1024.419	1273.77
1024.709	1249.36
1025	1246.87
1025.29	1235.35
1025.58	1241
1025.87	1212.07
1026.16	1206.65
1026.449	1229.25
1026.739	1241.68
1027.029	1200.77
1027.319	1172.98
1027.608	1204.62
1027.898	1177.27
1028.187	1180.89
1028.477	1157.16
1028.766	1142.24
1029.055	1170.49
1029.344	1160.77
1029.634	1123.94
1029.923	1128.69
1030.212	1124.17
1030.501	1146.76
1030.79	1114.22
1031.078	1087.33
1031.367	1088.91
1031.656	1072.87
1031.945	1069.93
1032.233	1070.16
1032.522	1047.78
1032.81	1071.06
1033.099	1055.92
1033.387	1043.49
1033.675	1028.8
1033.963	1010.95
1034.251	1041.68
1034.54	1021.12
1034.828	1026.77
1035.116	1013.89
1035.403	990.61
1035.691	988.35
1035.979	997.62
1036.267	955.13
1036.554	959.88
1036.842	963.72
1037.129	939.09
1037.417	944.74
1037.704	958.97
1037.992	937.5
1038.279	930.27
1038.566	910.84
1038.853	910.84
1039.14	910.84
