Data from hue_50_FLMS001491_26.txt Node
Date: Mon Feb 06 15:09:49 GMT 2017
User: dcchb
Spectrometer: FLMS00149
Trigger mode: 0
Integration Time (sec): 2.000000E-2
Scans to average: 10
Electric dark correction enabled: true
Nonlinearity correction enabled: false
Boxcar width: 0
XAxis mode: Wavelengths
Number of Pixels in Spectrum: 2048
>>>>>Begin Spectral Data<<<<<
341.393	-10.16
341.776	-10.16
342.16	-10.16
342.543	-70.27
342.927	-74.11
343.31	-67.1
343.693	-68.46
344.077	-49.7
344.46	-73.88
344.843	-46.99
345.226	-41.79
345.61	-35.47
345.993	-14.9
346.376	6.57
346.759	-1.79
347.142	15.38
347.525	43.85
347.908	53.8
348.291	65.1
348.674	98.32
349.057	117.07
349.44	130.63
349.823	150.07
350.206	162.5
350.588	207.92
350.971	193.46
351.354	249.05
351.737	240.23
352.119	245.88
352.502	268.93
352.884	269.84
353.267	279.55
353.65	292.21
354.032	315.94
354.414	321.81
354.797	323.17
355.179	336.5
355.562	334.92
355.944	322.04
356.326	331.3
356.709	327.24
357.091	331.98
357.473	348.03
357.855	327.24
358.238	333.34
358.62	330.17
359.002	353
359.384	334.47
359.766	331.08
360.148	315.71
360.53	332.21
360.912	328.14
361.294	337.41
361.676	341.02
362.057	339.21
362.439	332.21
362.821	323.85
363.203	329.72
363.584	329.72
363.966	329.05
364.348	313
364.729	322.04
365.111	348.48
365.493	322.72
365.874	324.07
366.256	312.32
366.637	329.05
367.019	308.03
367.4	300.12
367.781	312.1
368.163	313.68
368.544	316.16
368.925	329.95
369.306	329.72
369.688	323.62
370.069	312.1
370.45	330.17
370.831	313.45
371.212	331.3
371.593	334.02
371.974	299.89
372.355	292.21
372.736	327.24
373.117	315.49
373.498	313.23
373.879	309.38
374.26	325.2
374.641	314.58
375.021	319.55
375.402	305.32
375.783	331.3
376.163	321.14
376.544	323.4
376.925	333.34
377.305	333.34
377.686	345.54
378.066	306.22
378.447	324.75
378.827	336.73
379.208	338.76
379.588	323.85
379.968	325.2
380.349	318.2
380.729	320.23
381.109	308.71
381.489	313.9
381.87	330.17
382.25	327.46
382.63	304.86
383.01	336.28
383.39	341.47
383.77	337.63
384.15	329.95
384.53	349.61
384.91	348.48
385.29	356.39
385.67	326.79
386.049	346.67
386.429	336.28
386.809	359.33
387.189	327.46
387.568	340.8
387.948	337.18
388.328	355.03
388.707	356.84
389.087	349.84
389.466	353.23
389.846	374.92
390.225	361.59
390.605	371.76
390.984	360.68
391.363	354.13
391.743	370.17
392.122	370.4
392.501	359.78
392.881	362.94
393.26	372.89
393.639	366.78
394.018	356.39
394.397	353.45
394.776	361.81
395.155	355.71
395.534	363.62
395.913	368.37
396.292	387.8
396.671	387.35
397.05	368.14
397.429	379.21
397.808	370.63
398.186	374.69
398.565	378.76
398.944	355.26
399.323	369.5
399.701	384.41
400.08	355.49
400.458	381.7
400.837	378.54
401.215	404.98
401.594	392.55
401.972	365.43
402.351	387.57
402.729	387.8
403.107	411.3
403.486	392.09
403.864	401.59
404.242	405.65
404.62	400
404.999	397.97
405.377	397.52
405.755	398.65
406.133	404.07
406.511	403.39
406.889	421.7
407.267	422.15
407.645	410.62
408.023	416.05
408.401	400.23
408.779	437.06
409.156	418.08
409.534	427.35
409.912	430.29
410.29	434.8
410.667	444.52
411.045	446.33
411.422	428.25
411.8	446.1
412.178	457.63
412.555	440
412.933	449.04
413.31	435.26
413.687	442.49
414.065	450.17
414.442	455.82
414.819	475.93
415.197	468.7
415.574	466.89
415.951	455.14
416.328	477.97
416.705	460.79
417.082	465.31
417.46	493.33
417.837	497.18
418.214	489.04
418.591	481.81
418.967	484.52
419.344	471.64
419.721	478.87
420.098	468.93
420.475	486.33
420.852	484.07
421.228	496.05
421.605	511.87
421.982	504.18
422.358	510.06
422.735	522.71
423.111	493.56
423.488	505.31
423.864	517.74
424.241	541.02
424.617	521.36
424.994	516.38
425.37	536.72
425.746	522.94
426.123	530.85
426.499	519.55
426.875	540.79
427.251	547.8
427.627	567
428.003	567.46
428.379	548.93
428.756	583.28
429.132	566.1
429.507	576.27
429.883	588.25
430.259	584.18
430.635	597.51
431.011	576.72
431.387	586.44
431.763	605.87
432.138	574.91
432.514	599.77
432.89	613.56
433.265	628.7
433.641	629.83
434.016	611.75
434.392	614.24
434.767	630.05
435.143	631.18
435.518	620.79
435.894	640.9
436.269	662.14
436.644	651.07
437.02	666.21
437.395	640.9
437.77	657.85
438.145	660.79
438.52	668.47
438.895	667.12
439.271	678.19
439.646	684.74
440.021	677.28
440.395	696.94
440.77	685.42
441.145	693.78
441.52	724.51
441.895	727.45
442.27	719.54
442.645	716.83
443.019	717.96
443.394	716.83
443.769	699.88
444.143	723.61
444.518	741.01
444.892	725.42
445.267	742.59
445.641	747.57
446.016	741.24
446.39	745.76
446.764	740.79
447.139	736.04
447.513	760.9
447.887	787.79
448.262	758.64
448.636	769.03
449.01	782.59
449.384	772.2
449.758	786.43
450.132	785.08
450.506	792.31
450.88	806.77
451.254	785.08
451.628	815.36
452.002	828.69
452.376	825.53
452.75	825.08
453.123	805.64
453.497	837.05
453.871	836.38
454.244	850.61
454.618	875.02
454.992	893.55
455.365	877.96
455.739	899.65
456.112	891.74
456.486	910.27
456.859	908.01
457.232	916.37
457.606	916.15
457.979	900.1
458.352	953.44
458.725	952.53
459.099	961.34
459.472	966.77
459.845	1005.19
460.218	990.04
460.591	997.28
460.964	1005.41
461.337	1021.46
461.71	1038.86
462.083	1057.61
462.456	1064.62
462.829	1060.33
463.201	1074.56
463.574	1110.27
463.947	1090.38
464.32	1119.08
464.692	1108.91
465.065	1145.97
465.438	1182.13
465.81	1185.52
466.183	1205.63
466.555	1214.45
466.928	1238.17
467.3	1221
467.672	1232.3
468.045	1272.52
468.417	1270.72
468.789	1303.71
469.161	1297.83
469.534	1327.21
469.906	1403.37
470.278	1404.95
470.65	1394.1
471.022	1430.71
471.394	1474.55
471.766	1454.44
472.138	1493.53
472.51	1537.83
472.882	1603.59
473.253	1613.98
473.625	1611.5
473.997	1696.01
474.369	1692.17
474.74	1746.18
475.112	1774.66
475.484	1829.12
475.855	1838.84
476.227	1891.94
476.598	1943.92
476.97	2001.77
477.341	1990.02
477.713	2094.87
478.084	2140.75
478.455	2171.71
478.827	2250.35
479.198	2315.21
479.569	2358.37
479.94	2412.83
480.311	2508.87
480.682	2589.78
481.053	2650.34
481.424	2771.24
481.795	2810.34
482.166	2891.01
482.537	2948.64
482.908	3034.06
483.279	3095.07
483.65	3231.12
484.021	3321.06
484.391	3397.21
484.762	3505.91
485.133	3554.5
485.503	3660.93
485.874	3773.93
486.244	3823.87
486.615	3984.09
486.985	4012.11
487.356	4239.9
487.726	4286.46
488.097	4393.8
488.467	4476.05
488.837	4634.02
489.207	4752.21
489.578	4890.06
489.948	5027.23
490.318	5177.51
490.688	5195.13
491.058	5357.61
491.428	5473.99
491.798	5556.03
492.168	5729.13
492.538	5829.69
492.908	5966.41
493.278	6057.48
493.648	6160.53
494.017	6368.66
494.387	6470.8
494.757	6615.89
495.126	6735.66
495.496	6822.21
495.866	6925.93
496.235	7063.11
496.605	7209.54
496.974	7311.01
497.344	7458.8
497.713	7541.51
498.082	7663.09
498.452	7841.62
498.821	7889.07
499.19	8030.54
499.559	8161.16
499.928	8299.23
500.298	8392.11
500.667	8525.89
501.036	8554.82
501.405	8720.91
501.774	8812.89
502.143	8960.68
502.512	8971.76
502.88	9194.12
503.249	9260.79
503.618	9387.56
503.987	9462.36
504.356	9601.34
504.724	9635.02
505.093	9785.52
505.462	9910.94
505.83	9998.17
506.199	10107.77
506.567	10224.38
506.936	10308.9
507.304	10491.94
507.672	10534.43
508.041	10652.16
508.409	10733.74
508.777	10876.11
509.145	10917.92
509.514	10949.56
509.882	11100.29
510.25	11131.92
510.618	11320.39
510.986	11415.99
511.354	11521.97
511.722	11691.01
512.09	11759.03
512.458	11795.18
512.826	11951.11
513.193	12008.29
513.561	12033.6
513.929	12235.85
514.297	12336.41
514.664	12399.01
515.032	12479.91
515.4	12621.6
515.767	12771.2
516.135	12741.6
516.502	12797.42
516.869	13041.48
517.237	13015.72
517.604	13107.69
517.972	13267.01
518.339	13331.87
518.706	13386.55
519.073	13446.21
519.44	13598.3
519.808	13734.79
520.175	13736.15
520.542	13989.48
520.909	14049.14
521.276	14061.34
521.643	14201
522.009	14310.15
522.376	14499.97
522.743	14421.56
523.11	14686.18
523.477	14726.41
523.843	14911.49
524.21	15017.92
524.577	15168.88
524.943	15172.95
525.31	15279.39
525.676	15501.3
526.043	15550.79
526.409	15673.05
526.776	15762.76
527.142	15818.13
527.508	15890.9
527.874	16082.53
528.241	16067.61
528.607	16200.49
528.973	16308.96
529.339	16511.44
529.705	16574.49
530.071	16608.62
530.437	16787.14
530.803	16841.61
531.169	16997.08
531.535	16923.41
531.901	16988.49
532.267	17139
532.632	17265.1
532.998	17311.88
533.364	17363.85
533.73	17445.66
534.095	17585.09
534.461	17621.7
534.826	17718.64
535.192	17762.48
535.557	17938.98
535.923	17992.54
536.288	17979.65
536.653	18182.59
537.019	18173.1
537.384	18234.11
537.749	18262.81
538.114	18317.27
538.479	18375.58
538.845	18551.39
539.21	18504.61
539.575	18613.54
539.94	18643.14
540.305	18760.65
540.67	18826.64
541.034	18841.33
541.399	19056.46
541.764	18949.35
542.129	19145.95
542.494	19205.16
542.858	19251.94
543.223	19291.48
543.587	19323.35
543.952	19457.13
544.316	19515.21
544.681	19406.96
545.045	19680.63
545.41	19680.85
545.774	19749.78
546.138	19699.84
546.503	19845.82
546.867	19819.83
547.231	20053.95
547.595	20069.32
547.959	20021.18
548.324	20029.09
548.688	20302.53
549.052	20294.4
549.416	20385.24
549.779	20417.78
550.143	20434.73
550.507	20620.49
550.871	20723.76
551.235	20582.07
551.599	20864.78
551.962	20830.65
552.326	21000.59
552.689	21064.32
553.053	21021.16
553.417	20978.67
553.78	21302.28
554.143	21381.82
554.507	21290.75
554.87	21468.83
555.234	21539.56
555.597	21450.98
555.96	21460.47
556.323	21643.29
556.686	21652.33
557.05	21940.91
557.413	21801.02
557.776	22067.68
558.139	22145.19
558.502	22198.53
558.865	22210.05
559.228	22360.56
559.59	22504.51
559.953	22544.28
560.316	22790.38
560.679	22770.26
561.041	22934.33
561.404	23047.32
561.767	23204.6
562.129	23120.31
562.492	23452.28
562.854	23298.16
563.217	23344.94
563.579	23512.39
563.941	23513.29
564.304	23754.19
564.666	23732.05
565.028	23868.31
565.39	23970.91
565.753	24095.2
566.115	24156.67
566.477	24292.03
566.839	24320.28
567.201	24523.44
567.563	24469.88
567.925	24720.49
568.287	24638.01
568.648	24619.48
569.01	24839.59
569.372	24989.87
569.734	24966.14
570.095	25152.12
570.457	25242.74
570.819	25334.04
571.18	25340.82
571.542	25546.01
571.903	25524.77
572.265	25734.25
572.626	25767.02
572.987	25793.91
573.349	25996.39
573.71	25898.32
574.071	26225.77
574.432	26327.68
574.794	26432.31
575.155	26464.63
575.516	26450.17
575.877	26539.2
576.238	26663.04
576.599	26833.21
576.96	26752.53
577.32	26980.77
577.681	27006.31
578.042	27083.82
578.403	27125.4
578.763	27262.57
579.124	27373.08
579.485	27498.95
579.845	27637.71
580.206	27569.23
580.566	27706.4
580.927	27864.37
581.287	27862.78
581.648	27994.08
582.008	28154.53
582.368	28156.11
582.728	28317.69
583.089	28275.65
583.449	28411.47
583.809	28525.14
584.169	28610.34
584.529	28623.67
584.889	28943.43
585.249	28869.31
585.609	28786.6
585.969	29120.15
586.329	29274.27
586.688	29311.33
587.048	29319.92
587.408	29499.58
587.768	29467.71
588.127	29696.86
588.487	29681.95
588.846	29937.53
589.206	29809.17
589.565	29966.01
589.925	30090.07
590.284	30139.33
590.643	30315.15
591.003	30597.18
591.362	30653.67
591.721	30583.62
592.08	30627.68
592.44	30897.05
592.799	30899.31
593.158	30994.91
593.517	31104.96
593.876	31332.98
594.235	31242.13
594.593	31417.49
594.952	31435.57
595.311	31543.37
595.67	31617.26
596.029	31954.43
596.387	31884.15
596.746	32003.01
597.104	32070.36
597.463	32080.3
597.822	32308.54
598.18	32258.83
598.538	32243.46
598.897	32585.82
599.255	32332.27
599.613	32792.37
599.972	32688.19
600.33	32894.29
600.688	32806.16
601.046	33111.69
601.404	33163.89
601.762	33099.03
602.12	33490.21
602.478	33432.58
602.836	33546.25
603.194	33317.33
603.552	33389.87
603.91	33504.67
604.268	33608.17
604.625	33551.9
604.983	33851.1
605.341	33662.86
605.698	34023.98
606.056	34110.76
606.413	34174.03
606.771	34198.66
607.128	34242.96
607.485	34237.98
607.843	34216.29
608.2	34514.59
608.557	34730.63
608.914	34460.12
609.272	34815.6
609.629	34912.09
609.986	34948.93
610.343	34778.08
610.7	35170.84
611.057	35185.76
611.414	35320.44
611.771	35192.31
612.127	35559.98
612.484	35426.65
612.841	35574.45
613.198	35432.3
613.554	35666.65
613.911	35841.56
614.267	35828.22
614.624	35759.75
614.98	35874.55
615.337	36123.58
615.693	36010.82
616.05	36131.95
616.406	36209.68
616.762	36172.4
617.118	36253.52
617.475	36246.97
617.831	36391.15
618.187	36418.04
618.543	36589.11
618.899	36650.35
619.255	36665.72
619.611	36553.4
619.967	36795.43
620.323	36821.64
620.678	36797.46
621.034	36693.51
621.39	36700.52
621.746	36871.36
622.101	37273.16
622.457	36885.37
622.812	36997.91
623.168	37088.08
623.523	37162.2
623.879	37199.71
624.234	37125.14
624.589	37221.41
624.945	37383.89
625.3	37275.64
625.655	37299.82
626.01	37263.67
626.365	37476.09
626.72	37394.51
627.075	37410.56
627.43	37389.77
627.785	37257.79
628.14	37399.71
628.495	37392.03
628.85	37461.4
629.205	37377.56
629.559	37624.56
629.914	37413.49
630.269	37408.75
630.623	37421.4
630.978	37390.44
631.332	37495.75
631.687	37537.78
632.041	37453.94
632.396	37426.83
632.75	37336.21
633.104	37383.89
633.459	37231.8
633.813	37369.43
634.167	37328.52
634.521	37368.3
634.875	37361.74
635.229	37311.58
635.583	37254.4
635.937	37251.46
636.291	37218.02
636.645	37148.64
636.999	37227.51
637.352	37261.63
637.706	37086.5
638.06	37120.39
638.413	37086.72
638.767	36942.77
639.121	37048.31
639.474	36801.98
639.828	36897.8
640.181	36940.29
640.534	36812.15
640.888	36850.57
641.241	36645.15
641.594	36766.28
641.947	36899.61
642.301	36760.63
642.654	36756.11
643.007	36890.12
643.36	36732.16
643.713	36694.64
644.066	36852.83
644.419	36536.45
644.771	36335.33
645.124	36176.46
645.477	36002.91
645.83	35870.71
646.182	35713.43
646.535	35577.84
646.888	35638.63
647.24	35422.81
647.593	35668.91
647.945	35640.21
648.298	35413.55
648.65	35329.48
649.002	35331.51
649.355	35473.66
649.707	35396.37
650.059	35491.74
650.411	35720.88
650.763	35943.02
651.115	36238.61
651.467	36185.28
651.819	36254.65
652.171	36067.77
652.523	35989.58
652.875	36008.78
653.227	36005.17
653.578	36128.78
653.93	36107.77
654.282	35816.7
654.633	35843.37
654.985	35839.98
655.337	35934.21
655.688	35809.92
656.039	35982.12
656.391	35631.62
656.742	35868.9
657.094	35763.59
657.445	35914.55
657.796	35754.33
658.147	35618.96
658.498	35867.77
658.849	35732.18
659.2	35738.51
659.551	35647.21
659.902	35731.05
660.253	35719.3
660.604	35676.36
660.955	35433.88
661.306	35666.87
661.656	35633.43
662.007	35637.04
662.358	35533.77
662.708	35578.51
663.059	35548.91
663.409	35355.02
663.76	35715.46
664.11	35643.14
664.461	35671.62
664.811	35551.85
665.161	35515.01
665.511	35457.84
665.862	35612.64
666.212	35726.76
666.562	35548.46
666.912	35610.15
667.262	35503.71
667.612	35577.61
667.962	35647.66
668.312	35598.85
668.662	35686.08
669.011	35608.57
669.361	35518.18
669.711	35530.15
670.06	35400.89
670.41	35312.31
670.76	35294
671.109	35454.68
671.459	35297.17
671.808	35335.81
672.157	35392.76
672.507	35137.17
672.856	35368.35
673.205	35288.58
673.554	35498.06
673.904	35283.38
674.253	35456.93
674.602	35287
674.951	34860.34
675.3	34577.41
675.649	35177.85
675.998	35165.42
676.346	35127.68
676.695	35237.73
677.044	34946.67
677.393	35188.69
677.741	35296.04
678.09	35092.2
678.438	35025.76
678.787	35027.34
679.135	34971.52
679.484	34664.19
679.832	34802.71
680.181	34706.45
680.529	34811.3
680.877	34755.03
681.225	34739.21
681.573	34902.6
681.922	34577.41
682.27	34590.29
682.618	34611.08
682.966	34505.77
683.314	34500.58
683.661	34496.73
684.009	34285.44
684.357	34182.39
684.705	34080.02
685.053	34307.81
685.4	34124.77
685.748	33889.29
686.095	33933.81
686.443	33932.91
686.79	33910.53
687.138	33882.51
687.485	33890.65
687.832	33666.25
688.18	33749.41
688.527	33597.55
688.874	33567.27
689.221	33590.54
689.568	33415.63
689.915	33471.9
690.262	33443.2
690.609	33297.9
690.956	33057.9
691.303	33132.7
691.65	32979.26
691.997	32966.38
692.344	32805.48
692.69	32794.86
693.037	32688.19
693.383	32499.5
693.73	32701.75
694.077	32564.36
694.423	32549.67
694.769	32431.48
695.116	32341.99
695.462	32253.4
695.808	32161.65
696.155	32144.93
696.501	31947.2
696.847	31821.78
697.193	31797.37
697.539	31773.19
697.885	31601.44
698.231	31490.94
698.577	31429.7
698.923	31426.53
699.269	31389.47
699.614	31096.82
699.96	31044.17
700.306	31032.42
700.651	30952.19
700.997	30911.74
701.342	30876.49
701.688	30868.81
702.033	30688.02
702.379	30649.6
702.724	30584.97
703.069	30650.28
703.415	30345.43
703.76	30308.82
704.105	30294.58
704.45	30333.23
704.795	30070.18
705.14	30015.5
705.485	29994.93
705.83	29945.89
706.175	29833.35
706.52	29830.64
706.865	29745.9
707.209	29648.73
707.554	29596.52
707.899	29603.3
708.243	29460.03
708.588	29383.2
708.932	29199.7
709.277	29167.38
709.621	29241.73
709.966	29067.72
710.31	29074.05
710.654	28948.18
710.998	29010.78
711.342	28999.93
711.687	28712.93
712.031	28707.96
712.375	28545.7
712.719	28703.21
713.063	28619.15
713.407	28660.05
713.75	28432.71
714.094	28424.35
714.438	28408.08
714.782	28357.01
715.125	28288.08
715.469	28340.74
715.812	28192.49
716.156	28106.85
716.499	27979.84
716.843	28205.6
717.186	27915.66
717.53	28110.01
717.873	27891.48
718.216	27990.92
718.559	27844.71
718.902	27627.76
719.246	27723.35
719.589	27479.52
719.932	27459.63
720.275	27396.58
720.617	27472.96
720.96	27327.66
721.303	27371.72
721.646	27377.37
721.989	27207.66
722.331	27198.62
722.674	27149.81
723.016	27104.39
723.359	27052.41
723.701	27088.12
724.044	26931.96
724.386	26827.78
724.729	26870.72
725.071	26861.23
725.413	26752.76
725.755	26834.79
726.097	26618.52
726.439	26607.45
726.782	26633.89
727.124	26618.52
727.465	26560.67
727.807	26425.53
728.149	26490.84
728.491	26310.73
728.833	26420.56
729.175	26248.59
729.516	26287.01
729.858	26154.81
730.199	26312.77
730.541	26252.66
730.882	26188.93
731.224	26202.94
731.565	26072.32
731.906	26063.51
732.248	26048.59
732.589	25890.63
732.93	25900.8
733.271	25871.2
733.612	25906.68
733.953	25980.57
734.294	25658.32
734.635	25693.35
734.976	25699
735.317	25614.26
735.658	25647.48
735.999	25605.22
736.339	25558.66
736.68	25557.76
737.021	25518.21
737.361	25339.91
737.702	25486.8
738.042	25411.32
738.383	25387.14
738.723	25409.52
739.063	25202.52
739.404	25274.15
739.744	25212.23
740.084	25159.13
740.424	25126.13
740.764	25099.24
741.104	25199.58
741.444	25059.02
741.784	25025.8
742.124	25005.01
742.464	24967.04
742.804	24794.62
743.143	24878.23
743.483	24837.55
743.823	24771.34
744.162	24775.18
744.502	24782.87
744.841	24594.62
745.181	24761.4
745.52	24598.46
745.86	24604.79
746.199	24658.8
746.538	24503.32
746.877	24626.26
747.216	24482.31
747.556	24534.51
747.895	24432.14
748.234	24266.04
748.573	24232.82
748.911	24253.61
749.25	24159.15
749.589	24161.86
749.928	24169.55
750.267	24091.36
750.605	24032.6
750.944	24074.64
751.283	23908.31
751.621	24017.46
751.96	23901.76
752.298	23770.69
752.636	23850.01
752.975	23744.02
753.313	23657.47
753.651	23689.33
753.989	23719.39
754.327	23585.61
754.666	23398.95
755.004	23535.21
755.342	23473.97
755.679	23417.48
756.017	23251.61
756.355	23406.4
756.693	23282.79
757.031	23276.24
757.368	23120.31
757.706	23060.2
758.044	22936.81
758.381	23069.69
758.719	22905.17
759.056	22944.72
759.394	22839.87
759.731	22661.34
760.068	22576.37
760.405	22554.9
760.743	22575.47
761.08	22538.4
761.417	22394.23
761.754	22433.32
762.091	22289.37
762.428	22164.63
762.765	22066.78
763.102	22157.62
763.438	22019.1
763.775	21990.62
764.112	21994.46
764.449	21867.69
764.785	21763.96
765.122	21642.16
765.458	21568.26
765.795	21646
766.131	21523.52
766.467	21561.26
766.804	21450.07
767.14	21257.99
767.476	21236.52
767.812	21126.46
768.148	21134.83
768.485	21059.8
768.821	20883.76
769.157	20809.64
769.492	20897.09
769.828	20843.76
770.164	20637.21
770.5	20643.31
770.836	20503.88
771.171	20438.57
771.507	20366.48
771.842	20350.67
772.178	20291.68
772.513	20153.83
772.849	20095.53
773.184	20071.35
773.519	20105.93
773.855	19940.05
774.19	19896.67
774.525	19808.53
774.86	19841.53
775.195	19721.53
775.53	19598.82
775.865	19563.34
776.2	19466.17
776.535	19305.5
776.87	19257.36
777.205	19207.42
777.539	19051.49
777.874	19191.6
778.209	18962.68
778.543	18974.66
778.878	18812.85
779.212	18841.1
779.547	18754.32
779.881	18774.89
780.215	18669.58
780.55	18664.16
780.884	18411.28
781.218	18465.97
781.552	18435.01
781.886	18336.26
782.22	18222.36
782.554	18180.55
782.888	17998.18
783.222	17991.18
783.556	17999.54
783.889	17847.23
784.223	17767.23
784.557	17685.2
784.89	17753.22
785.224	17698.76
785.557	17488.14
785.891	17509.61
786.224	17475.26
786.558	17443.17
786.891	17249.96
787.224	17209.05
787.557	17138.32
787.891	17198.43
788.224	17075.5
788.557	17133.35
788.89	17077.98
789.223	16972.68
789.556	16851.55
789.888	16778.33
790.221	16702.4
790.554	16646.58
790.887	16659.24
791.219	16624.21
791.552	16519.58
791.884	16465.34
792.217	16430.32
792.549	16256.08
792.882	16253.6
793.214	16165.01
793.546	16193.71
793.879	16106.03
794.211	16003.44
794.543	16032.13
794.875	15976.32
795.207	15961.18
795.539	15890.44
795.871	15816.55
796.203	15604.8
796.535	15679.38
796.867	15621.07
797.198	15594.63
797.53	15588.76
797.862	15448.87
798.193	15430.34
798.525	15342.89
798.856	15388.99
799.188	15256.56
799.519	15212.27
799.85	15088.88
800.182	15118.94
800.513	15185.6
800.844	14940.19
801.175	15056.57
801.506	15018.15
801.837	14895.67
802.168	14880.53
802.499	14826.97
802.83	14774.99
803.161	14737.48
803.491	14746.97
803.822	14672.62
804.153	14666.07
804.483	14478.05
804.814	14477.6
805.145	14403.25
805.475	14425.17
805.805	14386.53
806.136	14371.84
806.466	14377.72
806.796	14376.13
807.126	14239.19
807.457	14127.33
807.787	14167.78
808.117	14108.57
808.447	14032.64
808.777	14049.59
809.107	14003.04
809.436	13964.62
809.766	13958.52
810.096	13851.85
810.426	13888.69
810.755	13792.65
811.085	13783.38
811.414	13771.4
811.744	13663.38
812.073	13629.26
812.403	13664.97
812.732	13575.7
813.061	13551.52
813.39	13449.83
813.719	13442.37
814.049	13495.25
814.378	13454.8
814.707	13364.63
815.036	13364.18
815.365	13292.77
815.693	13223.85
816.022	13175.49
816.351	13191.76
816.68	13085.09
817.008	13182.27
817.337	13021.82
817.665	13040.12
817.994	13002.61
818.322	12949.96
818.651	12879
818.979	12929.39
819.307	12828.15
819.636	12839.68
819.964	12857.98
820.292	12831.77
820.62	12760.36
820.948	12742.73
821.276	12799.45
821.604	12765.33
821.932	12776.63
822.259	12753.58
822.587	12802.16
822.915	12746.12
823.243	12731.66
823.57	12688.27
823.898	12707.48
824.225	12722.84
824.553	12668.61
824.88	12709.51
825.207	12715.39
825.535	12779.34
825.862	12747.48
826.189	12636.97
826.516	12707.7
826.843	12769.4
827.17	12683.07
827.497	12694.82
827.824	12711.77
828.151	12754.48
828.478	12712.67
828.805	12640.13
829.131	12645.56
829.458	12574.37
829.785	12639
830.111	12627.25
830.438	12683.3
830.764	12639.23
831.09	12534.15
831.417	12624.54
831.743	12579.8
832.069	12668.83
832.395	12605.56
832.722	12561.94
833.048	12508.61
833.374	12574.37
833.7	12519.23
834.026	12496.63
834.351	12586.8
834.677	12516.07
835.003	12511.55
835.329	12628.38
835.654	12440.59
835.98	12412.12
836.306	12472.45
836.631	12392.91
836.956	12430.2
837.282	12450.99
837.607	12330.99
837.932	12350.65
838.258	12378.9
838.583	12281.73
838.908	12267.94
839.233	12227.94
839.558	12239.24
839.883	12233.14
840.208	12147.72
840.533	12203.99
840.858	12158.11
841.182	12049.19
841.507	12119.24
841.832	12016.42
842.156	11977.1
842.481	12026.36
842.805	11977.1
843.13	12024.1
843.454	11868.18
843.778	11900.49
844.103	11810.33
844.427	11818.69
844.751	11846.48
845.075	11787.73
845.399	11763.09
845.723	11579.82
846.047	11663.89
846.371	11578.47
846.695	11616.88
847.019	11527.85
847.343	11475.64
847.666	11366.95
847.99	11331.69
848.313	11380.51
848.637	11247.85
848.96	11275.88
849.284	11182.77
849.607	11171.47
849.931	11083.56
850.254	11041.98
850.577	10957.92
850.9	10921.08
851.223	10917.24
851.546	10846.96
851.869	10815.77
852.192	10811.48
852.515	10737.36
852.838	10722.9
853.161	10659.17
853.483	10629.57
853.806	10605.38
854.129	10604.03
854.451	10574.43
854.774	10495.56
855.096	10452.17
855.419	10467.76
855.741	10444.71
856.063	10353.87
856.385	10371.94
856.708	10247.88
857.03	10279.29
857.352	10273.87
857.674	10253.08
857.996	10167.2
858.318	10175.57
858.64	10206.07
858.961	10094.21
859.283	10111.84
859.605	10064.16
859.926	9975.12
860.248	9952.75
860.57	9914.1
860.891	10030.48
861.212	9859.64
861.534	9898.51
861.855	9929.24
862.176	9917.04
862.498	9893.54
862.819	9854.44
863.14	9809.7
863.461	9757.05
863.782	9783.94
864.103	9703.26
864.424	9656.71
864.745	9747.33
865.065	9675.69
865.386	9633.89
865.707	9710.04
866.027	9643.38
866.348	9569.48
866.668	9681.12
866.989	9604.51
867.309	9480.44
867.63	9554.57
867.95	9587.78
868.27	9456.94
868.59	9455.36
868.91	9484.51
869.23	9475.47
869.55	9404.06
869.87	9437.73
870.19	9357.73
870.51	9421.69
870.83	9421.69
871.15	9298.98
871.469	9374.23
871.789	9349.37
872.109	9397.73
872.428	9284.97
872.748	9279.09
873.067	9280
873.386	9276.38
873.706	9276.61
874.025	9190.28
874.344	9199.32
874.663	9230.05
874.982	9127.91
875.301	9197.96
875.62	9131.3
875.939	9161.13
876.258	9082.71
876.577	9078.87
876.896	9036.84
877.214	9048.59
877.533	9070.96
877.852	9042.26
878.17	9077.74
878.489	9029.38
878.807	9060.57
879.125	8953.23
879.444	8927.46
879.762	9011.08
880.08	8951.42
880.398	8893.79
880.716	8923.4
881.034	8895.83
881.352	8857.86
881.67	8830.97
881.988	8844.98
882.306	8723.4
882.624	8771.99
882.941	8753.46
883.259	8681.82
883.577	8683.63
883.894	8662.84
884.212	8692.44
884.529	8660.35
884.846	8640.24
885.164	8578.09
885.481	8621.26
885.798	8651.31
886.115	8554.14
886.432	8574.03
886.75	8511.65
887.067	8608.6
887.383	8528.38
887.7	8484.31
888.017	8456.29
888.334	8475.5
888.651	8430.75
888.967	8374.26
889.284	8367.93
889.6	8276.63
889.917	8334.94
890.233	8272.34
890.55	8273.02
890.866	8263.98
891.182	8232.79
891.498	8168.61
891.815	8187.37
892.131	8088.84
892.447	8108.5
892.763	8023.08
893.079	8125
893.395	8051.1
893.71	8043.64
894.026	8013.14
894.342	7988.5
894.657	7928.62
894.973	7964.55
895.289	7898.56
895.604	7887.94
895.92	7836.42
896.235	7844.78
896.55	7760.26
896.865	7767.49
897.181	7727.95
897.496	7739.47
897.811	7733.14
898.126	7698.57
898.441	7687.95
898.756	7647.95
899.071	7557.1
899.386	7579.02
899.7	7464.9
900.015	7504
900.33	7488.18
900.644	7393.94
900.959	7409.31
901.273	7385.81
901.588	7419.25
901.902	7327.05
902.216	7322.31
902.531	7340.39
902.845	7269.2
903.159	7227.85
903.473	7198.69
903.787	7177.9
904.101	7151.69
904.415	7159.15
904.729	7130.22
905.042	7049.32
905.356	7079.15
905.67	7068.53
905.984	6980.17
906.297	6970.68
906.611	6954.41
906.924	6944.69
907.237	6951.7
907.551	6889.32
907.864	6846.16
908.177	6863.79
908.491	6828.76
908.804	6822.89
909.117	6725.94
909.43	6708.31
909.743	6686.39
910.056	6701.31
910.368	6637.81
910.681	6621.76
910.994	6627.86
911.307	6578.6
911.619	6530.24
911.932	6517.13
912.244	6511.03
912.557	6488.66
912.869	6437.36
913.181	6385.83
913.494	6415.44
913.806	6369.34
914.118	6348.32
914.43	6280.07
914.742	6265.16
915.054	6274.88
915.366	6200.08
915.678	6223.35
915.99	6219.51
916.302	6139.74
916.613	6121.44
916.925	6122.57
917.236	6096.13
917.548	6003.47
917.859	6013.19
918.171	5962.8
918.482	5994.21
918.794	5952.85
919.105	5949.46
919.416	5896.81
919.727	5885.74
920.038	5847.09
920.349	5812.29
920.66	5791.73
920.971	5761.22
921.282	5766.87
921.593	5668.34
921.903	5720.32
922.214	5717.38
922.525	5652.97
922.835	5657.04
923.146	5591.51
923.456	5578.4
923.767	5595.57
924.077	5601.45
924.387	5466.09
924.697	5532.52
925.008	5491.85
925.318	5447.33
925.628	5441
925.938	5392.64
926.248	5375.92
926.558	5398.52
926.867	5317.61
927.177	5357.61
927.487	5288.01
927.796	5258.18
928.106	5211.4
928.416	5237.84
928.725	5222.25
929.034	5198.3
929.344	5203.95
929.653	5182.7
929.962	5130.05
930.271	5120.78
930.581	5048.02
930.89	5065.19
931.199	5001.24
931.508	5001.24
931.817	5011.18
932.125	4977.74
932.434	5023.38
932.743	4919.43
933.051	4918.3
933.36	4874.91
933.669	4837.85
933.977	4805.54
934.286	4803.73
934.594	4815.03
934.902	4790.17
935.21	4776.39
935.519	4749.49
935.827	4693.22
936.135	4698.2
936.443	4681.7
936.751	4647.58
937.059	4615.94
937.367	4603.73
937.674	4622.49
937.982	4512.21
938.29	4544.3
938.597	4602.6
938.905	4528.26
939.213	4480.8
939.52	4495.26
939.827	4438.99
940.135	4455.26
940.442	4455.26
940.749	4381.59
941.056	4387.02
941.363	4341.82
941.67	4353.35
941.977	4369.84
942.284	4285.55
942.591	4334.14
942.898	4302.27
943.205	4231.77
943.511	4223.63
943.818	4288.26
944.125	4199
944.431	4210.75
944.738	4171.88
945.044	4192.67
945.35	4169.85
945.657	4132.11
945.963	4115.39
946.269	4061.6
946.575	4079.68
946.881	4052.11
947.187	4036.74
947.493	4010.3
947.799	4004.88
948.105	3966.01
948.41	3930.08
948.716	3960.14
949.022	3934.15
949.327	3934.6
949.633	3891.21
949.938	3925.79
950.244	3929.18
950.549	3848.5
950.854	3829.74
951.16	3838.33
951.465	3827.94
951.77	3778.45
952.075	3803.98
952.38	3756.75
952.685	3730.54
952.99	3741.61
953.294	3707.49
953.599	3745.45
953.904	3671.78
954.209	3620.03
954.513	3679.69
954.818	3672.01
955.122	3602.41
955.426	3612.57
955.731	3588.85
956.035	3556.98
956.339	3536.42
956.643	3572.12
956.948	3510.88
957.252	3545.91
957.556	3474.05
957.86	3471.11
958.163	3451.9
958.467	3432.01
958.771	3430.88
959.075	3416.65
959.378	3388.4
959.682	3409.19
959.985	3346.37
960.289	3411.9
960.592	3360.15
960.896	3328.97
961.199	3313.6
961.502	3300.49
961.805	3276.76
962.108	3241.28
962.411	3232.47
962.714	3209.65
963.017	3234.96
963.32	3255.52
963.623	3168.74
963.926	3190.89
964.228	3175.52
964.531	3175.07
964.833	3157.9
965.136	3120.38
965.438	3106.83
965.741	3102.76
966.043	3103.44
966.345	3094.17
966.648	3065.92
966.95	3034.96
967.252	3032.02
967.554	3028.86
967.856	3006.71
968.158	2979.37
968.46	2985.47
968.761	2978.01
969.063	2962.87
969.365	2933.95
969.666	2945.93
969.968	2918.81
970.269	2927.17
970.571	2915.87
970.872	2906.6
971.174	2863.22
971.475	2901.63
971.776	2836.1
972.077	2818.92
972.378	2836.1
972.679	2824.12
972.98	2794.52
973.281	2785.25
973.582	2777.12
973.883	2777.12
974.183	2759.72
974.484	2764.91
974.785	2755.87
975.085	2707.29
975.386	2709.77
975.686	2698.02
975.986	2735.76
976.287	2687.85
976.587	2641.98
976.887	2654.86
977.187	2619.38
977.487	2648.53
977.787	2621.19
978.087	2617.12
978.387	2602.43
978.687	2606.05
978.987	2571.7
979.286	2551.13
979.586	2550.91
979.885	2555.2
980.185	2515.2
980.484	2505.03
980.784	2528.99
981.083	2515.2
981.382	2499.38
981.682	2471.36
981.981	2462.77
982.28	2465.49
982.579	2449.67
982.878	2436.79
983.177	2403.57
983.475	2413.06
983.774	2374.41
984.073	2368.54
984.372	2355.88
984.67	2392.72
984.969	2381.42
985.267	2375.32
985.566	2317.02
985.864	2343.68
986.162	2315.89
986.461	2275.89
986.759	2286.28
987.057	2299.39
987.355	2273.4
987.653	2262.55
987.951	2233.4
988.249	2256.9
988.547	2242.22
988.844	2235.89
989.142	2211.93
989.44	2180.52
989.737	2208.77
990.035	2183.91
990.332	2188.88
990.63	2141.65
990.927	2145.72
991.224	2137.59
991.521	2126.29
991.819	2130.13
992.116	2135.33
992.413	2101.88
992.71	2091.94
993.006	2075.44
993.303	2066.4
993.6	2064.37
993.897	2056.68
994.193	2053.97
994.49	2061.88
994.787	2025.05
995.083	2001.32
995.379	1987.53
995.676	2003.8
995.972	1998.83
996.268	1971.49
996.565	1962
996.861	1952.28
997.157	1975.78
997.453	1974.88
997.749	1921.55
998.044	1896.91
998.34	1919.74
998.636	1914.09
998.932	1890.13
999.227	1889.46
999.523	1896.24
999.818	1855.56
1000.114	1860.3
1000.409	1879.06
1000.704	1845.16
1001	1851.94
1001.295	1812.4
1001.59	1834.77
1001.885	1850.59
1002.18	1817.82
1002.475	1768.33
1002.77	1793.19
1003.065	1742.57
1003.359	1756.35
1003.654	1747.09
1003.949	1713.19
1004.243	1737.82
1004.538	1707.77
1004.832	1693.98
1005.127	1710.03
1005.421	1714.32
1005.715	1697.14
1006.009	1700.99
1006.304	1658.05
1006.598	1683.36
1006.892	1668.22
1007.186	1637.49
1007.48	1628.67
1007.773	1622.34
1008.067	1619.41
1008.361	1591.84
1008.655	1604.04
1008.948	1573.76
1009.242	1570.14
1009.535	1589.8
1009.829	1554.1
1010.122	1559.75
1010.415	1534.89
1010.708	1543.48
1011.001	1523.59
1011.295	1544.15
1011.588	1521.56
1011.881	1470.48
1012.173	1505.06
1012.466	1492.86
1012.759	1503.93
1013.052	1486.3
1013.344	1478.62
1013.637	1469.13
1013.93	1444.04
1014.222	1418.06
1014.514	1430.03
1014.807	1444.72
1015.099	1396.81
1015.391	1422.35
1015.683	1421.9
1015.976	1398.17
1016.268	1392.29
1016.56	1370.37
1016.851	1386.42
1017.143	1375.57
1017.435	1350.49
1017.727	1375.57
1018.018	1334.44
1018.31	1332.63
1018.602	1322.69
1018.893	1351.62
1019.185	1277.27
1019.476	1326.31
1019.767	1290.6
1020.058	1284.95
1020.35	1262.13
1020.641	1253.77
1020.932	1265.29
1021.223	1252.64
1021.514	1237.04
1021.804	1231.17
1022.095	1223.26
1022.386	1234.78
1022.677	1225.07
1022.967	1191.85
1023.258	1184.62
1023.548	1171.96
1023.839	1193.2
1024.129	1180.1
1024.419	1199.98
1024.709	1145.97
1025	1136.26
1025.29	1120.89
1025.58	1125.18
1025.87	1153.88
1026.16	1126.76
1026.449	1122.24
1026.739	1134
1027.029	1110.72
1027.319	1102.58
1027.608	1092.87
1027.898	1091.06
1028.187	1080.44
1028.477	1091.96
1028.766	1051.29
1029.055	1072.3
1029.344	1054.22
1029.634	1041.79
1029.923	1022.13
1030.212	1038.63
1030.501	1033.21
1030.79	1020.1
1031.078	992.76
1031.367	1000.67
1031.656	1009.25
1031.945	995.69
1032.233	1002.93
1032.522	977.16
1032.81	979.2
1033.099	991.63
1033.387	948.92
1033.675	953.44
1033.963	967.22
1034.251	948.92
1034.54	965.41
1034.828	934.23
1035.116	921.12
1035.403	912.98
1035.691	909.14
1035.979	913.44
1036.267	900.78
1036.554	894.23
1036.842	887.22
1037.129	919.99
1037.417	909.59
1037.704	882.7
1037.992	907.56
1038.279	865.75
1038.566	843.83
1038.853	843.83
1039.14	843.83
