Data from hue_180_FLMS001491_00071.txt Node
Date: Tue Feb 07 16:47:26 GMT 2017
User: dcchb
Spectrometer: FLMS00149
Trigger mode: 0
Integration Time (sec): 2.000000E-2
Scans to average: 10
Electric dark correction enabled: true
Nonlinearity correction enabled: false
Boxcar width: 0
XAxis mode: Wavelengths
Number of Pixels in Spectrum: 2048
>>>>>Begin Spectral Data<<<<<
341.393	-10.52
341.776	-10.52
342.16	-10.52
342.543	-63.63
342.927	-69.5
343.31	-67.7
343.693	-81.71
344.077	-60.46
344.46	-80.58
344.843	-24.76
345.226	-39.67
345.61	-20.69
345.993	-18.66
346.376	-16.4
346.759	21.57
347.142	14.11
347.525	37.84
347.908	55.46
348.291	67.89
348.674	85.29
349.057	128.46
349.44	118.74
349.823	146.31
350.206	166.87
350.588	206.87
350.971	212.97
351.354	229.47
351.737	246.87
352.119	218.62
352.502	267.89
352.884	272.18
353.267	289.13
353.65	282.8
354.032	311.5
354.414	279.41
354.797	315.57
355.179	316.47
355.562	326.42
355.944	332.97
356.326	344.72
356.709	327.1
357.091	327.55
357.473	325.97
357.855	342.24
358.238	345.17
358.62	337.04
359.002	352.41
359.384	355.8
359.766	336.36
360.148	371.61
360.53	325.97
360.912	353.31
361.294	332.97
361.676	324.84
362.057	333.42
362.439	318.96
362.821	354.89
363.203	326.42
363.584	322.58
363.966	313.99
364.348	320.99
364.729	312.41
365.111	326.42
365.493	317.6
365.874	335.91
366.256	311.96
366.637	331.16
367.019	307.89
367.4	305.18
367.781	308.79
368.163	330.94
368.544	326.87
368.925	313.99
369.306	321.45
369.688	305.63
370.069	314.21
370.45	308.57
370.831	327.1
371.212	319.64
371.593	317.38
371.974	306.76
372.355	288
372.736	327.55
373.117	332.29
373.498	309.24
373.879	323.71
374.26	315.34
374.641	301.79
375.021	316.7
375.402	314.89
375.783	305.85
376.163	295.23
376.544	311.28
376.925	334.33
377.305	327.32
377.686	307.66
378.066	336.14
378.447	321.9
378.827	306.53
379.208	308.34
379.588	330.71
379.968	326.42
380.349	344.27
380.729	313.99
381.109	320.54
381.489	316.93
381.87	326.64
382.25	332.29
382.63	323.71
383.01	354.44
383.39	350.37
383.77	332.52
384.15	309.92
384.53	338.62
384.91	348.34
385.29	356.02
385.67	327.1
386.049	343.82
386.429	365.96
386.809	337.49
387.189	332.75
387.568	355.8
387.948	337.72
388.328	353.76
388.707	349.47
389.087	343.82
389.466	343.82
389.846	353.99
390.225	347.43
390.605	373.65
390.984	370.48
391.363	362.58
391.743	363.71
392.122	377.04
392.501	379.75
392.881	364.16
393.26	381.78
393.639	383.59
394.018	385.63
394.397	379.98
394.776	350.15
395.155	383.59
395.534	383.82
395.913	393.76
396.292	402.35
396.671	404.61
397.05	380.43
397.429	390.6
397.808	389.92
398.186	367.77
398.565	390.37
398.944	388.56
399.323	388.79
399.701	406.87
400.08	412.07
400.458	415
400.837	384.5
401.215	414.33
401.594	397.83
401.972	395.12
402.351	383.82
402.729	416.13
403.107	420.65
403.486	405.06
403.864	445.74
404.242	425.4
404.62	412.29
404.999	427.43
405.377	450.71
405.755	417.49
406.133	447.54
406.511	454.55
406.889	456.58
407.267	469.92
407.645	450.26
408.023	470.59
408.401	475.79
408.779	454.1
409.156	484.15
409.534	476.7
409.912	494.32
410.29	496.36
410.667	492.74
411.045	500.88
411.422	512.18
411.8	517.37
412.178	514.44
412.555	532.97
412.933	551.72
413.31	546.98
413.687	557.15
414.065	562.8
414.442	551.95
414.819	580.87
415.197	578.61
415.574	628.33
415.951	594.89
416.328	581.1
416.705	609.12
417.082	585.39
417.46	647.54
417.837	660.65
418.214	629.46
418.591	638.95
418.967	672.17
419.344	663.58
419.721	668.78
420.098	670.36
420.475	685.96
420.852	685.96
421.228	714.43
421.605	698.61
421.982	717.82
422.358	740.87
422.735	750.59
423.111	746.29
423.488	744.71
423.864	775.45
424.241	787.2
424.617	792.39
424.994	793.75
425.37	807.54
425.746	824.71
426.123	844.14
426.499	832.17
426.875	856.35
427.251	862.45
427.627	888.66
428.003	884.37
428.379	887.99
428.756	920.75
429.132	882.11
429.507	913.97
429.883	936.8
430.259	940.19
430.635	972.28
431.011	953.07
431.387	967.53
431.763	1030.58
432.138	1006.85
432.514	989.9
432.89	1010.24
433.265	1058.15
433.641	1062.9
434.016	1069.45
434.392	1090.24
434.767	1144.93
435.143	1124.36
435.518	1170.69
435.894	1174.98
436.269	1189.9
436.644	1212.72
437.02	1198.94
437.395	1228.32
437.77	1251.59
438.145	1240.74
438.52	1308.99
438.895	1271.25
439.271	1336.33
439.646	1346.96
440.021	1367.52
440.395	1358.48
440.77	1341.08
441.145	1381.08
441.52	1374.98
441.895	1442.32
442.27	1420.4
442.645	1447.52
443.019	1465.82
443.394	1450
443.769	1461.08
444.143	1492.49
444.518	1489.1
444.892	1506.27
445.267	1544.24
445.641	1542.43
446.016	1565.93
446.39	1582.43
446.764	1617.23
447.139	1595.54
447.513	1628.98
447.887	1641.86
448.262	1602.54
448.636	1631.92
449.01	1672.15
449.384	1650.45
449.758	1702.65
450.132	1694.74
450.506	1709.21
450.88	1706.27
451.254	1731.8
451.628	1754.63
452.002	1792.37
452.376	1800.5
452.75	1810.22
453.123	1832.59
453.497	1850.45
453.871	1875.53
454.244	1936.55
454.618	1951.69
454.992	1972.48
455.365	1948.97
455.739	2030.1
456.112	2027.16
456.486	2052.47
456.859	2045.24
457.232	2116.43
457.606	2094.28
457.979	2139.7
458.352	2211.79
458.725	2201.85
459.099	2202.3
459.472	2242.07
459.845	2291.11
460.218	2273.49
460.591	2343.31
460.964	2366.82
461.337	2373.6
461.71	2419.92
462.083	2498.11
462.456	2450.43
462.829	2480.26
463.201	2534.72
463.574	2555.06
463.947	2577.66
464.32	2637.54
464.692	2694.04
465.065	2726.81
465.438	2775.62
465.81	2801.38
466.183	2802.51
466.555	2877.99
466.928	2858.1
467.3	2896.75
467.672	2975.61
468.045	3044.54
468.417	3087.02
468.789	3085.89
469.161	3167.47
469.534	3196.4
469.906	3247.92
470.278	3336.96
470.65	3310.07
471.022	3416.05
471.394	3430.29
471.766	3509.16
472.138	3548.48
472.51	3644.3
472.882	3730.17
473.253	3743.05
473.625	3832.77
473.997	3900.56
474.369	3892.88
474.74	3953.89
475.112	4073.66
475.484	4128.8
475.855	4199.54
476.227	4287.44
476.598	4439.53
476.97	4407.44
477.341	4544.84
477.713	4573.31
478.084	4670.71
478.455	4781.67
478.827	4834.32
479.198	5030.25
479.569	5008.78
479.94	5152.05
480.311	5280.64
480.682	5393.86
481.053	5461.88
481.424	5590.01
481.795	5719.95
482.166	5813.51
482.537	5876.55
482.908	5990.68
483.279	6103.67
483.65	6193.61
484.021	6359.71
484.391	6494.62
484.762	6519.7
485.133	6594.95
485.503	6722.63
485.874	6859.35
486.244	6941.39
486.615	7113.81
486.985	7156.52
487.356	7304.31
487.726	7440.81
488.097	7537.75
488.467	7563.06
488.837	7790.85
489.207	7904.98
489.578	7961.02
489.948	8080.79
490.318	8238.3
490.688	8315.13
491.058	8405.53
491.428	8448.46
491.798	8629.93
492.168	8795.35
492.538	8830.83
492.908	8925.51
493.278	9013.65
493.648	9107.66
494.017	9197.6
494.387	9326.86
494.757	9375.67
495.126	9458.83
495.496	9539.51
495.866	9582.22
496.235	9746.28
496.605	9766.62
496.974	9859.27
497.344	9897.69
497.713	9977.69
498.082	10093.84
498.452	10140.85
498.821	10222.2
499.19	10170.23
499.559	10292.48
499.928	10371.8
500.298	10431.46
500.667	10518.92
501.036	10513.95
501.405	10644.56
501.774	10619.93
502.143	10658.12
502.512	10713.26
502.88	10797.33
503.249	10748.06
503.618	10903.32
503.987	10886.37
504.356	10898.12
504.724	10991
505.093	11013.37
505.462	11091.11
505.83	11177.43
506.199	11144.89
506.567	11293.59
506.936	11266.92
507.304	11330.65
507.672	11370.2
508.041	11380.82
508.409	11454.03
508.777	11501.49
509.145	11597.99
509.514	11517.08
509.882	11643.18
510.25	11595.95
510.618	11654.71
510.986	11623.75
511.354	11787.13
511.722	11880.92
512.09	11906.9
512.458	11856.74
512.826	11950.75
513.193	11906.9
513.561	11923.18
513.929	12008.82
514.297	12108.93
514.664	12119.78
515.032	12067.35
515.4	12160.01
515.767	12164.3
516.135	12191.19
516.502	12041.14
516.869	12207.24
517.237	12270.06
517.604	12197.29
517.972	12242.49
518.339	12261.02
518.706	12302.15
519.073	12284.3
519.44	12320
519.808	12351.86
520.175	12402.03
520.542	12489.94
520.909	12476.16
521.276	12411.3
521.643	12505.76
522.009	12577.85
522.376	12507.57
522.743	12476.38
523.11	12492.43
523.477	12673.89
523.843	12651.52
524.21	12612.87
524.577	12776.49
524.943	12783.27
525.31	12720.67
525.676	12778.07
526.043	12781.91
526.409	12778.29
526.776	12892.19
527.142	12790.27
527.508	12805.19
527.874	12861
528.241	12797.5
528.607	12734
528.973	12852.87
529.339	12748.69
529.705	12823.94
530.071	12894.45
530.437	12814.9
530.803	12833.43
531.169	12832.53
531.535	12843.38
531.901	12751.4
532.267	12787.56
532.632	12818.97
532.998	12722.48
533.364	12730.16
533.73	12707.11
534.095	12782.36
534.461	12649.71
534.826	12689.03
535.192	12641.12
535.557	12623.04
535.923	12559.54
536.288	12453.78
536.653	12569.26
537.019	12488.58
537.384	12454.23
537.749	12340.34
538.114	12400.9
538.479	12383.95
538.845	12304.63
539.21	12282.04
539.575	12230.51
539.94	12212.21
540.305	12189.61
540.67	12096.28
541.034	12095.83
541.399	12094.02
541.764	12045.88
542.129	11978.09
542.494	11969.28
542.858	11935.83
543.223	11851.09
543.587	11810.18
543.952	11781.94
544.316	11691.54
544.681	11644.31
545.045	11661.49
545.41	11684.54
545.774	11552.79
546.138	11562.05
546.503	11535.16
546.867	11472.11
547.231	11393.02
547.595	11368.84
547.959	11388.27
548.324	11336.75
548.688	11256.98
549.052	11216.98
549.416	11199.8
549.779	11133.37
550.143	11060.6
550.507	11096.98
550.871	11046.14
551.235	10989.87
551.599	11063.08
551.962	10896.99
552.326	10941.51
552.689	10926.59
553.053	10794.84
553.417	10746.93
553.78	10872.13
554.143	10788.74
554.507	10669.65
554.87	10755.07
555.234	10731.34
555.597	10616.99
555.96	10647.5
556.323	10633.04
556.686	10483.89
557.05	10672.13
557.413	10501.29
557.776	10531.8
558.139	10541.06
558.502	10513.72
558.865	10402.76
559.228	10525.47
559.59	10427.62
559.953	10422.65
560.316	10461.07
560.679	10440.73
561.041	10436.66
561.404	10399.37
561.767	10505.13
562.129	10267.85
562.492	10424.46
562.854	10273.05
563.217	10387.85
563.579	10381.29
563.941	10431.24
564.304	10377.23
564.666	10425.59
565.028	10389.43
565.39	10323.9
565.753	10404.12
566.115	10376.55
566.477	10365.93
566.839	10404.8
567.201	10427.85
567.563	10380.39
567.925	10417.68
568.287	10359.15
568.648	10331.8
569.01	10463.33
569.372	10469.43
569.734	10380.39
570.095	10394.85
570.457	10479.37
570.819	10439.6
571.18	10403.44
571.542	10400.28
571.903	10405.93
572.265	10365.48
572.626	10421.29
572.987	10424.23
573.349	10412.71
573.71	10453.16
574.071	10476.66
574.432	10466.94
574.794	10434.17
575.155	10411.12
575.516	10386.04
575.877	10434.17
576.238	10443.89
576.599	10403.44
576.96	10463.78
577.32	10413.61
577.681	10445.93
578.042	10469.43
578.403	10413.16
578.763	10465.13
579.124	10488.18
579.485	10459.26
579.845	10511.91
580.206	10437.56
580.566	10392.14
580.927	10444.57
581.287	10448.64
581.648	10425.14
582.008	10493.61
582.368	10411.8
582.728	10339.49
583.089	10338.13
583.449	10333.61
583.809	10401.86
584.169	10361.86
584.529	10318.02
584.889	10309.43
585.249	10321.41
585.609	10296.55
585.969	10402.54
586.329	10285.7
586.688	10290
587.048	10282.31
587.408	10262.2
587.768	10302.65
588.127	10240.51
588.487	10267.85
588.846	10193.5
589.206	10192.37
589.565	10201.64
589.925	10229.43
590.284	10135.43
590.643	10195.99
591.003	10177.68
591.362	10234.63
591.721	10135.65
592.08	10194.63
592.44	10138.14
592.799	10164.35
593.158	10133.62
593.517	10093.39
593.876	10160.06
594.235	10118.93
594.593	10045.48
594.952	10155.54
595.311	10024.02
595.67	10080.51
596.029	10126.39
596.387	10083.9
596.746	10122.32
597.104	9978.59
597.463	10061.3
597.822	10021.98
598.18	10018.59
598.538	10045.94
598.897	10009.78
599.255	9930.69
599.613	10029.21
599.972	10094.3
600.33	10119.61
600.688	9968.65
601.046	9985.15
601.404	10028.54
601.762	10031.93
602.12	10073.05
602.478	10075.09
602.836	10027.18
603.194	9986.5
603.552	10039.61
603.91	9968.65
604.268	9993.96
604.625	9941.08
604.983	10031.7
605.341	9944.47
605.698	9924.58
606.056	10035.09
606.413	9979.72
606.771	10045.26
607.128	10025.6
607.485	9958.03
607.843	9916
608.2	9957.58
608.557	9997.35
608.914	10027.41
609.272	10028.76
609.629	10003.23
609.986	10058.59
610.343	9978.37
610.7	10103.79
611.057	10069.44
611.414	10024.24
611.771	9991.25
612.127	10059.04
612.484	10061.98
612.841	10087.97
613.198	10107.86
613.554	10103.79
613.911	10113.28
614.267	10090.46
614.624	10102.66
614.98	10114.86
615.337	10161.41
615.693	10080.96
616.05	10107.4
616.406	10115.77
616.762	10116.44
617.118	10050.46
617.475	10137.91
617.831	10179.04
618.187	10181.53
618.543	10155.31
618.899	10228.76
619.255	10215.42
619.611	10168.65
619.967	10227.4
620.323	10259.72
620.678	10195.31
621.034	10112.6
621.39	10111.92
621.746	10122.09
622.101	10285.48
622.457	10191.47
622.812	10192.83
623.168	10174.07
623.523	10149.21
623.879	10253.39
624.234	10213.84
624.589	10154.86
624.945	10178.59
625.3	10173.16
625.655	10151.7
626.01	10213.84
626.365	10197.34
626.72	10140.17
627.075	10156.89
627.43	10143.56
627.785	10164.13
628.14	10120.28
628.495	10175.42
628.85	10155.99
629.205	10153.73
629.559	10108.53
629.914	10093.84
630.269	10075.99
630.623	10140.4
630.978	10101.53
631.332	10058.14
631.687	10186.27
632.041	10042.55
632.396	10085.71
632.75	10053.62
633.104	10071.47
633.459	9960.29
633.813	10012.72
634.167	10029.21
634.521	9996.22
634.875	9972.04
635.229	10041.19
635.583	9914.64
635.937	9974.75
636.291	9901.31
636.645	9881.19
636.999	9936.33
637.352	9932.27
637.706	9850.24
638.06	9820.18
638.413	9848.43
638.767	9817.47
639.121	9791.93
639.474	9793.29
639.828	9805.94
640.181	9808.88
640.534	9785.6
640.888	9706.74
641.241	9711.03
641.594	9737.7
641.947	9767.53
642.301	9669
642.654	9725.27
643.007	9781.99
643.36	9745.38
643.713	9689.56
644.066	9763.01
644.419	9651.14
644.771	9639.85
645.124	9503.58
645.477	9565.95
645.83	9439.17
646.182	9410.02
646.535	9340.87
646.888	9425.84
647.24	9345.16
647.593	9468.32
647.945	9445.73
648.298	9374.09
648.65	9306.52
649.002	9361.21
649.355	9380.42
649.707	9322.79
650.059	9359.17
650.411	9494.54
650.763	9552.16
651.115	9640.3
651.467	9537.7
651.819	9555.33
652.171	9557.36
652.523	9580.19
652.875	9600.07
653.227	9571.37
653.578	9600.98
653.93	9591.49
654.282	9557.14
654.633	9547.42
654.985	9529.34
655.337	9581.09
655.688	9583.8
656.039	9656.12
656.391	9558.94
656.742	9586.97
657.094	9555.78
657.445	9634.87
657.796	9584.48
658.147	9586.29
658.498	9617.47
658.849	9555.78
659.2	9576.34
659.551	9613.18
659.902	9642.33
660.253	9663.35
660.604	9637.59
660.955	9563.92
661.306	9629.45
661.656	9609.11
662.007	9618.38
662.358	9587.19
662.708	9678.49
663.059	9680.97
663.409	9576.34
663.76	9678.04
664.11	9682.33
664.461	9667.42
664.811	9677.81
665.161	9643.46
665.511	9663.12
665.862	9645.49
666.212	9637.36
666.562	9652.27
666.912	9665.16
667.262	9631.48
667.612	9687.98
667.962	9718.71
668.312	9613.63
668.662	9675.78
669.011	9705.83
669.361	9659.28
669.711	9608.89
670.06	9640.98
670.41	9583.12
670.76	9626.51
671.109	9720.75
671.459	9644.37
671.808	9640.3
672.157	9669.9
672.507	9602.56
672.856	9533.18
673.205	9587.19
673.554	9620.18
673.904	9538.38
674.253	9689.11
674.602	9571.37
674.951	9435.11
675.3	9407.99
675.649	9568.21
675.998	9467.42
676.346	9453.64
676.695	9583.12
677.044	9455.9
677.393	9516.91
677.741	9410.47
678.09	9453.41
678.438	9461.32
678.787	9426.74
679.135	9469.23
679.484	9360.76
679.832	9382
680.181	9354.88
680.529	9409.79
680.877	9343.81
681.225	9311.27
681.573	9349.46
681.922	9316.01
682.27	9249.35
682.618	9233.75
682.966	9187.88
683.314	9251.16
683.661	9142.01
684.009	9185.17
684.357	9159.41
684.705	9148.78
685.053	9072.18
685.4	9111.05
685.748	9027.21
686.095	9031.5
686.443	8947.89
686.79	9003.93
687.138	9057.49
687.485	9075.79
687.832	8932.07
688.18	8990.14
688.527	8925.97
688.874	8875.8
689.221	8885.29
689.568	8847.32
689.915	8823.14
690.262	8794.22
690.609	8830.15
690.956	8758.51
691.303	8744.95
691.65	8705.63
691.997	8696.14
692.344	8608.46
692.69	8585.41
693.037	8587.67
693.383	8547.9
693.73	8564.62
694.077	8475.13
694.423	8512.42
694.769	8483.04
695.116	8435.36
695.462	8399.65
695.808	8363.04
696.155	8333.89
696.501	8274.23
696.847	8207.57
697.193	8189.04
697.539	8234.91
697.885	8161.69
698.231	8122.6
698.577	8102.26
698.923	8071.53
699.269	8030.62
699.614	7969.83
699.96	7964.41
700.306	7958.53
700.651	7942.71
700.997	7952.21
701.342	7909.72
701.688	7816.62
702.033	7783.4
702.379	7802.38
702.724	7716.28
703.069	7824.53
703.415	7726
703.76	7678.99
704.105	7686.22
704.45	7601.03
704.795	7602.16
705.14	7535.04
705.485	7540.24
705.83	7552.22
706.175	7496.4
706.52	7467.02
706.865	7431.77
707.209	7391.32
707.554	7416.63
707.899	7444.87
708.243	7378.21
708.588	7335.73
708.932	7312.22
709.277	7264.77
709.621	7302.96
709.966	7228.84
710.31	7271.55
710.654	7180.7
710.998	7176.18
711.342	7175.5
711.687	7150.87
712.031	7153.81
712.375	7081.72
712.719	7100.48
713.063	7101.83
713.407	7102.29
713.75	7068.39
714.094	7041.5
714.438	7012.8
714.782	7060.25
715.125	6979.35
715.469	7002.17
715.812	6996.3
716.156	6996.75
716.499	6982.06
716.843	6910.43
717.186	6960.37
717.53	6959.46
717.873	6938.45
718.216	6969.41
718.559	6897.09
718.902	6870.88
719.246	6872.46
719.589	6852.8
719.932	6827.94
720.275	6877.21
720.617	6834.95
720.96	6758.34
721.303	6778
721.646	6782.75
721.989	6781.62
722.331	6773.93
722.674	6738.45
723.016	6780.94
723.359	6797.21
723.701	6785.01
724.044	6760.6
724.386	6710.66
724.729	6785.46
725.071	6757.21
725.413	6768.96
725.755	6749.07
726.097	6688.51
726.439	6665.23
726.782	6693.26
727.124	6694.39
727.465	6629.3
727.807	6638.57
728.149	6650.32
728.491	6667.27
728.833	6661.62
729.175	6633.6
729.516	6617.78
729.858	6652.35
730.199	6603.54
730.541	6686.48
730.882	6653.03
731.224	6681.28
731.565	6583.2
731.906	6665.69
732.248	6655.52
732.589	6628.63
732.93	6589.08
733.271	6646.7
733.612	6574.62
733.953	6679.7
734.294	6590.21
734.635	6651.9
734.976	6657.1
735.317	6613.03
735.658	6629.08
735.999	6631.11
736.339	6666.82
736.68	6675.86
737.021	6653.03
737.361	6656.65
737.702	6699.58
738.042	6685.8
738.383	6708.17
738.723	6674.95
739.063	6684.67
739.404	6740.49
739.744	6763.54
740.084	6674.73
740.424	6740.26
740.764	6756.08
741.104	6771.45
741.444	6760.6
741.784	6707.49
742.124	6805.12
742.464	6857.55
742.804	6798.56
743.143	6879.47
743.483	6939.13
743.823	6864.78
744.162	6919.69
744.502	6995.62
744.841	6914.72
745.181	7021.38
745.52	7017.77
745.86	7136.41
746.199	7119.46
746.538	7115.84
746.877	7155.62
747.216	7236.29
747.556	7336.18
747.895	7322.39
748.234	7346.35
748.573	7363.75
748.911	7458.66
749.25	7523.97
749.589	7560.58
749.928	7680.8
750.267	7756.73
750.605	7786.56
750.944	7885.54
751.283	7941.58
751.621	8034.92
751.96	8105.42
752.298	8184.29
752.636	8283.95
752.975	8374.34
753.313	8436.49
753.651	8574.11
753.989	8633.77
754.327	8827.44
754.666	8892.07
755.004	8952.18
755.342	9126.86
755.679	9285.28
756.017	9340.64
756.355	9548.77
756.693	9652.95
757.031	9833.06
757.368	9848.43
757.706	10076.9
758.044	10238.7
758.381	10324.57
758.719	10484.12
759.056	10664.68
759.394	10793.04
759.731	10956.87
760.068	11045.46
760.405	11221.72
760.743	11314.38
761.08	11605.9
761.417	11715.27
761.754	11921.37
762.091	12061.7
762.428	12181.93
762.765	12296.72
763.102	12612.87
763.438	12728.35
763.775	12870.27
764.112	13081.34
764.449	13305.51
764.785	13365.4
765.122	13411.5
765.458	13705.95
765.795	13790.92
766.131	14017.58
766.467	14085.6
766.804	14219.39
767.14	14346.16
767.476	14548.87
767.812	14662.76
768.148	14780.05
768.485	14888.07
768.821	14943.66
769.157	15221.62
769.492	15277.44
769.828	15355.18
770.164	15432.01
770.5	15559.92
770.836	15710.19
771.171	15673.13
771.507	15874.03
771.842	15930.75
772.178	16022.73
772.513	16147.47
772.849	16237.64
773.184	16271.76
773.519	16349.73
773.855	16508.37
774.19	16480.34
774.525	16550.85
774.86	16699.55
775.195	16730.73
775.53	16775.48
775.865	16738.64
776.2	16850.28
776.535	16808.47
776.87	16884.17
777.205	16874.23
777.539	17055.47
777.874	17027.67
778.209	17014.79
778.543	17122.36
778.878	17010.05
779.212	17165.98
779.547	17193.32
779.881	17199.42
780.215	17144.73
780.55	17278.51
780.884	17199.19
781.218	17228.35
781.552	17288.68
781.886	17243.26
782.22	17191.74
782.554	17232.87
782.888	17120.33
783.222	17196.48
783.556	17176.6
783.889	17209.82
784.223	17161.91
784.557	17165.52
784.89	17221.34
785.224	17034.68
785.557	17163.72
785.891	17137.5
786.224	17178.18
786.558	17136.82
786.891	17038.52
787.224	17057.5
787.557	16963.95
787.891	17058.18
788.224	17160.33
788.557	17049.37
788.89	17035.58
789.223	17007.56
789.556	16959.43
789.888	16943.83
790.221	16922.37
790.554	16820
790.887	16797.4
791.219	16765.08
791.552	16826.78
791.884	16729.15
792.217	16762.6
792.549	16707.46
792.882	16646.67
793.214	16505.43
793.546	16647.8
793.879	16572.32
794.211	16490.74
794.543	16587.91
794.875	16497.74
795.207	16501.36
795.539	16499.1
795.871	16494.81
796.203	16390.85
796.535	16241.71
796.867	16265.21
797.198	16249.84
797.53	16264.98
797.862	16190.86
798.193	16118.32
798.525	16177.98
798.856	16060.92
799.188	15973.24
799.519	15939.11
799.85	15891.88
800.182	15904.77
800.513	15858.89
800.844	15732.34
801.175	15880.81
801.506	15861.38
801.837	15778.22
802.168	15706.13
802.499	15633.13
802.83	15593.81
803.161	15618.22
803.491	15578.45
803.822	15601.04
804.153	15536.19
804.483	15506.36
804.814	15372.35
805.145	15304.1
805.475	15360.82
805.805	15321.73
806.136	15277.89
806.466	15326.48
806.796	15262.97
807.126	15204.44
807.457	15113.37
807.787	15100.72
808.117	15011.46
808.447	15029.53
808.777	15108.85
809.107	15018.91
809.436	15023.43
809.766	14981.17
810.096	14838.35
810.426	14834.51
810.755	14867.28
811.085	14831.57
811.414	14794.29
811.744	14763.55
812.073	14657.57
812.403	14679.94
812.732	14650.34
813.061	14582.99
813.39	14620.51
813.719	14505.71
814.049	14524.24
814.378	14455.31
814.707	14512.26
815.036	14459.61
815.365	14462.77
815.693	14267.75
816.022	14314.52
816.351	14272.27
816.68	14298.48
817.008	14397.46
817.337	14096.9
817.665	14064.59
817.994	14148.65
818.322	14188.88
818.651	14075.43
818.979	14017.36
819.307	14094.87
819.636	14138.71
819.964	13951.82
820.292	14048.77
820.62	13992.05
820.948	14007.64
821.276	14000.86
821.604	14048.09
821.932	14031.37
822.259	13919.51
822.587	13933.29
822.915	14020.75
823.243	13975.1
823.57	13928.77
823.898	14012.16
824.225	13953.63
824.553	13998.15
824.88	14000.18
825.207	13995.66
825.535	13965.83
825.862	13998.6
826.189	13852.39
826.516	13992.73
826.843	14013.97
827.17	14099.39
827.497	13962.44
827.824	14020.52
828.151	14062.1
828.478	13992.27
828.805	14003.57
829.131	14047.64
829.458	13983.69
829.785	13877.93
830.111	13945.04
830.438	14051.48
830.764	13998.15
831.09	13993.63
831.417	13964.03
831.743	14018.71
832.069	14053.51
832.395	13943.91
832.722	13997.47
833.048	13892.16
833.374	13889.23
833.7	13898.94
834.026	13915.89
834.351	13893.97
834.677	13952.95
835.003	13900.3
835.329	13921.54
835.654	13893.74
835.98	13769.68
836.306	13819.62
836.631	13738.27
836.956	13832.28
837.282	13865.72
837.607	13660.08
837.932	13708.89
838.258	13688.33
838.583	13705.5
838.908	13627.76
839.233	13563.13
839.558	13555
839.883	13542.12
840.208	13513.64
840.533	13511.83
840.858	13535.79
841.182	13496.69
841.507	13448.78
841.832	13395.9
842.156	13389.58
842.481	13412.85
842.805	13368.11
843.13	13319.75
843.454	13269.35
843.778	13217.15
844.103	13229.58
844.427	13211.28
844.751	13188.68
845.075	13198.17
845.399	13109.81
845.723	13049.7
846.047	13019.87
846.371	12938.29
846.695	12961.34
847.019	12877.95
847.343	12828.69
847.666	12694.91
847.99	12710.95
848.313	12723.83
848.637	12612.2
848.96	12635.25
849.284	12569.94
849.607	12433.22
849.931	12374.46
850.254	12378.53
850.577	12272.77
850.9	12292.43
851.223	12245.65
851.546	12150.29
851.869	12033.45
852.192	12143.06
852.515	11967.24
852.838	11882.27
853.161	11995.26
853.483	11972.21
853.806	11920.24
854.129	11912.78
854.451	11845.66
854.774	11792.33
855.096	11707.36
855.419	11708.49
855.741	11586.91
856.063	11580.36
856.385	11583.52
856.708	11511.89
857.03	11470.31
857.352	11480.02
857.674	11429.63
857.996	11396.41
858.318	11327.48
858.64	11329.74
858.961	11289.07
859.283	11275.51
859.605	11240.71
859.926	11281.61
860.248	11216.75
860.57	11153.48
860.891	11174.72
861.212	11134.27
861.534	11054.5
861.855	11002.52
862.176	10999.13
862.498	10973.37
862.819	11000.94
863.14	10949.64
863.461	10901.96
863.782	10869.64
864.103	10914.61
864.424	10863.32
864.745	10913.48
865.065	10811.57
865.386	10737.9
865.707	10716.88
866.027	10748.29
866.348	10758.91
866.668	10760.27
866.989	10632.14
867.309	10641.4
867.63	10627.84
867.95	10661.97
868.27	10554.4
868.59	10668.07
868.91	10580.84
869.23	10593.04
869.55	10491.12
869.87	10614.51
870.19	10569.76
870.51	10569.54
870.83	10551.23
871.15	10548.97
871.469	10481.63
871.789	10533.38
872.109	10447.06
872.428	10435.98
872.748	10458.81
873.067	10358.92
873.386	10406.15
873.706	10354.85
874.025	10349.43
874.344	10306.04
874.663	10330
874.982	10264.46
875.301	10285.03
875.62	10284.8
875.939	10212.26
876.258	10304.91
876.577	10209.55
876.896	10184.24
877.214	10150.34
877.533	10163.9
877.852	10165.48
878.17	10150.57
878.489	10172.49
878.807	10124.13
879.125	10095.65
879.444	10107.18
879.762	10111.7
880.08	10083.68
880.398	10033.06
880.716	10060.63
881.034	9965.71
881.352	10000.74
881.67	9939.95
881.988	9939.5
882.306	9879.61
882.624	9855.43
882.941	9874.19
883.259	9783.12
883.577	9787.41
883.894	9849.56
884.212	9678.71
884.529	9803.46
884.846	9703.35
885.164	9703.8
885.481	9636.23
885.798	9672.16
886.115	9613.41
886.432	9561.43
886.75	9606.63
887.067	9637.81
887.383	9514.65
887.7	9535.44
888.017	9447.76
888.334	9462
888.651	9459.51
888.967	9417.03
889.284	9372.73
889.6	9338.84
889.917	9283.47
890.233	9354.43
890.55	9210.7
890.866	9282.57
891.182	9276.92
891.498	9175
891.815	9191.27
892.131	9116.7
892.447	9100.65
892.763	9108.33
893.079	9080.76
893.395	9000.54
893.71	9001.67
894.026	9004.38
894.342	8975.68
894.657	8888.45
894.973	8898.85
895.289	8857.72
895.604	8837.61
895.92	8804.61
896.235	8749.25
896.55	8728.23
896.865	8726.65
897.181	8659.76
897.496	8738.85
897.811	8612.98
898.126	8580.21
898.441	8610.72
898.756	8585.86
899.071	8468.12
899.386	8485.75
899.7	8408.01
900.015	8343.83
900.33	8375.47
900.644	8328.24
900.959	8382.48
901.273	8314.68
901.588	8332.99
901.902	8228.58
902.216	8222.48
902.531	8125.08
902.845	8167.57
903.159	8146.1
903.473	8048.93
903.787	8042.83
904.101	8004.63
904.415	8012.54
904.729	7945.2
905.042	7925.99
905.356	7867.91
905.67	7866.78
905.984	7863.17
906.297	7877.86
906.611	7757.18
906.924	7778.2
907.237	7700.01
907.551	7666.79
907.864	7605.77
908.177	7584.53
908.491	7643.29
908.804	7512.67
909.117	7507.02
909.43	7482.61
909.743	7392.22
910.056	7356.52
910.368	7406.91
910.681	7344.76
910.994	7320.36
911.307	7312.45
911.619	7273.81
911.932	7297.31
912.244	7186.58
912.557	7189.51
912.869	7160.81
913.181	7104.32
913.494	7132.11
913.806	7096.18
914.118	7013.25
914.43	6951.1
914.742	6950.42
915.054	6960.82
915.366	6947.94
915.678	6842.63
915.99	6839.24
916.302	6758.34
916.613	6766.47
916.925	6812.8
917.236	6817.55
917.548	6752.24
917.859	6736.42
918.171	6676.76
918.482	6656.42
918.794	6608.06
919.105	6594.73
919.416	6579.81
919.727	6476.09
920.038	6526.71
920.349	6460.27
920.66	6450.32
920.971	6495.75
921.282	6434.28
921.593	6375.98
921.903	6367.62
922.214	6302.98
922.525	6276.09
922.835	6288.07
923.146	6262.08
923.456	6266.15
923.767	6202.87
924.077	6224.34
924.387	6154.06
924.697	6129.43
925.008	6141.86
925.318	6139.82
925.628	6064.8
925.938	6099.37
926.248	5978.25
926.558	5996.1
926.867	5925.37
927.177	5922.66
927.487	5935.54
927.796	5872.49
928.106	5907.74
928.416	5834.97
928.725	5828.65
929.034	5800.17
929.344	5799.04
929.653	5783.22
929.962	5685.83
930.271	5690.57
930.581	5714.3
930.89	5654.19
931.199	5670.68
931.508	5576.45
931.817	5649.22
932.125	5547.98
932.434	5533.74
932.743	5519.28
933.051	5480.63
933.36	5458.71
933.669	5461.42
933.977	5414.87
934.286	5407.19
934.594	5393.18
934.902	5342.11
935.21	5329.22
935.519	5299.17
935.827	5245.38
936.135	5262.33
936.443	5241.09
936.751	5238.15
937.059	5222.33
937.367	5165.61
937.674	5216.46
937.982	5140.98
938.29	5096.69
938.597	5104.82
938.905	5023.7
939.213	5054.43
939.52	4976.24
939.827	5081.77
940.135	5013.53
940.442	4951.61
940.749	4982.57
941.056	4946.18
941.363	4884.26
941.67	4886.52
941.977	4854.21
942.284	4846.75
942.591	4824.15
942.898	4779.86
943.205	4798.62
943.511	4787.09
943.818	4739.86
944.125	4694.89
944.431	4768.56
944.738	4676.36
945.044	4687.43
945.35	4642.01
945.657	4657.6
945.963	4586.19
946.269	4572.63
946.575	4565.4
946.881	4498.96
947.187	4525.18
947.493	4492.18
947.799	4479.3
948.105	4443.6
948.41	4454.22
948.716	4386.42
949.022	4373.54
949.327	4415.58
949.633	4330.83
949.938	4358.4
950.244	4322.47
950.549	4254
950.854	4252.19
951.16	4297.61
951.465	4263.49
951.77	4236.37
952.075	4232.53
952.38	4173.1
952.685	4218.52
952.99	4137.84
953.294	4161.12
953.599	4141.23
953.904	4089.71
954.209	4144.4
954.513	4097.17
954.818	4100.33
955.122	4058.07
955.426	4070.5
955.731	4022.82
956.035	3989.15
956.339	3978.98
956.643	3961.12
956.948	3931.52
957.252	3908.02
957.556	3896.27
957.86	3878.64
958.163	3880.45
958.467	3856.49
958.771	3842.94
959.075	3842.94
959.378	3815.14
959.682	3832.77
959.985	3820.11
960.289	3771.53
960.592	3745.99
960.896	3707.8
961.199	3722.49
961.502	3684.97
961.805	3697.85
962.108	3661.25
962.411	3635.26
962.714	3664.18
963.017	3590.96
963.32	3657.86
963.623	3533.57
963.926	3552.32
964.228	3558.88
964.531	3527.46
964.833	3514.81
965.136	3524.3
965.438	3534.24
965.741	3499.89
966.043	3450.4
966.345	3463.96
966.648	3418.77
966.95	3441.36
967.252	3389.16
967.554	3372.21
967.856	3372.67
968.158	3367.47
968.46	3339.45
968.761	3323.85
969.063	3309.16
969.365	3303.97
969.666	3274.14
969.968	3276.17
970.269	3281.59
970.571	3256.96
970.872	3246.34
971.174	3209.51
971.475	3197.08
971.776	3176.06
972.077	3163.18
972.378	3192.11
972.679	3159.79
972.98	3161.6
973.281	3111.43
973.582	3131.54
973.883	3108.72
974.183	3081.37
974.484	3078.21
974.785	3056.97
975.085	3064.43
975.386	3056.97
975.686	3023.52
975.986	2980.81
976.287	2992.34
976.587	2954.82
976.887	2962.73
977.187	2980.59
977.487	2965.22
977.787	2927.03
978.087	2878.22
978.387	2903.07
978.687	2881.83
978.987	2870.31
979.286	2865.33
979.586	2861.94
979.885	2818.1
980.185	2828.05
980.484	2805.22
980.784	2828.5
981.083	2778.1
981.382	2801.83
981.682	2762.51
981.981	2759.57
982.28	2724.77
982.579	2722.51
982.878	2723.87
983.177	2720.25
983.475	2689.07
983.774	2666.47
984.073	2685.45
984.372	2646.13
984.67	2626.92
984.969	2614.27
985.267	2650.2
985.566	2612.46
985.864	2612.01
986.162	2570.2
986.461	2569.07
986.759	2543.76
987.057	2546.47
987.355	2542.63
987.653	2516.64
987.951	2530.2
988.249	2527.26
988.547	2506.93
988.844	2468.73
989.142	2492.69
989.44	2468.96
989.737	2442.75
990.035	2441.84
990.332	2446.81
990.63	2430.09
990.927	2412.46
991.224	2401.39
991.521	2374.27
991.819	2368.62
992.116	2376.76
992.413	2368.17
992.71	2329.3
993.006	2346.48
993.303	2346.03
993.6	2321.39
993.897	2271.23
994.193	2319.36
994.49	2248.85
994.787	2258.8
995.083	2253.15
995.379	2237.55
995.676	2240.94
995.972	2236.2
996.268	2226.48
996.565	2157.33
996.861	2186.48
997.157	2177.44
997.453	2181.51
997.749	2141.06
998.044	2121.17
998.34	2138.12
998.636	2090.89
998.932	2109.87
999.227	2100.16
999.523	2079.82
999.818	2097.9
1000.114	2054.73
1000.409	2038.01
1000.704	2033.72
1001	2039.37
1001.295	2023.55
1001.59	2014.96
1001.885	2017.45
1002.18	1994.17
1002.475	1975.64
1002.77	1993.72
1003.065	1942.42
1003.359	1972.25
1003.654	1950.78
1003.949	1943.55
1004.243	1923.66
1004.538	1885.25
1004.832	1879.15
1005.127	1881.41
1005.421	1896.77
1005.715	1840.73
1006.009	1854.06
1006.304	1882.99
1006.598	1817.45
1006.892	1805.7
1007.186	1832.59
1007.48	1810.45
1007.773	1774.74
1008.067	1754.18
1008.361	1755.08
1008.655	1781.52
1008.948	1745.82
1009.242	1761.41
1009.535	1747.4
1009.829	1725.7
1010.122	1719.6
1010.415	1679.15
1010.708	1672.37
1011.001	1703.78
1011.295	1671.02
1011.588	1656.55
1011.881	1643.9
1012.173	1622.43
1012.466	1668.3
1012.759	1638.02
1013.052	1602.32
1013.344	1585.37
1013.637	1611.36
1013.93	1606.38
1014.222	1569.32
1014.514	1585.14
1014.807	1573.84
1015.099	1552.37
1015.391	1553.05
1015.683	1522.54
1015.976	1525.93
1016.268	1526.84
1016.56	1494.75
1016.851	1517.12
1017.143	1480.06
1017.435	1462.43
1017.727	1482.77
1018.018	1458.82
1018.31	1441.42
1018.602	1444.58
1018.893	1447.07
1019.185	1413.17
1019.476	1435.54
1019.767	1382.66
1020.058	1377.01
1020.35	1386.5
1020.641	1383.57
1020.932	1378.37
1021.223	1347.18
1021.514	1354.19
1021.804	1346.28
1022.095	1321.65
1022.386	1354.64
1022.677	1305.6
1022.967	1340.63
1023.258	1294.53
1023.548	1292.72
1023.839	1285.49
1024.129	1283.91
1024.419	1273.96
1024.709	1276.9
1025	1226.73
1025.29	1233.29
1025.58	1258.82
1025.87	1255.43
1026.16	1230.8
1026.449	1224.7
1026.739	1221.76
1027.029	1203.46
1027.319	1198.03
1027.608	1175.89
1027.898	1182.67
1028.187	1180.41
1028.477	1174.76
1028.766	1172.27
1029.055	1161.88
1029.344	1167.3
1029.634	1136.11
1029.923	1124.59
1030.212	1108.09
1030.501	1114.65
1030.79	1085.27
1031.078	1096.34
1031.367	1073.52
1031.656	1102.22
1031.945	1055.21
1032.233	1076.68
1032.522	1068.55
1032.81	1041.88
1033.099	1042.33
1033.387	1045.5
1033.675	1060.64
1033.963	1053.18
1034.251	1008.66
1034.54	1012.28
1034.828	1015.67
1035.116	1005.04
1035.403	1024.93
1035.691	997.13
1035.979	995.55
1036.267	974.54
1036.554	963.92
1036.842	978.6
1037.129	958.94
1037.417	957.59
1037.704	953.07
1037.992	933.86
1038.279	939.51
1038.566	928.21
1038.853	928.21
1039.14	928.21
