Data from hue_200_FLMS001491_00088.txt Node
Date: Tue Feb 07 16:44:04 GMT 2017
User: dcchb
Spectrometer: FLMS00149
Trigger mode: 0
Integration Time (sec): 2.000000E-2
Scans to average: 10
Electric dark correction enabled: true
Nonlinearity correction enabled: false
Boxcar width: 0
XAxis mode: Wavelengths
Number of Pixels in Spectrum: 2048
>>>>>Begin Spectral Data<<<<<
341.393	-5.35
341.776	-5.35
342.16	-5.35
342.543	-66.59
342.927	-70.66
343.31	-60.49
343.693	-80.38
344.077	-66.59
344.46	-71.11
344.843	-67.72
345.226	-36.09
345.61	-31.34
345.993	-12.58
346.376	4.59
346.759	14.76
347.142	49.56
347.525	52.27
347.908	29
348.291	76
348.674	99.73
349.057	100.41
349.44	140.18
349.823	151.71
350.206	150.12
350.588	180.4
350.971	208.88
351.354	196.22
351.737	243.23
352.119	241.87
352.502	252.49
352.884	279.84
353.267	265.15
353.65	293.4
354.032	299.5
354.414	309.44
354.797	308.54
355.179	308.09
355.562	328.2
355.944	341.3
356.326	334.07
356.709	325.49
357.091	323.45
357.473	342.89
357.855	336.56
358.238	339.72
358.62	351.47
359.002	332.04
359.384	334.98
359.766	340.63
360.148	341.98
360.53	346.95
360.912	328.2
361.294	314.86
361.676	337.69
362.057	318.71
362.439	334.98
362.821	321.19
363.203	310.57
363.584	331.14
363.966	341.76
364.348	322.77
364.729	319.61
365.111	320.74
365.493	309.67
365.874	310.57
366.256	313.28
366.637	329.33
367.019	336.56
367.4	335.2
367.781	322.77
368.163	314.41
368.544	313.51
368.925	306.05
369.306	316.45
369.688	312.6
370.069	335.43
370.45	324.81
370.831	321.87
371.212	308.31
371.593	312.6
371.974	306.5
372.355	295.66
372.736	320.29
373.117	335.43
373.498	315.09
373.879	324.36
374.26	333.4
374.641	306.05
375.021	329.55
375.402	305.6
375.783	317.35
376.163	330.46
376.544	328.42
376.925	329.78
377.305	321.19
377.686	325.03
378.066	344.69
378.447	340.17
378.827	339.5
379.208	325.03
379.588	312.15
379.968	334.75
380.349	335.66
380.729	329.33
381.109	342.89
381.489	324.81
381.87	344.69
382.25	334.3
382.63	322.77
383.01	334.3
383.39	339.95
383.77	355.77
384.15	340.17
384.53	341.53
384.91	346.73
385.29	351.25
385.67	337.24
386.049	363.9
386.429	349.21
386.809	360.97
387.189	365.48
387.568	368.87
387.948	341.08
388.328	366.61
388.707	351.7
389.087	360.06
389.466	377.69
389.846	374.52
390.225	362.32
390.605	387.63
390.984	367.97
391.363	391.25
391.743	380.63
392.122	374.07
392.501	381.3
392.881	392.38
393.26	393.51
393.639	388.76
394.018	389.66
394.397	393.96
394.776	388.76
395.155	375.2
395.534	404.58
395.913	388.76
396.292	397.12
396.671	407.74
397.05	394.86
397.429	429.21
397.808	405.94
398.186	423.11
398.565	402.09
398.944	402.55
399.323	414.97
399.701	408.87
400.08	424.47
400.458	424.47
400.837	422.43
401.215	427.86
401.594	439.61
401.972	433.05
402.351	404.35
402.729	443.67
403.107	433.28
403.486	443.67
403.864	443
404.242	460.85
404.62	462.43
404.999	475.31
405.377	464.69
405.755	464.47
406.133	468.08
406.511	459.27
406.889	488.42
407.267	503.11
407.645	493.39
408.023	509.21
408.401	500.4
408.779	484.8
409.156	524.58
409.534	532.49
409.912	526.16
410.29	527.06
410.667	547.63
411.045	542.66
411.422	563.22
411.8	563.45
412.178	583.11
412.555	616.78
412.933	593.5
413.31	627.85
413.687	627.4
414.065	614.29
414.442	651.58
414.819	640.73
415.197	688.64
415.574	654.97
415.951	691.13
416.328	681.41
416.705	702.2
417.082	722.54
417.46	720.28
417.837	741.07
418.214	738.13
418.591	740.84
418.967	737.68
419.344	762.08
419.721	788.52
420.098	777.23
420.475	777.9
420.852	807.28
421.228	825.36
421.605	836.43
421.982	862.42
422.358	847.73
422.735	871.46
423.111	885.02
423.488	895.41
423.864	913.94
424.241	969.08
424.617	959.37
424.994	966.37
425.37	963.21
425.746	997.33
426.123	1007.73
426.499	1045.01
426.875	1045.92
427.251	1063.55
427.627	1065.13
428.003	1104.22
428.379	1119.59
428.756	1108.52
429.132	1149.87
429.507	1155.29
429.883	1171.57
430.259	1184.9
430.635	1167.5
431.011	1193.26
431.387	1222.41
431.763	1255.63
432.138	1275.29
432.514	1264.9
432.89	1284.56
433.265	1342.18
433.641	1315.52
434.016	1366.14
434.392	1413.37
434.767	1419.02
435.143	1463.99
435.518	1455.4
435.894	1507.38
436.269	1540.14
436.644	1556.41
437.02	1574.49
437.395	1598.45
437.77	1637.32
438.145	1641.61
438.52	1690.42
438.895	1746.69
439.271	1757.54
439.646	1805.9
440.021	1794.15
440.395	1819.23
440.77	1822.62
441.145	1868.27
441.52	1912.11
441.895	1875.05
442.27	1934.93
442.645	1949.85
443.019	1996.63
443.394	2000.02
443.769	2039.11
444.143	2003.63
444.518	2072.78
444.892	2049.28
445.267	2099.45
445.641	2125.89
446.016	2118.21
446.39	2156.4
446.764	2168.6
447.139	2200.92
447.513	2215.61
447.887	2229.16
448.262	2270.52
448.636	2245.89
449.01	2258.77
449.384	2330.63
449.758	2295.6
450.132	2337.41
450.506	2372.89
450.88	2395.04
451.254	2392.1
451.628	2420.12
452.002	2468.71
452.376	2497.63
452.75	2483.85
453.123	2497.18
453.497	2583.73
453.871	2596.61
454.244	2622.37
454.618	2599.55
454.992	2678.42
455.365	2641.13
455.739	2752.77
456.112	2800.22
456.486	2791.64
456.859	2759.55
457.232	2879.54
457.606	2890.62
457.979	2905.08
458.352	2967
458.725	3005.64
459.099	3014
459.472	3076.83
459.845	3110.05
460.218	3119.76
460.591	3145.75
460.964	3120.67
461.337	3263.04
461.71	3287.22
462.083	3318.85
462.456	3385.07
462.829	3362.92
463.201	3412.18
463.574	3453.99
463.947	3525.63
464.32	3574.67
464.692	3575.8
465.065	3603.82
465.438	3662.35
465.81	3718.62
466.183	3752.51
466.555	3820.08
466.928	3802.46
467.3	3840.2
467.672	3908.89
468.045	4052.62
468.417	3986.18
468.789	4077.25
469.161	4145.5
469.534	4110.92
469.906	4274.53
470.278	4277.92
470.65	4291.26
471.022	4405.38
471.394	4457.35
471.766	4512.95
472.138	4582.32
472.51	4673.39
472.882	4687.86
473.253	4727.86
473.625	4809.66
473.997	4882.88
474.369	4961.52
474.74	4969.21
475.112	5045.36
475.484	5170.78
475.855	5216.66
476.227	5288.97
476.598	5436.09
476.97	5456.2
477.341	5563.77
477.713	5633.59
478.084	5634.27
478.455	5854.15
478.827	5818.45
479.198	5964.21
479.569	5986.58
479.94	6168.04
480.311	6145.45
480.682	6331.88
481.053	6454.36
481.424	6558.32
481.795	6519.22
482.166	6673.34
482.537	6761.25
482.908	6852.09
483.279	6937.29
483.65	7044.63
484.021	7206.21
484.391	7244.4
484.762	7289.6
485.133	7322.59
485.503	7382.25
485.874	7589.7
486.244	7656.59
486.615	7800.54
486.985	7811.62
487.356	7974.32
487.726	8013.19
488.097	8223.13
488.467	8186.3
488.837	8342.22
489.207	8490.24
489.578	8557.59
489.948	8610.47
490.318	8715.32
490.688	8708.77
491.058	8808.43
491.428	8908.08
491.798	8988.99
492.168	9150.56
492.538	9121.64
492.908	9263.33
493.278	9319.15
493.648	9382.65
494.017	9404.8
494.387	9488.86
494.757	9551.91
495.126	9674.17
495.496	9672.36
495.866	9683.43
496.235	9842.07
496.605	9937.66
496.974	9923.65
497.344	10015.4
497.713	10091.1
498.082	10200.03
498.452	10171.78
498.821	10226.69
499.19	10146.02
499.559	10330.19
499.928	10303.75
500.298	10399.57
500.667	10440.02
501.036	10373.36
501.405	10540.13
501.774	10473.92
502.143	10481.83
502.512	10534.03
502.88	10617.64
503.249	10609.74
503.618	10701.03
503.987	10716.85
504.356	10685.44
504.724	10739
505.093	10748.26
505.462	10820.13
505.83	10873.91
506.199	10802.95
506.567	10987.13
506.936	10907.13
507.304	11053.79
507.672	11010.4
508.041	11036.16
508.409	11111.87
508.777	11181.92
509.145	11170.17
509.514	11237.97
509.882	11294.46
510.25	11197.74
510.618	11245.42
510.986	11278.64
511.354	11307.57
511.722	11329.04
512.09	11394.57
512.458	11341.24
512.826	11397.06
513.193	11491.29
513.561	11389.83
513.929	11535.13
514.297	11498.75
514.664	11565.42
515.032	11507.11
515.4	11571.97
515.767	11539.65
516.135	11595.25
516.502	11504.85
516.869	11680.22
517.237	11613.32
517.604	11605.87
517.972	11669.14
518.339	11761.34
518.706	11640.44
519.073	11704.4
519.44	11730.16
519.808	11725.19
520.175	11749.37
520.542	11822.13
520.909	11818.52
521.276	11694.9
521.643	11779.65
522.009	11849.25
522.376	11783.26
522.743	11828.46
523.11	11943.49
523.477	11985.52
523.843	11963.82
524.21	12014.44
524.577	11959.53
524.943	12015.8
525.31	11985.07
525.676	12022.81
526.043	12016.93
526.409	12038.62
526.776	12080.66
527.142	12027.1
527.508	12027.55
527.874	11977.16
528.241	12068.45
528.607	12028.23
528.973	12035.91
529.339	12036.36
529.705	12050.6
530.071	12054.22
530.437	12022.81
530.803	12009.02
531.169	11985.29
531.535	11905.29
531.901	11931.06
532.267	11843.15
532.632	11904.84
532.998	11838.18
533.364	11830.95
533.73	11862.13
534.095	11866.43
534.461	11803.6
534.826	11846.76
535.192	11790.5
535.557	11753.89
535.923	11656.94
536.288	11720.44
536.653	11760.21
537.019	11622.14
537.384	11650.16
537.749	11496.72
538.114	11478.64
538.479	11487.9
538.845	11508.69
539.21	11347.57
539.575	11303.95
539.94	11328.59
540.305	11313.22
540.67	11279.1
541.034	11156.39
541.399	11196.39
541.764	11055.15
542.129	11127.46
542.494	11071.87
542.858	11046.33
543.223	10954.13
543.587	11015.6
543.952	10893.12
544.316	10858.32
544.681	10784.19
545.045	10787.36
545.41	10760.01
545.774	10734.93
546.138	10764.08
546.503	10653.12
546.867	10554.82
547.231	10613.35
547.595	10476.41
547.959	10493.35
548.324	10410.87
548.688	10393.24
549.052	10431.66
549.416	10366.8
549.779	10226.24
550.143	10296.52
550.507	10215.4
550.871	10212.23
551.235	10155.28
551.599	10135.4
551.962	10078.22
552.326	10069.18
552.689	10061.95
553.053	9913.71
553.417	9951
553.78	9982.41
554.143	9907.61
554.507	9914.84
554.87	9821.28
555.234	9893.6
555.597	9762.3
555.96	9807.95
556.323	9759.14
556.686	9744.22
557.05	9704.22
557.413	9658.57
557.776	9595.75
558.139	9645.24
558.502	9648.4
558.865	9684.11
559.228	9608.86
559.59	9569.76
559.953	9529.31
560.316	9599.37
560.679	9582.19
561.041	9605.02
561.404	9571.34
561.767	9604.56
562.129	9483.66
562.492	9619.93
562.854	9486.37
563.217	9481.63
563.579	9538.35
563.941	9560.5
564.304	9509.88
564.666	9497.9
565.028	9528.41
565.39	9540.61
565.753	9560.05
566.115	9551.01
566.477	9536.09
566.839	9512.14
567.201	9530.67
567.563	9523.21
567.925	9598.91
568.287	9649.76
568.648	9493.15
569.01	9550.55
569.372	9618.12
569.734	9541.06
570.095	9613.38
570.457	9624.22
570.819	9625.58
571.18	9607.05
571.542	9630.55
571.903	9579.25
572.265	9635.07
572.626	9608.41
572.987	9624.45
573.349	9605.47
573.71	9653.15
574.071	9587.84
574.432	9571.57
574.794	9649.76
575.155	9701.74
575.516	9613.38
575.877	9656.09
576.238	9607.05
576.599	9668.97
576.96	9708.97
577.32	9611.8
577.681	9633.49
578.042	9698.12
578.403	9709.65
578.763	9641.17
579.124	9645.24
579.485	9715.3
579.845	9776.54
580.206	9698.57
580.566	9675.07
580.927	9695.86
581.287	9734.05
581.648	9593.26
582.008	9693.15
582.368	9754.62
582.728	9676.2
583.089	9666.03
583.449	9669.42
583.809	9695.86
584.169	9643.21
584.529	9620.38
584.889	9684.11
585.249	9541.97
585.609	9603.89
585.969	9604.11
586.329	9659.03
586.688	9626.26
587.048	9691.79
587.408	9695.18
587.768	9665.35
588.127	9605.92
588.487	9607.73
588.846	9605.24
589.206	9605.24
589.565	9518.24
589.925	9565.24
590.284	9608.41
590.643	9595.75
591.003	9556.2
591.362	9546.49
591.721	9590.33
592.08	9593.94
592.44	9621.51
592.799	9573.83
593.158	9554.85
593.517	9515.75
593.876	9619.48
594.235	9585.13
594.593	9524.34
594.952	9573.38
595.311	9472.59
595.67	9509.43
596.029	9492.02
596.387	9573.15
596.746	9539.93
597.104	9598.46
597.463	9518.69
597.822	9575.41
598.18	9503.32
598.538	9487.73
598.897	9481.18
599.255	9448.18
599.613	9462.65
599.972	9559.14
600.33	9521.85
600.688	9486.37
601.046	9550.55
601.404	9547.16
601.762	9581.06
602.12	9562.98
602.478	9567.95
602.836	9553.04
603.194	9451.35
603.552	9467.62
603.91	9475.3
604.268	9471.91
604.625	9407.73
604.983	9515.3
605.341	9484.57
605.698	9461.52
606.056	9500.39
606.413	9452.03
606.771	9428.52
607.128	9578.8
607.485	9461.06
607.843	9502.19
608.2	9520.95
608.557	9560.95
608.914	9465.36
609.272	9560.27
609.629	9582.19
609.986	9569.54
610.343	9599.14
610.7	9608.63
611.057	9550.33
611.414	9606.37
611.771	9606.82
612.127	9622.87
612.484	9632.81
612.841	9565.92
613.198	9599.14
613.554	9635.75
613.911	9671.45
614.267	9600.04
614.624	9624.45
614.98	9645.47
615.337	9660.61
615.693	9688.63
616.05	9651.57
616.406	9652.92
616.762	9678.46
617.118	9670.55
617.475	9633.04
617.831	9705.13
618.187	9644.79
618.543	9703.32
618.899	9690.66
619.255	9716.65
619.611	9690.44
619.967	9714.62
620.323	9711
620.678	9693.83
621.034	9695.63
621.39	9714.62
621.746	9683.88
622.101	9816.54
622.457	9717.56
622.812	9745.35
623.168	9674.17
623.523	9723.43
623.879	9727.27
624.234	9730.66
624.589	9769.76
624.945	9698.57
625.3	9739.7
625.655	9760.04
626.01	9750.1
626.365	9684.79
626.72	9709.42
627.075	9729.76
627.43	9692.92
627.785	9683.21
628.14	9760.27
628.495	9655.86
628.85	9700.83
629.205	9664.22
629.559	9700.38
629.914	9594.85
630.269	9669.87
630.623	9644.34
630.978	9669.19
631.332	9715.75
631.687	9681.85
632.041	9616.31
632.396	9607.95
632.75	9581.74
633.104	9632.13
633.459	9518.46
633.813	9525.92
634.167	9588.07
634.521	9518.24
634.875	9520.05
635.229	9522.31
635.583	9437.79
635.937	9461.06
636.291	9443.21
636.645	9486.6
636.999	9391.91
637.352	9419.03
637.706	9402.76
638.06	9439.82
638.413	9417
638.767	9285.7
639.121	9359.37
639.474	9354.17
639.828	9254.29
640.181	9309.66
640.534	9359.82
640.888	9291.8
641.241	9290
641.594	9218.81
641.947	9307.85
642.301	9289.77
642.654	9328.86
643.007	9277.11
643.36	9251.13
643.713	9302.42
644.066	9280.96
644.419	9210.9
644.771	9173.84
645.124	9061.08
645.477	9035.77
645.83	9000.74
646.182	8977.91
646.535	8905.37
646.888	8934.75
647.24	8888.65
647.593	9004.13
647.945	8961.42
648.298	8929.1
648.65	8919.84
649.002	8855.88
649.355	8949.21
649.707	9012.26
650.059	8926.39
650.411	9113.05
650.763	9091.58
651.115	9192.15
651.467	9148.76
651.819	9154.18
652.171	9162.09
652.523	9146.95
652.875	9136.1
653.227	9071.92
653.578	9148.98
653.93	9099.72
654.282	9099.04
654.633	9087.97
654.985	9058.82
655.337	9073.73
655.688	9127.74
656.039	9173.61
656.391	9117.57
656.742	9097.23
657.094	9152.82
657.445	9115.76
657.796	9088.42
658.147	9081.87
658.498	9097.68
658.849	9149.89
659.2	9130.9
659.551	9066.95
659.902	9146.95
660.253	9128.19
660.604	9089.32
660.955	9073.73
661.306	9169.1
661.656	9145.59
662.007	9201.86
662.358	9185.14
662.708	9163.67
663.059	9133.16
663.409	9117.8
663.76	9225.36
664.11	9214.07
664.461	9233.73
664.811	9168.42
665.161	9165.25
665.511	9112.6
665.862	9185.59
666.212	9223.1
666.562	9224.91
666.912	9176.78
667.262	9167.06
667.612	9240.96
667.962	9156.67
668.312	9163.67
668.662	9227.17
669.011	9193.5
669.361	9192.6
669.711	9194.86
670.06	9167.29
670.41	9125.48
670.76	9141.75
671.109	9196.89
671.459	9103.56
671.808	9123.22
672.157	9151.47
672.507	9098.36
672.856	9129.55
673.205	9073.5
673.554	9109.21
673.904	9105.14
674.253	9174.97
674.602	9078.7
674.951	8955.09
675.3	8945.37
675.649	9081.87
675.998	9120.28
676.346	9080.06
676.695	9090
677.044	9005.71
677.393	9011.81
677.741	8996.67
678.09	9000.96
678.438	8981.98
678.787	8955.77
679.135	8978.82
679.484	8893.62
679.832	8954.41
680.181	8813.85
680.529	8896.79
680.877	8877.13
681.225	8867.86
681.573	8915.77
681.922	8867.63
682.27	8806.62
682.618	8758.48
682.966	8805.49
683.314	8763.91
683.661	8832.83
684.009	8680.75
684.357	8743.12
684.705	8694.98
685.053	8730.46
685.4	8704.02
685.748	8644.82
686.095	8607.53
686.443	8647.53
686.79	8541.54
687.138	8601.43
687.485	8563.69
687.832	8623.35
688.18	8564.14
688.527	8495.89
688.874	8454.09
689.221	8398.72
689.568	8436.68
689.915	8386.29
690.262	8429.45
690.609	8356.46
690.956	8332.96
691.303	8284.6
691.65	8311.49
691.997	8273.98
692.344	8182.68
692.69	8193.98
693.037	8171.61
693.383	8047.54
693.73	8179.97
694.077	8109.91
694.423	8094.77
694.769	8002.12
695.116	8017.94
695.462	8017.26
695.808	7958.73
696.155	8023.59
696.501	7914.44
696.847	7837.38
697.193	7840.09
697.539	7874.44
697.885	7832.41
698.231	7749.02
698.577	7721.68
698.923	7701.56
699.269	7737.27
699.614	7616.59
699.96	7631.51
700.306	7674.22
700.651	7576.82
700.997	7527.78
701.342	7569.82
701.688	7538.86
702.033	7529.36
702.379	7443.49
702.724	7448.46
703.069	7457.95
703.415	7286.88
703.76	7332.31
704.105	7302.48
704.45	7295.7
704.795	7217.28
705.14	7272.65
705.485	7259.31
705.83	7199.88
706.175	7179.77
706.52	7169.15
706.865	7192.42
707.209	7068.36
707.554	7026.55
707.899	7066.55
708.243	7085.31
708.588	7030.85
708.932	7032.43
709.277	6984.97
709.621	6991.07
709.966	6934.13
710.31	6929.83
710.654	6892.77
710.998	6914.69
711.342	6904.07
711.687	6857.07
712.031	6845.54
712.375	6811.64
712.719	6822.72
713.063	6794.92
713.407	6801.7
713.75	6791.76
714.094	6767.35
714.438	6733.9
714.782	6671.53
715.125	6693.23
715.469	6725.32
715.812	6639.44
716.156	6643.96
716.499	6667.01
716.843	6654.13
717.186	6698.88
717.53	6638.54
717.873	6713.34
718.216	6624.98
718.559	6596.28
718.902	6530.75
719.246	6628.82
719.589	6574.59
719.932	6559.9
720.275	6513.12
720.617	6570.07
720.96	6561.93
721.303	6501.59
721.646	6565.55
721.989	6519.45
722.331	6503.63
722.674	6511.31
723.016	6536.17
723.359	6508.6
723.701	6479.22
724.044	6476.06
724.386	6389.96
724.729	6462.27
725.071	6449.84
725.413	6462.05
725.755	6450.07
726.097	6398.09
726.439	6418.66
726.782	6408.49
727.124	6451.65
727.465	6412.56
727.807	6400.58
728.149	6424.08
728.491	6413.46
728.833	6368.72
729.175	6364.42
729.516	6402.84
729.858	6405.33
730.199	6453.01
730.541	6360.81
730.882	6400.58
731.224	6443.52
731.565	6333.24
731.906	6422.5
732.248	6446
732.589	6384.31
732.93	6365.55
733.271	6392.44
733.612	6400.81
733.953	6411.43
734.294	6398.32
734.635	6349.28
734.976	6379.56
735.317	6345.21
735.658	6356.74
735.999	6420.47
736.339	6390.41
736.68	6446.23
737.021	6380.47
737.361	6359.45
737.702	6491.88
738.042	6384.31
738.383	6440.13
738.723	6464.76
739.063	6429.96
739.404	6431.09
739.744	6422.95
740.084	6473.8
740.424	6419.11
740.764	6457.3
741.104	6492.56
741.444	6505.66
741.784	6496.4
742.124	6544.76
742.464	6533.68
742.804	6583.4
743.143	6599.22
743.483	6568.49
743.823	6570.52
744.162	6570.52
744.502	6596.51
744.841	6663.85
745.181	6711.53
745.52	6693.23
745.86	6774.58
746.199	6731.87
746.538	6804.19
746.877	6842.6
747.216	6912.43
747.556	6945.65
747.895	7032.65
748.234	7028.36
748.573	7040.79
748.911	7138.41
749.25	7197.17
749.589	7250.5
749.928	7275.59
750.267	7358.07
750.605	7424.06
750.944	7476.71
751.283	7533.88
751.621	7605.29
751.96	7740.21
752.298	7788.34
752.636	7852.29
752.975	8055.23
753.313	8043.47
753.651	8205.73
753.989	8300.87
754.327	8365.05
754.666	8458.61
755.004	8609.34
755.342	8770.91
755.679	8882.55
756.017	9052.49
756.355	9154.86
756.693	9269.43
757.031	9447.28
757.368	9545.13
757.706	9599.59
758.044	9849.08
758.381	10005.01
758.719	10167.26
759.056	10390.08
759.394	10527.93
759.731	10661.71
760.068	10784.42
760.405	11012.44
760.743	11127.91
761.08	11297.17
761.417	11508.92
761.754	11684.28
762.091	11864.17
762.428	11996.59
762.765	12162.69
763.102	12410.82
763.438	12554.77
763.775	12689
764.112	12959.5
764.449	13164.47
764.785	13224.13
765.122	13437.46
765.458	13641.97
765.795	13692.37
766.131	13922.64
766.467	14066.37
766.804	14122.86
767.14	14396.3
767.476	14558.78
767.812	14748.84
768.148	14834.03
768.485	14982.28
768.821	15063.63
769.157	15275.38
769.492	15376.39
769.828	15589.49
770.164	15657.96
770.5	15771.41
770.836	15923.49
771.171	16025.86
771.507	16123.26
771.842	16206.88
772.178	16286.87
772.513	16525.29
772.849	16502.24
773.184	16636.7
773.519	16716.47
773.855	16721.66
774.19	16833.07
774.525	16998.27
774.86	17116.46
775.195	17132.95
775.53	17217.25
775.865	17161.88
776.2	17303.12
776.535	17318.49
776.87	17451.14
777.205	17431.02
777.539	17455.88
777.874	17647.74
778.209	17565.03
778.543	17644.13
778.878	17652.49
779.212	17655.88
779.547	17700.85
779.881	17815.2
780.215	17764.12
780.55	17891.35
780.884	17765.25
781.218	17962.99
781.552	17926.83
781.886	17929.09
782.22	17884.35
782.554	17831.01
782.888	17818.81
783.222	17849.54
783.556	17782.2
783.889	17861.07
784.223	17755.76
784.557	17803.67
784.89	17794.63
785.224	17803.22
785.557	17805.25
785.891	17821.97
786.224	17832.37
786.558	17764.35
786.891	17738.81
787.224	17792.82
787.557	17795.31
787.891	17812.48
788.224	17746.95
788.557	17873.27
788.89	17808.87
789.223	17770.9
789.556	17757.57
789.888	17811.35
790.221	17572.72
790.554	17609.78
790.887	17599.83
791.219	17572.49
791.552	17666.5
791.884	17529.55
792.217	17482.77
792.549	17552.38
792.882	17394.42
793.214	17373.63
793.546	17397.58
793.879	17331.59
794.211	17310.58
794.543	17412.49
794.875	17296.79
795.207	17321.88
795.539	17225.38
795.871	17284.14
796.203	17134.31
796.535	17042.11
796.867	17083.24
797.198	17024.71
797.53	17030.13
797.862	16886.63
798.193	16908.33
798.525	16810.93
798.856	16946.97
799.188	16816.35
799.519	16669.01
799.85	16633.31
800.182	16698.16
800.513	16705.17
800.844	16476.93
801.175	16605.96
801.506	16655.9
801.837	16536.36
802.168	16557.6
802.499	16495.23
802.83	16358.74
803.161	16426.08
803.491	16379.53
803.822	16414.55
804.153	16329.13
804.483	16156.03
804.814	16164.62
805.145	16055.02
805.475	16145.63
805.805	16035.58
806.136	16062.47
806.466	16112.19
806.796	16120.1
807.126	15961.01
807.457	15885.3
807.787	15889.6
808.117	15824.06
808.447	15848.47
808.777	15894.12
809.107	15846.43
809.436	15713.33
809.766	15710.39
810.096	15655.03
810.426	15618.87
810.755	15709.26
811.085	15682.37
811.414	15493.9
811.744	15440.57
812.073	15481.02
812.403	15495.71
812.732	15380.68
813.061	15399.44
813.39	15317.63
813.719	15382.49
814.049	15396.05
814.378	15297.3
814.707	15224.76
815.036	15236.51
815.365	15134.36
815.693	15121.48
816.022	15071.99
816.351	15126
816.68	15010.52
817.008	15014.37
817.337	14936.63
817.665	14924.65
817.994	14906.8
818.322	14932.56
818.651	14863.41
818.979	14772.11
819.307	14881.49
819.636	14818.89
819.964	14766.69
820.292	14835.84
820.62	14806.23
820.948	14769.17
821.276	14721.49
821.604	14732.56
821.932	14692.34
822.259	14787.7
822.587	14754.03
822.915	14770.76
823.243	14763.3
823.57	14671.78
823.898	14714.71
824.225	14668.16
824.553	14754.26
824.88	14682.85
825.207	14740.25
825.535	14746.12
825.862	14752.68
826.189	14707.25
826.516	14742.06
826.843	14815.5
827.17	14784.09
827.497	14800.36
827.824	14822.05
828.151	14889.17
828.478	14768.72
828.805	14874.03
829.131	14816.18
829.458	14752.23
829.785	14699.35
830.111	14835.39
830.438	14839.68
830.764	14833.35
831.09	14724.43
831.417	14820.02
831.743	14765.78
832.069	14788.83
832.395	14789.29
832.722	14800.81
833.048	14724.66
833.374	14831.55
833.7	14631.78
834.026	14723.53
834.351	14690.53
834.677	14669.74
835.003	14736.86
835.329	14670.87
835.654	14655.73
835.98	14573.92
836.306	14584.55
836.631	14590.87
836.956	14593.59
837.282	14667.71
837.607	14500.48
837.932	14503.64
838.258	14523.98
838.583	14486.02
838.908	14374.83
839.233	14450.76
839.558	14340.26
839.883	14328.28
840.208	14314.95
840.533	14310.2
840.858	14283.31
841.182	14303.42
841.507	14293.25
841.832	14230.43
842.156	14103.2
842.481	14201.28
842.805	14124.67
843.13	14111.34
843.454	14124.22
843.778	14043.09
844.103	13985.69
844.427	13966.48
844.751	13890.55
845.075	13926.26
845.399	13888.29
845.723	13775.3
846.047	13871.57
846.371	13759.48
846.695	13676.55
847.019	13590.9
847.343	13577.11
847.666	13409.89
847.99	13310.46
848.313	13366.95
848.637	13335.77
848.96	13268.65
849.284	13292.6
849.607	13197.92
849.931	13154.75
850.254	13067.07
850.577	13058.26
850.9	12972.84
851.223	12995.21
851.546	12890.81
851.869	12842.67
852.192	12910.92
852.515	12688.78
852.838	12673.41
853.161	12720.87
853.483	12618.27
853.806	12491.04
854.129	12533.75
854.451	12544.83
854.774	12461.89
855.096	12480.65
855.419	12378.73
855.741	12278.84
856.063	12256.47
856.385	12185.96
856.708	12219.18
857.03	12107.55
857.352	12197.94
857.674	12137.38
857.996	12107.32
858.318	12017.61
858.64	12013.77
858.961	12013.99
859.283	11931.51
859.605	11839.08
859.926	11939.64
860.248	11861.45
860.57	11838.18
860.891	11838.86
861.212	11685.87
861.534	11730.84
861.855	11674.34
862.176	11711.85
862.498	11700.1
862.819	11666.43
863.14	11653.78
863.461	11641.8
863.782	11578.75
864.103	11584.85
864.424	11511.63
864.745	11611.74
865.065	11487.68
865.386	11416.04
865.707	11395.48
866.027	11435.25
866.348	11399.54
866.668	11428.92
866.989	11352.54
867.309	11289.94
867.63	11364.97
867.95	11347.34
868.27	11275.71
868.59	11315.93
868.91	11194.58
869.23	11218.76
869.55	11110.96
869.87	11281.58
870.19	11170.4
870.51	11149.38
870.83	11171.08
871.15	11125.65
871.469	11153
871.789	11085.65
872.109	11144.86
872.428	11061.93
872.748	11066.9
873.067	11049.5
873.386	11049.27
873.706	11067.58
874.025	10937.41
874.344	10881.14
874.663	10947.13
874.982	10981.02
875.301	10884.76
875.62	10894.25
875.939	10895.38
876.258	10898.54
876.577	10821.93
876.896	10789.39
877.214	10859.22
877.533	10845.21
877.852	10695.83
878.17	10753.01
878.489	10750.3
878.807	10751.65
879.125	10746.45
879.444	10651.54
879.762	10685.89
880.08	10645.89
880.398	10562.28
880.716	10588.72
881.034	10607.93
881.352	10535.16
881.67	10514.6
881.988	10482.96
882.306	10439.34
882.624	10422.62
882.941	10388.05
883.259	10356.86
883.577	10373.36
883.894	10386.69
884.212	10310.99
884.529	10259.69
884.846	10264.89
885.164	10198.9
885.481	10268.05
885.798	10282.74
886.115	10160.71
886.432	10147.15
886.75	10073.03
887.067	10135.85
887.383	10023.31
887.7	10099.01
888.017	9977.89
888.334	10091.78
888.651	10015.4
888.967	9977.66
889.284	9900.6
889.6	9909.87
889.917	9824.22
890.233	9859.7
890.55	9811.11
890.866	9785.8
891.182	9797.78
891.498	9750.77
891.815	9773.82
892.131	9641.63
892.447	9664.45
892.763	9589.87
893.079	9613.83
893.395	9629.65
893.71	9561.63
894.026	9494.74
894.342	9548.97
894.657	9410.44
894.973	9475.53
895.289	9451.12
895.604	9393.04
895.92	9276.66
896.235	9279.15
896.55	9263.56
896.865	9278.47
897.181	9282.99
897.496	9208.87
897.811	9149.43
898.126	9150.79
898.441	9073.28
898.756	9126.61
899.071	8944.92
899.386	8998.48
899.7	8922.1
900.015	8908.31
900.33	8810.91
900.644	8777.69
900.959	8845.49
901.273	8787.18
901.588	8732.04
901.902	8690.01
902.216	8699.95
902.531	8631.71
902.845	8629.67
903.159	8507.87
903.473	8531.37
903.787	8486.85
904.101	8449.11
904.415	8459.74
904.729	8478.94
905.042	8389
905.356	8322.79
905.67	8301.32
905.984	8368.66
906.297	8343.35
906.611	8200.98
906.924	8156.01
907.237	8202.57
907.551	8127.31
907.864	8135.22
908.177	8148.1
908.491	8057.94
908.804	7949.01
909.117	7928.22
909.43	7890.71
909.743	7870.15
910.056	7853.2
910.368	7826.98
910.681	7775.01
910.994	7852.75
911.307	7720.55
911.619	7683.03
911.932	7718.06
912.244	7568.91
912.557	7630.38
912.869	7553.54
913.181	7492.75
913.494	7493.88
913.806	7479.65
914.118	7449.82
914.43	7407.56
914.742	7387.22
915.054	7326.88
915.366	7286.66
915.678	7282.37
915.99	7249.6
916.302	7242.59
916.613	7230.61
916.925	7149.94
917.236	7143.16
917.548	7115.82
917.859	7164.4
918.171	7062.94
918.482	7024.07
918.794	7017.51
919.105	7020.9
919.416	6961.24
919.727	6941.58
920.038	6897.52
920.349	6872.43
920.66	6837.86
920.971	6791.08
921.282	6892.77
921.593	6697.3
921.903	6708.82
922.214	6713.57
922.525	6703.85
922.835	6687.13
923.146	6668.37
923.456	6552.21
923.767	6522.38
924.077	6602.16
924.387	6507.24
924.697	6484.65
925.008	6433.8
925.318	6445.32
925.628	6455.72
925.938	6366.23
926.248	6394.25
926.558	6300.7
926.867	6324.2
927.177	6264.76
927.487	6234.93
927.796	6231.77
928.106	6215.27
928.416	6124.88
928.725	6147.03
929.034	6134.6
929.344	6069.97
929.653	6047.14
929.962	6033.13
930.271	6049.63
930.581	6008.5
930.89	5944.77
931.199	5966.92
931.508	5952.46
931.817	5876.07
932.125	5898.45
932.434	5878.56
932.743	5861.61
933.051	5817.09
933.36	5840.14
933.669	5761.05
933.977	5724.67
934.286	5693.48
934.594	5757.66
934.902	5663.65
935.21	5647.38
935.519	5659.13
935.827	5590.43
936.135	5525.35
936.443	5505.69
936.751	5526.7
937.059	5517.89
937.367	5470.66
937.674	5463.88
937.982	5427.5
938.29	5370.55
938.597	5373.26
938.905	5339.59
939.213	5333.26
939.52	5283.32
939.827	5325.35
940.135	5259.82
940.442	5294.85
940.749	5266.37
941.056	5240.61
941.363	5166.04
941.67	5192.93
941.977	5154.06
942.284	5117.45
942.591	5118.81
942.898	5112.93
943.205	5075.64
943.511	5016.66
943.818	5058.47
944.125	5019.15
944.431	4941.64
944.738	4954.74
945.044	4943.22
945.35	4892.15
945.657	4882.2
945.963	4841.07
946.269	4820.51
946.575	4728.99
946.881	4865.03
947.187	4836.55
947.493	4772.83
947.799	4695.09
948.105	4654.64
948.41	4686.05
948.716	4700.51
949.022	4653.51
949.327	4641.08
949.633	4570.12
949.938	4636.33
950.244	4611.7
950.549	4587.97
950.854	4523.12
951.16	4500.97
951.465	4527.86
951.77	4472.95
952.075	4477.69
952.38	4412.61
952.685	4442.21
952.99	4395.44
953.294	4376.68
953.599	4370.35
953.904	4343.91
954.209	4369
954.513	4312.95
954.818	4240.86
955.122	4284.03
955.426	4251.94
955.731	4264.37
956.035	4191.15
956.339	4172.62
956.643	4204.48
956.948	4166.97
957.252	4164.48
957.556	4150.02
957.86	4086.52
958.163	4120.41
958.467	4072.05
958.771	4066.86
959.075	4086.06
959.378	3996.12
959.682	4003.81
959.985	4005.84
960.289	3992.51
960.592	3938.72
960.896	3950.02
961.199	3945.5
961.502	3918.39
961.805	3921.1
962.108	3868.22
962.411	3881.32
962.714	3839.97
963.017	3849.46
963.32	3858.95
963.623	3808.78
963.926	3804.49
964.228	3741.89
964.531	3746.19
964.833	3752.74
965.136	3698.05
965.438	3697.15
965.741	3695.11
966.043	3688.34
966.345	3629.81
966.648	3646.53
966.95	3626.42
967.252	3595.68
967.554	3586.42
967.856	3603.37
968.158	3536.02
968.46	3545.51
968.761	3563.14
969.063	3492.18
969.365	3487.89
969.666	3533.09
969.968	3449.92
970.269	3482.69
970.571	3475.23
970.872	3418.06
971.174	3399.3
971.475	3426.87
971.776	3337.16
972.077	3354.56
972.378	3386.65
972.679	3342.36
972.98	3347.1
973.281	3331.51
973.582	3267.1
973.883	3249.25
974.183	3261.68
974.484	3273.43
974.785	3253.09
975.085	3249.7
975.386	3216.03
975.686	3187.56
975.986	3163.83
976.287	3157.5
976.587	3154.34
976.887	3142.59
977.187	3128.8
977.487	3112.31
977.787	3078.86
978.087	3080.44
978.387	3045.19
978.687	3079.09
978.987	3031.18
979.286	3002.03
979.586	2981.69
979.885	2999.99
980.185	2961.8
980.484	2969.94
980.784	2957.28
981.083	2911.86
981.382	2920.67
981.682	2921.12
981.981	2878.86
982.28	2855.81
982.579	2874.8
982.878	2894.01
983.177	2850.17
983.475	2870.28
983.774	2840.22
984.073	2777.62
984.372	2776.72
984.67	2785.76
984.969	2771.52
985.267	2800.9
985.566	2772.65
985.864	2744.41
986.162	2706.44
986.461	2720.23
986.759	2695.82
987.057	2641.13
987.355	2675.25
987.653	2656.27
987.951	2610.4
988.249	2640.68
988.547	2618.53
988.844	2614.24
989.142	2605.2
989.44	2553.22
989.737	2588.48
990.035	2550.29
990.332	2552.09
990.63	2546.44
990.927	2531.76
991.224	2531.98
991.521	2548.7
991.819	2525.65
992.116	2483.85
992.413	2465.32
992.71	2417.86
993.006	2479.78
993.303	2461.93
993.6	2434.81
993.897	2428.03
994.193	2394.13
994.49	2385.32
994.787	2397.3
995.083	2350.29
995.379	2370.63
995.676	2347.13
995.972	2356.17
996.268	2334.7
996.565	2303.29
996.861	2310.97
997.157	2281.82
997.453	2254.7
997.749	2258.99
998.044	2260.12
998.34	2271.65
998.636	2216.96
998.932	2240.01
999.227	2203.85
999.523	2223.97
999.818	2205.21
1000.114	2191.2
1000.409	2131.99
1000.704	2171.09
1001	2147.81
1001.295	2144.42
1001.59	2113.24
1001.885	2122.05
1002.18	2073.46
1002.475	2112.33
1002.77	2077.76
1003.065	2058.55
1003.359	2063.97
1003.654	2043.63
1003.949	2046.57
1004.243	2019.23
1004.538	2023.29
1004.832	1992.33
1005.127	1982.17
1005.421	1961.6
1005.715	1961.37
1006.009	1982.84
1006.304	1938.78
1006.598	1935.61
1006.892	1945.78
1007.186	1897.42
1007.48	1906.69
1007.773	1898.78
1008.067	1882.73
1008.361	1842.06
1008.655	1818.55
1008.948	1828.95
1009.242	1843.86
1009.535	1818.55
1009.829	1832.11
1010.122	1801.15
1010.415	1775.84
1010.708	1798.67
1011.001	1771.1
1011.295	1753.02
1011.588	1757.99
1011.881	1749.18
1012.173	1738.78
1012.466	1728.39
1012.759	1681.83
1013.052	1703.3
1013.344	1684.32
1013.637	1692.23
1013.93	1660.37
1014.222	1659.46
1014.514	1654.72
1014.807	1621.04
1015.099	1639.8
1015.391	1602.97
1015.683	1607.03
1015.976	1608.84
1016.268	1591.22
1016.56	1571.55
1016.851	1575.62
1017.143	1541.95
1017.435	1547.15
1017.727	1581.5
1018.018	1543.76
1018.31	1525.91
1018.602	1529.97
1018.893	1500.14
1019.185	1475.96
1019.476	1478.9
1019.767	1491.1
1020.058	1484.55
1020.35	1473.25
1020.641	1420.82
1020.932	1437.55
1021.223	1420.82
1021.514	1421.95
1021.804	1427.83
1022.095	1412.24
1022.386	1413.82
1022.677	1381.05
1022.967	1386.25
1023.258	1366.36
1023.548	1337.21
1023.839	1368.4
1024.129	1319.58
1024.419	1283.43
1024.709	1308.74
1025	1334.95
1025.29	1322.97
1025.58	1292.24
1025.87	1274.39
1026.16	1278.46
1026.449	1274.39
1026.739	1276.87
1027.029	1259.25
1027.319	1249.53
1027.608	1244.11
1027.898	1234.84
1028.187	1231.68
1028.477	1231
1028.766	1215.18
1029.055	1206.37
1029.344	1198.23
1029.634	1176.31
1029.923	1188.97
1030.212	1126.37
1030.501	1147.16
1030.79	1144.67
1031.078	1146.93
1031.367	1130.66
1031.656	1131.79
1031.945	1139.02
1032.233	1124.79
1032.522	1097.44
1032.81	1115.97
1033.099	1102.41
1033.387	1090.66
1033.675	1108.52
1033.963	1079.36
1034.251	1089.99
1034.54	1043.21
1034.828	1077.78
1035.116	1038.24
1035.403	1030.78
1035.691	1044.56
1035.979	1030.78
1036.267	1001.63
1036.554	1000.5
1036.842	1005.24
1037.129	1003.21
1037.417	969.08
1037.704	989.88
1037.992	958.69
1038.279	949.2
1038.566	969.31
1038.853	969.31
1039.14	969.31
