Data from hue_310_FLMS001491_35.txt Node
Date: Mon Feb 06 15:49:36 GMT 2017
User: dcchb
Spectrometer: FLMS00149
Trigger mode: 0
Integration Time (sec): 2.000000E-2
Scans to average: 10
Electric dark correction enabled: true
Nonlinearity correction enabled: false
Boxcar width: 0
XAxis mode: Wavelengths
Number of Pixels in Spectrum: 2048
>>>>>Begin Spectral Data<<<<<
341.393	-8.15
341.776	-8.15
342.16	-8.15
342.543	-54.02
342.927	-61.26
343.31	-65.1
343.693	-54.93
344.077	-77.98
344.46	-90.18
344.843	-57.41
345.226	-23.74
345.61	-40.92
345.993	-13.57
346.376	0.89
346.759	1.79
347.142	32.3
347.525	39.31
347.908	43.6
348.291	106.88
348.674	80.44
349.057	118.63
349.44	125.63
349.823	134.67
350.206	181.45
350.588	206.53
350.971	206.08
351.354	212.41
351.737	211.96
352.119	249.24
352.502	276.36
352.884	268.91
353.267	271.17
353.65	290.83
354.032	301.22
354.414	295.8
354.797	328.56
355.179	322.69
355.562	333.08
355.944	322.01
356.326	311.84
356.709	312.07
357.091	356.36
357.473	342.8
357.855	332.18
358.238	348.68
358.62	359.52
359.002	360.88
359.384	348.68
359.766	342.58
360.148	345.97
360.53	338.96
360.912	343.03
361.294	340.99
361.676	326.76
362.057	317.49
362.439	325.4
362.821	322.69
363.203	319.07
363.584	348
363.966	331.73
364.348	333.08
364.729	325.63
365.111	322.24
365.493	321.56
365.874	319.53
366.256	319.07
366.637	323.82
367.019	307.55
367.4	313.65
367.781	317.04
368.163	325.4
368.544	313.88
368.925	327.21
369.306	316.59
369.688	308.45
370.069	326.98
370.45	314.55
370.831	324.05
371.212	302.12
371.593	290.6
371.974	318.4
372.355	302.58
372.736	323.37
373.117	316.81
373.498	319.3
373.879	314.55
374.26	313.65
374.641	317.94
375.021	336.93
375.402	328.56
375.783	307.55
376.163	324.72
376.544	319.07
376.925	347.55
377.305	321.79
377.686	343.03
378.066	331.95
378.447	319.07
378.827	319.98
379.208	338.51
379.588	320.66
379.968	333.76
380.349	333.08
380.729	333.31
381.109	345.29
381.489	355.68
381.87	328.79
382.25	327.21
382.63	340.99
383.01	344.61
383.39	338.51
383.77	348.23
384.15	356.36
384.53	351.39
384.91	348.23
385.29	348.45
385.67	313.2
386.049	352.29
386.429	345.74
386.809	362.24
387.189	347.77
387.568	347.1
387.948	375.57
388.328	359.75
388.707	370.82
389.087	331.95
389.466	360.65
389.846	325.63
390.225	345.06
390.605	353.65
390.984	357.94
391.363	359.07
391.743	387.09
392.122	352.74
392.501	361.33
392.881	392.29
393.26	345.51
393.639	375.57
394.018	390.03
394.397	363.59
394.776	351.39
395.155	370.15
395.534	330.6
395.913	393.42
396.292	368.79
396.671	386.42
397.05	373.31
397.429	388.68
397.808	394.33
398.186	378.06
398.565	376.25
398.944	407.66
399.323	381.44
399.701	396.13
400.08	400.65
400.458	377.38
400.837	400.2
401.215	412.63
401.594	391.61
401.972	412.63
402.351	420.09
402.729	416.02
403.107	417.15
403.486	436.36
403.864	407.43
404.242	440.43
404.62	422.35
404.999	427.55
405.377	419.86
405.755	428.22
406.133	453.76
406.511	430.71
406.889	423.48
407.267	455.57
407.645	455.12
408.023	453.99
408.401	436.13
408.779	478.39
409.156	477.94
409.534	470.48
409.912	465.06
410.29	489.46
410.667	491.27
411.045	474.32
411.422	495.57
411.8	510.48
412.178	526.3
412.555	513.87
412.933	537.15
413.31	524.72
413.687	549.12
414.065	561.55
414.442	565.17
414.819	577.82
415.197	548.22
415.574	585.51
415.951	560.65
416.328	568.56
416.705	583.25
417.082	599.29
417.46	591.83
417.837	609.46
418.214	598.39
418.591	617.82
418.967	603.59
419.344	617.37
419.721	627.77
420.098	651.72
420.475	648.33
420.852	654.88
421.228	676.8
421.605	653.98
421.982	665.96
422.358	699.4
422.735	690.14
423.111	674.32
423.488	735.79
423.864	723.36
424.241	712.96
424.617	759.06
424.994	740.98
425.37	717.71
425.746	753.86
426.123	756.35
426.499	783.02
426.875	762.45
427.251	770.81
427.627	795.22
428.003	809.68
428.379	816.24
428.756	832.96
429.132	806.52
429.507	842
429.883	839.74
430.259	864.6
430.635	859.85
431.011	876.57
431.387	879.51
431.763	910.7
432.138	918.38
432.514	917.02
432.89	927.42
433.265	930.36
433.641	963.12
434.016	925.16
434.392	958.38
434.767	978.94
435.143	984.59
435.518	990.47
435.894	990.02
436.269	999.73
436.644	1025.04
437.02	1064.36
437.395	1026.17
437.77	1048.32
438.145	1067.75
438.52	1062.1
438.895	1097.36
439.271	1067.98
439.646	1095.32
440.021	1073.86
440.395	1096.45
440.77	1078.6
441.145	1095.78
441.52	1121.31
441.895	1131.03
442.27	1133.74
442.645	1140.52
443.019	1149.11
443.394	1114.98
443.769	1158.15
444.143	1142.55
444.518	1167.86
444.892	1179.16
445.267	1183.68
445.641	1193.17
446.016	1175.1
446.39	1202.21
446.764	1194.98
447.139	1204.02
447.513	1198.6
447.887	1199.05
448.262	1241.31
448.636	1201.99
449.01	1204.7
449.384	1228.88
449.758	1220.07
450.132	1246.73
450.506	1223.23
450.88	1238.37
451.254	1219.61
451.628	1272.72
452.002	1269.78
452.376	1295.32
452.75	1304.13
453.123	1267.3
453.497	1315.43
453.871	1309.1
454.244	1291.48
454.618	1301.87
454.992	1325.37
455.365	1319.05
455.739	1328.99
456.112	1378.25
456.486	1354.98
456.859	1353.62
457.232	1382.1
457.606	1386.16
457.979	1410.34
458.352	1394.53
458.725	1418.71
459.099	1428.2
459.472	1464.58
459.845	1455.31
460.218	1447.63
460.591	1452.6
460.964	1458.48
461.337	1492.83
461.71	1501.42
462.083	1503.9
462.456	1486.05
462.829	1540.51
463.201	1497.12
463.574	1550
463.947	1574.86
464.32	1563.11
464.692	1552.49
465.065	1594.52
465.438	1606.72
465.81	1608.76
466.183	1641.52
466.555	1641.98
466.928	1669.32
467.3	1663.67
467.672	1671.13
468.045	1707.74
468.417	1679.72
468.789	1679.04
469.161	1721.3
469.534	1749.32
469.906	1747.51
470.278	1759.94
470.65	1786.38
471.022	1792.48
471.394	1831.12
471.766	1832.71
472.138	1821.63
472.51	1852.82
472.882	1867.51
473.253	1918.13
473.625	1922.2
473.997	1922.65
474.369	1936.88
474.74	1962.19
475.112	1980.27
475.484	1998.35
475.855	1997.67
476.227	1995.19
476.598	2082.64
476.97	2072.25
477.341	2119.03
477.713	2147.05
478.084	2135.07
478.455	2192.92
478.827	2119.48
479.198	2234.05
479.569	2225.01
479.94	2253.03
480.311	2270.66
480.682	2326.03
481.053	2359.47
481.424	2373.26
481.795	2412.58
482.166	2406.93
482.537	2420.26
482.908	2457.77
483.279	2466.81
483.65	2510.43
484.021	2519.69
484.391	2531.22
484.762	2544.55
485.133	2599.47
485.503	2598.11
485.874	2647.6
486.244	2662.74
486.615	2683.76
486.985	2726.02
487.356	2742.74
487.726	2740.48
488.097	2811.21
488.467	2792.45
488.837	2833.36
489.207	2835.62
489.578	2895.05
489.948	2900.25
490.318	2908.16
490.688	2915.39
491.058	2965.11
491.428	3010.98
491.798	3001.04
492.168	3035.61
492.538	3081.03
492.908	3076.52
493.278	3091.88
493.648	3107.47
494.017	3184.76
494.387	3169.39
494.757	3184.53
495.126	3198.55
495.496	3201.03
495.866	3189.51
496.235	3269.96
496.605	3268.83
496.974	3246.45
497.344	3296.4
497.713	3307.7
498.082	3318.99
498.452	3335.04
498.821	3362.38
499.19	3345.89
499.559	3387.02
499.928	3371.65
500.298	3388.15
500.667	3406.68
501.036	3418.88
501.405	3460.23
501.774	3439.44
502.143	3445.32
502.512	3478.31
502.88	3482.38
503.249	3462.04
503.618	3486.67
503.987	3512.44
504.356	3542.27
504.724	3581.59
505.093	3588.82
505.462	3599.89
505.83	3617.29
506.199	3565.54
506.567	3630.62
506.936	3606.44
507.304	3635.6
507.672	3661.13
508.041	3650.06
508.409	3660
508.777	3731.41
509.145	3721.02
509.514	3694.8
509.882	3735.48
510.25	3696.16
510.618	3721.24
510.986	3735.25
511.354	3769.15
511.722	3817.74
512.09	3796.04
512.458	3758.98
512.826	3825.2
513.193	3824.74
513.561	3797.85
513.929	3815.7
514.297	3836.27
514.664	3879.43
515.032	3877.62
515.4	3921.01
515.767	3898.64
516.135	3906.78
516.502	3859.55
516.869	3929.37
517.237	3929.15
517.604	3878.98
517.972	3948.13
518.339	3934.12
518.706	3972.76
519.073	3936.61
519.44	4005.76
519.808	3987.68
520.175	4005.3
520.542	3994.01
520.909	4017.06
521.276	4014.8
521.643	4081.01
522.009	4062.93
522.376	4063.61
522.743	4075.36
523.11	4099.54
523.477	4126.43
523.843	4123.27
524.21	4179.76
524.577	4179.09
524.943	4184.06
525.31	4194.68
525.676	4255.92
526.043	4234.45
526.409	4255.92
526.776	4288.23
527.142	4313.54
527.508	4311.28
527.874	4312.87
528.241	4379.31
528.607	4363.49
528.973	4455.24
529.339	4413.2
529.705	4448.23
530.071	4486.65
530.437	4462.47
530.803	4482.13
531.169	4526.65
531.535	4517.16
531.901	4550.6
532.267	4570.26
532.632	4590.15
532.998	4574.33
533.364	4621.11
533.73	4598.96
534.095	4636.7
534.461	4656.59
534.826	4692.29
535.192	4705.17
535.557	4742.46
535.923	4718.05
536.288	4742.46
536.653	4770.03
537.019	4789.24
537.384	4852.06
537.749	4789.01
538.114	4839.18
538.479	4865.17
538.845	4868.33
539.21	4865.85
539.575	4901.33
539.94	4881.21
540.305	4967.09
540.67	4964.38
541.034	4980.65
541.399	5007.31
541.764	5014.54
542.129	5026.52
542.494	5084.6
542.858	5075.56
543.223	5081.43
543.587	5162.11
543.952	5163.01
544.316	5157.82
544.681	5195.56
545.045	5178.61
545.41	5213.86
545.774	5256.57
546.138	5287.98
546.503	5280.52
546.867	5257.7
547.231	5374.08
547.595	5341.54
547.959	5332.73
548.324	5329.79
548.688	5388.32
549.052	5375.89
549.416	5422.44
549.779	5414.31
550.143	5433.97
550.507	5495.66
550.871	5531.37
551.235	5502.67
551.599	5581.76
551.962	5569.56
552.326	5532.72
552.689	5558.03
553.053	5610.23
553.417	5612.27
553.78	5656.56
554.143	5648.42
554.507	5689.78
554.87	5642.32
555.234	5718.71
555.597	5711.25
555.96	5701.76
556.323	5761.87
556.686	5757.57
557.05	5781.08
557.413	5820.62
557.776	5809.55
558.139	5829.44
558.502	5850.91
558.865	5773.17
559.228	5815.65
559.59	5847.52
559.953	5917.57
560.316	5928.42
560.679	5998.47
561.041	5951.24
561.404	5947.17
561.767	5998.7
562.129	6067.62
562.492	6071.69
562.854	6040.05
563.217	6073.5
563.579	6047.74
563.941	6153.95
564.304	6128.19
564.666	6168.86
565.028	6139.49
565.39	6167.73
565.753	6265.36
566.115	6233.72
566.477	6260.84
566.839	6276.43
567.201	6285.02
567.563	6288.18
567.925	6345.58
568.287	6361.4
568.648	6391.91
569.01	6414.28
569.372	6473.04
569.734	6426.48
570.095	6520.49
570.457	6543.54
570.819	6575.63
571.18	6515.29
571.542	6574.95
571.903	6658.12
572.265	6730.43
572.626	6711
572.987	6699.7
573.349	6746.93
573.71	6785.8
574.071	6900.14
574.432	6883.19
574.794	6939.92
575.155	6995.96
575.516	7076.41
575.877	7066.24
576.238	7135.39
576.599	7190.76
576.96	7267.82
577.32	7342.39
577.681	7403.63
578.042	7528.15
578.403	7563.85
578.763	7583.29
579.124	7731.31
579.485	7831.19
579.845	7954.58
580.206	8005.43
580.566	8039.32
580.927	8225.53
581.287	8371.29
581.648	8438.18
582.008	8624.39
582.368	8694.45
582.728	8893.54
583.089	8938.28
583.449	9159.97
583.809	9300.98
584.169	9451.04
584.529	9634.31
584.889	9815.55
585.249	10019.84
585.609	10082.21
585.969	10366.04
586.329	10555.87
586.688	10765.8
587.048	10985.46
587.408	11154.95
587.768	11349.74
588.127	11629.51
588.487	11774.59
588.846	12140.23
589.206	12309.72
589.565	12550.16
589.925	12819.99
590.284	13038.06
590.643	13301.78
591.003	13689.57
591.362	13964.14
591.721	14199.84
592.08	14429.44
592.44	14709.66
592.799	15032.81
593.158	15302.63
593.517	15591.21
593.876	15837.99
594.235	16099.68
594.593	16444.3
594.952	16704.63
595.311	17011.52
595.67	17329.93
596.029	17768.33
596.387	17954.99
596.746	18237.02
597.104	18566.96
597.463	18637.46
597.822	19210.55
598.18	19454.39
598.538	19733.93
598.897	20053.92
599.255	20154.71
599.613	20792.89
599.972	20930.73
600.33	21314.68
600.688	21381.8
601.046	21817.49
601.404	22162.12
601.762	22422.45
602.12	22738.82
602.478	22962.55
602.836	23337.23
603.194	23314.18
603.552	23769.76
603.91	23939.24
604.268	24322.51
604.625	24451.09
604.983	24744.87
605.341	24928.37
605.698	25310.28
606.056	25668.92
606.413	25819.65
606.771	25998.17
607.128	26345.96
607.485	26476.35
607.843	26709.57
608.2	27088.99
608.557	27449.43
608.914	27377.12
609.272	27688.52
609.629	28009.64
609.986	28294.84
610.343	28319.02
610.7	28784.99
611.057	28864.99
611.414	29092.33
611.771	29308.82
612.127	29546.1
612.484	29628.13
612.841	29874.91
613.198	29944.06
613.554	30181.57
613.911	30431.73
614.267	30615
614.624	30708.56
614.98	30865.39
615.337	31154.65
615.693	31257.24
616.05	31416.33
616.406	31759.38
616.762	31848.41
617.118	31863.1
617.475	32057.45
617.831	32419.92
618.187	32416.53
618.543	32603.87
618.899	32722.74
619.255	32890.65
619.611	32983.3
619.967	33195.72
620.323	33327.02
620.678	33305.78
621.034	33350.52
621.39	33557.52
621.746	33640.46
622.101	34062.37
622.457	33963.16
622.812	34038.41
623.168	34367.22
623.523	34262.81
623.879	34375.81
624.234	34257.84
624.589	34568.34
624.945	34631.84
625.3	34674.78
625.655	34829.8
626.01	34739.86
626.365	34927.2
626.72	34943.47
627.075	34988.22
627.43	35075.22
627.785	35096.46
628.14	35237.93
628.495	35283.58
628.85	35171.04
629.205	35317.7
629.559	35510.92
629.914	35357.02
630.269	35541.2
630.623	35477.02
630.978	35464.36
631.332	35666.62
631.687	35684.47
632.041	35583.46
632.396	35714.98
632.75	35611.7
633.104	35856.22
633.459	35568.32
633.813	35584.36
634.167	35699.39
634.521	35726.05
634.875	35820.96
635.229	35760.85
635.583	35684.92
635.937	35783.45
636.291	35716.79
636.645	35745.26
636.999	35665.04
637.352	35755.2
637.706	35743.23
638.06	35806.5
638.413	35712.27
638.767	35647.86
639.121	35836.78
639.474	35504.36
639.828	35654.64
640.181	35770.12
640.534	35735.77
640.888	35670.01
641.241	35566.51
641.594	35682.66
641.947	35633.17
642.301	35735.77
642.654	35695.32
643.007	35586.17
643.36	35657.58
643.713	35604.25
644.066	35835.43
644.419	35545.27
644.771	35302.79
645.124	35097.59
645.477	35037.26
645.83	34822.35
646.182	34671.39
646.535	34639.75
646.888	34689.02
647.24	34487.89
647.593	34675.01
647.945	34743.93
648.298	34465.29
648.65	34531.73
649.002	34430.27
649.355	34302.81
649.707	34437.05
650.059	34635.01
650.411	35109.35
650.763	35048.33
651.115	35516.57
651.467	35438.6
651.819	35398.83
652.171	35114.09
652.523	35157.71
652.875	35145.73
653.227	35023.47
653.578	35361.99
653.93	35194.77
654.282	35133.07
654.633	35079.97
654.985	35097.14
655.337	35155.9
655.688	35230.7
656.039	35256.69
656.391	34866.19
656.742	35082.68
657.094	34947.77
657.445	35047.2
657.796	35099.85
658.147	35003.81
658.498	35008.78
658.849	35034.09
659.2	35119.97
659.551	34903.02
659.902	35129.46
660.253	34976.24
660.604	35073.19
660.955	34833.87
661.306	35017.14
661.656	34909.35
662.007	34938.73
662.358	35019.86
662.708	34923.14
663.059	35057.14
663.409	34809.47
663.76	35070.02
664.11	34868.9
664.461	34950.48
664.811	34970.82
665.161	34992.06
665.511	34914.55
665.862	34907.32
666.212	35027.09
666.562	34963.59
666.912	34799.75
667.262	34966.52
667.612	34785.74
667.962	34894.66
668.312	34889.46
668.662	35046.07
669.011	34879.97
669.361	34756.13
669.711	34861.22
670.06	34847.66
670.41	34802.23
670.76	34685.4
671.109	34757.49
671.459	34822.35
671.808	34761.56
672.157	34792.97
672.507	34545.07
672.856	34493.99
673.205	34560.89
673.554	34702.8
673.904	34470.94
674.253	34715.46
674.602	34596.36
674.951	34059.88
675.3	34012.65
675.649	34500.55
675.998	34462.81
676.346	34517.72
676.695	34574.9
677.044	34362.25
677.393	34458.97
677.741	34533.32
678.09	34435.92
678.438	34205.41
678.787	34469.59
679.135	34426.2
679.484	34177.17
679.832	34180.78
680.181	34035.25
680.529	34212.65
680.877	34065.53
681.225	34085.64
681.573	34265.98
681.922	34035.93
682.27	33948.92
682.618	33903.28
682.966	33897.63
683.314	34042.25
683.661	33814.69
684.009	33729.27
684.357	33630.29
684.705	33634.81
685.053	33701.92
685.4	33532.89
685.748	33360.69
686.095	33431.2
686.443	33320.47
686.79	33244.31
687.138	33432.33
687.485	33319.11
687.832	33030.76
688.18	33245.21
688.527	32986.46
688.874	33081.15
689.221	32990.53
689.568	32983.07
689.915	32816.75
690.262	32790.54
690.609	32668.73
690.956	32531.56
691.303	32623.99
691.65	32503.09
691.997	32413.14
692.344	32196.43
692.69	32250.89
693.037	32223.32
693.383	32037.11
693.73	32068.07
694.077	31883.22
694.423	31880.28
694.769	31849.09
695.116	31660.85
695.462	31592.83
695.808	31519.38
696.155	31658.59
696.501	31457.69
696.847	31308.99
697.193	31057.7
697.539	31244.59
697.885	30980.41
698.231	31014.31
698.577	30941.32
698.923	30907.65
699.269	30754.88
699.614	30684.15
699.96	30509.24
700.306	30538.17
700.651	30604.15
700.997	30498.17
701.342	30359.87
701.688	30228.34
702.033	30321.22
702.379	30133.43
702.724	30158.06
703.069	30188.8
703.415	29907.45
703.76	29902.7
704.105	29863.38
704.45	29772.76
704.795	29701.35
705.14	29482.6
705.485	29460.23
705.83	29363.06
706.175	29495.48
706.52	29384.75
706.865	29317.86
707.209	29248.26
707.554	29132.78
707.899	29291.87
708.243	29189.5
708.588	28968.72
708.932	28772.11
709.277	28833.13
709.621	28818.66
709.966	28570.31
710.31	28763.07
710.654	28333.93
710.998	28515.62
711.342	28518.78
711.687	28427.04
712.031	28233.14
712.375	28271.78
712.719	28297.55
713.063	28203.99
713.407	28350.43
713.75	28079.25
714.094	27965.58
714.438	27983.66
714.782	27984.56
715.125	27821.18
715.469	27922.42
715.812	27725.13
716.156	27604.01
716.499	27640.16
716.843	27584.8
717.186	27484.69
717.53	27637.68
717.873	27551.58
718.216	27498.92
718.559	27293.05
718.902	27140.52
719.246	27292.15
719.589	27246.05
719.932	26994.53
720.275	27095.77
720.617	27165.37
720.96	26952.72
721.303	27034.98
721.646	26953.4
721.989	26923.57
722.331	26824.14
722.674	26734.65
723.016	26797.93
723.359	26728.55
723.701	26750.47
724.044	26571.94
724.386	26445.39
724.729	26551.83
725.071	26483.81
725.413	26462.11
725.755	26365.85
726.097	26284.94
726.439	26262.35
726.782	26237.94
727.124	26341.67
727.465	26254.89
727.807	26040.43
728.149	26203.59
728.491	26071.62
728.833	26146.64
729.175	26077.72
729.516	26050.37
729.858	25910.72
730.199	26011.28
730.541	25855.35
730.882	25833.88
731.224	25899.19
731.565	25686.32
731.906	25755.24
732.248	25736.26
732.589	25585.98
732.93	25534.91
733.271	25532.87
733.612	25571.97
733.953	25686.32
734.294	25462.59
734.635	25341.69
734.976	25482.71
735.317	25327.91
735.658	25229.15
735.999	25340.34
736.339	25171.08
736.68	25199.32
737.021	25151.19
737.361	25143.96
737.702	25156.61
738.042	25119.33
738.383	25068.48
738.723	25166.1
739.063	25038.2
739.404	25036.84
739.744	24858.54
740.084	24844.76
740.424	24874.81
740.764	24832.1
741.104	24847.02
741.444	24672.56
741.784	24640.69
742.124	24702.61
742.464	24625.33
742.804	24574.93
743.143	24515.73
743.483	24429.85
743.823	24382.85
744.162	24426.24
744.502	24391.21
744.841	24387.37
745.181	24510.53
745.52	24226.69
745.86	24321.83
746.199	24222.85
746.538	24261.04
746.877	24182.63
747.216	24200.03
747.556	24092.23
747.895	24145.34
748.234	24034.61
748.573	23973.37
748.911	23958.68
749.25	23903.99
749.589	23756.2
749.928	23973.14
750.267	23800.04
750.605	23745.8
750.944	23738.57
751.283	23573.38
751.621	23684.56
751.96	23601.63
752.298	23587.39
752.636	23569.08
752.975	23384.46
753.313	23319.37
753.651	23507.62
753.989	23259.26
754.327	23280.96
754.666	23263.55
755.004	23175.42
755.342	23155.54
755.679	23153.95
756.017	23066.27
756.355	22979.95
756.693	22959.61
757.031	22929.55
757.368	22738.15
757.706	22803.68
758.044	22627.87
758.381	22785.6
758.719	22532.27
759.056	22653.85
759.394	22567.75
759.731	22364.82
760.068	22434.65
760.405	22337.93
760.743	22321.43
761.08	22308.33
761.417	22199.85
761.754	22166.41
762.091	22029.46
762.428	21919.86
762.765	21828.56
763.102	21970.93
763.438	21734.56
763.775	21702.01
764.112	21730.26
764.449	21711.51
764.785	21521.91
765.122	21442.81
765.458	21302.48
765.795	21371.85
766.131	21222.03
766.467	21117.62
766.804	21140.45
767.14	21106.32
767.476	21078.98
767.812	20882.15
768.148	20922.6
768.485	20874.92
768.821	20656.17
769.157	20710.63
769.492	20608.03
769.828	20578.43
770.164	20389.51
770.5	20308.15
770.836	20381.6
771.171	20156.52
771.507	20209.17
771.842	20081.04
772.178	20064.54
772.513	20032.23
772.849	19900.71
773.184	19831.55
773.519	19785.68
773.855	19770.09
774.19	19770.99
774.525	19664.33
774.86	19555.63
775.195	19562.41
775.53	19514.5
775.865	19351.34
776.2	19244.45
776.535	19021.18
776.87	19092.82
777.205	19046.49
777.539	18881.3
777.874	19036.77
778.209	18809.43
778.543	18829.32
778.878	18671.81
779.212	18547.52
779.547	18530.57
779.881	18651.7
780.215	18426.39
780.55	18386.85
780.884	18227.3
781.218	18263.69
781.552	18215.78
781.886	18139.62
782.22	17988.67
782.554	18031.15
782.888	17770.37
783.222	17751.16
783.556	17715.23
783.889	17715.68
784.223	17554.1
784.557	17447.44
784.89	17475.68
785.224	17518.4
785.557	17440.88
785.891	17299.19
786.224	17278.18
786.558	17210.38
786.891	17134.22
787.224	17044.06
787.557	16987.34
787.891	16903.72
788.224	16908.69
788.557	16847.23
788.89	16755.7
789.223	16717.51
789.556	16611.98
789.888	16588.02
790.221	16546.22
790.554	16314.59
790.887	16355.04
791.219	16295.38
791.552	16342.38
791.884	16258.09
792.217	16274.59
792.549	16108.71
792.882	15972.9
793.214	15998.21
793.546	16004.99
793.879	15877.76
794.211	15835.28
794.543	15875.05
794.875	15760.48
795.207	15848.38
795.539	15619.01
795.871	15673.92
796.203	15584.66
796.535	15470.99
796.867	15403.42
797.198	15469.18
797.53	15407.26
797.862	15280.26
798.193	15279.58
798.525	15252.24
798.856	15157.1
799.188	15028.29
799.519	15011.79
799.85	14981.06
800.182	14964.34
800.513	14977.67
800.844	14735.87
801.175	14919.37
801.506	14869.2
801.837	14767.06
802.168	14748.07
802.499	14668.75
802.83	14593.95
803.161	14537
803.491	14473.28
803.822	14494.07
804.153	14498.14
804.483	14259.05
804.814	14252.04
805.145	14268.09
805.475	14267.18
805.805	14230.8
806.136	14240.06
806.466	14178.37
806.796	14135.43
807.126	14051.14
807.457	14094.08
807.787	14030.8
808.117	13994.65
808.447	13894.76
808.777	13876.46
809.107	13876.46
809.436	13789.23
809.766	13824.71
810.096	13721.43
810.426	13670.81
810.755	13694.09
811.085	13580.87
811.414	13636.46
811.744	13437.15
812.073	13459.52
812.403	13463.81
812.732	13365.28
813.061	13402.35
813.39	13266.3
813.719	13286.42
814.049	13361.67
814.378	13256.36
814.707	13259.75
815.036	13153.54
815.365	13155.57
815.693	13098.62
816.022	13071.73
816.351	13004.39
816.68	12955.58
817.008	12946.54
817.337	12888.91
817.665	12854.11
817.994	12817.95
818.322	12872.64
818.651	12782.7
818.979	12709.71
819.307	12720.1
819.636	12714.45
819.964	12637.17
820.292	12665.87
820.62	12685.08
820.948	12646.43
821.276	12593.33
821.604	12616.38
821.932	12666.09
822.259	12627.45
822.587	12648.01
822.915	12585.87
823.243	12657.05
823.57	12549.26
823.898	12584.06
824.225	12587
824.553	12496.38
824.88	12571.41
825.207	12645.98
825.535	12529.6
825.862	12565.31
826.189	12499.09
826.516	12562.37
826.843	12599.2
827.17	12560.56
827.497	12575.25
827.824	12588.36
828.151	12601.69
828.478	12497.74
828.805	12495.25
829.131	12438.08
829.458	12489.6
829.785	12401.69
830.111	12542.93
830.438	12592.65
830.764	12523.95
831.09	12496.61
831.417	12489.83
831.743	12507.91
832.069	12528.7
832.395	12453.9
832.722	12523.5
833.048	12448.02
833.374	12447.79
833.7	12392.88
834.026	12416.16
834.351	12417.51
834.677	12438.08
835.003	12457.74
835.329	12353.33
835.654	12345.42
835.98	12370.51
836.306	12276.5
836.631	12341.13
836.956	12337.97
837.282	12370.06
837.607	12303.62
837.932	12212.09
838.258	12186.78
838.583	12167.35
838.908	12155.15
839.233	12188.37
839.558	12117.18
839.883	12109.95
840.208	11976.17
840.533	12010.07
840.858	11975.04
841.182	11999.22
841.507	12015.72
841.832	11961.93
842.156	11929.39
842.481	11892.78
842.805	11872.44
843.13	11827.7
843.454	11851.65
843.778	11793.12
844.103	11688.04
844.427	11734.59
844.751	11715.16
845.075	11676.06
845.399	11673.8
845.723	11550.87
846.047	11603.97
846.371	11488.05
846.695	11534.82
847.019	11486.92
847.343	11349.74
847.666	11347.71
847.99	11271.1
848.313	11228.39
848.637	11217.77
848.96	11189.52
849.284	11156.75
849.607	11060.71
849.931	11011.45
850.254	10940.04
850.577	10901.62
850.9	10826.82
851.223	10846.93
851.546	10752.47
851.869	10739.14
852.192	10806.03
852.515	10692.13
852.838	10644.68
853.161	10597.22
853.483	10546.38
853.806	10496.43
854.129	10413.05
854.451	10405.36
854.774	10344.8
855.096	10384.8
855.419	10348.19
855.741	10319.71
856.063	10279.49
856.385	10213.5
856.708	10186.38
857.03	10147.29
857.352	10156.55
857.674	10135.54
857.996	10029.55
858.318	10067.74
858.64	10026.16
858.961	9993.62
859.283	9955.88
859.605	9934.19
859.926	9934.87
860.248	9921.76
860.57	9882.66
860.891	9834.53
861.212	9803.12
861.534	9773.51
861.855	9764.25
862.176	9751.59
862.498	9785.49
862.819	9674.31
863.14	9679.96
863.461	9655.1
863.782	9636.57
864.103	9631.37
864.424	9610.81
864.745	9604.25
865.065	9570.36
865.386	9573.97
865.707	9487.42
866.027	9541.43
866.348	9539.62
866.668	9541.43
866.989	9491.49
867.309	9420.76
867.63	9424.14
867.95	9440.87
868.27	9361.1
868.59	9460.53
868.91	9290.59
869.23	9320.64
869.55	9309.12
869.87	9411.49
870.19	9323.58
870.51	9325.39
870.83	9371.94
871.15	9268.44
871.469	9262.79
871.789	9269.35
872.109	9258.27
872.428	9162.68
872.748	9221.89
873.067	9218.05
873.386	9224.38
873.706	9132.4
874.025	9086.3
874.344	9085.62
874.663	9064.61
874.982	9136.69
875.301	9093.31
875.62	9058.28
875.939	9049.69
876.258	9046.98
876.577	8995.68
876.896	9032.06
877.214	8906.42
877.533	8945.51
877.852	8966.98
878.17	8945.51
878.489	8975.12
878.807	8971.73
879.125	8959.75
879.444	8857.61
879.762	8840.66
880.08	8815.8
880.398	8791.17
880.716	8897.15
881.034	8772.64
881.352	8752.52
881.67	8793.65
881.988	8798.85
882.306	8743.94
882.624	8715.46
882.941	8699.87
883.259	8625.75
883.577	8670.49
883.894	8609.7
884.212	8557.27
884.529	8549.14
884.846	8556.82
885.164	8588.69
885.481	8497.84
885.798	8564.73
886.115	8439.54
886.432	8466.88
886.75	8439.31
887.067	8413.78
887.383	8423.04
887.7	8385.08
888.017	8332.87
888.334	8360.44
888.651	8365.19
888.967	8319.99
889.284	8205.65
889.6	8291.97
889.917	8127
890.233	8198.64
890.55	8173.78
890.866	8194.57
891.182	8189.6
891.498	8073.45
891.815	8092.65
892.131	7979.44
892.447	8018.76
892.763	8054.01
893.079	8021.7
893.395	7948.7
893.71	7951.87
894.026	7911.87
894.342	7912.77
894.657	7915.48
894.973	7844.53
895.289	7849.72
895.604	7741.93
895.92	7801.36
896.235	7738.09
896.55	7736.51
896.865	7686.34
897.181	7612.89
897.496	7688.82
897.811	7656.73
898.126	7631.2
898.441	7628.49
898.756	7531.09
899.071	7512.78
899.386	7482.95
899.7	7451.99
900.015	7432.56
900.33	7339.68
900.644	7388.04
900.959	7388.94
901.273	7369.74
901.588	7301.49
901.902	7252
902.216	7262.62
902.531	7276.4
902.845	7183.98
903.159	7146.69
903.473	7178.78
903.787	7143.3
904.101	7101.04
904.415	7123.87
904.729	7071.89
905.042	6967.03
905.356	6954.38
905.67	6966.36
905.984	6959.12
906.297	6918.45
906.611	6851.56
906.924	6891.1
907.237	6873.25
907.551	6826.47
907.864	6770.88
908.177	6799.36
908.491	6797.1
908.804	6726.36
909.117	6631
909.43	6660.6
909.743	6640.26
910.056	6584.22
910.368	6574.5
910.681	6532.92
910.994	6501.28
911.307	6496.54
911.619	6447.05
911.932	6501.96
912.244	6402.76
912.557	6382.19
912.869	6380.38
913.181	6287.73
913.494	6309.65
913.806	6256.54
914.118	6289.76
914.43	6194.63
914.742	6301.06
915.054	6212.7
915.366	6186.26
915.678	6141.29
915.99	6108.3
916.302	6080.96
916.613	6050
916.925	6022.88
917.236	6000.28
917.548	6012.03
917.859	5993.95
918.171	5900.85
918.482	5897.46
918.794	5913.95
919.105	5899.49
919.416	5877.35
919.727	5821.53
920.038	5805.48
920.349	5782.43
920.66	5701.3
920.971	5699.72
921.282	5689.78
921.593	5631.48
921.903	5632.83
922.214	5598.93
922.525	5598.93
922.835	5590.12
923.146	5586.51
923.456	5573.85
923.767	5471.25
924.077	5490.91
924.387	5483.01
924.697	5461.76
925.008	5435.1
925.318	5417.24
925.628	5417.92
925.938	5411.59
926.248	5326.85
926.558	5244.14
926.867	5309.45
927.177	5252.05
927.487	5259.73
927.796	5240.3
928.106	5227.19
928.416	5180.87
928.725	5142.68
929.034	5107.42
929.344	5125.95
929.653	5085.05
929.962	5075.56
930.271	5027.2
930.581	5072.17
930.89	5024.03
931.199	4958.27
931.508	4984.04
931.817	4939.07
932.125	4963.92
932.434	4942
932.743	4883.25
933.051	4835.34
933.36	4846.41
933.669	4799.63
933.977	4780.88
934.286	4798.5
934.594	4787.43
934.902	4714.21
935.21	4740.2
935.519	4728.22
935.827	4668.56
936.135	4658.85
936.443	4585.18
936.751	4617.72
937.059	4599.64
937.367	4582.46
937.674	4608.9
937.982	4544.95
938.29	4542.92
938.597	4526.65
938.905	4455.46
939.213	4463.82
939.52	4468.12
939.827	4460.43
940.135	4418.85
940.442	4380.66
940.749	4390.38
941.056	4404.62
941.363	4319.19
941.67	4308.12
941.977	4312.87
942.284	4255.47
942.591	4274.45
942.898	4255.02
943.205	4230.84
943.511	4216.82
943.818	4204.4
944.125	4179.54
944.431	4155.36
944.738	4125.3
945.044	4119.2
945.35	4119.43
945.657	4069.26
945.963	4090.95
946.269	4084.4
946.575	4083.72
946.881	4001.69
947.187	4018.41
947.493	3977.06
947.799	3977.73
948.105	3958.98
948.41	3917.4
948.716	3925.08
949.022	3916.95
949.327	3879.21
949.633	3858.64
949.938	3840.79
950.244	3831.75
950.549	3817.96
950.854	3787
951.16	3841.47
951.465	3782.71
951.77	3741.36
952.075	3760.79
952.38	3718.53
952.685	3740
952.99	3691.64
953.294	3705.88
953.599	3691.64
953.904	3612.77
954.209	3638.53
954.513	3628.14
954.818	3626.56
955.122	3563.06
955.426	3583.17
955.731	3522.83
956.035	3541.14
956.339	3506.11
956.643	3524.41
956.948	3450.97
957.252	3454.13
957.556	3484.87
957.86	3436.28
958.163	3422.04
958.467	3420.23
958.771	3411.87
959.075	3396.73
959.378	3385.43
959.682	3380.01
959.985	3318.99
960.289	3337.98
960.592	3292.1
960.896	3308.15
961.199	3283.97
961.502	3241.48
961.805	3253.91
962.108	3212.56
962.411	3202.61
962.714	3228.83
963.017	3213.46
963.32	3213.01
963.623	3173.24
963.926	3156.29
964.228	3149.73
964.531	3107.7
964.833	3089.85
965.136	3104.76
965.438	3072.67
965.741	3064.09
966.043	3059.11
966.345	3086.91
966.648	3020.25
966.95	3017.99
967.252	3014.6
967.554	2984.54
967.856	3042.62
968.158	2991.77
968.46	2959.23
968.761	2960.59
969.063	2923.07
969.365	2923.3
969.666	2948.83
969.968	2871.1
970.269	2884.66
970.571	2904.77
970.872	2902.28
971.174	2834.04
971.475	2820.93
971.776	2855.96
972.077	2806.69
972.378	2806.92
972.679	2798.78
972.98	2770.53
973.281	2752.23
973.582	2766.24
973.883	2735.96
974.183	2742.29
974.484	2717.65
974.785	2731.21
975.085	2726.02
975.386	2710.88
975.686	2696.19
975.986	2653.02
976.287	2662.29
976.587	2632.91
976.887	2612.35
977.187	2650.76
977.487	2620.71
977.787	2568.73
978.087	2569.86
978.387	2543.2
978.687	2586.13
978.987	2575.06
979.286	2554.95
979.586	2504.1
979.885	2517.21
980.185	2490.99
980.484	2480.82
980.784	2511.33
981.083	2446.48
981.382	2469.98
981.682	2453.93
981.981	2449.41
982.28	2431.11
982.579	2399.02
982.878	2427.94
983.177	2382.52
983.475	2377.1
983.774	2378.68
984.073	2349.08
984.372	2328.51
984.67	2321.05
984.969	2321.28
985.267	2366.48
985.566	2307.72
985.864	2308.85
986.162	2292.81
986.461	2277.67
986.759	2294.61
987.057	2235.86
987.355	2273.15
987.653	2265.24
987.951	2251
988.249	2257.78
988.547	2244.9
988.844	2239.7
989.142	2199.25
989.44	2207.39
989.737	2211
990.035	2175.75
990.332	2136.2
990.63	2149.76
990.927	2139.14
991.224	2152.7
991.521	2159.03
991.819	2097.78
992.116	2112.47
992.413	2075.41
992.71	2085.58
993.006	2093.49
993.303	2077.67
993.6	2046.71
993.897	2054.4
994.193	2052.14
994.49	2018.01
994.787	2031.8
995.083	2042.64
995.379	2038.12
995.676	2007.62
995.972	1960.84
996.268	1995.41
996.565	1946.38
996.861	1944.79
997.157	1948.41
997.453	1925.58
997.749	1948.41
998.044	1909.99
998.34	1926.71
998.636	1908.86
998.932	1904.34
999.227	1858.69
999.523	1878.58
999.818	1891.69
1000.114	1874.96
1000.409	1859.82
1000.704	1806.49
1001	1833.61
1001.295	1832.03
1001.59	1827.06
1001.885	1815.53
1002.18	1774.85
1002.475	1793.61
1002.77	1762.65
1003.065	1762.2
1003.359	1769.88
1003.654	1752.48
1003.949	1738.47
1004.243	1723.56
1004.538	1709.55
1004.832	1708.87
1005.127	1698.02
1005.421	1687.17
1005.715	1681.3
1006.009	1667.51
1006.304	1685.14
1006.598	1672.03
1006.892	1645.59
1007.186	1623.45
1007.48	1610.79
1007.773	1614.86
1008.067	1609.44
1008.361	1585.25
1008.655	1572.83
1008.948	1603.33
1009.242	1587.06
1009.535	1548.19
1009.829	1571.92
1010.122	1544.8
1010.415	1559.27
1010.708	1545.71
1011.001	1520.17
1011.295	1515.43
1011.588	1471.59
1011.881	1488.76
1012.173	1475.43
1012.466	1488.31
1012.759	1481.98
1013.052	1439.95
1013.344	1448.08
1013.637	1444.92
1013.93	1442.21
1014.222	1445.15
1014.514	1394.07
1014.807	1390.68
1015.099	1428.42
1015.391	1404.69
1015.683	1406.73
1015.976	1398.82
1016.268	1365.83
1016.56	1335.54
1016.851	1378.48
1017.143	1367.41
1017.435	1331.48
1017.727	1343.91
1018.018	1346.62
1018.31	1332.83
1018.602	1316.11
1018.893	1347.52
1019.185	1304.13
1019.476	1306.62
1019.767	1296
1020.058	1286.05
1020.35	1264.36
1020.641	1260.52
1020.932	1274.53
1021.223	1242.21
1021.514	1248.54
1021.804	1235.66
1022.095	1237.02
1022.386	1208.99
1022.677	1200.63
1022.967	1211.71
1023.258	1204.7
1023.548	1188.66
1023.839	1174.87
1024.129	1187.75
1024.419	1178.49
1024.709	1152.27
1025	1158.83
1025.29	1131.48
1025.58	1124.93
1025.87	1132.39
1026.16	1124.25
1026.449	1134.65
1026.739	1117.24
1027.029	1099.17
1027.319	1113.18
1027.608	1102.56
1027.898	1094.65
1028.187	1070.01
1028.477	1069.34
1028.766	1076.12
1029.055	1050.35
1029.344	1033.41
1029.634	1060.3
1029.923	1024.59
1030.212	1044.03
1030.501	1026.85
1030.79	1025.95
1031.078	1020.3
1031.367	1005.38
1031.656	989.56
1031.945	968.1
1032.233	997.47
1032.522	970.58
1032.81	962.22
1033.099	973.52
1033.387	954.09
1033.675	942.33
1033.963	960.86
1034.251	934.88
1034.54	955.89
1034.828	927.87
1035.116	921.32
1035.403	930.13
1035.691	923.35
1035.979	928.55
1036.267	906.85
1036.554	889.91
1036.842	892.39
1037.129	928.1
1037.417	880.41
1037.704	882.22
1037.992	876.35
1038.279	879.96
1038.566	868.21
1038.853	868.21
1039.14	868.21
