Data from hue_140_FLMS001491_00052.txt Node
Date: Tue Feb 07 16:56:06 GMT 2017
User: dcchb
Spectrometer: FLMS00149
Trigger mode: 0
Integration Time (sec): 2.000000E-2
Scans to average: 10
Electric dark correction enabled: true
Nonlinearity correction enabled: false
Boxcar width: 0
XAxis mode: Wavelengths
Number of Pixels in Spectrum: 2048
>>>>>Begin Spectral Data<<<<<
341.393	-6.47
341.776	-6.47
342.16	-6.47
342.543	-59.8
342.927	-72.91
343.31	-84.43
343.693	-65.22
344.077	-61.16
344.46	-58.67
344.843	-75.39
345.226	-44.21
345.61	-31.55
345.993	-21.38
346.376	-4.89
346.759	12.51
347.142	26.98
347.525	28.56
347.908	66.98
348.291	99.97
348.674	88.22
349.057	123.7
349.44	105.39
349.823	138.16
350.206	142.45
350.588	191.04
350.971	210.93
351.354	222
351.737	239.4
352.119	243.47
352.502	246.18
352.884	276.01
353.267	273.07
353.65	284.82
354.032	281.43
354.414	300.64
354.797	318.95
355.179	310.13
355.562	316.23
355.944	331.15
356.326	328.66
356.709	334.99
357.091	346.06
357.473	326.4
357.855	340.19
358.238	349
358.62	331.83
359.002	348.55
359.384	338.38
359.766	332.05
360.148	338.38
360.53	348.78
360.912	329.57
361.294	317.14
361.676	339.06
362.057	343.58
362.439	308.55
362.821	331.6
363.203	338.61
363.584	309.23
363.966	314.2
364.348	324.82
364.729	293.64
365.111	322.34
365.493	309.46
365.874	317.59
366.256	339.96
366.637	334.54
367.019	329.79
367.4	297.48
367.781	322.34
368.163	291.15
368.544	313.75
368.925	296.35
369.306	334.09
369.688	313.07
370.069	334.99
370.45	327.99
370.831	309.91
371.212	317.82
371.593	323.01
371.974	316.91
372.355	306.52
372.736	334.54
373.117	312.84
373.498	339.28
373.879	318.04
374.26	314.88
374.641	310.36
375.021	315.1
375.402	332.05
375.783	329.34
376.163	332.51
376.544	326.86
376.925	311.26
377.305	338.15
377.686	307.65
378.066	335.9
378.447	330.47
378.827	342.22
379.208	328.89
379.588	326.63
379.968	339.28
380.349	337.7
380.729	339.74
381.109	334.09
381.489	334.31
381.87	332.28
382.25	339.51
382.63	340.41
383.01	339.28
383.39	339.96
383.77	334.77
384.15	354.2
384.53	325.95
384.91	361.66
385.29	370.92
385.67	352.62
386.049	349.45
386.429	326.4
386.809	364.59
387.189	365.27
387.568	351.71
387.948	373.86
388.328	357.14
388.707	362.11
389.087	380.87
389.466	358.04
389.846	360.75
390.225	369.34
390.605	369.57
390.984	354.88
391.363	368.44
391.743	379.51
392.122	349.91
392.501	397.59
392.881	367.31
393.26	371.15
393.639	382.67
394.018	393.07
394.397	407.53
394.776	377.48
395.155	389.68
395.534	371.83
395.913	373.18
396.292	388.78
396.671	400.3
397.05	419.28
397.429	391.94
397.808	394.88
398.186	414.31
398.565	391.03
398.944	416.8
399.323	395.78
399.701	415.67
400.08	392.16
400.458	414.76
400.837	421.32
401.215	377.25
401.594	412.05
401.972	421.54
402.351	421.09
402.729	423.12
403.107	435.78
403.486	427.19
403.864	420.19
404.242	454.31
404.62	415.22
404.999	428.32
405.377	449.11
405.755	446.4
406.133	436.01
406.511	453.63
406.889	425.16
407.267	463.8
407.645	448.21
408.023	457.02
408.401	449.79
408.779	455.44
409.156	452.05
409.534	456.8
409.912	486.17
410.29	479.62
410.667	451.37
411.045	484.14
411.422	482.78
411.8	471.94
412.178	495.44
412.555	492.5
412.933	487.76
413.31	495.21
413.687	479.17
414.065	510.58
414.442	511.48
414.819	516
415.197	517.81
415.574	509
415.951	516.91
416.328	527.53
416.705	532.27
417.082	529.11
417.46	526.4
417.837	518.94
418.214	542.22
418.591	562.1
418.967	546.29
419.344	521.65
419.721	564.36
420.098	539.28
420.475	543.57
420.852	561.43
421.228	558.94
421.605	587.19
421.982	556.91
422.358	590.35
422.735	600.07
423.111	581.76
423.488	578.83
423.864	583.57
424.241	556.68
424.617	591.71
424.994	583.12
425.37	608.66
425.746	599.39
426.123	610.69
426.499	634.42
426.875	612.27
427.251	658.15
427.627	636.9
428.003	638.49
428.379	628.77
428.756	664.02
429.132	650.01
429.507	645.49
429.883	654.98
430.259	658.37
430.635	674.87
431.011	664.47
431.387	699.05
431.763	715.55
432.138	696.56
432.514	695.66
432.89	703.34
433.265	704.02
433.641	714.87
434.016	723.46
434.392	752.38
434.767	722.1
435.143	751.25
435.518	732.95
435.894	736.79
436.269	765.94
436.644	767.3
437.02	754.64
437.395	760.29
437.77	798.03
438.145	800.74
438.52	805.94
438.895	806.62
439.271	822.44
439.646	820.18
440.021	828.31
440.395	830.57
440.77	860.63
441.145	859.95
441.52	854.75
441.895	836.22
442.27	848.88
442.645	872.6
443.019	874.41
443.394	877.35
443.769	886.62
444.143	872.38
444.518	899.95
444.892	877.58
445.267	882.77
445.641	910.8
446.016	904.24
446.39	885.26
446.764	914.19
447.139	936.78
447.513	920.51
447.887	913.96
448.262	914.64
448.636	939.04
449.01	953.73
449.384	958.48
449.758	959.16
450.132	952.15
450.506	1002.54
450.88	1007.52
451.254	970
451.628	983.79
452.002	1014.07
452.376	1030.57
452.75	1038.93
453.123	1036.22
453.497	1063.79
453.871	1066.5
454.244	1066.5
454.618	1095.2
454.992	1088.42
455.365	1108.08
455.739	1103.56
456.112	1138.59
456.486	1145.59
456.859	1162.31
457.232	1156.89
457.606	1184.01
457.979	1190.11
458.352	1217.23
458.725	1218.13
459.099	1220.17
459.472	1262.42
459.845	1266.94
460.218	1278.24
460.591	1284.8
460.964	1303.78
461.337	1326.38
461.71	1360.95
462.083	1362.53
462.456	1393.72
462.829	1364.57
463.201	1369.09
463.574	1402.31
463.947	1454.06
464.32	1448.41
464.692	1464.23
465.065	1489.54
465.438	1515.98
465.81	1546.94
466.183	1572.02
466.555	1613.15
466.928	1608.18
467.3	1619.48
467.672	1631.45
468.045	1682.53
468.417	1686.82
468.789	1741.06
469.161	1726.14
469.534	1783.99
469.906	1814.27
470.278	1832.13
470.65	1863.31
471.022	1899.02
471.394	1934.05
471.766	1995.29
472.138	1998.45
472.51	2063.76
472.882	2103.76
473.253	2088.62
473.625	2160.48
473.997	2218.11
474.369	2268.5
474.74	2274.6
475.112	2340.81
475.484	2412
475.855	2479.12
476.227	2511.21
476.598	2591.43
476.97	2615.61
477.341	2724.98
477.713	2776.28
478.084	2841.82
478.455	2894.92
478.827	3003.85
479.198	3063.96
479.569	3113.22
479.94	3215.59
480.311	3282.94
480.682	3384.63
481.053	3486.32
481.424	3597.28
481.795	3671.63
482.166	3763.83
482.537	3842.47
482.908	3981.9
483.279	4043.37
483.65	4136.02
484.021	4285.17
484.391	4424.6
484.762	4466.18
485.133	4550.25
485.503	4682.67
485.874	4851.26
486.244	4898.94
486.615	5123.79
486.985	5231.13
487.356	5363.56
487.726	5455.08
488.097	5621.63
488.467	5679.03
488.837	5867.95
489.207	5995.18
489.578	6168.96
489.948	6286.25
490.318	6413.25
490.688	6529.18
491.058	6716.74
491.428	6879.45
491.798	6925.55
492.168	7097.98
492.538	7231.08
492.908	7361.25
493.278	7499.1
493.648	7653.44
494.017	7840.1
494.387	7934.79
494.757	8045.75
495.126	8209.13
495.496	8312.86
495.866	8452.52
496.235	8563.7
496.605	8711.49
496.974	8791.72
497.344	8932.73
497.713	9039.17
498.082	9216.57
498.452	9314.87
498.821	9410.23
499.19	9511.25
499.559	9620.17
499.928	9732.03
500.298	9845.25
500.667	9953.95
501.036	10051.57
501.405	10183.77
501.774	10236.2
502.143	10290.89
502.512	10420.83
502.88	10540.15
503.249	10618.56
503.618	10653.82
503.987	10801.83
504.356	10832.34
504.724	10915.73
505.093	11017.65
505.462	11036.63
505.83	11217.64
506.199	11264.2
506.567	11392.33
506.936	11437.3
507.304	11574.24
507.672	11548.26
508.041	11731.53
508.409	11762.26
508.777	11864.63
509.145	11984.63
509.514	12001.8
509.882	12100.11
510.25	12082.93
510.618	12197.73
510.986	12271.85
511.354	12334
511.722	12397.5
512.09	12512.07
512.458	12529.7
512.826	12632.07
513.193	12582.8
513.561	12625.97
513.929	12739.86
514.297	12815.12
514.664	12906.64
515.032	12838.39
515.4	12982.57
515.767	12995.68
516.135	13042.68
516.502	12980.76
516.869	13177.82
517.237	13076.58
517.604	13094.66
517.972	13277.7
518.339	13255.33
518.706	13288.77
519.073	13339.17
519.44	13364.25
519.808	13426.85
520.175	13430.24
520.542	13579.61
520.909	13590.46
521.276	13524.25
521.643	13588.65
522.009	13731.25
522.376	13666.84
522.743	13735.54
523.11	13815.54
523.477	13837.46
523.843	13882.88
524.21	13962.43
524.577	13970.56
524.943	14033.84
525.31	14154.51
525.676	14219.6
526.043	14244
526.409	14262.31
526.776	14275.87
527.142	14237.68
527.508	14301.86
527.874	14396.54
528.241	14406.03
528.607	14330.56
528.973	14432.02
529.339	14388.18
529.705	14456.88
530.071	14465.24
530.437	14444
530.803	14508.86
531.169	14506.37
531.535	14440.38
531.901	14549.53
532.267	14485.81
532.632	14546.59
532.998	14496.65
533.364	14472.7
533.73	14433.38
534.095	14547.72
534.461	14475.64
534.826	14508.63
535.192	14462.76
535.557	14568.74
535.923	14401.74
536.288	14427.73
536.653	14420.04
537.019	14321.97
537.384	14401.06
537.749	14495.52
538.114	14427.73
538.479	14363.1
538.845	14370.1
539.21	14226.83
539.575	14238.13
539.94	14278.35
540.305	14379.82
540.67	14182.08
541.034	14258.92
541.399	14279.71
541.764	14214.85
542.129	14119.71
542.494	14158.81
542.858	14105.93
543.223	14101.63
543.587	14106.61
543.952	14000.17
544.316	14011.92
544.681	13966.05
545.045	13990.23
545.41	14047.85
545.774	13865.71
546.138	13951.58
546.503	13874.3
546.867	13775.99
547.231	13859.16
547.595	13782.32
547.959	13698.93
548.324	13609.22
548.688	13751.36
549.052	13691.25
549.416	13698.26
549.779	13666.17
550.143	13534.42
550.507	13639.05
550.871	13596.34
551.235	13549.78
551.599	13537.36
551.962	13500.52
552.326	13527.86
552.689	13497.36
553.053	13398.83
553.417	13313.63
553.78	13515.44
554.143	13383.69
554.507	13404.25
554.87	13388.21
555.234	13458.26
555.597	13379.17
555.96	13329
556.323	13337.81
556.686	13283.35
557.05	13316.12
557.413	13260.98
557.776	13237.25
558.139	13275.44
558.502	13287.64
558.865	13288.77
559.228	13246.52
559.59	13312.96
559.953	13299.85
560.316	13399.51
560.679	13331.26
561.041	13364.48
561.404	13413.29
561.767	13393.4
562.129	13314.54
562.492	13432.05
562.854	13372.39
563.217	13397.02
563.579	13390.92
563.941	13451.71
564.304	13470.92
564.666	13463.01
565.028	13443.8
565.39	13474.76
565.753	13550.24
566.115	13522.22
566.477	13590.01
566.839	13527.19
567.201	13600.41
567.563	13660.52
567.925	13614.64
568.287	13628.65
568.648	13735.32
569.01	13680.4
569.372	13721.76
569.734	13622.78
570.095	13709.1
570.457	13729.89
570.819	13695.09
571.18	13737.12
571.542	13845.37
571.903	13815.77
572.265	13790.91
572.626	13843.79
572.987	13766.5
573.349	13895.76
573.71	13933.05
574.071	13880.85
574.432	13963.79
574.794	13993.62
575.155	14027.96
575.516	13866.16
575.877	13925.14
576.238	14006.04
576.599	13931.92
576.96	13955.88
577.32	13979.6
577.681	13966.5
578.042	14058.92
578.403	13999.49
578.763	14020.28
579.124	14016.21
579.485	13969.43
579.845	13986.84
580.206	13964.24
580.566	13988.87
580.927	14004.46
581.287	14135.98
581.648	13976.21
582.008	14078.58
582.368	13995.65
582.728	14020.28
583.089	14030.9
583.449	13992.71
583.809	13999.72
584.169	13987.51
584.529	13862.77
584.889	13995.87
585.249	13939.61
585.609	13879.04
585.969	14110.67
586.329	13925.37
586.688	13950.68
587.048	13928.31
587.408	13856.9
587.768	13888.76
588.127	13887.86
588.487	13815.99
588.846	13962.43
589.206	13878.36
589.565	13883.34
589.925	13931.24
590.284	13823.9
590.643	13834.3
591.003	13808.54
591.362	13826.16
591.721	13822.09
592.08	13793.39
592.44	13825.71
592.799	13859.16
593.158	13809.21
593.517	13756.79
593.876	13825.94
594.235	13883.56
594.593	13794.07
594.952	13829.33
595.311	13808.99
595.67	13839.95
596.029	13798.14
596.387	13808.99
596.746	13844.01
597.104	13806.5
597.463	13786.16
597.822	13778.03
598.18	13797.69
598.538	13744.36
598.897	13768.76
599.255	13786.61
599.613	13902.32
599.972	13724.47
600.33	13853.96
600.688	13717.01
601.046	13812.38
601.404	13809.89
601.762	13725.83
602.12	13784.58
602.478	13843.79
602.836	13798.59
603.194	13732.38
603.552	13818.93
603.91	13711.14
604.268	13833.62
604.625	13772.15
604.983	13813.96
605.341	13677.01
605.698	13797.01
606.056	13785.03
606.413	13819.83
606.771	13838.36
607.128	13780.51
607.485	13841.98
607.843	13775.77
608.2	13924.46
608.557	13935.31
608.914	13760.63
609.272	13855.54
609.629	13873.17
609.986	13938.25
610.343	13866.16
610.7	14016.67
611.057	13941.41
611.414	13921.3
611.771	13989.32
612.127	13992.71
612.484	14005.14
612.841	14046.72
613.198	14037.68
613.554	13978.25
613.911	14015.76
614.267	14145.93
614.624	14035.42
614.98	14083.1
615.337	14160.39
615.693	14193.61
616.05	14141.63
616.406	14189.54
616.762	14169.66
617.118	14048.53
617.475	14100.96
617.831	14140.96
618.187	14166.04
618.543	14238.81
618.899	14172.14
619.255	14180.28
619.611	14206.26
619.967	14224.34
620.323	14204.46
620.678	14234.51
621.034	14131.24
621.39	14167.85
621.746	14144.8
622.101	14267.28
622.457	14217.11
622.812	14270.22
623.168	14223.21
623.523	14247.17
623.879	14308.86
624.234	14116.78
624.589	14239.48
624.945	14325.81
625.3	14348.86
625.655	14235.64
626.01	14253.95
626.365	14224.12
626.72	14199.26
627.075	14195.87
627.43	14188.41
627.785	14222.08
628.14	14247.39
628.495	14289.43
628.85	14243.1
629.205	14208.75
629.559	14216.66
629.914	14118.81
630.269	14241.29
630.623	14216.66
630.978	14160.62
631.332	14044.01
631.687	14226.6
632.041	14078.81
632.396	14164.01
632.75	14102.76
633.104	14132.59
633.459	14023.22
633.813	14080.39
634.167	14004.01
634.521	13990.23
634.875	14037.68
635.229	13949.32
635.583	13804.47
635.937	13938.93
636.291	13843.34
636.645	13921.07
636.999	13760.17
637.352	13903.22
637.706	13797.01
638.06	13872.49
638.413	13766.73
638.767	13837.46
639.121	13804.02
639.474	13684.92
639.828	13779.84
640.181	13738.03
640.534	13792.04
640.888	13695.77
641.241	13662.1
641.594	13707.29
641.947	13675.66
642.301	13649.67
642.654	13680.18
643.007	13629.78
643.36	13662.32
643.713	13648.99
644.066	13675.66
644.419	13563.8
644.771	13507.53
645.124	13396.79
645.477	13364.71
645.83	13273.41
646.182	13326.97
646.535	13234.99
646.888	13190.7
647.24	13099.63
647.593	13136.01
647.945	13153.41
648.298	13085.62
648.65	13047.65
649.002	13072.96
649.355	13088.1
649.707	13077.71
650.059	13178.95
650.411	13406.06
650.763	13375.55
651.115	13490.13
651.467	13448.54
651.819	13533.29
652.171	13509.11
652.523	13366.29
652.875	13420.97
653.227	13374.2
653.578	13490.58
653.93	13459.62
654.282	13395.66
654.633	13439.05
654.985	13388.89
655.337	13387.53
655.688	13427.53
656.039	13419.62
656.391	13383.24
656.742	13355.44
657.094	13428.43
657.445	13489.45
657.796	13493.52
658.147	13490.35
658.498	13365.38
658.849	13407.19
659.2	13381.65
659.551	13315.21
659.902	13373.52
660.253	13451.26
660.604	13408.09
660.955	13390.47
661.306	13433.63
661.656	13355.67
662.007	13371.94
662.358	13429.56
662.708	13391.37
663.059	13354.08
663.409	13354.31
663.76	13444.48
664.11	13460.07
664.461	13437.02
664.811	13442.9
665.161	13402.9
665.511	13409.9
665.862	13402.9
666.212	13426.62
666.562	13415.55
666.912	13459.17
667.262	13465.27
667.612	13435.66
667.962	13452.61
668.312	13493.97
668.662	13492.16
669.011	13483.8
669.361	13359.06
669.711	13436.34
670.06	13330.58
670.41	13383.91
670.76	13355.21
671.109	13385.95
671.459	13421.65
671.808	13389.11
672.157	13398.83
672.507	13282.9
672.856	13308.21
673.205	13222.56
673.554	13300.53
673.904	13194.77
674.253	13244.48
674.602	13256.23
674.951	13082.68
675.3	13060.53
675.649	13186.63
675.998	13239.06
676.346	13258.27
676.695	13270.47
677.044	13112.51
677.393	13246.74
677.741	13220.3
678.09	13151.15
678.438	13158.61
678.787	13152.28
679.135	13133.3
679.484	13015.11
679.832	13115.22
680.181	12951.38
680.529	12986.18
680.877	12959.97
681.225	12997.94
681.573	13074.77
681.922	13016.69
682.27	12855.11
682.618	12905.73
682.966	12828.9
683.314	12891.72
683.661	12805.4
684.009	12787.55
684.357	12844.04
684.705	12794.55
685.053	12740.09
685.4	12655.35
685.748	12620.77
686.095	12617.38
686.443	12605.4
686.79	12549.36
687.138	12615.35
687.485	12493.09
687.832	12504.16
688.18	12587.1
688.527	12399.31
688.874	12330.38
689.221	12400.44
689.568	12380.32
689.915	12320.89
690.262	12317.28
690.609	12295.81
690.956	12237.73
691.303	12215.13
691.65	12139.88
691.997	12101.46
692.344	12038.86
692.69	12061.46
693.037	12043.16
693.383	11918.87
693.73	11978.53
694.077	11891.3
694.423	11852.65
694.769	11801.36
695.116	11779.66
695.462	11710.74
695.808	11698.31
696.155	11720.91
696.501	11593.9
696.847	11567.92
697.193	11481.14
697.539	11580.57
697.885	11510.06
698.231	11425.1
698.577	11439.56
698.923	11391.2
699.269	11289.51
699.614	11309.62
699.96	11257.42
700.306	11260.35
700.651	11130.41
700.997	11130.19
701.342	11080.02
701.688	11084.31
702.033	11036.18
702.379	11065.78
702.724	10929.29
703.069	11023.75
703.415	10923.41
703.76	10882.28
704.105	10849.97
704.45	10854.49
704.795	10772.68
705.14	10697.66
705.485	10693.81
705.83	10701.95
706.175	10647.71
706.52	10669.41
706.865	10525.68
707.209	10545.8
707.554	10579.92
707.899	10579.24
708.243	10477.1
708.588	10431.9
708.932	10372.47
709.277	10369.3
709.621	10398.23
709.966	10318.46
710.31	10308.29
710.654	10234.39
710.998	10223.77
711.342	10186.71
711.687	10158.46
712.031	10112.81
712.375	10091.57
712.719	10124.79
713.063	10082.53
713.407	10099.25
713.75	10038.24
714.094	10077.33
714.438	9969.77
714.782	10034.62
715.125	9948.07
715.469	9981.29
715.812	9906.04
716.156	9916.66
716.499	9839.83
716.843	9918.47
717.186	9835.76
717.53	9880.5
717.873	9924.12
718.216	9813.16
718.559	9784.23
718.902	9746.95
719.246	9760.51
719.589	9745.37
719.932	9607.97
720.275	9702.88
720.617	9666.5
720.96	9683.67
721.303	9653.62
721.646	9640.06
721.989	9659.49
722.331	9687.29
722.674	9593.73
723.016	9616.1
723.359	9606.16
723.701	9678.02
724.044	9554.41
724.386	9476.45
724.729	9504.24
725.071	9539.95
725.413	9569.1
725.755	9446.84
726.097	9519.61
726.439	9459.05
726.782	9482.77
727.124	9497.91
727.465	9533.85
727.807	9428.54
728.149	9442.55
728.491	9483.68
728.833	9430.57
729.175	9395.54
729.516	9391.93
729.858	9464.69
730.199	9479.16
730.541	9488.87
730.882	9389.67
731.224	9451.14
731.565	9340.4
731.906	9346.96
732.248	9387.86
732.589	9395.77
732.93	9390.8
733.271	9354.19
733.612	9387.18
733.953	9401.42
734.294	9389.67
734.635	9361.87
734.976	9396.45
735.317	9296.34
735.658	9325.49
735.999	9389.89
736.339	9355.32
736.68	9367.3
737.021	9365.49
737.361	9378.82
737.702	9462.21
738.042	9357.58
738.383	9356.45
738.723	9499.72
739.063	9400.97
739.404	9456.11
739.744	9461.3
740.084	9432.61
740.424	9426.5
740.764	9386.5
741.104	9469.89
741.444	9386.96
741.784	9484.58
742.124	9509.67
742.464	9443.68
742.804	9417.69
743.143	9490
743.483	9565.03
743.823	9520.29
744.162	9553.73
744.502	9636.67
744.841	9564.35
745.181	9635.76
745.52	9642.77
745.86	9708.76
746.199	9738.81
746.538	9785.36
746.877	9817.23
747.216	9885.7
747.556	9873.95
747.895	9922.99
748.234	9898.58
748.573	9951.46
748.911	10029.2
749.25	10073.72
749.589	10136.54
749.928	10274.16
750.267	10275.29
750.605	10325.24
750.944	10381.28
751.283	10445.69
751.621	10563.65
751.96	10602.74
752.298	10635.74
752.636	10734.27
752.975	10882.06
753.313	10946.24
753.651	11063.07
753.989	11159.11
754.327	11258.32
754.666	11243.86
755.004	11416.96
755.342	11559.78
755.679	11757.52
756.017	11811.75
756.355	11891.07
756.693	11981.69
757.031	12195.02
757.368	12325.86
757.706	12502.58
758.044	12468.01
758.381	12743.93
758.719	12813.99
759.056	13146.86
759.394	13190.47
759.731	13243.58
760.068	13391.37
760.405	13595.43
760.743	13766.73
761.08	13979.83
761.417	14034.29
761.754	14225.7
762.091	14361.97
762.428	14502.75
762.765	14560.38
763.102	14801.96
763.438	14970.99
763.775	15113.13
764.112	15298.44
764.449	15439
764.785	15579.56
765.122	15663.4
765.458	15789.73
765.795	16036.95
766.131	16141.81
766.467	16230.39
766.804	16351.07
767.14	16481.01
767.476	16658.86
767.812	16731.62
768.148	17003.48
768.485	16978.4
768.821	17085.96
769.157	17218.16
769.492	17403.92
769.828	17454.99
770.164	17462.22
770.5	17669.68
770.836	17697.02
771.171	17874.19
771.507	17828.32
771.842	17942.66
772.178	18070.34
772.513	18137.46
772.849	18158.93
773.184	18208.19
773.519	18326.83
773.855	18469.43
774.19	18479.82
774.525	18562.31
774.86	18495.64
775.195	18664.68
775.53	18701.74
775.865	18616.77
776.2	18586.04
776.535	18649.76
776.87	18830.78
777.205	18718.24
777.539	18745.13
777.874	18917.33
778.209	18833.49
778.543	18915.29
778.878	18887.95
779.212	18938.34
779.547	18939.02
779.881	19024.44
780.215	18885.92
780.55	19062.86
780.884	18927.27
781.218	18997.33
781.552	18954.84
781.886	18987.38
782.22	18895.18
782.554	19027.16
782.888	18881.85
783.222	18845.46
783.556	18826.03
783.889	18878.46
784.223	18821.74
784.557	18829.87
784.89	18828.74
785.224	18736.77
785.557	18737.45
785.891	18747.61
786.224	18709.88
786.558	18727.05
786.891	18632.82
787.224	18575.19
787.557	18636.66
787.891	18619.03
788.224	18558.01
788.557	18645.92
788.89	18553.5
789.223	18563.44
789.556	18563.44
789.888	18496.55
790.221	18409.09
790.554	18391.24
790.887	18266.95
791.219	18343.56
791.552	18280.28
791.884	18214.75
792.217	18137.23
792.549	18197.8
792.882	18056.56
793.214	18085.94
793.546	18091.36
793.879	18011.14
794.211	17931.14
794.543	18057.24
794.875	17918.03
795.207	17987.41
795.539	17884.59
795.871	17893.85
796.203	17781.09
796.535	17670.81
796.867	17659.28
797.198	17657.7
797.53	17638.94
797.862	17459.74
798.193	17560.08
798.525	17507.65
798.856	17478.5
799.188	17339.74
799.519	17368.22
799.85	17138.17
800.182	17308.78
800.513	17201.44
800.844	17187.43
801.175	17237.6
801.506	17142.68
801.837	17116.92
802.168	17108.11
802.499	16961.45
802.83	16925.52
803.161	16859.3
803.491	16910.37
803.822	16886.19
804.153	16843.26
804.483	16665.18
804.814	16574.56
805.145	16646.43
805.475	16574.79
805.805	16593.09
806.136	16575.47
806.466	16560.1
806.796	16487.79
807.126	16386.77
807.457	16354.46
807.787	16337.96
808.117	16371.86
808.447	16268.58
808.777	16263.84
809.107	16162.15
809.436	16207.57
809.766	16153.56
810.096	16036.27
810.426	16049.83
810.755	16026.1
811.085	16013.45
811.414	16008.25
811.744	15824.75
812.073	15860.46
812.403	15865.43
812.732	15882.83
813.061	15815.94
813.39	15721.48
813.719	15685.1
814.049	15846.67
814.378	15618.66
814.707	15599
815.036	15566.23
815.365	15491.43
815.693	15462.5
816.022	15480.13
816.351	15401.04
816.68	15434.48
817.008	15444.42
817.337	15238.1
817.665	15297.54
817.994	15338.21
818.322	15377.76
818.651	15216.63
818.979	15199.69
819.307	15178.44
819.636	15176.86
819.964	15131.44
820.292	15197.43
820.62	15081.72
820.948	15152.68
821.276	15189.52
821.604	15118.33
821.932	15127.82
822.259	15117.43
822.587	15102.06
822.915	15036.75
823.243	15056.41
823.57	15050.31
823.898	15081.5
824.225	14979.8
824.553	15080.82
824.88	14980.26
825.207	15120.82
825.535	15018.22
825.862	15100.03
826.189	15013.02
826.516	15228.38
826.843	15171.89
827.17	15133.47
827.497	15037.66
827.824	15212.79
828.151	15028.62
828.478	15069.07
828.805	15138.44
829.131	15068.84
829.458	15040.14
829.785	14996.98
830.111	15097.09
830.438	15130.31
830.764	15064.55
831.09	15156.07
831.417	15119.69
831.743	15026.58
832.069	15018.67
832.395	14998.79
832.722	15035.17
833.048	14984.32
833.374	14962.4
833.7	14839.69
834.026	14980.26
834.351	14983.65
834.677	14914.27
835.003	14936.19
835.329	14921.5
835.654	14930.31
835.98	14882.41
836.306	14872.69
836.631	14782.29
836.956	14860.94
837.282	14888.28
837.607	14756.31
837.932	14754.5
838.258	14728.74
838.583	14746.82
838.908	14617.33
839.233	14656.2
839.558	14603.99
839.883	14639.93
840.208	14581.17
840.533	14573.71
840.858	14514.96
841.182	14559.48
841.507	14521.51
841.832	14521.06
842.156	14392.47
842.481	14473.38
842.805	14425.47
843.13	14341.18
843.454	14286.04
843.778	14266.83
844.103	14212.59
844.427	14231.12
844.751	14229.77
845.075	14197.23
845.399	14072.71
845.723	13981.86
846.047	14065.25
846.371	13956.78
846.695	13926.72
847.019	13800.63
847.343	13787.97
847.666	13682.21
847.99	13639.5
848.313	13729.22
848.637	13535.55
848.96	13514.76
849.284	13513.4
849.607	13420.3
849.931	13390.47
850.254	13310.02
850.577	13304.59
850.9	13202.22
851.223	13197.03
851.546	13094.43
851.869	13059.4
852.192	13031.83
852.515	12999.52
852.838	12879.75
853.161	12949.12
853.483	12807.43
853.806	12768.34
854.129	12838.62
854.451	12753.2
854.774	12628.68
855.096	12570.6
855.419	12579.42
855.741	12535.35
856.063	12527.89
856.385	12499.64
856.708	12407.67
857.03	12370.15
857.352	12366.99
857.674	12315.02
857.996	12242.02
858.318	12155.47
858.64	12153.21
858.961	12090.39
859.283	12165.64
859.605	12037.96
859.926	12061.24
860.248	12065.08
860.57	11964.29
860.891	11959.09
861.212	11905.76
861.534	11951.63
861.855	11811.98
862.176	11919.09
862.498	11877.74
862.819	11866.89
863.14	11771.07
863.461	11726.33
863.782	11635.49
864.103	11671.42
864.424	11735.82
864.745	11741.02
865.065	11589.38
865.386	11522.72
865.707	11583.28
866.027	11571.76
866.348	11523.85
866.668	11486.56
866.989	11505.32
867.309	11461.03
867.63	11514.58
867.95	11392.1
868.27	11404.53
868.59	11382.61
868.91	11389.62
869.23	11338.09
869.55	11305.55
869.87	11358.43
870.19	11372.44
870.51	11355.94
870.83	11385.77
871.15	11227.81
871.469	11253.35
871.789	11252.22
872.109	11295.61
872.428	11193.01
872.748	11217.64
873.067	11162.96
873.386	11130.64
873.706	11171.99
874.025	11077.53
874.344	11104.2
874.663	11054.48
874.982	11081.83
875.301	11044.54
875.62	11044.54
875.939	10955.73
876.258	11008.38
876.577	10993.24
876.896	10969.97
877.214	10989.85
877.533	10922.28
877.852	10925.45
878.17	10881.83
878.489	10923.41
878.807	10876.18
879.125	10860.14
879.444	10814.72
879.762	10798.44
880.08	10779.46
880.398	10709.18
880.716	10769.29
881.034	10756.64
881.352	10758.22
881.67	10664.89
881.988	10630.77
882.306	10641.84
882.624	10551.45
882.941	10573.14
883.259	10499.02
883.577	10557.1
883.894	10533.59
884.212	10483.2
884.529	10493.14
884.846	10418.34
885.164	10373.37
885.481	10406.59
885.798	10369.76
886.115	10306.48
886.432	10316.2
886.75	10330.43
887.067	10272.36
887.383	10224.9
887.7	10243.43
888.017	10227.16
888.334	10133.15
888.651	10146.48
888.967	10124.11
889.284	10123.66
889.6	10028.07
889.917	9950.11
890.233	9990.56
890.55	9948.3
890.866	9958.24
891.182	9865.81
891.498	9856.55
891.815	9838.24
892.131	9769.55
892.447	9763.9
892.763	9773.84
893.079	9724.8
893.395	9715.76
893.71	9665.59
894.026	9657.68
894.342	9573.84
894.657	9533.39
894.973	9527.74
895.289	9541.3
895.604	9523.45
895.92	9384.47
896.235	9411.59
896.55	9358.26
896.865	9341.08
897.181	9324.59
897.496	9312.38
897.811	9264.25
898.126	9211.37
898.441	9226.28
898.756	9199.84
899.071	9126.4
899.386	9134.53
899.7	9026.74
900.015	9036.46
900.33	9000.53
900.644	8913.75
900.959	8914.65
901.273	8894.09
901.588	8817.48
901.902	8812.51
902.216	8768.89
902.531	8814.54
902.845	8724.15
903.159	8683.92
903.473	8667.88
903.787	8641.89
904.101	8571.61
904.415	8576.13
904.729	8549.24
905.042	8539.52
905.356	8473.53
905.67	8436.47
905.984	8487.77
906.297	8380.66
906.611	8326.42
906.924	8309.24
907.237	8304.95
907.551	8269.92
907.864	8199.19
908.177	8238.51
908.491	8189.93
908.804	8112.19
909.117	8074.67
909.43	8045.07
909.743	8027.9
910.056	7988.35
910.368	7939.31
910.681	7903.38
910.994	7873.32
911.307	7903.83
911.619	7805.76
911.932	7797.62
912.244	7756.49
912.557	7730.5
912.869	7670.39
913.181	7644.18
913.494	7590.85
913.806	7539.55
914.118	7567.8
914.43	7531.41
914.742	7535.71
915.054	7508.81
915.366	7432.88
915.678	7407.35
915.99	7394.24
916.302	7347.69
916.613	7261.36
916.925	7353.34
917.236	7257.52
917.548	7181.82
917.859	7269.05
918.171	7149.28
918.482	7109.73
918.794	7095.94
919.105	7090.75
919.416	7012.33
919.727	7003.29
920.038	6984.31
920.349	6978.66
920.66	6941.37
920.971	6949.73
921.282	6886.23
921.593	6874.03
921.903	6811.21
922.214	6769.85
922.525	6801.94
922.835	6692.34
923.146	6713.13
923.456	6655.5
923.767	6620.02
924.077	6613.24
924.387	6597.65
924.697	6575.73
925.008	6556.3
925.318	6543.19
925.628	6561.04
925.938	6465
926.248	6436.07
926.558	6393.81
926.867	6396.75
927.177	6360.6
927.487	6361.27
927.796	6278.34
928.106	6266.13
928.416	6269.07
928.725	6259.36
929.034	6204.22
929.344	6225.91
929.653	6207.15
929.962	6117.89
930.271	6088.74
930.581	6077.89
930.89	6010.1
931.199	6017.33
931.508	6014.16
931.817	5981.17
932.125	5985.92
932.434	5948.4
932.743	5874.05
933.051	5827.5
933.36	5854.17
933.669	5842.87
933.977	5792.7
934.286	5764.68
934.594	5778.69
934.902	5745.24
935.21	5685.58
935.519	5669.31
935.827	5682.87
936.135	5626.15
936.443	5559.71
936.751	5592.93
937.059	5561.07
937.367	5514.74
937.674	5532.59
937.982	5552.26
938.29	5399.94
938.597	5461.41
938.905	5365.37
939.213	5330.57
939.52	5358.81
939.827	5350.9
940.135	5350.45
940.442	5353.39
940.749	5295.54
941.056	5250.34
941.363	5194.75
941.67	5277.91
941.977	5199.72
942.284	5192.49
942.591	5172.15
942.898	5131.25
943.205	5104.13
943.511	5084.92
943.818	5094.41
944.125	5020.97
944.431	5004.25
944.738	5028.65
945.044	4952.04
945.35	4945.94
945.657	4945.04
945.963	4973.06
946.269	4929.45
946.575	4869.79
946.881	4831.82
947.187	4844.48
947.493	4785.95
947.799	4794.99
948.105	4768.09
948.41	4762.67
948.716	4741.43
949.022	4735.55
949.327	4740.07
949.633	4693.75
949.938	4671.6
950.244	4620.3
950.549	4594.77
950.854	4564.26
951.16	4604.71
951.465	4528.33
951.77	4537.82
952.075	4526.75
952.38	4434.09
952.685	4503.92
952.99	4463.24
953.294	4439.29
953.599	4396.35
953.904	4399.74
954.209	4376.92
954.513	4373.3
954.818	4369.46
955.122	4349.8
955.426	4330.37
955.731	4302.12
956.035	4260.09
956.339	4236.81
956.643	4254.44
956.948	4225.74
957.252	4210.37
957.556	4197.04
957.86	4145.51
958.163	4174.66
958.467	4119.75
958.771	4097.6
959.075	4138.28
959.378	4076.14
959.682	4083.14
959.985	4067.77
960.289	4017.83
960.592	4026.19
960.896	3992.07
961.199	3971.73
961.502	3965.4
961.805	3936.93
962.108	3900.32
962.411	3928.8
962.714	3867.1
963.017	3840.21
963.32	3848.57
963.623	3834.33
963.926	3818.29
964.228	3815.35
964.531	3830.04
964.833	3773.32
965.136	3723.6
965.438	3742.59
965.741	3696.71
966.043	3708.46
966.345	3701.46
966.648	3677.5
966.95	3654
967.252	3602.93
967.554	3643.38
967.856	3628.24
968.158	3552.99
968.46	3600.67
968.761	3575.81
969.063	3535.13
969.365	3545.3
969.666	3498.07
969.968	3461.24
970.269	3472.99
970.571	3485.64
970.872	3470.28
971.174	3431.86
971.475	3413.33
971.776	3419.88
972.077	3394.8
972.378	3389.37
972.679	3395.25
972.98	3367.91
973.281	3341.47
973.582	3314.8
973.883	3289.26
974.183	3272.77
974.484	3276.16
974.785	3249.26
975.085	3211.75
975.386	3223.73
975.686	3238.42
975.986	3208.59
976.287	3193.9
976.587	3184.18
976.887	3185.76
977.187	3172.43
977.487	3141.47
977.787	3137.4
978.087	3103.05
978.387	3086.56
978.687	3109.83
978.987	3106.22
979.286	3063.51
979.586	3042.72
979.885	3052.89
980.185	3004.53
980.484	3012.21
980.784	2975.15
981.083	3006.56
981.382	2981.7
981.682	2915.04
981.981	2953.91
982.28	2921.36
982.579	2918.2
982.878	2875.26
983.177	2908.26
983.475	2849.28
983.774	2859.67
984.073	2842.5
984.372	2793.46
984.67	2813.12
984.969	2799.56
985.267	2812.89
985.566	2771.76
985.864	2787.13
986.162	2793.23
986.461	2748.26
986.759	2740.35
987.057	2723.18
987.355	2678.66
987.653	2689.73
987.951	2666.23
988.249	2666.46
988.547	2630.07
988.844	2632.78
989.142	2647.47
989.44	2604.54
989.737	2593.24
990.035	2587.14
990.332	2603.86
990.63	2575.84
990.927	2524.76
991.224	2539
991.521	2544.88
991.819	2501.94
992.116	2507.59
992.413	2476.4
992.71	2487.7
993.006	2487.03
993.303	2449.29
993.6	2440.02
993.897	2459.46
994.193	2427.37
994.49	2421.94
994.787	2397.54
995.083	2411.55
995.379	2425.56
995.676	2358.21
995.972	2359.34
996.268	2367.03
996.565	2340.36
996.861	2320.48
997.157	2307.37
997.453	2287.26
997.749	2287.48
998.044	2260.36
998.34	2302.4
998.636	2273.02
998.932	2263.53
999.227	2242.29
999.523	2204.32
999.818	2214.49
1000.114	2186.69
1000.409	2197.77
1000.704	2204.77
1001	2167.49
1001.295	2186.47
1001.59	2145.34
1001.885	2119.13
1002.18	2093.36
1002.475	2100.82
1002.77	2087.71
1003.065	2071.44
1003.359	2085.68
1003.654	2061.27
1003.949	2043.42
1004.243	2079.35
1004.538	2038.68
1004.832	1993.25
1005.127	1999.35
1005.421	1978.11
1005.715	1989.41
1006.009	1986.25
1006.304	1971.56
1006.598	1939.24
1006.892	1932.69
1007.186	1945.8
1007.48	1905.57
1007.773	1939.24
1008.067	1926.36
1008.361	1872.8
1008.655	1887.27
1008.948	1832.35
1009.242	1854.5
1009.535	1847.27
1009.829	1835.52
1010.122	1840.49
1010.415	1807.27
1010.708	1787.38
1011.001	1795.97
1011.295	1753.94
1011.588	1764.33
1011.881	1738.57
1012.173	1746.48
1012.466	1781.05
1012.759	1710.32
1013.052	1718.23
1013.344	1695.86
1013.637	1687.5
1013.93	1682.3
1014.222	1674.17
1014.514	1660.83
1014.807	1659.7
1015.099	1645.01
1015.391	1653.6
1015.683	1621.29
1015.976	1624
1016.268	1592.13
1016.56	1592.13
1016.851	1567.5
1017.143	1560.72
1017.435	1590.1
1017.727	1563.21
1018.018	1554.17
1018.31	1560.95
1018.602	1539.03
1018.893	1540.61
1019.185	1514.62
1019.476	1515.07
1019.767	1492.47
1020.058	1497.45
1020.35	1503.32
1020.641	1443.44
1020.932	1435.75
1021.223	1425.81
1021.514	1402.53
1021.804	1393.27
1022.095	1407.73
1022.386	1422.42
1022.677	1420.39
1022.967	1400.27
1023.258	1371.57
1023.548	1359.6
1023.839	1340.61
1024.129	1360.5
1024.419	1347.39
1024.709	1332.03
1025	1346.94
1025.29	1318.24
1025.58	1302.65
1025.87	1304.68
1026.16	1285.93
1026.449	1278.92
1026.739	1281.63
1027.029	1261.52
1027.319	1285.47
1027.608	1261.07
1027.898	1232.59
1028.187	1222.43
1028.477	1242.31
1028.766	1214.29
1029.055	1210.67
1029.344	1212.26
1029.634	1215.42
1029.923	1177.45
1030.212	1181.3
1030.501	1198.7
1030.79	1153.27
1031.078	1150.11
1031.367	1175.87
1031.656	1167.96
1031.945	1144.24
1032.233	1122.32
1032.522	1116.89
1032.81	1114.63
1033.099	1108.98
1033.387	1105.37
1033.675	1087.97
1033.963	1082.09
1034.251	1077.34
1034.54	1066.27
1034.828	1088.42
1035.116	1061.75
1035.403	1044.35
1035.691	1040.06
1035.979	1036.89
1036.267	1033.28
1036.554	1009.32
1036.842	1052.94
1037.129	1010.68
1037.417	1015.43
1037.704	988.53
1037.992	985.37
1038.279	980.62
1038.566	958.25
1038.853	958.25
1039.14	958.25
