Data from hue_34_FLMS001491_00043.txt Node
Date: Tue Feb 07 17:25:40 GMT 2017
User: dcchb
Spectrometer: FLMS00149
Trigger mode: 0
Integration Time (sec): 2.000000E-2
Scans to average: 10
Electric dark correction enabled: true
Nonlinearity correction enabled: false
Boxcar width: 0
XAxis mode: Wavelengths
Number of Pixels in Spectrum: 2048
>>>>>Begin Spectral Data<<<<<
341.393	9.12
341.776	9.12
342.16	9.12
342.543	-48.95
342.927	-66.81
343.31	-53.47
343.693	-79.91
344.077	-52.57
344.46	-64.09
344.843	-66.35
345.226	-54.83
345.61	-43.76
345.993	-11.67
346.376	4.6
346.759	-2.85
347.142	33.76
347.525	48.9
347.908	64.72
348.291	78.95
348.674	91.83
349.057	106.75
349.44	122.57
349.823	151.04
350.206	167.09
350.588	210.93
350.971	221.77
351.354	238.27
351.737	234.88
352.119	224.94
352.502	235.78
352.884	279.17
353.267	281.66
353.65	287.53
354.032	286.18
354.414	304.26
354.797	313.52
355.179	356.91
355.562	316.69
355.944	334.99
356.326	342.9
356.709	336.35
357.091	353.97
357.473	356.69
357.855	342.9
358.238	353.52
358.62	349.68
359.002	350.58
359.384	337.93
359.766	338.83
360.148	339.51
360.53	345.84
360.912	316.69
361.294	329.12
361.676	330.7
362.057	340.64
362.439	317.14
362.821	309.23
363.203	324.37
363.584	329.34
363.966	332.51
364.348	339.74
364.729	329.57
365.111	319.85
365.493	316.91
365.874	329.34
366.256	307.65
366.637	321.88
367.019	320.3
367.4	308.78
367.781	327.99
368.163	310.59
368.544	327.53
368.925	318.49
369.306	319.17
369.688	299.74
370.069	323.01
370.45	323.24
370.831	338.38
371.212	294.09
371.593	330.02
371.974	311.04
372.355	318.49
372.736	342.67
373.117	322.56
373.498	321.43
373.879	306.74
374.26	314.43
374.641	319.17
375.021	307.87
375.402	314.2
375.783	331.15
376.163	332.96
376.544	325.73
376.925	343.8
377.305	320.98
377.686	324.6
378.066	334.77
378.447	331.83
378.827	335.44
379.208	341.54
379.588	347.19
379.968	316.91
380.349	351.04
380.729	337.25
381.109	368.89
381.489	352.84
381.87	354.2
382.25	346.52
382.63	327.76
383.01	359.4
383.39	325.73
383.77	335.22
384.15	348.78
384.53	351.49
384.91	356.01
385.29	357.59
385.67	347.87
386.049	372.73
386.429	353.07
386.809	361.66
387.189	371.15
387.568	363.47
387.948	368.89
388.328	372.5
388.707	344.03
389.087	370.24
389.466	387.87
389.846	343.58
390.225	368.21
390.605	366.85
390.984	349.23
391.363	356.46
391.743	369.34
392.122	377.25
392.501	371.37
392.881	373.86
393.26	370.7
393.639	382.22
394.018	361.21
394.397	377.48
394.776	387.87
395.155	389.45
395.534	381.77
395.913	380.19
396.292	383.8
396.671	384.71
397.05	408.21
397.429	390.58
397.808	388.78
398.186	385.16
398.565	391.26
398.944	400.3
399.323	390.81
399.701	406.85
400.08	393.97
400.458	400.07
400.837	424.03
401.215	433.07
401.594	418.38
401.972	420.86
402.351	413.18
402.729	419.06
403.107	424.71
403.486	427.87
403.864	424.25
404.242	407.76
404.62	432.84
404.999	429.23
405.377	435.78
405.755	431.26
406.133	427.64
406.511	441.2
406.889	429.23
407.267	426.51
407.645	439.17
408.023	473.07
408.401	429.45
408.779	441.43
409.156	464.71
409.534	452.73
409.912	461.32
410.29	452.95
410.667	485.5
411.045	455.89
411.422	446.4
411.8	469.45
412.178	482.11
412.555	475.33
412.933	483.24
413.31	490.47
413.687	509
414.065	491.15
414.442	465.84
414.819	502.67
415.197	508.77
415.574	500.18
415.951	514.2
416.328	504.93
416.705	482.56
417.082	516.23
417.46	521.88
417.837	535.44
418.214	522.56
418.591	544.7
418.967	512.84
419.344	533.86
419.721	524.59
420.098	531.82
420.475	545.61
420.852	532.5
421.228	547.19
421.605	534.99
421.982	544.03
422.358	561.65
422.735	546.74
423.111	568.21
423.488	574.98
423.864	549.22
424.241	569.79
424.617	567.08
424.994	594.87
425.37	576.11
425.746	583.8
426.123	577.7
426.499	586.28
426.875	593.74
427.251	594.42
427.627	604.36
428.003	594.65
428.379	633.29
428.756	612.05
429.132	594.19
429.507	630.58
429.883	652.5
430.259	620.41
430.635	641.88
431.011	649.11
431.387	657.02
431.763	676
432.138	664.7
432.514	654.76
432.89	673.74
433.265	675.77
433.641	700.63
434.016	686.17
434.392	673.97
434.767	701.31
435.143	701.08
435.518	699.73
435.894	724.13
436.269	728.2
436.644	712.38
437.02	725.49
437.395	731.36
437.77	737.24
438.145	753.29
438.52	748.54
438.895	759.84
439.271	768.2
439.646	795.09
440.021	790.35
440.395	784.92
440.77	774.3
441.145	786.5
441.52	796.67
441.895	782.21
442.27	800.74
442.645	777.92
443.019	810.68
443.394	814.07
443.769	805.49
444.143	809.78
444.518	862.43
444.892	868.76
445.267	816.79
445.641	835.32
446.016	828.09
446.39	859.05
446.764	839.38
447.139	838.48
447.513	873.28
447.887	878.25
448.262	864.92
448.636	881.87
449.01	884.13
449.384	878.93
449.758	885.03
450.132	895.65
450.506	917.35
450.88	920.96
451.254	927.07
451.628	935.43
452.002	931.59
452.376	952.38
452.75	941.08
453.123	968.65
453.497	968.42
453.871	977.23
454.244	977.23
454.618	1005.48
454.992	1011.13
455.365	1003
455.739	1013.62
456.112	1047.74
456.486	1046.61
456.859	1074.86
457.232	1076.21
457.606	1041.41
457.979	1071.69
458.352	1102.2
458.725	1097.01
459.099	1111.69
459.472	1147.85
459.845	1139.94
460.218	1147.4
460.591	1169.32
460.964	1180.84
461.337	1174.74
461.71	1180.84
462.083	1229.43
462.456	1232.59
462.829	1228.53
463.201	1247.06
463.574	1271.92
463.947	1269.66
464.32	1274.63
464.692	1301.52
465.065	1307.4
465.438	1349.2
465.81	1369.77
466.183	1377.68
466.555	1391.46
466.928	1401.18
467.3	1404.12
467.672	1429.2
468.045	1469.88
468.417	1493.83
468.789	1505.36
469.161	1495.41
469.534	1543.32
469.906	1560.04
470.278	1577.22
470.65	1623.09
471.022	1653.15
471.394	1688.63
471.766	1693.6
472.138	1704.45
472.51	1736.08
472.882	1750.77
473.253	1799.13
473.625	1825.12
473.997	1909.64
474.369	1888.62
474.74	1922.07
475.112	1944.21
475.484	2054.04
475.855	2069.41
476.227	2097.66
476.598	2137.2
476.97	2150.31
477.341	2216.75
477.713	2236.64
478.084	2307.82
478.455	2401.83
478.827	2396.63
479.198	2480.92
479.569	2506.91
479.94	2572.22
480.311	2643.41
480.682	2729.96
481.053	2809.73
481.424	2842.72
481.795	2883.17
482.166	2963.85
482.537	3006.11
482.908	3142.83
483.279	3186.67
483.65	3232.09
484.021	3345.53
484.391	3380.56
484.762	3452.2
485.133	3503.27
485.503	3619.65
485.874	3721.57
486.244	3749.82
486.615	3856.03
486.985	3976.93
487.356	4043.37
487.726	4064.84
488.097	4199.52
488.467	4225.74
488.837	4350.93
489.207	4486.52
489.578	4553.19
489.948	4689.23
490.318	4759.28
490.688	4832.27
491.058	4966.96
491.428	5027.75
491.798	5100.52
492.168	5201.08
492.538	5285.82
492.908	5392.94
493.278	5469.77
493.648	5555.19
494.017	5641.07
494.387	5690.56
494.757	5766.71
495.126	5939.82
495.496	5947.27
495.866	6089.87
496.235	6114.95
496.605	6215.29
496.974	6306.81
497.344	6424.77
497.713	6438.56
498.082	6538.44
498.452	6637.42
498.821	6671.32
499.19	6744.99
499.559	6793.13
499.928	6852.56
500.298	6930.52
500.667	7063.4
501.036	7073.8
501.405	7177.52
501.774	7185.43
502.143	7255.94
502.512	7351.53
502.88	7440.34
503.249	7466.1
503.618	7534.35
503.987	7571.86
504.356	7634.01
504.724	7702.48
505.093	7808.24
505.462	7852.76
505.83	7902.25
506.199	8032.64
506.567	8059.31
506.936	8089.82
507.304	8191.96
507.672	8170.04
508.041	8229.47
508.409	8401.45
508.777	8441.9
509.145	8465.62
509.514	8509.92
509.882	8527.32
510.25	8609.58
510.618	8731.15
510.986	8689.57
511.354	8831.94
511.722	8945.16
512.09	8883.47
512.458	8946.52
512.826	9066.96
513.193	9080.52
513.561	9148.32
513.929	9215.21
514.297	9290.46
514.664	9253.17
515.032	9367.52
515.4	9493.39
515.767	9507.63
516.135	9483.23
516.502	9467.18
516.869	9633.5
517.237	9677.34
517.604	9627.4
517.972	9764.35
518.339	9817.91
518.706	9832.37
519.073	9903.1
519.44	9931.12
519.808	10051.57
520.175	10002.99
520.542	10136.09
520.909	10249.98
521.276	10224.9
521.643	10310.1
522.009	10327.95
522.376	10398.68
522.743	10442.3
523.11	10594.16
523.477	10651.1
523.843	10775.39
524.21	10841.38
524.577	10861.72
524.943	10916.18
525.31	10954.6
525.676	11089.74
526.043	11067.59
526.409	11176.74
526.776	11242.5
527.142	11307.81
527.508	11322.95
527.874	11358.43
528.241	11489.5
528.607	11538.09
528.973	11747.12
529.339	11661.25
529.705	11726.33
530.071	11850.39
530.437	11878.87
530.803	11916.38
531.169	11985.76
531.535	11962.03
531.901	11960.45
532.267	12172.42
532.632	12179.2
532.998	12226.88
533.364	12353.88
533.73	12404.5
534.095	12495.58
534.461	12536.48
534.826	12547.55
535.192	12595.23
535.557	12728.11
535.923	12719.07
536.288	12774.44
536.653	12827.77
537.019	12819.18
537.384	12883.81
537.749	13020.53
538.114	12953.19
538.479	13007.88
538.845	13124.03
539.21	13057.14
539.575	13162.22
539.94	13107.31
540.305	13313.63
540.67	13354.54
541.034	13299.4
541.399	13375.33
541.764	13465.27
542.129	13518.15
542.494	13535.55
542.858	13604.02
543.223	13737.8
543.587	13715.43
543.952	13736.9
544.316	13758.59
544.681	13823.68
545.045	13974.18
545.41	13926.05
545.774	13965.59
546.138	14028.87
546.503	14088.53
546.867	14114.97
547.231	14233.38
547.595	14305.92
547.959	14350.44
548.324	14362.42
548.688	14428.86
549.052	14524
549.416	14499.36
549.779	14519.93
550.143	14565.13
550.507	14664.78
550.871	14665.01
551.235	14644.67
551.599	14726.93
551.962	14863.87
552.326	14908.62
552.689	14970.31
553.053	14937.09
553.417	14990.2
553.78	15068.16
554.143	15122.4
554.507	15166.01
554.87	15264.99
555.234	15406.01
555.597	15335.27
555.96	15354.26
556.323	15546.57
556.686	15427.48
557.05	15618.21
557.413	15577.98
557.776	15567.36
558.139	15755.6
558.502	15649.84
558.865	15739.78
559.228	15921.47
559.59	15880.12
559.953	15883.06
560.316	16171.86
560.679	16131.41
561.041	16278.98
561.404	16337.06
561.767	16318.53
562.129	16412.76
562.492	16520.33
562.854	16453.21
563.217	16498.86
563.579	16515.13
563.941	16708.57
564.304	16739.08
564.666	16808.23
565.028	16904.5
565.39	16841.9
565.753	16912.41
566.115	17001.67
566.477	17105.62
566.839	17070.14
567.201	17188.33
567.563	17264.94
567.925	17333.87
568.287	17412.96
568.648	17452.73
569.01	17538.61
569.372	17647.76
569.734	17615.44
570.095	17824.7
570.457	17808.2
570.819	17797.13
571.18	17859.28
571.542	17984.02
571.903	18086.39
572.265	18183.34
572.626	18210
572.987	18339.26
573.349	18339.26
573.71	18537.68
574.071	18537
574.432	18644.34
574.794	18826.26
575.155	18810.89
575.516	18792.58
575.877	18943.54
576.238	19051.79
576.599	19202.97
576.96	19386.24
577.32	19411.78
577.681	19573.81
578.042	19511.44
578.403	19802.95
578.763	19831.88
579.124	19969.05
579.485	20303.73
579.845	20393.67
580.206	20405.88
580.566	20595.7
580.927	20690.84
581.287	20981.68
581.648	21050.83
582.008	21181.67
582.368	21395.68
582.728	21647.65
583.089	21703.02
583.449	21818.27
583.809	22145.27
584.169	22320.85
584.529	22339.84
584.889	22804.23
585.249	22803.78
585.609	22938.46
585.969	23293.03
586.329	23499.81
586.688	23755.84
587.048	23943.64
587.408	24090.3
587.768	24347.92
588.127	24541.59
588.487	24635.82
588.846	25117.84
589.206	25181.34
589.565	25485.06
589.925	25796.92
590.284	26033.75
590.643	26287.08
591.003	26524.81
591.362	26770.91
591.721	27016.78
592.08	27172.25
592.44	27507.16
592.799	27644.56
593.158	27872.12
593.517	28237.31
593.876	28401.82
594.235	28602.27
594.593	28876.39
594.952	29137.62
595.311	29292.2
595.67	29613.77
596.029	30113.19
596.387	30264.15
596.746	30520.19
597.104	30654.87
597.463	30898.26
597.822	31163.79
598.18	31232.71
598.538	31356.77
598.897	31899.13
599.255	32017.32
599.613	32438.33
599.972	32442.85
600.33	32769.84
600.688	32853.91
601.046	33232.88
601.404	33535.7
601.762	33652.76
602.12	33936.14
602.478	33975.69
602.836	34258.62
603.194	34321.22
603.552	34587.42
603.91	34665.16
604.268	35026.28
604.625	35069.22
604.983	35363
605.341	35430.57
605.698	35671.01
606.056	36014.28
606.413	36052.7
606.771	36227.83
607.128	36550.99
607.485	36512.12
607.843	36642.29
608.2	36957.76
608.557	37219.22
608.914	37133.57
609.272	37501.25
609.629	37668.92
609.986	37915.47
610.343	37863.72
610.7	38382.58
611.057	38307.33
611.414	38434.1
611.771	38530.37
612.127	38932.85
612.484	38937.37
612.841	39094.2
613.198	39140.52
613.554	39198.83
613.911	39522.21
614.267	39603.34
614.624	39749.1
614.98	39919.26
615.337	40161.51
615.693	40023.44
616.05	40197.9
616.406	40513.14
616.762	40343.43
617.118	40566.93
617.475	40563.99
617.831	40861.84
618.187	40976.18
618.543	40912.91
618.899	41352.22
619.255	41246.46
619.611	41343.63
619.967	41482.84
620.323	41573.91
620.678	41566.68
621.034	41589.27
621.39	41666.56
621.746	41547.01
622.101	42051.41
622.457	41796.27
622.812	42102.25
623.168	42227.22
623.523	42074.01
623.879	42285.3
624.234	41961.92
624.589	42318.97
624.945	42420.89
625.3	42495.01
625.655	42480.78
626.01	42613.88
626.365	42575.24
626.72	42522.36
627.075	42563.49
627.43	42703.14
627.785	42492.07
628.14	42775.23
628.495	42801.45
628.85	42800.54
629.205	42584.73
629.559	42983.59
629.914	42813.65
630.269	42941.33
630.623	42809.58
630.978	42702.24
631.332	42816.36
631.687	43076.47
632.041	42780.43
632.396	43033.08
632.75	42880.77
633.104	42909.92
633.459	42867.21
633.813	42789.92
634.167	42862.46
634.521	42840.99
634.875	42940.2
635.229	42748.34
635.583	42777.72
635.937	42782.46
636.291	42749.02
636.645	42808.22
636.999	42589.02
637.352	42847.77
637.706	42669.25
638.06	42842.8
638.413	42729.81
638.767	42672.64
639.121	42762.12
639.474	42635.57
639.828	42712.63
640.181	42705.63
640.534	42683.26
640.888	42523.94
641.241	42337.5
641.594	42580.66
641.947	42559.42
642.301	42418.86
642.654	42515.8
643.007	42613.43
643.36	42478.97
643.713	42448.69
644.066	42455.24
644.419	42360.33
644.771	42067.68
645.124	41747.91
645.477	41631.76
645.83	41505.66
646.182	41268.15
646.535	41279.23
646.888	41398.54
647.24	41069.51
647.593	41398.54
647.945	41277.19
648.298	41067.25
648.65	40996.75
649.002	40936.64
649.355	41058.44
649.707	41117.87
650.059	41311.99
650.411	41812.09
650.763	41697.29
651.115	42205.98
651.467	42081.46
651.819	42007.12
652.171	41951.3
652.523	41905.88
652.875	41824.97
653.227	41806.9
653.578	41958.08
653.93	41910.62
654.282	41710.63
654.633	41556.51
654.985	41776.84
655.337	41735.03
655.688	41659.78
656.039	41811.41
656.391	41652.77
656.742	41464.98
657.094	41628.14
657.445	41734.58
657.796	41656.62
658.147	41632.21
658.498	41563.74
658.849	41682.6
659.2	41594.92
659.551	41537.75
659.902	41670.63
660.253	41540.46
660.604	41498.65
660.955	41436.06
661.306	41541.37
661.656	41474.47
662.007	41551.53
662.358	41377.3
662.708	41499.11
663.059	41423.63
663.409	41184.31
663.76	41415.27
664.11	41357.19
664.461	41477.86
664.811	41483.97
665.161	41329.17
665.511	41246.91
665.862	41347.25
666.212	41455.27
666.562	41276.51
666.912	41205.1
667.262	41183.86
667.612	41329.39
667.962	41311.77
668.312	41176.18
668.662	41411.88
669.011	41204.43
669.361	41269.73
669.711	41279.68
670.06	41214.82
670.41	41105.67
670.76	41064.32
671.109	41320.58
671.459	41329.39
671.808	41105.9
672.157	41283.29
672.507	41022.28
672.856	41048.95
673.205	41031.77
673.554	41242.62
673.904	40952.23
674.253	41310.41
674.602	41114.71
674.951	40585.46
675.3	40284.22
675.649	41010.53
675.998	40849.18
676.346	40907.26
676.695	41101.15
677.044	40729.86
677.393	40797.43
677.741	40844.66
678.09	40731.22
678.438	40722.86
678.787	40878.56
679.135	40767.83
679.484	40631.78
679.832	40644.67
680.181	40428.17
680.529	40679.24
680.877	40498.23
681.225	40333.71
681.573	40484.44
681.922	40327.39
682.27	40260.72
682.618	40140.27
682.966	40153.38
683.314	40173.72
683.661	40026.83
684.009	39930.11
684.357	39849.66
684.705	39674.97
685.053	39902.76
685.4	39780.06
685.748	39625.71
686.095	39586.39
686.443	39543.45
686.79	39446.28
687.138	39321.31
687.485	39456.9
687.832	39210.58
688.18	39298.03
688.527	39227.98
688.874	39134.87
689.221	38984.37
689.568	39008.32
689.915	38915.45
690.262	38900.53
690.609	38827.09
690.956	38525.85
691.303	38639.07
691.65	38541.9
691.997	38452.86
692.344	38321.11
692.69	38298.51
693.037	38194.33
693.383	37998.63
693.73	38150.95
694.077	37875.93
694.423	37934
694.769	37728.13
695.116	37781.01
695.462	37645.87
695.808	37491.3
696.155	37597.06
696.501	37247.69
696.847	37163.4
697.193	37002.5
697.539	37087.25
697.885	36911.88
698.231	36662.62
698.577	36727.71
698.923	36788.04
699.269	36479.13
699.614	36461.72
699.96	36315.74
700.306	36394.38
700.651	36143.77
700.997	36055.41
701.342	36002.08
701.688	35924.79
702.033	35819.71
702.379	35856.54
702.724	35727.05
703.069	35790.1
703.415	35450.45
703.76	35564.35
704.105	35436.44
704.45	35435.76
704.795	35150.57
705.14	35114.19
705.485	35045.26
705.83	34902.22
706.175	34951.26
706.52	34750.81
706.865	34679.85
707.209	34746.06
707.554	34555.11
707.899	34644.82
708.243	34384.49
708.588	34342.68
708.932	34140.66
709.277	34113.31
709.621	34169.81
709.966	33853.66
710.31	34108.79
710.654	33729.14
710.998	33756.26
711.342	33646.66
711.687	33651.4
712.031	33540.22
712.375	33379.77
712.719	33471.3
713.063	33471.75
713.407	33596.26
713.75	33236.95
714.094	33327.34
714.438	33081.25
714.782	33302.71
715.125	33045.09
715.469	33066.11
715.812	32961.03
716.156	32782.95
716.499	32777.75
716.843	32872.44
717.186	32549.06
717.53	32663.63
717.873	32699.34
718.216	32541.6
718.559	32413.02
718.902	32267.48
719.246	32358.56
719.589	32228.84
719.932	32061.84
720.275	32041.5
720.617	32121.05
720.96	32083.31
721.303	31997.21
721.646	31994.5
721.989	31756.76
722.331	31895.97
722.674	31914.05
723.016	31833.6
723.359	31745.69
723.701	31776.42
724.044	31489.88
724.386	31476.77
724.729	31512.7
725.071	31446.72
725.413	31554.51
725.755	31337.79
726.097	31316.55
726.439	31161.53
726.782	31102.09
727.124	31304.35
727.465	31121.07
727.807	30994.3
728.149	30998.82
728.491	30937.35
728.833	30893.74
729.175	30839.5
729.516	30762.44
729.858	30758.6
730.199	30761.31
730.541	30697.13
730.882	30699.16
731.224	30715.44
731.565	30386.4
731.906	30560.19
732.248	30510.69
732.589	30362
732.93	30299.4
733.271	30266.86
733.612	30391.6
733.953	30367.42
734.294	30249.91
734.635	30142.12
734.976	30290.14
735.317	30093.98
735.658	30023.25
735.999	30003.14
736.339	29902.8
736.68	30104.83
737.021	29905.29
737.361	29689.7
737.702	29911.16
738.042	29643.37
738.383	29825.06
738.723	29714.78
739.063	29656.48
739.404	29638.85
739.744	29611.06
740.084	29407.67
740.424	29512.08
740.764	29443.15
741.104	29608.12
741.444	29258.3
741.784	29292.2
742.124	29345.75
742.464	29175.81
742.804	29282.03
743.143	29163.61
743.483	29175.81
743.823	29001.36
744.162	29009.72
744.502	29185.53
744.841	28878.2
745.181	29094.24
745.52	28959.55
745.86	28901.25
746.199	28796.39
746.538	28814.24
746.877	28924.97
747.216	28770.18
747.556	28659.44
747.895	28775.6
748.234	28541.93
748.573	28490.41
748.911	28532.89
749.25	28426.91
749.589	28327.25
749.928	28425.78
750.267	28466.45
750.605	28262.39
750.944	28233.47
751.283	28195.95
751.621	28232.34
751.96	28063.3
752.298	27986.02
752.636	28030.08
752.975	27934.72
753.313	27834.83
753.651	27989.41
753.989	27702.63
754.327	27749.64
754.666	27558.23
755.004	27580.6
755.342	27727.49
755.679	27557.78
756.017	27408.18
756.355	27562.3
756.693	27365.92
757.031	27507.61
757.368	27294.73
757.706	27086.15
758.044	27152.59
758.381	27120.05
758.719	26975.87
759.056	27027.85
759.394	26995.31
759.731	26770.68
760.068	26797.8
760.405	26688.42
760.743	26495.43
761.08	26653.85
761.417	26407.3
761.754	26451.14
762.091	26355.55
762.428	26281.43
762.765	26068.1
763.102	26133.18
763.438	26024.49
763.775	25932.74
764.112	25970.25
764.449	25929.35
764.785	25810.03
765.122	25714.21
765.458	25497.49
765.795	25541.79
766.131	25507.66
766.467	25376.59
766.804	25285.75
767.14	25258.63
767.476	25287.56
767.812	25029.03
768.148	25066.54
768.485	24960.11
768.821	24814.35
769.157	24794.46
769.492	24789.94
769.828	24754.46
770.164	24484.64
770.5	24563.51
770.836	24416.39
771.171	24247.36
771.507	24221.59
771.842	24165.1
772.178	24081.49
772.513	23893.92
772.849	23928.27
773.184	23716.3
773.519	23787.03
773.855	23630.42
774.19	23657.99
774.525	23471.56
774.86	23521.27
775.195	23343.2
775.53	23263.2
775.865	23095.3
776.2	23028.63
776.535	22804.46
776.87	22909.99
777.205	22810.11
777.539	22570.11
777.874	22665.25
778.209	22427.97
778.543	22435.2
778.878	22319.27
779.212	22345.71
779.547	22050.58
779.881	22210.12
780.215	22088.09
780.55	22033.4
780.884	21882.67
781.218	21881.54
781.552	21859.4
781.886	21712.51
782.22	21643.13
782.554	21549.12
782.888	21381.67
783.222	21241.79
783.556	21369.92
783.889	21174.67
784.223	21043.15
784.557	21032.98
784.89	21064.62
785.224	20798.86
785.557	20758.18
785.891	20774
786.224	20595.93
786.558	20690.61
786.891	20432.99
787.224	20412.88
787.557	20359.32
787.891	20467.8
788.224	20306.22
788.557	20291.98
788.89	20244.52
789.223	20185.99
789.556	20009.28
789.888	20022.38
790.221	19824.65
790.554	19709.4
790.887	19729.96
791.219	19709.85
791.552	19609.74
791.884	19525.67
792.217	19359.8
792.549	19286.58
792.882	19310.76
793.214	19252.01
793.546	19250.65
793.879	19104.89
794.211	18923.65
794.543	19070.32
794.875	18832.58
795.207	18965.01
795.539	18850.66
795.871	18871.45
796.203	18664
796.535	18597.11
796.867	18651.12
797.198	18423.78
797.53	18478.02
797.862	18345.14
798.193	18367.96
798.525	18272.15
798.856	18232.15
799.188	18092.26
799.519	17917.58
799.85	18005.94
800.182	17865.6
800.513	17947.41
800.844	17714.2
801.175	17898.6
801.506	17811.37
801.837	17712.61
802.168	17777.92
802.499	17578.15
802.83	17526.86
803.161	17518.27
803.491	17502.9
803.822	17428.78
804.153	17352.17
804.483	17150.14
804.814	17153.76
805.145	17069.92
805.475	17128.45
805.805	17076.47
806.136	17042.8
806.466	17054.1
806.796	16958.51
807.126	16802.13
807.457	16824.73
807.787	16820.89
808.117	16650.72
808.447	16709.7
808.777	16706.54
809.107	16623.15
809.436	16580.44
809.766	16490.5
810.096	16506.77
810.426	16379.09
810.755	16496.15
811.085	16411.4
811.414	16356.49
811.744	16238.53
812.073	16250.73
812.403	16139.55
812.732	16119.89
813.061	16098.64
813.39	16080.57
813.719	15977.29
814.049	16013.67
814.378	16026.1
814.707	15995.37
815.036	15914.92
815.365	15736.62
815.693	15654.59
816.022	15698.66
816.351	15639
816.68	15514.25
817.008	15637.64
817.337	15451.66
817.665	15444.42
817.994	15463.41
818.322	15420.24
818.651	15259.34
818.979	15248.05
819.307	15264.99
819.636	15206.01
819.964	15130.76
820.292	15258.67
820.62	15225.67
820.948	15123.53
821.276	15225.9
821.604	15062.06
821.932	15149.06
822.259	15203.98
822.587	15156.97
822.915	15131.89
823.243	15113.13
823.57	15159.01
823.898	15018.67
824.225	15019.35
824.553	14935.06
824.88	15045.34
825.207	15110.87
825.535	15050.31
825.862	15058.9
826.189	15076.52
826.516	15086.47
826.843	15068.62
827.17	15059.8
827.497	15026.58
827.824	15041.72
828.151	15063.64
828.478	14980.26
828.805	15083.08
829.131	14979.35
829.458	15038.11
829.785	15047.82
830.111	14942.06
830.438	15090.31
830.764	14980.71
831.09	15038.56
831.417	15003.31
831.743	15075.62
832.069	15009.41
832.395	14987.94
832.722	15025.23
833.048	14926.7
833.374	14882.86
833.7	14932.12
834.026	14878.56
834.351	14957.43
834.677	14915.62
835.003	14862.29
835.329	14866.81
835.654	14790.88
835.98	14803.09
836.306	14827.94
836.631	14794.27
836.956	14728.29
837.282	14641.28
837.607	14626.82
837.932	14689.64
838.258	14601.51
838.583	14679.25
838.908	14600.38
839.233	14552.7
839.558	14486.03
839.883	14495.75
840.208	14449.87
840.533	14508.86
840.858	14467.95
841.182	14339.82
841.507	14353.15
841.832	14175.31
842.156	14281.29
842.481	14324.45
842.805	14272.7
843.13	14204.91
843.454	14180.05
843.778	14055.53
844.103	14109.77
844.427	14095.99
844.751	14055.53
845.075	14029.32
845.399	13904.8
845.723	13881.75
846.047	13851.25
846.371	13734.86
846.695	13746.39
847.019	13637.47
847.343	13641.53
847.666	13578.71
847.99	13490.13
848.313	13425.04
848.637	13318.83
848.96	13386.63
849.284	13410.58
849.607	13297.14
849.931	13198.61
850.254	13159.51
850.577	13094.66
850.9	12986.18
851.223	13054.88
851.546	12940.31
851.869	12806.98
852.192	12872.51
852.515	12719.75
852.838	12649.47
853.161	12719.3
853.483	12660.09
853.806	12640.88
854.129	12570.6
854.451	12470.49
854.774	12450.38
855.096	12378.52
855.419	12433.66
855.741	12360.89
856.063	12377.61
856.385	12326.54
856.708	12322.02
857.03	12291.74
857.352	12166.32
857.674	12115.02
857.996	12099.2
858.318	11996.38
858.64	12059.65
858.961	12047.45
859.283	11883.84
859.605	11872.31
859.926	11970.62
860.248	11829.83
860.57	11823.05
860.891	11820.34
861.212	11720.91
861.534	11736.95
861.855	11698.99
862.176	11717.29
862.498	11616.28
862.819	11652.66
863.14	11680.68
863.461	11604.75
863.782	11551.42
864.103	11595.26
864.424	11506
864.745	11528.37
865.065	11498.54
865.386	11509.39
865.707	11391.65
866.027	11432.78
866.348	11348.94
866.668	11395.72
866.989	11328.6
867.309	11308.49
867.63	11361.59
867.95	11251.09
868.27	11233.24
868.59	11209.06
868.91	11224.87
869.23	11245.89
869.55	11117.08
869.87	11235.27
870.19	11160.92
870.51	11204.08
870.83	11170.41
871.15	11098.55
871.469	11094.71
871.789	11078.21
872.109	11057.87
872.428	10974.94
872.748	11059.45
873.067	10941.94
873.386	11036.63
873.706	10990.98
874.025	10909.4
874.344	10967.71
874.663	10972.68
874.982	10890.42
875.301	10901.27
875.62	10833.47
875.939	10784.89
876.258	10852.23
876.577	10778.33
876.896	10739.24
877.214	10723.42
877.533	10722.74
877.852	10765.68
878.17	10734.72
878.489	10712.57
878.807	10694.49
879.125	10662.86
879.444	10665.12
879.762	10660.37
880.08	10594.83
880.398	10627.38
880.716	10583.08
881.034	10470.32
881.352	10483.2
881.67	10499.92
881.988	10481.17
882.306	10433.26
882.624	10374.5
882.941	10371.11
883.259	10368.4
883.577	10347.38
883.894	10299.47
884.212	10302.19
884.529	10246.14
884.846	10211.57
885.164	10209.99
885.481	10165.02
885.798	10175.41
886.115	10107.84
886.432	10140.84
886.75	10096.77
887.067	10118.01
887.383	10010.44
887.7	10126.82
888.017	9934.96
888.334	9976.32
888.651	9928.41
888.967	9911.24
889.284	9954.85
889.6	9926.83
889.917	9755.08
890.233	9809.77
890.55	9769.32
890.866	9778.58
891.182	9755.99
891.498	9716.44
891.815	9711.24
892.131	9691.58
892.447	9595.99
892.763	9585.37
893.079	9639.15
893.395	9554.86
893.71	9567.29
894.026	9469.44
894.342	9476.22
894.657	9370.01
894.973	9428.54
895.289	9399.39
895.604	9436.67
895.92	9287.75
896.235	9245.72
896.55	9343.79
896.865	9233.06
897.181	9187.19
897.496	9178.83
897.811	9099.05
898.126	9109.45
898.441	9039.4
898.756	8980.64
899.071	8978.15
899.386	8988.55
899.7	8962.33
900.015	8885.27
900.33	8844.15
900.644	8897.93
900.959	8818.61
901.273	8813.86
901.588	8757.59
901.902	8771.61
902.216	8671.5
902.531	8687.09
902.845	8619.29
903.159	8576.13
903.473	8510.82
903.787	8486.19
904.101	8498.17
904.415	8497.04
904.729	8453.42
905.042	8382.24
905.356	8385.63
905.67	8353.31
905.984	8371.62
906.297	8342.24
906.611	8302.01
906.924	8262.69
907.237	8196.25
907.551	8165.07
907.864	8127.1
908.177	8138.63
908.491	8116.71
908.804	8027.9
909.117	8037.39
909.43	7957.84
909.743	7905.41
910.056	7933.44
910.368	7912.19
910.681	7831.52
910.994	7798.98
911.307	7806.21
911.619	7652.09
911.932	7721.24
912.244	7668.36
912.557	7629.49
912.869	7598.76
913.181	7568.7
913.494	7568.02
913.806	7488.25
914.118	7453.45
914.43	7437.18
914.742	7434.47
915.054	7324.41
915.366	7383.85
915.678	7352.89
915.99	7329.61
916.302	7232.66
916.613	7225.21
916.925	7229.73
917.236	7208.93
917.548	7159.9
917.859	7120.58
918.171	7118.77
918.482	7065.66
918.794	6997.87
919.105	7013.23
919.416	6902.05
919.727	6969.39
920.038	6879.23
920.349	6834.26
920.66	6888.27
920.971	6875.38
921.282	6836.29
921.593	6784.99
921.903	6768.04
922.214	6690.98
922.525	6738.21
922.835	6682.62
923.146	6659.12
923.456	6608.05
923.767	6565.79
924.077	6568.27
924.387	6532.57
924.697	6417.77
925.008	6443.53
925.318	6411.44
925.628	6398.79
925.938	6384.78
926.248	6318.56
926.558	6325.34
926.867	6330.09
927.177	6298.68
927.487	6230.66
927.796	6215.29
928.106	6222.97
928.416	6196.76
928.725	6185.46
929.034	6114.95
929.344	6098.68
929.653	6107.95
929.962	6074.28
930.271	6015.29
930.581	5971.23
930.89	5922.19
931.199	5903.66
931.508	5863.66
931.817	5911.79
932.125	5865.69
932.434	5826.37
932.743	5762.65
933.051	5743.89
933.36	5748.86
933.669	5750.44
933.977	5693.49
934.286	5677.9
934.594	5659.14
934.902	5617.34
935.21	5595.42
935.519	5599.49
935.827	5585.47
936.135	5529.43
936.443	5502.09
936.751	5471.13
937.059	5518.36
937.367	5475.42
937.674	5452.37
937.982	5402.43
938.29	5403.78
938.597	5424.12
938.905	5358.14
939.213	5253.96
939.52	5319.27
939.827	5274.75
940.135	5252.15
940.442	5183.23
940.749	5219.61
941.056	5184.13
941.363	5129.89
941.67	5165.37
941.977	5141.87
942.284	5126.73
942.591	5041.53
942.898	5041.76
943.205	5026.62
943.511	5014.64
943.818	5018.48
944.125	4937.81
944.431	4947.53
944.738	4912.27
945.044	4879.28
945.35	4894.65
945.657	4859.17
945.963	4824.59
946.269	4804.03
946.575	4807.42
946.881	4776.91
947.187	4750.69
947.493	4726.74
947.799	4693.07
948.105	4719.06
948.41	4691.03
948.716	4658.72
949.022	4622.34
949.327	4574.43
949.633	4558.83
949.938	4569.23
950.244	4612.62
950.549	4510.93
950.854	4535.78
951.16	4467.09
951.465	4498.5
951.77	4477.03
952.075	4458.72
952.38	4407.88
952.685	4383.25
952.99	4362.68
953.294	4353.19
953.599	4303.02
953.904	4333.53
954.209	4274.1
954.513	4285.85
954.818	4225.06
955.122	4257.15
955.426	4210.6
955.731	4204.72
956.035	4157.72
956.339	4183.93
956.643	4110.94
956.948	4126.76
957.252	4140.99
957.556	4104.84
957.86	4108
958.163	4059.87
958.467	4031.17
958.771	4032.3
959.075	4037.27
959.378	3977.61
959.682	4002.92
959.985	3994.56
960.289	3953.2
960.592	3928.34
960.896	3931.73
961.199	3915.46
961.502	3888.8
961.805	3854.22
962.108	3836.14
962.411	3849.48
962.714	3817.39
963.017	3797.5
963.32	3795.92
963.623	3771.06
963.926	3754.11
964.228	3706.88
964.531	3668.01
964.833	3709.14
965.136	3674.56
965.438	3643.6
965.741	3619.88
966.043	3624.17
966.345	3620.78
966.648	3554.57
966.95	3567.9
967.252	3562.93
967.554	3534
967.856	3513.44
968.158	3509.82
968.46	3523.38
968.761	3471.41
969.063	3478.41
969.365	3471.41
969.666	3438.86
969.968	3422.59
970.269	3410.84
970.571	3416.04
970.872	3378.53
971.174	3361.8
971.475	3354.8
971.776	3315.93
972.077	3304.4
972.378	3333.1
972.679	3287.46
972.98	3290.17
973.281	3277.51
973.582	3234.12
973.883	3242.03
974.183	3244.07
974.484	3214.69
974.785	3199.32
975.085	3187.57
975.386	3197.74
975.686	3166.78
975.986	3113.22
976.287	3110.06
976.587	3098.53
976.887	3092.43
977.187	3083.17
977.487	3114.35
977.787	3081.81
978.087	3043.39
978.387	3036.62
978.687	3021.02
978.987	3041.81
979.286	2957.3
979.586	2961.14
979.885	2947.35
980.185	2932.44
980.484	2964.75
980.784	2912.55
981.083	2862.38
981.382	2930.4
981.682	2876.85
981.981	2867.58
982.28	2857.86
982.579	2869.39
982.878	2828.03
983.177	2842.5
983.475	2808.6
983.774	2797.53
984.073	2778.32
984.372	2783.06
984.67	2773.8
984.969	2751.65
985.267	2753.23
985.566	2708.04
985.864	2710.3
986.162	2716.17
986.461	2695.61
986.759	2693.8
987.057	2638.66
987.355	2616.06
987.653	2632.33
987.951	2609.73
988.249	2630.52
988.547	2592.33
988.844	2597.3
989.142	2609.96
989.44	2538.1
989.737	2559.11
990.035	2530.41
990.332	2524.09
990.63	2522.05
990.927	2520.92
991.224	2489.28
991.521	2483.64
991.819	2483.18
992.116	2468.49
992.413	2446.35
992.71	2445.22
993.006	2449.06
993.303	2406.58
993.6	2407.48
993.897	2372.9
994.193	2404.99
994.49	2400.93
994.787	2391.89
995.083	2355.96
995.379	2331.55
995.676	2313.92
995.972	2312.79
996.268	2315.28
996.565	2270.76
996.861	2301.49
997.157	2280.25
997.453	2252.23
997.749	2249.52
998.044	2242.29
998.34	2211.33
998.636	2220.14
998.932	2175.62
999.227	2171.33
999.523	2204.77
999.818	2201.61
1000.114	2148.5
1000.409	2147.15
1000.704	2147.6
1001	2145.34
1001.295	2130.2
1001.59	2099.24
1001.885	2092.01
1002.18	2066.25
1002.475	2083.42
1002.77	2048.39
1003.065	2020.14
1003.359	2021.27
1003.654	1999.35
1003.949	2014.95
1004.243	2013.59
1004.538	1981.5
1004.832	1982.18
1005.127	1978.79
1005.421	1965.91
1005.715	1966.36
1006.009	1912.35
1006.304	1932.01
1006.598	1888.17
1006.892	1914.84
1007.186	1865.12
1007.48	1856.76
1007.773	1862.86
1008.067	1887.04
1008.361	1826.48
1008.655	1830.77
1008.948	1848.62
1009.242	1830.77
1009.535	1798.46
1009.829	1800.49
1010.122	1790.09
1010.415	1773.37
1010.708	1778.57
1011.001	1749.42
1011.295	1787.38
1011.588	1771.79
1011.881	1745.8
1012.173	1705.8
1012.466	1717.1
1012.759	1685.01
1013.052	1690.44
1013.344	1688.4
1013.637	1677.33
1013.93	1654.5
1014.222	1636.2
1014.514	1676.2
1014.807	1661.96
1015.099	1634.84
1015.391	1614.51
1015.683	1596.65
1015.976	1652.24
1016.268	1615.64
1016.56	1586.48
1016.851	1559.59
1017.143	1558.24
1017.435	1556.65
1017.727	1540.84
1018.018	1562.53
1018.31	1528.63
1018.602	1505.81
1018.893	1513.27
1019.185	1501.74
1019.476	1473.94
1019.767	1462.87
1020.058	1459.03
1020.35	1432.59
1020.641	1443.44
1020.932	1431.69
1021.223	1427.17
1021.514	1394.85
1021.804	1412.7
1022.095	1380.61
1022.386	1399.6
1022.677	1377.45
1022.967	1410.44
1023.258	1380.39
1023.548	1369.99
1023.839	1347.85
1024.129	1343.55
1024.419	1354.85
1024.709	1324.8
1025	1317.79
1025.29	1286.83
1025.58	1300.16
1025.87	1274.4
1026.16	1301.07
1026.449	1280.73
1026.739	1260.39
1027.029	1254.29
1027.319	1254.52
1027.608	1240.73
1027.898	1209.77
1028.187	1212.71
1028.477	1219.04
1028.766	1204.35
1029.055	1167.06
1029.344	1201.86
1029.634	1216.55
1029.923	1179.04
1030.212	1153.27
1030.501	1133.39
1030.79	1132.94
1031.078	1144.91
1031.367	1133.16
1031.656	1146.5
1031.945	1137.46
1032.233	1109.21
1032.522	1108.08
1032.81	1100.17
1033.099	1111.02
1033.387	1094.07
1033.675	1077.12
1033.963	1072.82
1034.251	1050.68
1034.54	1027.18
1034.828	1038.25
1035.116	1069.89
1035.403	1007.52
1035.691	1049.1
1035.979	1042.32
1036.267	1019.49
1036.554	1015.43
1036.842	993.96
1037.129	1023.33
1037.417	1024.92
1037.704	1007.74
1037.992	991.25
1038.279	978.82
1038.566	964.58
1038.853	964.58
1039.14	964.58
