Data from hue_330_FLMS001491_29.txt Node
Date: Mon Feb 06 15:45:11 GMT 2017
User: dcchb
Spectrometer: FLMS00149
Trigger mode: 0
Integration Time (sec): 2.000000E-2
Scans to average: 10
Electric dark correction enabled: true
Nonlinearity correction enabled: false
Boxcar width: 0
XAxis mode: Wavelengths
Number of Pixels in Spectrum: 2048
>>>>>Begin Spectral Data<<<<<
341.393	-37.47
341.776	-37.47
342.16	-37.47
342.543	-58.26
342.927	-71.59
343.31	-64.81
343.693	-72.72
344.077	-60.75
344.46	-55.78
344.843	-43.8
345.226	-56.68
345.61	-22.1
345.993	-10.13
346.376	-31.37
346.759	23.77
347.142	15.64
347.525	45.69
347.908	62.19
348.291	81.85
348.674	81.85
349.057	107.16
349.44	121.62
349.823	138.57
350.206	158.68
350.588	191.9
350.971	193.48
351.354	238.45
351.737	240.94
352.119	230.54
352.502	256.76
352.884	278.45
353.267	278.91
353.65	286.14
354.032	281.84
354.414	308.51
354.797	304.67
355.179	311.22
355.562	305.57
355.944	323.42
356.326	331.33
356.709	340.6
357.091	336.3
357.473	350.09
357.855	354.84
358.238	352.35
358.62	320.03
359.002	335.63
359.384	335.63
359.766	332.46
360.148	334.27
360.53	334.95
360.912	307.15
361.294	317.32
361.676	311.9
362.057	328.62
362.439	313.93
362.821	342.86
363.203	327.27
363.584	331.33
363.966	303.09
364.348	308.51
364.729	320.26
365.111	317.55
365.493	309.86
365.874	326.59
366.256	298.11
366.637	298.57
367.019	326.14
367.4	305.8
367.781	307.38
368.163	304.89
368.544	326.36
368.925	307.6
369.306	317.32
369.688	306.7
370.069	323.2
370.45	327.94
370.831	317.55
371.212	302.18
371.593	304.67
371.974	313.48
372.355	310.54
372.736	288.62
373.117	305.8
373.498	315.97
373.879	298.79
374.26	323.65
374.641	310.54
375.021	312.8
375.402	302.41
375.783	334.5
376.163	327.49
376.544	327.72
376.925	315.74
377.305	315.74
377.686	306.7
378.066	316.19
378.447	313.93
378.827	313.03
379.208	329.98
379.588	323.42
379.968	327.49
380.349	324.1
380.729	336.08
381.109	315.74
381.489	330.88
381.87	324.55
382.25	324.78
382.63	334.27
383.01	342.63
383.39	328.62
383.77	338.11
384.15	325.01
384.53	312.12
384.91	338.56
385.29	324.33
385.67	345.34
386.049	355.51
386.429	360.26
386.809	358.45
387.189	361.61
387.568	339.69
387.948	354.84
388.328	328.17
388.707	352.58
389.087	355.74
389.466	367.49
389.846	346.7
390.225	366.36
390.605	343.08
390.984	334.72
391.363	343.08
391.743	373.59
392.122	360.48
392.501	353.48
392.881	362.74
393.26	367.04
393.639	373.59
394.018	372.69
394.397	352.8
394.776	359.13
395.155	375.17
395.534	383.54
395.913	379.47
396.292	368.85
396.671	372.91
397.05	383.08
397.429	385.12
397.808	362.97
398.186	375.17
398.565	382.63
398.944	382.41
399.323	383.99
399.701	370.43
400.08	404.33
400.458	374.72
400.837	411.33
401.215	397.77
401.594	401.61
401.972	388.96
402.351	398.68
402.729	394.38
403.107	394.61
403.486	412.91
403.864	410.43
404.242	396.42
404.62	417.21
404.999	424.66
405.377	426.7
405.755	405
406.133	426.7
406.511	416.98
406.889	426.02
407.267	434.38
407.645	431.44
408.023	435.74
408.401	427.83
408.779	457.21
409.156	471.67
409.534	437.77
409.912	449.52
410.29	466.24
410.667	455.62
411.045	490.42
411.422	471.67
411.8	471.22
412.178	499.69
412.555	492.23
412.933	492.91
413.31	499.69
413.687	498.11
414.065	494.94
414.442	494.72
414.819	522.74
415.197	533.14
415.574	538.33
415.951	523.42
416.328	550.31
416.705	532.23
417.082	554.15
417.46	569.74
417.837	550.54
418.214	566.81
418.591	558.67
418.967	576.52
419.344	579.69
419.721	604.32
420.098	609.07
420.475	590.99
420.852	630.31
421.228	596.64
421.605	614.72
421.982	617.43
422.358	632.57
422.735	653.13
423.111	635.73
423.488	646.13
423.864	662.4
424.241	686.8
424.617	690.19
424.994	656.97
425.37	699.23
425.746	671.66
426.123	680.48
426.499	666.24
426.875	714.37
427.251	714.37
427.627	744.66
428.003	738.55
428.379	712.79
428.756	749.4
429.132	760.47
429.507	773.58
429.883	764.09
430.259	765.45
430.635	773.13
431.011	774.71
431.387	806.12
431.763	809.96
432.138	811.55
432.514	815.84
432.89	831.88
433.265	827.59
433.641	845.9
434.016	840.25
434.392	839.79
434.767	882.28
435.143	868.95
435.518	863.75
435.894	885.67
436.269	904.2
436.644	915.05
437.02	906.91
437.395	920.92
437.77	934.93
438.145	939.45
438.52	946.01
438.895	960.92
439.271	964.76
439.646	964.08
440.021	990.52
440.395	979.68
440.77	965.21
441.145	963.86
441.52	1020.35
441.895	986.46
442.27	1020.35
442.645	1003.41
443.019	1014.48
443.394	1019.45
443.769	1022.84
444.143	1005.89
444.518	1043.63
444.892	1037.98
445.267	1046.34
445.641	1037.3
446.016	1062.16
446.39	1073.91
446.764	1073.69
447.139	1062.84
447.513	1053.57
447.887	1061.26
448.262	1084.08
448.636	1068.04
449.01	1105.32
449.384	1101.48
449.758	1082.95
450.132	1132.67
450.506	1115.04
450.88	1121.14
451.254	1124.98
451.628	1151.65
452.002	1158.88
452.376	1136.74
452.75	1149.16
453.123	1134.7
453.497	1170.41
453.871	1162.95
454.244	1189.39
454.618	1203.63
454.992	1202.95
455.365	1191.2
455.739	1228.94
456.112	1230.52
456.486	1254.7
456.859	1258.31
457.232	1263.51
457.606	1266.22
457.979	1281.36
458.352	1308.71
458.725	1301.7
459.099	1279.78
459.472	1337.41
459.845	1340.57
460.218	1306.45
460.591	1346.45
460.964	1311.42
461.337	1358.88
461.71	1407.69
462.083	1404.53
462.456	1390.29
462.829	1419.89
463.201	1448.82
463.574	1438.2
463.947	1445.43
464.32	1477.97
464.692	1456.5
465.065	1475.71
465.438	1505.54
465.81	1511.64
466.183	1520.91
466.555	1548.48
466.928	1553.67
467.3	1564.07
467.672	1588.02
468.045	1606.78
468.417	1624.86
468.789	1576.95
469.161	1659.43
469.534	1674.12
469.906	1678.42
470.278	1677.74
470.65	1706.44
471.022	1717.51
471.394	1753.22
471.766	1730.17
472.138	1763.39
472.51	1790.5
472.882	1834.34
473.253	1836.38
473.625	1830.5
473.997	1868.02
474.369	1877.96
474.74	1902.37
475.112	1935.81
475.484	1975.36
475.855	1997.5
476.227	1999.76
476.598	2028.24
476.97	2025.53
477.341	2093.77
477.713	2102.13
478.084	2140.78
478.455	2161.12
478.827	2194.11
479.198	2263.71
479.569	2249.02
479.94	2288.57
480.311	2317.95
480.682	2322.02
481.053	2399.75
481.424	2406.08
481.795	2410.15
482.166	2443.59
482.537	2517.94
482.908	2507.55
483.279	2555.91
483.65	2579.64
484.021	2606.75
484.391	2618.96
484.762	2639.52
485.133	2724.49
485.503	2754.77
485.874	2741.44
486.244	2759.29
486.615	2865.05
486.985	2831.83
487.356	2905.28
487.726	2910.93
488.097	2945.5
488.467	2987.08
488.837	3013.97
489.207	3070.24
489.578	3086.97
489.948	3100.07
490.318	3156.57
490.688	3169
491.058	3176.23
491.428	3243.12
491.798	3255.32
492.168	3323.57
492.538	3326.73
492.908	3337.58
493.278	3384.59
493.648	3387.3
494.017	3423
494.387	3468.43
494.757	3505.94
495.126	3519.05
495.496	3514.53
495.866	3549.55
496.235	3535.99
496.605	3557.01
496.974	3595.88
497.344	3648.76
497.713	3692.6
498.082	3673.84
498.452	3669.55
498.821	3701.41
499.19	3737.57
499.559	3744.8
499.928	3783.9
500.298	3783.9
500.667	3806.5
501.036	3809.21
501.405	3873.39
501.774	3831.35
502.143	3878.81
502.512	3920.17
502.88	3946.83
503.249	3912.03
503.618	3962.88
503.987	3954.06
504.356	3986.6
504.724	3940.73
505.093	4015.08
505.462	4037.22
505.83	4020.28
506.199	4047.17
506.567	4094.4
506.936	4106.83
507.304	4104.79
507.672	4145.7
508.041	4159.71
508.409	4164.68
508.777	4167.39
509.145	4215.98
509.514	4232.7
509.882	4212.36
510.25	4230.44
510.618	4254.17
510.986	4222.08
511.354	4285.35
511.722	4372.13
512.09	4347.05
512.458	4328.06
512.826	4367.39
513.193	4363.32
513.561	4389.08
513.929	4398.57
514.297	4429.76
514.664	4434.05
515.032	4418.23
515.4	4458
515.767	4476.08
516.135	4517.89
516.502	4493.26
516.869	4582.97
517.237	4488.29
517.604	4502.3
517.972	4559.24
518.339	4553.14
518.706	4573.71
519.073	4544.33
519.44	4564.22
519.808	4590.66
520.175	4613.03
520.542	4648.73
520.909	4662.29
521.276	4719.01
521.643	4721.27
522.009	4755.62
522.376	4756.53
522.743	4776.19
523.11	4757.21
523.477	4813.7
523.843	4792.68
524.21	4862.51
524.577	4888.95
524.943	4903.64
525.31	4909.97
525.676	4960.36
526.043	5015.28
526.409	5012.11
526.776	4996.97
527.142	5012.34
527.508	5050.98
527.874	5099.34
528.241	5119.91
528.607	5176.4
528.973	5240.81
529.339	5186.12
529.705	5268.38
530.071	5267.02
530.437	5277.19
530.803	5261.6
531.169	5287.81
531.535	5288.72
531.901	5337.08
532.267	5359.45
532.632	5356.51
532.998	5369.62
533.364	5421.82
533.73	5486
534.095	5468.83
534.461	5517.64
534.826	5548.82
535.192	5513.34
535.557	5550.63
535.923	5562.61
536.288	5606.67
536.653	5610.06
537.019	5621.14
537.384	5663.85
537.749	5675.15
538.114	5662.27
538.479	5727.12
538.845	5712.89
539.21	5764.86
539.575	5716.28
539.94	5859.78
540.305	5756.5
540.67	5852.54
541.034	5827.23
541.399	5903.16
541.764	5894.8
542.129	5959.43
542.494	5942.03
542.858	5961.02
543.223	6011.41
543.587	6060
543.952	6034.01
544.316	6070.62
544.681	6085.53
545.045	6132.08
545.41	6174.12
545.774	6167.56
546.138	6172.08
546.503	6238.97
546.867	6251.86
547.231	6277.39
547.595	6313.1
547.959	6314.45
548.324	6350.38
548.688	6412.3
549.052	6376.82
549.416	6403.72
549.779	6383.83
550.143	6417.73
550.507	6525.07
550.871	6450.27
551.235	6487.1
551.599	6558.51
551.962	6535.69
552.326	6544.96
552.689	6585.41
553.053	6605.52
553.417	6587.44
553.78	6677.15
554.143	6666.31
554.507	6688.45
554.87	6691.17
555.234	6748.34
555.597	6717.15
555.96	6717.83
556.323	6753.09
556.686	6744.5
557.05	6800.77
557.413	6798.06
557.776	6864.95
558.139	6894.1
558.502	6909.01
558.865	6873.08
559.228	7014.77
559.59	6948.11
559.953	6975.68
560.316	7066.52
560.679	7057.26
561.041	7070.82
561.404	7109.91
561.767	7069.24
562.129	7103.81
562.492	7164.83
562.854	7171.83
563.217	7151.27
563.579	7204.15
563.941	7196.69
564.304	7248.89
564.666	7305.84
565.028	7312.17
565.39	7332.05
565.753	7353.75
566.115	7350.13
566.477	7344.26
566.839	7445.72
567.201	7431.26
567.563	7489.34
567.925	7514.42
568.287	7549.45
568.648	7594.19
569.01	7603.23
569.372	7688.43
569.734	7586.96
570.095	7772.49
570.457	7691.37
570.819	7717.81
571.18	7809.55
571.542	7832.15
571.903	7824.92
572.265	8006.16
572.626	7958.7
572.987	7974.3
573.349	8034.63
573.71	8030.57
574.071	8074.86
574.432	8174.29
574.794	8286.15
575.155	8262.65
575.516	8301.29
575.877	8373.61
576.238	8446.6
576.599	8557.11
576.96	8551.46
577.32	8611.12
577.681	8725.69
578.042	8778.34
578.403	8853.82
578.763	8953.25
579.124	9033.48
579.485	9172.46
579.845	9353.47
580.206	9355.28
580.566	9480.02
580.927	9607.25
581.287	9775.15
581.648	9858.31
582.008	9955.26
582.368	10122.71
582.728	10263.5
583.089	10365.19
583.449	10542.14
583.809	10703.26
584.169	10844.05
584.529	11044.27
584.889	11215.34
585.249	11371.04
585.609	11481.77
585.969	11789.56
586.329	11938.26
586.688	12182.55
587.048	12421.18
587.408	12586.38
587.768	12825.24
588.127	13138.23
588.487	13313.36
588.846	13633.81
589.206	13712.22
589.565	13873.58
589.925	14322.38
590.284	14451.19
590.643	14733.89
591.003	14981.34
591.362	15341.56
591.721	15556.7
592.08	15813.64
592.44	16200.75
592.799	16459.72
593.158	16631.92
593.517	16954.17
593.876	17241.4
594.235	17473.03
594.593	17831.21
594.952	18125.89
595.311	18288.83
595.67	18718.65
596.029	19047.45
596.387	19390.94
596.746	19697.6
597.104	19849.46
597.463	20156.12
597.822	20448.09
598.18	20639.05
598.538	20863.45
598.897	21362.19
599.255	21425.47
599.613	22048.5
599.972	22100.48
600.33	22437.42
600.688	22571.65
601.046	23019.32
601.404	23404.17
601.762	23448.24
602.12	23848
602.478	24081.9
602.836	24345.62
603.194	24502
603.552	24828.99
603.91	25087.74
604.268	25408.87
604.625	25569.54
604.983	25928.63
605.341	26038.23
605.698	26520.25
606.056	26643.41
606.413	26914.14
606.771	27258.76
607.128	27550.96
607.485	27489.04
607.843	27757.28
608.2	28124.05
608.557	28399.52
608.914	28501.89
609.272	28834.99
609.629	28998.83
609.986	29326.95
610.343	29236.11
610.7	29701.63
611.057	29909.76
611.414	29932.36
611.771	30188.63
612.127	30286.93
612.484	30690.99
612.841	30863.64
613.198	30982.96
613.554	31150.64
613.911	31458.42
614.267	31623.62
614.624	31616.84
614.98	32010.5
615.337	32055.7
615.693	32236.93
616.05	32365.75
616.406	32729.8
616.762	32670.14
617.118	32860.2
617.475	32864.26
617.831	33150.13
618.187	33257.25
618.543	33324.36
618.899	33743.11
619.255	33768.87
619.611	33739.04
619.967	34119.15
620.323	34129.99
620.678	34216.32
621.034	34228.75
621.39	34404.11
621.746	34447.05
622.101	34745.12
622.457	34699.47
622.812	34861.27
623.168	35045.45
623.523	35155.73
623.879	35345.55
624.234	35122.06
624.589	35344.42
624.945	35571.99
625.3	35423.07
625.655	35605.43
626.01	35705.09
626.365	35811.08
626.72	35826.44
627.075	35949.38
627.43	35878.2
627.785	35842.72
628.14	36028.02
628.495	36095.36
628.85	36119.09
629.205	36087.46
629.559	36291.29
629.914	36227.56
630.269	36390.72
630.623	36255.13
630.978	36251.07
631.332	36416.94
631.687	36605.41
632.041	36555.69
632.396	36568.8
632.75	36357.96
633.104	36629.59
633.459	36476.15
633.813	36677.27
634.167	36511.4
634.521	36447.45
634.875	36553.88
635.229	36632.07
635.583	36609.25
635.937	36560.89
636.291	36514.56
636.645	36585.97
636.999	36527.22
637.352	36642.02
637.706	36376.49
638.06	36747.55
638.413	36688.34
638.767	36541
639.121	36707.33
639.474	36425.3
639.828	36459.2
640.181	36580.78
640.534	36570.61
640.888	36531.74
641.241	36318.64
641.594	36380.78
641.947	36706.2
642.301	36539.87
642.654	36488.57
643.007	36520.66
643.36	36438.41
643.713	36456.26
644.066	36650.83
644.419	36405.64
644.771	36173.33
645.124	35873.9
645.477	35830.29
645.83	35632.78
646.182	35589.84
646.535	35437.75
646.888	35376.29
647.24	35256.06
647.593	35369.51
647.945	35263.75
648.298	35297.87
648.65	35296.52
649.002	35211.77
649.355	35349.17
649.707	35274.6
650.059	35332.22
650.411	35872.32
650.763	35830.74
651.115	36315.7
651.467	36222.14
651.819	36169.49
652.171	36021.92
652.523	36072.31
652.875	36089.04
653.227	35978.31
653.578	36194.8
653.93	36170.16
654.282	35975.37
654.633	35925.65
654.985	35924.75
655.337	35961.13
655.688	36069.15
656.039	36056.72
656.391	35774.69
656.742	35889.27
657.094	35833.45
657.445	35959.55
657.796	35857.86
658.147	35828.93
658.498	35851.98
658.849	35825.09
659.2	35806.56
659.551	35723.17
659.902	35842.26
660.253	35715.49
660.604	35862.6
660.955	35540.12
661.306	35819.67
661.656	35773.79
662.007	35704.19
662.358	35655.38
662.708	35641.59
663.059	35684.3
663.409	35571.76
663.76	35739.22
664.11	35664.42
664.461	35711.19
664.811	35695.37
665.161	35666
665.511	35554.59
665.862	35669.61
666.212	35693.12
666.562	35691.53
666.912	35692.44
667.262	35646.56
667.612	35690.86
667.962	35794.58
668.312	35529.28
668.662	35833.9
669.011	35708.71
669.361	35597.98
669.711	35615.38
670.06	35557.3
670.41	35555.94
670.76	35571.99
671.109	35645.21
671.459	35534.93
671.808	35580.12
672.157	35552.78
672.507	35377.64
672.856	35373.8
673.205	35404.99
673.554	35468.04
673.904	35215.39
674.253	35611.31
674.602	35427.13
674.951	34967.26
675.3	34662.86
675.649	35336.51
675.998	35252.22
676.346	35423.07
676.695	35496.51
677.044	35138.1
677.393	35162.28
677.741	35330.64
678.09	35212.22
678.438	35083.87
678.787	35171.32
679.135	35204.77
679.484	34983.98
679.832	35148.27
680.181	34914.83
680.529	34972.91
680.877	34898.11
681.225	34977.65
681.573	35121.15
681.922	34867.15
682.27	34760.94
682.618	34808.62
682.966	34657.44
683.314	34676.87
683.661	34623.99
684.009	34605.69
684.357	34377.44
684.705	34394.84
685.053	34396.88
685.4	34395.52
685.748	34169.54
686.095	34182.87
686.443	34108.75
686.79	34048.19
687.138	34217.45
687.485	34172.7
687.832	33877.34
688.18	33973.16
688.527	33875.54
688.874	33677.35
689.221	33702.21
689.568	33603.45
689.915	33509.9
690.262	33694.3
690.609	33386.28
690.956	33339.28
691.303	33400.07
691.65	33127.08
691.997	33152.84
692.344	33030.59
692.69	32995.33
693.037	33043.69
693.383	32842.34
693.73	32905.17
694.077	32664.72
694.423	32717.15
694.769	32697.71
695.116	32488
695.462	32505.4
695.808	32306.76
696.155	32417.5
696.501	32219.99
696.847	32291.85
697.193	32086.43
697.539	32167.11
697.885	31786.55
698.231	31704.29
698.577	31859.32
698.923	31912.42
699.269	31622.04
699.614	31444.87
699.96	31454.36
700.306	31353.57
700.651	31326
700.997	31219.33
701.342	31180.92
701.688	31076.51
702.033	31035.16
702.379	31038.32
702.724	30975.95
703.069	30922.39
703.415	30450.77
703.76	30578.22
704.105	30610.54
704.45	30552.91
704.795	30385.46
705.14	30210.32
705.485	30173.71
705.83	30112.02
706.175	30231.11
706.52	30104.79
706.865	29993.38
707.209	29913.83
707.554	29857.56
707.899	29869.09
708.243	29686.04
708.588	29612.37
708.932	29626.83
709.277	29513.39
709.621	29561.52
709.966	29350.91
710.31	29418.25
710.654	29171.03
710.998	29259.39
711.342	29158.15
711.687	29104.81
712.031	28877.02
712.375	28876.35
712.719	28983.01
713.063	28905.95
713.407	28906.4
713.75	28730.13
714.094	28707.31
714.438	28529.69
714.782	28655.56
715.125	28428.67
715.469	28541.66
715.812	28275.01
716.156	28203.82
716.499	28249.7
716.843	28166.08
717.186	28113.88
717.53	28230.49
717.873	28192.07
718.216	28201.79
718.559	27979.65
718.902	27863.94
719.246	27898.74
719.589	27943.71
719.932	27758.63
720.275	27684.96
720.617	27584.4
720.96	27643.38
721.303	27608.58
721.646	27678.64
721.989	27422.82
722.331	27542.37
722.674	27439.55
723.016	27486.55
723.359	27414.46
723.701	27357.29
724.044	27178.08
724.386	27089.5
724.729	27313.67
725.071	27220.8
725.413	27120.46
725.755	27042.72
726.097	26981.03
726.439	26836.4
726.782	26923.4
727.124	26940.12
727.465	26797.08
727.807	26935.38
728.149	26638.89
728.491	26644.31
728.833	26757.3
729.175	26600.7
729.516	26445.9
729.858	26576.74
730.199	26561.6
730.541	26506.46
730.882	26512.79
731.224	26492
731.565	26397.77
731.906	26381.72
732.248	26408.16
732.589	26169.52
732.93	26107.15
733.271	26156.87
733.612	26138.34
733.953	26106.7
734.294	25958.23
734.635	26026.25
734.976	26109.19
735.317	25916.42
735.658	25881.62
735.999	25838.91
736.339	25877.33
736.68	25868.06
737.021	25839.81
737.361	25653.38
737.702	25798.46
738.042	25705.13
738.383	25575.64
738.723	25688.41
739.063	25553.49
739.404	25624.68
739.744	25489.77
740.084	25475.53
740.424	25449.54
740.764	25482.31
741.104	25497.23
741.444	25331.81
741.784	25264.24
742.124	25266.72
742.464	25279.6
742.804	25132.71
743.143	25178.14
743.483	25151.47
743.823	24936.11
744.162	25077.8
744.502	24976.11
744.841	24800.52
745.181	25052.49
745.52	24895.66
745.86	24973.4
746.199	24821.31
746.538	24811.82
746.877	24853.85
747.216	24848.88
747.556	24654.99
747.895	24735.89
748.234	24452.96
748.573	24544.03
748.911	24504.03
749.25	24639.62
749.589	24351.04
749.928	24440.3
750.267	24351.49
750.605	24366.41
750.944	24258.16
751.283	24252.06
751.621	24255.22
751.96	24087.09
752.298	24077.15
752.636	24120.99
752.975	23895.91
753.313	23923.71
753.651	23977.94
753.989	23865.86
754.327	23850.94
754.666	23620.21
755.004	23789.7
755.342	23652.75
755.679	23643.26
756.017	23550.38
756.355	23552.42
756.693	23393.78
757.031	23640.1
757.368	23332.31
757.706	23238.53
758.044	23198.53
758.381	23181.81
758.719	23089.6
759.056	23104.07
759.394	23019.78
759.731	22925.99
760.068	22895.71
760.405	22849.16
760.743	22752.66
761.08	22796.05
761.417	22666.34
761.754	22699.56
762.091	22484.2
762.428	22613.01
762.765	22278.55
763.102	22366.01
763.438	22350.87
763.775	22258.44
764.112	22182.51
764.449	22218.44
764.785	22083.98
765.122	21824.33
765.458	21792.92
765.795	21814.16
766.131	21720.38
766.467	21610.77
766.804	21471.34
767.14	21419.59
767.476	21452.59
767.812	21344.34
768.148	21372.36
768.485	21242.2
768.821	21167.62
769.157	21107.96
769.492	21000.17
769.828	21057.12
770.164	20880.62
770.5	20807.4
770.836	20903
771.171	20638.82
771.507	20615.09
771.842	20535.1
772.178	20518.37
772.513	20497.36
772.849	20338.72
773.184	20259.85
773.519	20251.26
773.855	20035.67
774.19	20114.99
774.525	19978.05
774.86	19981.89
775.195	19926.3
775.53	19833.42
775.865	19777.38
776.2	19661.9
776.535	19504.61
776.87	19530.6
777.205	19476.37
777.539	19283.15
777.874	19396.82
778.209	19166.54
778.543	19097.39
778.878	19048.81
779.212	19069.82
779.547	18907.79
779.881	18971.97
780.215	18866.66
780.55	18843.84
780.884	18676.84
781.218	18726.1
781.552	18624.86
781.886	18497.41
782.22	18398.2
782.554	18303.97
782.888	18107.59
783.222	18204.54
783.556	18094.93
783.889	18049.06
784.223	17910.08
784.557	17783.76
784.89	17945.79
785.224	17804.77
785.557	17724.55
785.891	17694.49
786.224	17680.03
786.558	17627.6
786.891	17398.23
787.224	17371.34
787.557	17315.52
787.891	17290.66
788.224	17328.85
788.557	17195.52
788.89	17219.7
789.223	17090.21
789.556	17087.28
789.888	16986.71
790.221	16954.85
790.554	16735.65
790.887	16886.6
791.219	16723.44
791.552	16629.44
791.884	16669.66
792.217	16550.34
792.549	16588.53
792.882	16391.02
793.214	16358.48
793.546	16303.34
793.879	16268.32
794.211	16186.51
794.543	16167.3
794.875	16182.44
795.207	16110.81
795.539	15934.99
795.871	16023.35
796.203	15903.35
796.535	15873.07
796.867	15805.05
797.198	15775.22
797.53	15748.55
797.862	15666.07
798.193	15713.3
798.525	15568.45
798.856	15576.13
799.188	15379.52
799.519	15318.06
799.85	15246.87
800.182	15297.95
800.513	15308.79
800.844	15116.03
801.175	15214.33
801.506	15107.67
801.837	15074.45
802.168	15076.26
802.499	14991.51
802.83	14914
803.161	14871.97
803.491	14852.53
803.822	14883.72
804.153	14749.49
804.483	14634.46
804.814	14631.75
805.145	14594.69
805.475	14554.69
805.805	14480.79
806.136	14502.26
806.466	14517.4
806.796	14507.23
807.126	14418.87
807.457	14320.8
807.787	14286.9
808.117	14248.48
808.447	14220.69
808.777	14267.24
809.107	14086.9
809.436	14110.63
809.766	14127.58
810.096	14076.51
810.426	13902.5
810.755	13972.33
811.085	13966.68
811.414	13926.46
811.744	13838.1
812.073	13804.65
812.403	13763.52
812.732	13697.99
813.061	13681.49
813.39	13646.92
813.719	13569.63
814.049	13655.5
814.378	13566.47
814.707	13505.22
815.036	13496.86
815.365	13395.85
815.693	13322.86
816.022	13336.41
816.351	13217.1
816.68	13208.06
817.008	13207.38
817.337	13111.11
817.665	13116.31
817.994	13114.05
818.322	13146.82
818.651	13115.63
818.979	12994.95
819.307	13002.41
819.636	12944.11
819.964	12967.84
820.292	12936.88
820.62	12989.08
820.948	12881.96
821.276	12968.51
821.604	12847.16
821.932	12848.29
822.259	12953.37
822.587	12816.65
822.915	12807.16
823.243	12900.49
823.57	12832.93
823.898	12897.78
824.225	12817.11
824.553	12713.15
824.88	12766.26
825.207	12909.76
825.535	12810.55
825.862	12817.56
826.189	12775.07
826.516	12790.89
826.843	12846.03
827.17	12812.81
827.497	12843.55
827.824	12769.2
828.151	12852.59
828.478	12897.78
828.805	12852.13
829.131	12775.98
829.458	12695.98
829.785	12720.39
830.111	12742.31
830.438	12861.63
830.764	12802.87
831.09	12760.61
831.417	12742.08
831.743	12839.93
832.069	12744.11
832.395	12743.66
832.722	12751.12
833.048	12723.55
833.374	12681.29
833.7	12621.86
834.026	12627.51
834.351	12710.44
834.677	12682.87
835.003	12679.48
835.329	12647.39
835.654	12643.33
835.98	12579.37
836.306	12576.66
836.631	12550.9
836.956	12607.39
837.282	12579.37
837.607	12505.7
837.932	12520.17
838.258	12565.36
838.583	12480.84
838.908	12428.19
839.233	12420.73
839.558	12375.54
839.883	12374.18
840.208	12310.45
840.533	12344.12
840.858	12267.74
841.182	12290.11
841.507	12289.21
841.832	12126.28
842.156	12176.9
842.481	12154.07
842.805	12155.43
843.13	12071.36
843.454	12131.02
843.778	12055.54
844.103	12033.62
844.427	12044.47
844.751	11983.46
845.075	11951.37
845.399	11945.04
845.723	11820.3
846.047	11826.85
846.371	11745.27
846.695	11797.7
847.019	11664.59
847.343	11618.27
847.666	11454.88
847.99	11438.16
848.313	11519.29
848.637	11386.64
848.96	11392.29
849.284	11400.19
849.607	11312.29
849.931	11284.94
850.254	11208.11
850.577	11185.28
850.9	11079.07
851.223	11000.21
851.546	11007.44
851.869	10904.39
852.192	10919.08
852.515	10920.89
852.838	10881.11
853.161	10907.55
853.483	10741.91
853.806	10698.52
854.129	10747.33
854.451	10690.83
854.774	10609.25
855.096	10528.58
855.419	10587.79
855.741	10590.05
856.063	10495.36
856.385	10485.87
856.708	10442.93
857.03	10389.15
857.352	10399.32
857.674	10374.46
857.996	10357.06
858.318	10222.15
858.64	10308.7
858.961	10249.04
859.283	10189.38
859.605	10089.95
859.926	10143.28
860.248	10168.14
860.57	10107.35
860.891	10104.18
861.212	10023.51
861.534	10054.02
861.855	9909.61
862.176	9998.88
862.498	10002.04
862.819	9938.99
863.14	9910.97
863.461	9822.83
863.782	9807.47
864.103	9857.41
864.424	9848.6
864.745	9833.23
865.065	9782.38
865.386	9718.2
865.707	9727.92
866.027	9798.2
866.348	9764.53
866.668	9709.17
866.989	9630.98
867.309	9603.86
867.63	9632.11
867.95	9686.34
868.27	9617.87
868.59	9635.5
868.91	9602.73
869.23	9590.07
869.55	9529.74
869.87	9525.22
870.19	9482.05
870.51	9489.28
870.83	9528.83
871.15	9406.12
871.469	9418.1
871.789	9419.46
872.109	9463.3
872.428	9413.81
872.748	9391.89
873.067	9393.24
873.386	9436.86
873.706	9375.84
874.025	9336.75
874.344	9267.37
874.663	9292.68
874.982	9323.41
875.301	9298.78
875.62	9234.83
875.939	9221.49
876.258	9194.15
876.577	9220.59
876.896	9170.65
877.214	9175.39
877.533	9184.66
877.852	9179.91
878.17	9234.6
878.489	9070.31
878.807	9162.29
879.125	9115.96
879.444	9032.35
879.762	9074.61
880.08	9038.45
880.398	9012.69
880.716	8967.26
881.034	8991.44
881.352	8994.61
881.67	8941.28
881.988	8960.94
882.306	8942.41
882.624	8909.19
882.941	8941.05
883.259	8815.86
883.577	8866.93
883.894	8878.23
884.212	8818.12
884.529	8722.3
884.846	8751.22
885.164	8705.8
885.481	8710.32
885.798	8661.96
886.115	8654.5
886.432	8646.59
886.75	8615.86
887.067	8631
887.383	8634.62
887.7	8634.62
888.017	8576.09
888.334	8510.1
888.651	8534.28
888.967	8494.51
889.284	8475.98
889.6	8491.12
889.917	8407.5
890.233	8382.19
890.55	8326.38
890.866	8362.31
891.182	8315.3
891.498	8308.52
891.815	8291.8
892.131	8222.88
892.447	8238.7
892.763	8171.8
893.079	8195.76
893.395	8218.58
893.71	8195.53
894.026	8083.9
894.342	8085.03
894.657	8033.5
894.973	8015.88
895.289	8047.06
895.604	7969.1
895.92	7915.09
896.235	7916.9
896.55	7902.89
896.865	7874.86
897.181	7925.48
897.496	7885.71
897.811	7820.85
898.126	7780.18
898.441	7726.17
898.756	7683
899.071	7634.87
899.386	7638.03
899.7	7627.64
900.015	7569.11
900.33	7505.16
900.644	7521.43
900.959	7550.8
901.273	7489.79
901.588	7452.28
901.902	7436.91
902.216	7407.76
902.531	7351.49
902.845	7320.53
903.159	7302.45
903.473	7287.31
903.787	7241.43
904.101	7189.46
904.415	7191.72
904.729	7168.89
905.042	7102.91
905.356	7129.8
905.67	7112.17
905.984	7107.88
906.297	7095
906.611	7024.26
906.924	6992.17
907.237	6966.64
907.551	6927.32
907.864	6949.24
908.177	6935.45
908.491	6936.81
908.804	6834.21
909.117	6875.12
909.43	6782.24
909.743	6727.78
910.056	6741.56
910.368	6738.4
910.681	6628.12
910.994	6695.91
911.307	6665.4
911.619	6557.38
911.932	6614.33
912.244	6552.19
912.557	6531.62
912.869	6543.15
913.181	6458.18
913.494	6511.74
913.806	6455.92
914.118	6384.06
914.43	6373.89
914.742	6344.73
915.054	6332.53
915.366	6292.76
915.678	6266.32
915.99	6268.58
916.302	6176.6
916.613	6226.55
916.925	6227
917.236	6143.61
917.548	6078.75
917.859	6106.55
918.171	6055.25
918.482	6061.58
918.794	6005.99
919.105	6000.56
919.416	5986.33
919.727	5951.3
920.038	5922.15
920.349	5940.23
920.66	5869.72
920.971	5861.58
921.282	5867.01
921.593	5779.78
921.903	5762.15
922.214	5752.43
922.525	5706.78
922.835	5671.08
923.146	5678.09
923.456	5666.33
923.767	5636.5
924.077	5667.69
924.387	5573.23
924.697	5625.88
925.008	5552.66
925.318	5528.94
925.628	5511.08
925.938	5520.35
926.248	5433.35
926.558	5411.43
926.867	5376.4
927.177	5385.66
927.487	5332.11
927.796	5273.58
928.106	5330.52
928.416	5275.38
928.725	5247.36
929.034	5221.83
929.344	5240.36
929.653	5165.78
929.962	5194.71
930.271	5127.82
930.581	5139.12
930.89	5148.38
931.199	5128.95
931.508	5079.46
931.817	5084.88
932.125	5080.59
932.434	5030.42
932.743	4958.78
933.051	4954.71
933.36	4932.12
933.669	4894.6
933.977	4883.76
934.286	4867.03
934.594	4886.47
934.902	4831.1
935.21	4759.47
935.519	4811.22
935.827	4829.52
936.135	4789.29
936.443	4721.5
936.751	4716.3
937.059	4720.82
937.367	4636.3
937.674	4694.38
937.982	4660.48
938.29	4646.7
938.597	4635.63
938.905	4555.4
939.213	4610.77
939.52	4576.65
939.827	4519.02
940.135	4514.95
940.442	4498
940.749	4522.41
941.056	4504.33
941.363	4363.77
941.67	4419.14
941.977	4391.34
942.284	4352.24
942.591	4364.45
942.898	4328.97
943.205	4332.36
943.511	4314.28
943.818	4313.83
944.125	4236.99
944.431	4242.42
944.738	4221.17
945.044	4237.67
945.35	4196.54
945.657	4169.65
945.963	4149.31
946.269	4158.8
946.575	4123.1
946.881	4074.96
947.187	4079.03
947.493	4068.41
947.799	4067.96
948.105	4004.46
948.41	4031.35
948.716	4019.37
949.022	3985.25
949.327	3980.05
949.633	3953.38
949.938	3939.37
950.244	3979.6
950.549	3889.88
950.854	3863.9
951.16	3841.3
951.465	3888.75
951.77	3818.47
952.075	3828.42
952.38	3825.03
952.685	3835.65
952.99	3779.6
953.294	3764.46
953.599	3758.36
953.904	3708.65
954.209	3704.8
954.513	3704.13
954.818	3636.1
955.122	3695.76
955.426	3626.84
955.731	3639.04
956.035	3611.02
956.339	3604.47
956.643	3576.22
956.948	3553.4
957.252	3536.9
957.556	3541.64
957.86	3526.73
958.163	3487.18
958.467	3466.84
958.771	3474.53
959.075	3447.64
959.378	3432.72
959.682	3453.51
959.985	3406.05
960.289	3383.46
960.592	3395.21
960.896	3384.36
961.199	3358.6
961.502	3354.76
961.805	3301.2
962.108	3317.92
962.411	3284.25
962.714	3316.34
963.017	3293.74
963.32	3241.09
963.623	3258.04
963.926	3249
964.228	3215.55
964.531	3223.91
964.833	3210.35
965.136	3151.82
965.438	3166.29
965.741	3115.67
966.043	3136.46
966.345	3096.68
966.648	3129
966.95	3132.62
967.252	3086.97
967.554	3086.06
967.856	3046.29
968.158	3037.02
968.46	3032.28
968.761	3010.13
969.063	2981.66
969.365	2998.61
969.666	2982.34
969.968	2946.18
970.269	2943.24
970.571	2997.93
970.872	2947.99
971.174	2922.23
971.475	2888.78
971.776	2884.03
972.077	2881.1
972.378	2879.29
972.679	2853.3
972.98	2832.96
973.281	2822.79
973.582	2828.22
973.883	2805.17
974.183	2804.04
974.484	2783.25
974.785	2759.97
975.085	2741.21
975.386	2746.18
975.686	2724.72
975.986	2689.46
976.287	2703.93
976.587	2662.8
976.887	2693.53
977.187	2686.3
977.487	2681.1
977.787	2690.82
978.087	2649.69
978.387	2657.83
978.687	2597.94
978.987	2600.65
979.286	2563.14
979.586	2586.42
979.885	2604.72
980.185	2568.79
980.484	2532.63
980.784	2562.91
981.083	2544.83
981.382	2515.23
981.682	2507.55
981.981	2487.21
982.28	2456.02
982.579	2495.57
982.878	2467.55
983.177	2442.92
983.475	2449.24
983.774	2410.83
984.073	2416.48
984.372	2380.54
984.67	2409.92
984.969	2421.9
985.267	2368.57
985.566	2363.14
985.864	2349.13
986.162	2332.41
986.461	2310.94
986.759	2315.69
987.057	2302.35
987.355	2315.69
987.653	2261.23
987.951	2279.08
988.249	2306.65
988.547	2287.67
988.844	2227.33
989.142	2252.86
989.44	2208.57
989.737	2228.23
990.035	2211.74
990.332	2199.98
990.63	2154.34
990.927	2206.09
991.224	2191.17
991.521	2154.11
991.819	2156.6
992.116	2140.78
992.413	2145.52
992.71	2102.59
993.006	2119.08
993.303	2102.59
993.6	2104.62
993.897	2093.77
994.193	2080.67
994.49	2072.53
994.787	2049.25
995.083	2036.37
995.379	2046.32
995.676	2016.71
995.972	2020.78
996.268	2041.12
996.565	2025.75
996.861	1977.39
997.157	1979.43
997.453	1959.99
997.749	1952.76
998.044	1962.7
998.34	1926.09
998.636	1929.71
998.932	1915.47
999.227	1887.68
999.523	1865.76
999.818	1905.98
1000.114	1886.32
1000.409	1893.33
1000.704	1877.28
1001	1833.21
1001.295	1859.2
1001.59	1853.1
1001.885	1823.27
1002.18	1823.27
1002.475	1812.65
1002.77	1806.77
1003.065	1781.69
1003.359	1768.58
1003.654	1830.28
1003.949	1771.07
1004.243	1755.7
1004.538	1725.65
1004.832	1724.74
1005.127	1701.69
1005.421	1727.68
1005.715	1727.91
1006.009	1719.09
1006.304	1702.6
1006.598	1698.08
1006.892	1674.57
1007.186	1630.96
1007.48	1660.34
1007.773	1613.33
1008.067	1638.64
1008.361	1618.53
1008.655	1631.86
1008.948	1603.39
1009.242	1602.94
1009.535	1569.72
1009.829	1586.67
1010.122	1562.04
1010.415	1571.75
1010.708	1552.77
1011.001	1557.29
1011.295	1551.41
1011.588	1531.53
1011.881	1521.58
1012.173	1524.07
1012.466	1494.92
1012.759	1505.77
1013.052	1514.13
1013.344	1457.86
1013.637	1507.57
1013.93	1450.63
1014.222	1444.75
1014.514	1437.74
1014.807	1452.43
1015.099	1433.68
1015.391	1425.99
1015.683	1436.61
1015.976	1439.78
1016.268	1386.67
1016.56	1370.18
1016.851	1390.06
1017.143	1376.73
1017.435	1367.46
1017.727	1372.66
1018.018	1353.23
1018.31	1358.2
1018.602	1327.24
1018.893	1327.01
1019.185	1305.32
1019.476	1328.37
1019.767	1308.48
1020.058	1288.14
1020.35	1293.34
1020.641	1260.12
1020.932	1254.92
1021.223	1267.81
1021.514	1283.85
1021.804	1256.96
1022.095	1247.02
1022.386	1228.26
1022.677	1207.24
1022.967	1210.86
1023.258	1221.25
1023.548	1204.53
1023.839	1185.1
1024.129	1199.33
1024.419	1155.27
1024.709	1173.57
1025	1172.21
1025.29	1161.59
1025.58	1148.03
1025.87	1136.51
1026.16	1138.54
1026.449	1134.93
1026.739	1126.11
1027.029	1134.93
1027.319	1094.02
1027.608	1088.6
1027.898	1113.91
1028.187	1066.91
1028.477	1065.33
1028.766	1080.24
1029.055	1054.03
1029.344	1070.75
1029.634	1059.22
1029.923	1050.41
1030.212	1046.34
1030.501	1042.95
1030.79	1042.73
1031.078	1033.91
1031.367	1011.09
1031.656	1002.05
1031.945	1016.74
1032.233	1020.13
1032.522	1009.28
1032.81	1004.31
1033.099	980.36
1033.387	977.64
1033.675	973.35
1033.963	932.45
1034.251	939.9
1034.54	927.02
1034.828	954.37
1035.116	924.99
1035.403	930.41
1035.691	923.41
1035.979	918.66
1036.267	917.53
1036.554	897.65
1036.842	925.22
1037.129	889.51
1037.417	913.24
1037.704	907.36
1037.992	884.99
1038.279	883.18
1038.566	878.21
1038.853	878.21
1039.14	878.21
