Data from hue_220_FLMS001491_00064.txt Node
Date: Tue Feb 07 16:39:47 GMT 2017
User: dcchb
Spectrometer: FLMS00149
Trigger mode: 0
Integration Time (sec): 2.000000E-2
Scans to average: 10
Electric dark correction enabled: true
Nonlinearity correction enabled: false
Boxcar width: 0
XAxis mode: Wavelengths
Number of Pixels in Spectrum: 2048
>>>>>Begin Spectral Data<<<<<
341.393	-30.06
341.776	-30.06
342.16	-30.06
342.543	-64.41
342.927	-60.56
343.31	-64.63
343.693	-69.15
344.077	-69.15
344.46	-59.21
344.843	-43.16
345.226	-45.42
345.61	-21.24
345.993	-28.25
346.376	-3.84
346.759	16.72
347.142	25.54
347.525	31.86
347.908	54.24
348.291	81.58
348.674	88.81
349.057	105.31
349.44	115.7
349.823	138.3
350.206	165.42
350.588	188.02
350.971	202.03
351.354	222.14
351.737	224.63
352.119	246.1
352.502	253.1
352.884	271.63
353.267	271.41
353.65	281.35
354.032	277.05
354.414	299.65
354.797	305.08
355.179	300.56
355.562	329.03
355.944	317.73
356.326	300.56
356.709	333.55
357.091	335.36
357.473	350.27
357.855	315.7
358.238	320.67
358.62	356.15
359.002	315.92
359.384	345.75
359.766	342.82
360.148	313.21
360.53	323.38
360.912	334.23
361.294	341.23
361.676	334.45
362.057	334.68
362.439	302.82
362.821	334.23
363.203	336.49
363.584	332.19
363.966	320.9
364.348	334
364.729	314.57
365.111	310.05
365.493	303.27
365.874	297.85
366.256	325.19
366.637	316.6
367.019	312.31
367.4	308.92
367.781	317.51
368.163	295.81
368.544	287.45
368.925	298.52
369.306	320.44
369.688	317.28
370.069	303.49
370.45	340.78
370.831	302.82
371.212	318.41
371.593	311.86
371.974	300.56
372.355	296.26
372.736	313.44
373.117	315.92
373.498	306.88
373.879	314.57
374.26	332.65
374.641	325.19
375.021	317.51
375.402	315.02
375.783	315.02
376.163	331.29
376.544	328.8
376.925	318.41
377.305	298.75
377.686	314.34
378.066	324.06
378.447	341.69
378.827	318.64
379.208	330.84
379.588	310.5
379.968	329.48
380.349	331.74
380.729	341.23
381.109	331.52
381.489	334.91
381.87	341.01
382.25	343.72
382.63	340.78
383.01	336.94
383.39	336.04
383.77	360.67
384.15	343.27
384.53	333.32
384.91	323.83
385.29	325.64
385.67	345.3
386.049	348.47
386.429	359.54
386.809	338.07
387.189	325.64
387.568	348.92
387.948	340.33
388.328	354.79
388.707	351.18
389.087	344.85
389.466	359.09
389.846	348.47
390.225	349.14
390.605	341.69
390.984	358.86
391.363	357.5
391.743	339.88
392.122	352.08
392.501	336.71
392.881	364.74
393.26	372.65
393.639	362.93
394.018	369.03
394.397	362.7
394.776	390.05
395.155	383.72
395.534	396.6
395.913	364.06
396.292	380.1
396.671	390.27
397.05	380.1
397.429	386.43
397.808	374.91
398.186	376.49
398.565	359.99
398.944	381.68
399.323	394.11
399.701	386.66
400.08	392.76
400.458	412.19
400.837	395.92
401.215	409.48
401.594	403.83
401.972	401.8
402.351	408.35
402.729	423.04
403.107	419.88
403.486	424.17
403.864	440.67
404.242	434.11
404.62	413.55
404.999	457.39
405.377	445.86
405.755	439.31
406.133	452.42
406.511	434.79
406.889	447.22
407.267	444.73
407.645	448.35
408.023	465.52
408.401	462.59
408.779	457.39
409.156	480.21
409.534	491.74
409.912	501
410.29	500.78
410.667	509.59
411.045	493.77
411.422	522.92
411.8	513.88
412.178	547.33
412.555	537.61
412.933	558.4
413.31	546.88
413.687	564.96
414.065	568.57
414.442	588.01
414.819	585.52
415.197	590.94
415.574	599.76
415.951	593.43
416.328	610.38
416.705	618.06
417.082	644.05
417.46	628.91
417.837	656.48
418.214	683.15
418.591	665.97
418.967	656.93
419.344	692.86
419.721	674.33
420.098	705.74
420.475	683.6
420.852	715.69
421.228	711.62
421.605	721.34
421.982	755.91
422.358	769.92
422.735	766.08
423.111	775.8
423.488	795.23
423.864	823.93
424.241	813.76
424.617	820.32
424.994	856.25
425.37	881.33
425.746	880.88
426.123	879.52
426.499	880.2
426.875	875.46
427.251	885.4
427.627	941.67
428.003	959.75
428.379	951.39
428.756	954.33
429.132	982.8
429.507	978.96
429.883	1002.23
430.259	998.84
430.635	1016.02
431.011	1029.13
431.387	1035.9
431.763	1052.18
432.138	1063.47
432.514	1091.95
432.89	1121.1
433.265	1137.37
433.641	1160.42
434.016	1132.17
434.392	1190.25
434.767	1197.93
435.143	1235.67
435.518	1254.66
435.894	1269.12
436.269	1278.38
436.644	1304.82
437.02	1330.13
437.395	1354.54
437.77	1353.64
438.145	1396.12
438.52	1413.07
438.895	1422.34
439.271	1431.15
439.646	1477.02
440.021	1470.7
440.395	1508.21
440.77	1486.06
441.145	1515.21
441.52	1590.24
441.895	1545.95
442.27	1571.71
442.645	1566.96
443.019	1639.28
443.394	1625.27
443.769	1644.93
444.143	1665.27
444.518	1701.88
444.892	1690.35
445.267	1691.25
445.641	1702.33
446.016	1723.8
446.39	1723.34
446.764	1750.24
447.139	1778.48
447.513	1799.05
447.887	1797.69
448.262	1789.33
448.636	1792.27
449.01	1852.15
449.384	1810.8
449.758	1856
450.132	1864.58
450.506	1907.29
450.88	1901.19
451.254	1881.76
451.628	1930.57
452.002	1966.73
452.376	1975.32
452.75	1969.89
453.123	1993.39
453.497	2029.55
453.871	2042.88
454.244	2075.43
454.618	2105.26
454.992	2071.36
455.365	2135.54
455.739	2144.35
456.112	2218.7
456.486	2192.94
456.859	2205.14
457.232	2217.12
457.606	2266.38
457.979	2290.11
458.352	2289.88
458.725	2335.98
459.099	2379.15
459.472	2410.33
459.845	2432.7
460.218	2436.09
460.591	2437.9
460.964	2482.65
461.337	2498.92
461.71	2540.05
462.083	2594.51
462.456	2593.6
462.829	2600.84
463.201	2625.02
463.574	2669.31
463.947	2671.34
464.32	2749.31
464.692	2755.63
465.065	2770.77
465.438	2823.2
465.81	2835.41
466.183	2876.31
466.555	2920.15
466.928	2982.52
467.3	2916.53
467.672	2956.53
468.045	3051.67
468.417	3035.4
468.789	3061.16
469.161	3121.95
469.534	3127.15
469.906	3222.51
470.278	3262.97
470.65	3241.72
471.022	3280.59
471.394	3370.53
471.766	3357.88
472.138	3451.66
472.51	3475.16
472.882	3521.72
473.253	3579.11
473.625	3628.61
473.997	3667.47
474.369	3702.73
474.74	3728.94
475.112	3777.75
475.484	3827.7
475.855	3874.47
476.227	3908.6
476.598	4033.79
476.97	3999.67
477.341	4107.24
477.713	4176.16
478.084	4159.44
478.455	4259.32
478.827	4300.68
479.198	4416.38
479.569	4422.48
479.94	4508.81
480.311	4554.23
480.682	4657.73
481.053	4729.14
481.424	4785.86
481.795	4820.89
482.166	4825.86
482.537	4917.61
482.908	5029.02
483.279	5048.45
483.65	5135.91
484.021	5226.98
484.391	5184.72
484.762	5276.25
485.133	5322.8
485.503	5375
485.874	5500.42
486.244	5507.43
486.615	5597.37
486.985	5655.67
487.356	5748.78
487.726	5818.6
488.097	5886.17
488.467	5919.84
488.837	6016.34
489.207	6048.43
489.578	6104.02
489.948	6188.31
490.318	6201.87
490.688	6280.29
491.058	6315.54
491.428	6407.29
491.798	6449.1
492.168	6528.19
492.538	6533.39
492.908	6579.94
493.278	6712.14
493.648	6704
494.017	6766.83
494.387	6848.41
494.757	6823.78
495.126	6913.04
495.496	6897.45
495.866	6945.58
496.235	6993.26
496.605	7020.15
496.974	7085.69
497.344	7077.33
497.713	7150.32
498.082	7180.15
498.452	7233.48
498.821	7231.45
499.19	7260.6
499.559	7348.73
499.928	7353.7
500.298	7410.65
500.667	7454.72
501.036	7436.87
501.405	7483.19
501.774	7474.83
502.143	7461.27
502.512	7585.11
502.88	7583.98
503.249	7580.59
503.618	7574.72
503.987	7628.95
504.356	7661.49
504.724	7577.43
505.093	7660.36
505.462	7711.44
505.83	7759.8
506.199	7768.38
506.567	7839.12
506.936	7831.88
507.304	7867.36
507.672	7935.61
508.041	7898.78
508.409	7935.61
508.777	7944.88
509.145	7960.47
509.514	8000.02
509.882	8003.18
510.25	8038.66
510.618	8002.73
510.986	8020.81
511.354	8055.38
511.722	8079.34
512.09	8149.16
512.458	8076.62
512.826	8125.89
513.193	8200.69
513.561	8160.46
513.929	8146
514.297	8237.52
514.664	8231.87
515.032	8186.23
515.4	8249.27
515.767	8271.19
516.135	8213.57
516.502	8179.67
516.869	8323.62
517.237	8325.43
517.604	8214.25
517.972	8303.06
518.339	8322.49
518.706	8307.58
519.073	8326.11
519.44	8331.98
519.808	8324.07
520.175	8320.69
520.542	8341.93
520.909	8383.96
521.276	8362.27
521.643	8418.99
522.009	8370.63
522.376	8412.66
522.743	8368.59
523.11	8440
523.477	8439.1
523.843	8487.46
524.21	8503.51
524.577	8495.14
524.943	8515.93
525.31	8523.39
525.676	8504.41
526.043	8588.47
526.409	8505.77
526.776	8596.16
527.142	8542.6
527.508	8546.22
527.874	8613.78
528.241	8540.79
528.607	8574.69
528.973	8548.25
529.339	8516.84
529.705	8597.06
530.071	8563.16
530.437	8573.56
530.803	8554.13
531.169	8586.21
531.535	8582.15
531.901	8524.52
532.267	8520.23
532.632	8529.04
532.998	8455.37
533.364	8541.7
533.73	8441.59
534.095	8526.1
534.461	8433.22
534.826	8430.51
535.192	8480
535.557	8463.73
535.923	8406.56
536.288	8417.41
536.653	8393.45
537.019	8379.89
537.384	8392.55
537.749	8387.8
538.114	8339.22
538.479	8253.57
538.845	8262.38
539.21	8238.88
539.575	8247.01
539.94	8217.41
540.305	8250.18
540.67	8139.22
541.034	8185.1
541.399	8106.23
541.764	8123.4
542.129	8094.02
542.494	8037.75
542.858	8047.02
543.223	8068.04
543.587	8027.13
543.952	8026.46
544.316	7958.43
544.681	7915.95
545.045	7946.91
545.41	7921.15
545.774	7920.47
546.138	7804.99
546.503	7836.86
546.867	7804.31
547.231	7848.83
547.595	7847.7
547.959	7767.71
548.324	7753.02
548.688	7713.47
549.052	7738.33
549.416	7622.17
549.779	7601.61
550.143	7656.52
550.507	7594.15
550.871	7605.22
551.235	7558.9
551.599	7620.82
551.962	7540.37
552.326	7441.84
552.689	7584.89
553.053	7478.67
553.417	7434.61
553.78	7532.91
554.143	7411.33
554.507	7426.47
554.87	7461.05
555.234	7400.03
555.597	7381.05
555.96	7350.77
556.323	7346.7
556.686	7326.36
557.05	7354.38
557.413	7349.64
557.776	7319.36
558.139	7328.17
558.502	7330.43
558.865	7296.08
559.228	7343.99
559.59	7329.98
559.953	7227.15
560.316	7340.37
560.679	7300.82
561.041	7350.09
561.404	7304.67
561.767	7293.82
562.129	7303.31
562.492	7339.47
562.854	7249.98
563.217	7270.77
563.579	7277.32
563.941	7307.83
564.304	7286.59
564.666	7336.76
565.028	7341.73
565.39	7345.57
565.753	7323.42
566.115	7315.06
566.477	7368.62
566.839	7313.48
567.201	7399.13
567.563	7381.5
567.925	7434.15
568.287	7368.85
568.648	7333.82
569.01	7391.44
569.372	7405
569.734	7389.86
570.095	7423.76
570.457	7461.95
570.819	7435.28
571.18	7425.79
571.542	7456.3
571.903	7502.63
572.265	7493.14
572.626	7486.13
572.987	7520.71
573.349	7528.16
573.71	7521.38
574.071	7562.74
574.432	7597.54
574.794	7566.81
575.155	7607.03
575.516	7596.86
575.877	7630.08
576.238	7630.08
576.599	7655.62
576.96	7633.47
577.32	7647.71
577.681	7636.41
578.042	7661.95
578.403	7723.19
578.763	7699.46
579.124	7680.02
579.485	7733.81
579.845	7790.53
580.206	7740.81
580.566	7746.24
580.927	7702.4
581.287	7815.16
581.648	7786.01
582.008	7846.57
582.368	7843.18
582.728	7882.96
583.089	7890.87
583.449	7858.55
583.809	7826.23
584.169	7909.85
584.529	7898.55
584.889	7906.46
585.249	7913.46
585.609	7905.1
585.969	7965.89
586.329	7925.67
586.688	8026.68
587.048	7964.08
587.408	8006.34
587.768	7974.71
588.127	8031.2
588.487	7958.43
588.846	8091.99
589.206	7967.93
589.565	8044.99
589.925	8113.68
590.284	8027.36
590.643	8097.19
591.003	8088.83
591.362	8165.21
591.721	8144.19
592.08	8179.22
592.44	8124.76
592.799	8190.75
593.158	8148.49
593.517	8134.7
593.876	8192.55
594.235	8152.1
594.593	8219.9
594.952	8153.91
595.311	8125.21
595.67	8188.26
596.029	8306
596.387	8300.8
596.746	8316.39
597.104	8213.12
597.463	8265.32
597.822	8276.39
598.18	8193
598.538	8185.32
598.897	8356.84
599.255	8209.5
599.613	8280.46
599.972	8266.9
600.33	8292.89
600.688	8301.7
601.046	8313.91
601.404	8351.87
601.762	8310.74
602.12	8353.68
602.478	8296.96
602.836	8366.56
603.194	8324.98
603.552	8352.32
603.91	8295.6
604.268	8428.03
604.625	8316.84
604.983	8396.39
605.341	8325.88
605.698	8450.17
606.056	8359.78
606.413	8386.67
606.771	8450.4
607.128	8417.18
607.485	8392.77
607.843	8403.39
608.2	8399.1
608.557	8488.36
608.914	8426.45
609.272	8444.3
609.629	8518.65
609.986	8515.93
610.343	8425.32
610.7	8549.15
611.057	8586.67
611.414	8560
611.771	8571.98
612.127	8600
612.484	8569.94
612.841	8543.96
613.198	8562.03
613.554	8570.62
613.911	8604.07
614.267	8626.44
614.624	8608.81
614.98	8599.1
615.337	8558.65
615.693	8614.91
616.05	8578.76
616.406	8702.37
616.762	8641.13
617.118	8608.59
617.475	8587.8
617.831	8755.93
618.187	8648.81
618.543	8634.58
618.899	8752.09
619.255	8658.76
619.611	8687
619.967	8795.93
620.323	8727.45
620.678	8764.06
621.034	8717.51
621.39	8738.53
621.746	8678.19
622.101	8763.39
622.457	8713.22
622.812	8714.8
623.168	8725.65
623.523	8775.14
623.879	8717.51
624.234	8654.69
624.589	8687.68
624.945	8773.1
625.3	8749.83
625.655	8771.75
626.01	8714.8
626.365	8722.71
626.72	8710.51
627.075	8695.82
627.43	8698.08
627.785	8689.04
628.14	8694.46
628.495	8731.3
628.85	8683.39
629.205	8659.89
629.559	8694.91
629.914	8629.15
630.269	8658.76
630.623	8598.64
630.978	8704.63
631.332	8678.64
631.687	8739.66
632.041	8668.25
632.396	8611.07
632.75	8577.4
633.104	8637.74
633.459	8567.91
633.813	8581.02
634.167	8597.29
634.521	8518.87
634.875	8629.38
635.229	8556.84
635.583	8501.25
635.937	8521.81
636.291	8461.02
636.645	8478.65
636.999	8518.42
637.352	8459.66
637.706	8401.59
638.06	8447.91
638.413	8469.83
638.767	8428.7
639.121	8422.83
639.474	8425.99
639.828	8425.32
640.181	8386.45
640.534	8439.1
640.888	8395.94
641.241	8352.55
641.594	8403.85
641.947	8404.52
642.301	8355.26
642.654	8420.12
643.007	8404.98
643.36	8391.19
643.713	8376.28
644.066	8350.97
644.419	8284.08
644.771	8327.69
645.124	8212.21
645.477	8209.28
645.83	8173.8
646.182	8133.35
646.535	8126.34
646.888	8191.65
647.24	8131.31
647.593	8091.76
647.945	8108.04
648.298	8104.19
648.65	8082.95
649.002	8025.55
649.355	8068.04
649.707	8053.12
650.059	8176.96
650.411	8218.99
650.763	8241.14
651.115	8298.76
651.467	8259.67
651.819	8275.26
652.171	8244.75
652.523	8234.13
652.875	8259.22
653.227	8201.14
653.578	8301.48
653.93	8210.18
654.282	8243.63
654.633	8199.78
654.985	8279.78
655.337	8214.25
655.688	8233.46
656.039	8260.57
656.391	8220.57
656.742	8209.73
657.094	8223.51
657.445	8293.12
657.796	8223.06
658.147	8228.48
658.498	8206.34
658.849	8313.23
659.2	8284.08
659.551	8298.76
659.902	8302.83
660.253	8270.29
660.604	8297.86
660.955	8286.11
661.306	8343.74
661.656	8260.35
662.007	8311.65
662.358	8256.05
662.708	8259.22
663.059	8294.92
663.409	8261.7
663.76	8309.61
664.11	8294.47
664.461	8347.58
664.811	8366.79
665.161	8307.8
665.511	8263.96
665.862	8340.12
666.212	8338.76
666.562	8321.36
666.912	8301.7
667.262	8307.8
667.612	8331.08
667.962	8327.69
668.312	8374.47
668.662	8383.96
669.011	8324.98
669.361	8350.97
669.711	8320.01
670.06	8315.26
670.41	8314.58
670.76	8351.42
671.109	8337.18
671.459	8282.04
671.808	8275.04
672.157	8360.01
672.507	8279.33
672.856	8311.42
673.205	8285.43
673.554	8289.95
673.904	8208.82
674.253	8330.18
674.602	8318.88
674.951	8100.35
675.3	8147.36
675.649	8274.81
675.998	8254.47
676.346	8177.41
676.695	8282.27
677.044	8209.5
677.393	8182.16
677.741	8187.13
678.09	8161.82
678.438	8164.98
678.787	8220.57
679.135	8115.04
679.484	8042.27
679.832	8075.95
680.181	8063.52
680.529	8149.16
680.877	8079.79
681.225	8068.26
681.573	8083.86
681.922	8066.68
682.27	7976.29
682.618	8045.89
682.966	8026.68
683.314	8061.48
683.661	7987.59
684.009	7965.21
684.357	7941.26
684.705	7898.32
685.053	7929.96
685.4	7884.31
685.748	7802.96
686.095	7819.91
686.443	7809.51
686.79	7784.43
687.138	7811.55
687.485	7751.66
687.832	7779.23
688.18	7752.34
688.527	7721.6
688.874	7680.02
689.221	7661.95
689.568	7623.3
689.915	7674.6
690.262	7630.99
690.609	7553.93
690.956	7614.49
691.303	7525.68
691.65	7461.95
691.997	7435.28
692.344	7529.52
692.69	7397.32
693.037	7463.31
693.383	7386.47
693.73	7373.59
694.077	7347.38
694.423	7352.12
694.769	7349.64
695.116	7324.55
695.462	7264.67
695.808	7229.64
696.155	7247.49
696.501	7214.05
696.847	7122.07
697.193	7092.02
697.539	7128.4
697.885	7099.7
698.231	7107.38
698.577	7056.54
698.923	7067.84
699.269	7015.63
699.614	7021.96
699.96	6857.9
700.306	6897.45
700.651	6853.61
700.997	6832.14
701.342	6882.76
701.688	6853.38
702.033	6832.36
702.379	6785.36
702.724	6762.53
703.069	6756.21
703.415	6662.2
703.76	6645.47
704.105	6707.62
704.45	6650.67
704.795	6598.7
705.14	6593.5
705.485	6534.29
705.83	6502.43
706.175	6558.47
706.52	6546.04
706.865	6440.06
707.209	6445.25
707.554	6427.63
707.899	6496.33
708.243	6442.09
708.588	6396.67
708.932	6348.08
709.277	6344.92
709.621	6377.01
709.966	6284.81
710.31	6357.35
710.654	6278.48
710.998	6260.4
711.342	6275.54
711.687	6223.79
712.031	6236.45
712.375	6226.05
712.719	6240.06
713.063	6205.71
713.407	6233.06
713.75	6185.37
714.094	6168.43
714.438	6106.96
714.782	6193.96
715.125	6119.61
715.469	6150.12
715.812	6141.76
716.156	6087.3
716.499	6107.86
716.843	6096.11
717.186	6000.52
717.53	6032.84
717.873	6053.4
718.216	6038.26
718.559	6020.63
718.902	6026.51
719.246	6010.24
719.589	6012.5
719.932	5969.79
720.275	5960.07
720.617	5984.02
720.96	5972.95
721.303	5939.28
721.646	6012.72
721.989	5927.08
722.331	5955.55
722.674	5930.69
723.016	5943.57
723.359	5955.78
723.701	5937.25
724.044	5899.73
724.386	5897.25
724.729	5956
725.071	5936.57
725.413	5910.58
725.755	5952.16
726.097	5948.32
726.439	5803.92
726.782	5852.95
727.124	5875.55
727.465	5842.78
727.807	5841.2
728.149	5886.4
728.491	5856.12
728.833	5865.61
729.175	5870.35
729.516	5828.77
729.858	5772.05
730.199	5840.07
730.541	5852.28
730.882	5856.8
731.224	5866.29
731.565	5797.81
731.906	5864.93
732.248	5873.52
732.589	5816.12
732.93	5807.08
733.271	5800.75
733.612	5841.2
733.953	5879.17
734.294	5817.47
734.635	5787.87
734.976	5872.39
735.317	5812.73
735.658	5819.06
735.999	5878.94
736.339	5857.02
736.68	5890.24
737.021	5906.96
737.361	5833.07
737.702	5889.11
738.042	5860.18
738.383	5853.63
738.723	5898.6
739.063	5906.06
739.404	5895.44
739.744	5941.09
740.084	5942.67
740.424	5879.17
740.764	5928.88
741.104	5990.12
741.444	5968.43
741.784	5998.03
742.124	6033.74
742.464	6018.82
742.804	5985.61
743.143	6046.85
743.483	6008.66
743.823	5989.9
744.162	6075.09
744.502	6134.08
744.841	6091.59
745.181	6181.76
745.52	6226.5
745.86	6279.38
746.199	6287.74
746.538	6275.32
746.877	6341.75
747.216	6346.5
747.556	6447.29
747.895	6461.75
748.234	6448.64
748.573	6551.69
748.911	6621.07
749.25	6625.81
749.589	6692.03
749.928	6810.44
750.267	6830.33
750.605	6868.97
750.944	6942.42
751.283	6976.77
751.621	7136.76
751.96	7143.09
752.298	7263.54
752.636	7355.29
752.975	7411.1
753.313	7476.19
753.651	7629.4
753.989	7705.11
754.327	7817.2
754.666	7911.66
755.004	8005.89
755.342	8150.52
755.679	8310.29
756.017	8328.37
756.355	8513.9
756.693	8616.27
757.031	8750.28
757.368	8878.41
757.706	9004.28
758.044	9115.47
758.381	9338.06
758.719	9467.77
759.056	9596.36
759.394	9762.46
759.731	9853.53
760.068	10080.41
760.405	10164.7
760.743	10330.8
761.08	10535.54
761.417	10741.64
761.754	10874.52
762.091	11095.08
762.428	11177.79
762.765	11350.89
763.102	11507.95
763.438	11700.26
763.775	11883.08
764.112	11974.37
764.449	12179.79
764.785	12422.05
765.122	12454.14
765.458	12641.02
765.795	12774.35
766.131	13049.83
766.467	13111.97
766.804	13262.48
767.14	13291.18
767.476	13556.25
767.812	13655.69
768.148	13860.88
768.485	13831.95
768.821	14104.71
769.157	14251.38
769.492	14396.91
769.828	14522.56
770.164	14565.04
770.5	14630.8
770.836	14759.39
771.171	14883
771.507	14953.28
771.842	15062.2
772.178	15284.8
772.513	15281.63
772.849	15419.93
773.184	15448.86
773.519	15594.62
773.855	15583.32
774.19	15706.25
774.525	15699.47
774.86	15766.82
775.195	15986.47
775.53	15998
775.865	15967.94
776.2	15979.92
776.535	16139.24
776.87	16157.32
777.205	16157.54
777.539	16212
777.874	16316.63
778.209	16334.03
778.543	16317.99
778.878	16256.07
779.212	16410.42
779.547	16442.05
779.881	16567.93
780.215	16489.74
780.55	16664.87
780.884	16485.22
781.218	16642.95
781.552	16668.26
781.886	16639.56
782.22	16588.94
782.554	16595.72
782.888	16476.18
783.222	16497.65
783.556	16540.36
783.889	16598.66
784.223	16508.49
784.557	16593.46
784.89	16555.04
785.224	16522.28
785.557	16440.47
785.891	16538.1
786.224	16515.27
786.558	16573.12
786.891	16454.03
787.224	16439.79
787.557	16482.05
787.891	16461.94
788.224	16474.14
788.557	16450.19
788.89	16480.7
789.223	16456.74
789.556	16386.69
789.888	16389.4
790.221	16353.69
790.554	16286.58
790.887	16378.1
791.219	16256.3
791.552	16158.22
791.884	16196.86
792.217	16278.22
792.549	16219.01
792.882	16177.43
793.214	16100.14
793.546	16157.54
793.879	16059.92
794.211	16042.52
794.543	16103.53
794.875	16017.88
795.207	16082.51
795.539	15990.09
795.871	15982.63
796.203	15913.48
796.535	15875.06
796.867	15961.39
797.198	15779.47
797.53	15835.52
797.862	15696.54
798.193	15770.88
798.525	15696.08
798.856	15677.33
799.188	15455.41
799.519	15521.17
799.85	15451.57
800.182	15513.72
800.513	15515.98
800.844	15348.75
801.175	15439.14
801.506	15426.26
801.837	15355.75
802.168	15376.77
802.499	15257.23
802.83	15173.84
803.161	15207.28
803.491	15162.99
803.822	15181.75
804.153	15108.76
804.483	15000.06
804.814	15039.83
805.145	14944.24
805.475	15021.98
805.805	14944.47
806.136	14875.32
806.466	14932.49
806.796	14871.02
807.126	14807.07
807.457	14734.53
807.787	14795.32
808.117	14678.26
808.447	14641.87
808.777	14706.28
809.107	14604.14
809.436	14596.23
809.766	14551.48
810.096	14495.66
810.426	14541.54
810.755	14483.46
811.085	14454.08
811.414	14500.86
811.744	14306.29
812.073	14282.11
812.403	14372.96
812.732	14370.47
813.061	14266.29
813.39	14194.2
813.719	14233.3
814.049	14321.21
814.378	14164.6
814.707	14116.24
815.036	14121.44
815.365	14055.68
815.693	13981.55
816.022	13916.47
816.351	14010.48
816.68	13895.68
817.008	13953.76
817.337	13790.37
817.665	13822.91
817.994	13875.57
818.322	13881.67
818.651	13792.63
818.979	13762.35
819.307	13798.28
819.636	13804.38
819.964	13634.44
820.292	13813.42
820.62	13669.02
820.948	13621.56
821.276	13796.93
821.604	13682.13
821.932	13679.19
822.259	13677.83
822.587	13707.66
822.915	13646.65
823.243	13765.74
823.57	13659.75
823.898	13621.79
824.225	13565.07
824.553	13658.85
824.88	13685.06
825.207	13788.11
825.535	13621.34
825.862	13656.14
826.189	13658.17
826.516	13652.75
826.843	13715.35
827.17	13656.14
827.497	13779.3
827.824	13683.03
828.151	13714.22
828.478	13759.41
828.805	13784.04
829.131	13744.5
829.458	13703.82
829.785	13638.74
830.111	13667.89
830.438	13701.11
830.764	13760.99
831.09	13755.57
831.417	13611.85
831.743	13713.99
832.069	13676.48
832.395	13620.66
832.722	13673.76
833.048	13619.08
833.374	13688.91
833.7	13518.51
834.026	13614.56
834.351	13643.26
834.677	13591.06
835.003	13662.24
835.329	13646.87
835.654	13555.35
835.98	13499.53
836.306	13558.51
836.631	13643.03
836.956	13558.29
837.282	13516.71
837.607	13492.98
837.932	13445.3
838.258	13427.44
838.583	13454.79
838.908	13386.31
839.233	13400.78
839.558	13358.97
839.883	13333.43
840.208	13295.92
840.533	13333.43
840.858	13229.71
841.182	13275.13
841.507	13318.07
841.832	13188.58
842.156	13158.75
842.481	13148.13
842.805	13106.55
843.13	13088.92
843.454	13083.72
843.778	13001.69
844.103	12969.15
844.427	12861.36
844.751	13008.02
845.075	12973.22
845.399	12949.04
845.723	12761.02
846.047	12832.88
846.371	12729.16
846.695	12747.24
847.019	12591.31
847.343	12544.3
847.666	12509.73
847.99	12419.33
848.313	12487.81
848.637	12357.64
848.96	12306.12
849.284	12379.56
849.607	12267.25
849.931	12271.54
850.254	12157.19
850.577	12100.25
850.9	11939.12
851.223	11954.49
851.546	11956.3
851.869	11841.95
852.192	11902.51
852.515	11874.94
852.838	11743.19
853.161	11734.15
853.483	11637.89
853.806	11653.7
854.129	11603.99
854.451	11531
854.774	11608.51
855.096	11493.26
855.419	11460.94
855.741	11432.24
856.063	11369.87
856.385	11352.7
856.708	11278.35
857.03	11346.37
857.352	11282.42
857.674	11210.33
857.996	11199.48
858.318	11131.23
858.64	11103.66
858.961	11065.92
859.283	11045.13
859.605	10882.88
859.926	10956.77
860.248	10947.73
860.57	10942.76
860.891	10881.97
861.212	10946.15
861.534	10854.63
861.855	10896.89
862.176	10802.88
862.498	10757.23
862.819	10852.14
863.14	10821.41
863.461	10776.44
863.782	10707.74
864.103	10736.44
864.424	10681.08
864.745	10649.44
865.065	10676.33
865.386	10611.92
865.707	10653.73
866.027	10644.92
866.348	10629.1
866.668	10626.39
866.989	10528.76
867.309	10482.66
867.63	10519.27
867.95	10524.7
868.27	10429.33
868.59	10478.37
868.91	10405.6
869.23	10355.43
869.55	10418.94
869.87	10408.77
870.19	10342.78
870.51	10397.24
870.83	10398.14
871.15	10342.78
871.469	10281.76
871.789	10303.46
872.109	10302.55
872.428	10276.79
872.748	10238.6
873.067	10294.64
873.386	10237.47
873.706	10174.87
874.025	10168.32
874.344	10098.72
874.663	10168.77
874.982	10136.68
875.301	10097.81
875.62	10089.45
875.939	9988.66
876.258	10085.84
876.577	10035.22
876.896	10070.7
877.214	9975.78
877.533	10033.18
877.852	9927.2
878.17	10013.3
878.489	9905.05
878.807	9949.34
879.125	9927.42
879.444	9927.87
879.762	9892.4
880.08	9861.21
880.398	9837.03
880.716	9828.89
881.034	9729.69
881.352	9719.52
881.67	9736.92
881.988	9765.17
882.306	9696.47
882.624	9673.64
882.941	9616.24
883.259	9623.93
883.577	9644.04
883.894	9631.16
884.212	9575.57
884.529	9523.59
884.846	9563.82
885.164	9480.43
885.481	9439.07
885.798	9456.93
886.115	9437.04
886.432	9418.74
886.75	9412.63
887.067	9372.63
887.383	9312.75
887.7	9435.46
888.017	9239.98
888.334	9387.32
888.651	9297.61
888.967	9274.56
889.284	9210.61
889.6	9241.34
889.917	9143.94
890.233	9190.04
890.55	9123.6
890.866	9168.12
891.182	9060.55
891.498	9046.77
891.815	9014.9
892.131	9001.57
892.447	8933.55
892.763	8953.66
893.079	8934
893.395	8821.46
893.71	8881.57
894.026	8828.92
894.342	8729.94
894.657	8755.7
894.973	8742.59
895.289	8710.28
895.604	8718.41
895.92	8627.34
896.235	8575.14
896.55	8637.29
896.865	8561.58
897.181	8558.19
897.496	8498.53
897.811	8487.69
898.126	8446.56
898.441	8444.52
898.756	8344.19
899.071	8368.37
899.386	8320.46
899.7	8335.37
900.015	8239.56
900.33	8226.22
900.644	8132.44
900.959	8170.86
901.273	8181.25
901.588	8144.64
901.902	8059.45
902.216	8053.8
902.531	8030.3
902.845	8031.88
903.159	7945.55
903.473	7922.28
903.787	7898.78
904.101	7858.1
904.415	7843.41
904.729	7830.53
905.042	7802.28
905.356	7766.35
905.67	7732.9
905.984	7664.43
906.297	7642.96
906.611	7647.03
906.924	7617.43
907.237	7589.63
907.551	7568.61
907.864	7506.24
908.177	7479.8
908.491	7453.82
908.804	7466.24
909.117	7359.81
909.43	7348.96
909.743	7295.18
910.056	7281.39
910.368	7297.89
910.681	7208.17
910.994	7269.19
911.307	7214.95
911.619	7140.6
911.932	7171.56
912.244	7068.51
912.557	7106.71
912.869	7033.94
913.181	7008.18
913.494	6983.32
913.806	6909.2
914.118	6913.26
914.43	6954.17
914.742	6856.32
915.054	6859.03
915.366	6877.56
915.678	6779.26
915.99	6739.48
916.302	6733.83
916.613	6716.89
916.925	6695.64
917.236	6624.01
917.548	6625.59
917.859	6604.57
918.171	6570.45
918.482	6532.94
918.794	6515.53
919.105	6479.83
919.416	6444.58
919.727	6396.44
920.038	6448.42
920.349	6406.61
920.66	6371.36
920.971	6290.91
921.282	6339.95
921.593	6275.54
921.903	6234.86
922.214	6205.26
922.525	6178.59
922.835	6179.5
923.146	6115.55
923.456	6167.97
923.767	6119.16
924.077	6098.37
924.387	6061.76
924.697	6046.17
925.008	6011.37
925.318	6001.65
925.628	5984.48
925.938	5964.81
926.248	5877.13
926.558	5921.88
926.867	5887.08
927.177	5869.22
927.487	5785.84
927.796	5770.47
928.106	5780.86
928.416	5787.42
928.725	5725.95
929.034	5723.69
929.344	5717.59
929.653	5647.08
929.962	5624.48
930.271	5624.03
930.581	5582.9
930.89	5538.39
931.199	5573.64
931.508	5536.35
931.817	5517.37
932.125	5506.3
932.434	5470.82
932.743	5419.97
933.051	5375.45
933.36	5400.76
933.669	5358.96
933.977	5310.82
934.286	5342.23
934.594	5311.95
934.902	5266.98
935.21	5272.86
935.519	5252.07
935.827	5219.07
936.135	5185.17
936.443	5171.16
936.751	5113.76
937.059	5146.08
937.367	5100.88
937.674	5090.26
937.982	5087.1
938.29	5086.42
938.597	5035.57
938.905	4985.63
939.213	4959.87
939.52	4908.57
939.827	4968.68
940.135	4917.38
940.442	4920.55
940.749	4901.11
941.056	4909.93
941.363	4824.28
941.67	4797.16
941.977	4811.85
942.284	4744.51
942.591	4757.39
942.898	4748.35
943.205	4728.46
943.511	4711.74
943.818	4665.87
944.125	4666.77
944.431	4652.99
944.738	4628.35
945.044	4627.67
945.35	4572.99
945.657	4521.24
945.963	4507.45
946.269	4522.82
946.575	4483.27
946.881	4478.07
947.187	4467.91
947.493	4441.24
947.799	4407.79
948.105	4386.78
948.41	4388.59
948.716	4352.43
949.022	4351.3
949.327	4342.94
949.633	4281.24
949.938	4288.02
950.244	4275.14
950.549	4262.26
950.854	4246.89
951.16	4255.71
951.465	4220.91
951.77	4163.73
952.075	4171.64
952.38	4151.76
952.685	4148.59
952.99	4091.19
953.294	4115.15
953.599	4083.06
953.904	4028.59
954.209	4028.37
954.513	4010.52
954.818	4003.74
955.122	3963.96
955.426	4001.48
955.731	3926.45
956.035	3944.76
956.339	3965.32
956.643	3936.62
956.948	3880.12
957.252	3852.1
957.556	3890.07
957.86	3839.45
958.163	3836.51
958.467	3806.45
958.771	3789.73
959.075	3807.81
959.378	3775.95
959.682	3770.75
959.985	3756.29
960.289	3730.98
960.592	3738.88
960.896	3690.3
961.199	3664.31
961.502	3670.41
961.805	3630.41
962.108	3602.17
962.411	3591.32
962.714	3571.21
963.017	3607.14
963.32	3584.31
963.623	3575.05
963.926	3547.25
964.228	3530.75
964.531	3519.91
964.833	3495.73
965.136	3439.46
965.438	3460.25
965.741	3437.42
966.043	3407.14
966.345	3404.2
966.648	3388.39
966.95	3351.55
967.252	3375.5
967.554	3372.57
967.856	3300.48
968.158	3316.75
968.46	3294.6
968.761	3300.03
969.063	3287.15
969.365	3293.47
969.666	3264.55
969.968	3204.66
970.269	3207.37
970.571	3208.28
970.872	3222.74
971.174	3126.25
971.475	3178.67
971.776	3139.8
972.077	3137.09
972.378	3170.54
972.679	3150.88
972.98	3119.01
973.281	3083.99
973.582	3070.65
973.883	3069.98
974.183	3055.29
974.484	3045.34
974.785	3020.49
975.085	3004.44
975.386	3018.23
975.686	2985.01
975.986	2941.62
976.287	2991.79
976.587	2942.97
976.887	2915.86
977.187	2914.95
977.487	2940.49
977.787	2876.08
978.087	2861.17
978.387	2865.24
978.687	2846.93
978.987	2831.11
979.286	2847.61
979.586	2827.5
979.885	2796.99
980.185	2757.22
980.484	2776.2
980.784	2747.27
981.083	2751.11
981.382	2738.69
981.682	2716.09
981.981	2693.26
982.28	2728.74
982.579	2680.16
982.878	2714.73
983.177	2660.27
983.475	2687.39
983.774	2651.68
984.073	2628.86
984.372	2598.35
984.67	2618.69
984.969	2637.9
985.267	2558.8
985.566	2554.74
985.864	2564.9
986.162	2587.5
986.461	2535.75
986.759	2542.31
987.057	2468.41
987.355	2459.6
987.653	2476.09
987.951	2492.59
988.249	2488.07
988.547	2466.38
988.844	2461.4
989.142	2439.48
989.44	2462.53
989.737	2451.23
990.035	2413.04
990.332	2398.81
990.63	2402.87
990.927	2382.31
991.224	2374.63
991.521	2388.19
991.819	2370.33
992.116	2339.15
992.413	2344.12
992.71	2293.95
993.006	2294.18
993.303	2292.37
993.6	2274.97
993.897	2274.52
994.193	2261.86
994.49	2243.33
994.787	2225.03
995.083	2202.65
995.379	2230.45
995.676	2196.33
995.972	2206.27
996.268	2168.3
996.565	2156.1
996.861	2190.68
997.157	2139.15
997.453	2148.64
997.749	2134.41
998.044	2123.11
998.34	2110.9
998.636	2106.39
998.932	2091.92
999.227	2071.36
999.523	2065.26
999.818	2051.25
1000.114	2005.82
1000.409	2038.59
1000.704	2022.32
1001	2021.64
1001.295	2006.05
1001.59	2001.3
1001.885	2012.83
1002.18	1953.17
1002.475	1959.27
1002.77	1936.45
1003.065	1907.29
1003.359	1942.77
1003.654	1916.11
1003.949	1899.39
1004.243	1882.66
1004.538	1910.23
1004.832	1887.18
1005.127	1846.73
1005.421	1850.35
1005.715	1851.02
1006.009	1844.92
1006.304	1805.15
1006.598	1818.71
1006.892	1803.34
1007.186	1787.98
1007.48	1806.51
1007.773	1785.72
1008.067	1753.4
1008.361	1757.02
1008.655	1729.67
1008.948	1725.15
1009.242	1750.01
1009.535	1728.09
1009.829	1704.59
1010.122	1682.67
1010.415	1664.36
1010.708	1684.02
1011.001	1651.93
1011.295	1678.6
1011.588	1640.86
1011.881	1622.33
1012.173	1599.96
1012.466	1625.72
1012.759	1597.25
1013.052	1585.27
1013.344	1599.96
1013.637	1590.01
1013.93	1583.69
1014.222	1552.5
1014.514	1529.23
1014.807	1541.43
1015.099	1492.84
1015.391	1537.81
1015.683	1527.87
1015.976	1529.68
1016.268	1458.72
1016.56	1475.22
1016.851	1481.09
1017.143	1469.57
1017.435	1490.58
1017.727	1455.55
1018.018	1443.35
1018.31	1436.57
1018.602	1441.77
1018.893	1429.34
1019.185	1419.85
1019.476	1375.56
1019.767	1384.82
1020.058	1374.88
1020.35	1341.21
1020.641	1312.06
1020.932	1355.67
1021.223	1365.16
1021.514	1332.39
1021.804	1330.59
1022.095	1289.01
1022.386	1298.72
1022.677	1307.99
1022.967	1281.1
1023.258	1291.49
1023.548	1276.35
1023.839	1287.2
1024.129	1255.79
1024.419	1241.55
1024.709	1254.88
1025	1257.14
1025.29	1229.35
1025.58	1251.04
1025.87	1229.12
1026.16	1217.82
1026.449	1219.63
1026.739	1200.42
1027.029	1195.9
1027.319	1170.82
1027.608	1152.06
1027.898	1182.34
1028.187	1144.15
1028.477	1147.77
1028.766	1152.29
1029.055	1156.58
1029.344	1112.97
1029.634	1147.99
1029.923	1099.63
1030.212	1103.02
1030.501	1111.84
1030.79	1084.72
1031.078	1075.45
1031.367	1099.18
1031.656	1070.71
1031.945	1050.59
1032.233	1051.72
1032.522	1031.16
1032.81	1056.92
1033.099	1034.78
1033.387	1043.81
1033.675	1000.2
1033.963	1007.88
1034.251	1039.07
1034.54	997.04
1034.828	1003.59
1035.116	1018.96
1035.403	977.83
1035.691	982.12
1035.979	977.38
1036.267	972.63
1036.554	957.71
1036.842	955.46
1037.129	958.62
1037.417	960.88
1037.704	936.02
1037.992	931.5
1038.279	926.53
1038.566	937.38
1038.853	937.38
1039.14	937.38
