Data from hue_110_FLMS001491_00045.txt Node
Date: Tue Feb 07 17:01:22 GMT 2017
User: dcchb
Spectrometer: FLMS00149
Trigger mode: 0
Integration Time (sec): 2.000000E-2
Scans to average: 10
Electric dark correction enabled: true
Nonlinearity correction enabled: false
Boxcar width: 0
XAxis mode: Wavelengths
Number of Pixels in Spectrum: 2048
>>>>>Begin Spectral Data<<<<<
341.393	-8.62
341.776	-8.62
342.16	-8.62
342.543	-48.39
342.927	-64.89
343.31	-57.65
343.693	-80.03
344.077	-76.41
344.46	-42.06
344.843	-68.28
345.226	-29.63
345.61	-47.94
345.993	-24.89
346.376	-14.04
346.759	-1.38
347.142	35.68
347.525	43.59
347.908	77.48
348.291	77.48
348.674	96.69
349.057	111.38
349.44	129.91
349.823	135.79
350.206	162.68
350.588	201.32
350.971	232.28
351.354	216.01
351.737	226.18
352.119	252.62
352.502	249.68
352.884	264.6
353.267	296.91
353.65	299.85
354.032	287.87
354.414	303.69
354.797	315.22
355.179	313.18
355.562	328.55
355.944	335.56
356.326	331.49
356.709	357.25
357.091	345.5
357.473	355.22
357.855	344.82
358.238	351.83
358.62	357.7
359.002	332.17
359.384	339.62
359.766	344.37
360.148	342.11
360.53	353.86
360.912	350.47
361.294	328.1
361.676	347.08
362.057	347.08
362.439	336.01
362.821	334.88
363.203	342.56
363.584	344.82
363.966	324.48
364.348	328.1
364.729	331.04
365.111	322.45
365.493	311.38
365.874	317.93
366.256	313.41
366.637	312.73
367.019	308.44
367.4	298.72
367.781	310.47
368.163	315.67
368.544	307.76
368.925	327.87
369.306	324.71
369.688	340.3
370.069	315.9
370.45	337.36
370.831	317.48
371.212	340.75
371.593	321.32
371.974	320.19
372.355	343.47
372.736	313.64
373.117	321.09
373.498	340.98
373.879	318.61
374.26	339.85
374.641	310.92
375.021	320.87
375.402	354.31
375.783	336.46
376.163	333.52
376.544	313.64
376.925	345.73
377.305	340.08
377.686	324.93
378.066	333.97
378.447	342.79
378.827	349.34
379.208	334.2
379.588	340.3
379.968	328.78
380.349	338.95
380.729	347.08
381.109	361.54
381.489	347.08
381.87	358.15
382.25	353.41
382.63	370.36
383.01	349.12
383.39	372.39
383.77	351.15
384.15	339.17
384.53	357.02
384.91	372.39
385.29	345.95
385.67	348.66
386.049	366.52
386.429	337.14
386.809	363.35
387.189	368.32
387.568	386.63
387.948	363.13
388.328	372.17
388.707	368.55
389.087	353.86
389.466	364.48
389.846	382.79
390.225	382.56
390.605	364.26
390.984	380.75
391.363	371.49
391.743	382.79
392.122	364.03
392.501	390.02
392.881	397.25
393.26	381.88
393.639	399.51
394.018	388.89
394.397	418.04
394.776	396.57
395.155	387.08
395.534	392.73
395.913	416.01
396.292	435.89
396.671	419.17
397.05	388.21
397.429	411.49
397.808	406.74
398.186	403.8
398.565	414.2
398.944	409.68
399.323	420.98
399.701	428.66
400.08	439.28
400.458	430.24
400.837	428.89
401.215	429.79
401.594	432.28
401.972	429.79
402.351	428.21
402.729	430.24
403.107	436.34
403.486	432.05
403.864	446.06
404.242	459.17
404.62	460.07
404.999	436.34
405.377	452.16
405.755	451.94
406.133	455.33
406.511	469.79
406.889	460.52
407.267	461.65
407.645	478.6
408.023	479.96
408.401	482.44
408.779	471.6
409.156	474.76
409.534	476.8
409.912	485.61
410.29	481.32
410.667	491.03
411.045	492.39
411.422	488.77
411.8	489.22
412.178	498.94
412.555	499.62
412.933	504.37
413.31	535.78
413.687	524.48
414.065	530.13
414.442	527.87
414.819	527.87
415.197	522.44
415.574	546.4
415.951	549.34
416.328	533.74
416.705	550.01
417.082	519.51
417.46	551.14
417.837	585.49
418.214	573.06
418.591	575.55
418.967	568.32
419.344	561.31
419.721	584.14
420.098	581.2
420.475	584.59
420.852	590.24
421.228	618.03
421.605	583.69
421.982	598.83
422.358	596.11
422.735	598.6
423.111	593.63
423.488	633.18
423.864	620.07
424.241	647.41
424.617	617.36
424.994	636.34
425.37	644.93
425.746	641.99
426.123	655.1
426.499	670.01
426.875	677.92
427.251	670.24
427.627	672.95
428.003	653.51
428.379	684.47
428.756	677.24
429.132	697.13
429.507	697.58
429.883	705.49
430.259	701.42
430.635	703
431.011	688.77
431.387	731.03
431.763	724.02
432.138	750.01
432.514	734.42
432.89	751.14
433.265	764.7
433.641	762.66
434.016	764.92
434.392	790.23
434.767	789.78
435.143	791.14
435.518	800.63
435.894	792.49
436.269	818.93
436.644	841.76
437.02	827.29
437.395	834.07
437.77	824.36
438.145	854.86
438.52	867.52
438.895	855.99
439.271	844.24
439.646	887.86
440.021	880.17
440.395	899.61
440.77	909.1
441.145	919.72
441.52	914.07
441.895	916.78
442.27	910.46
442.645	904.58
443.019	918.37
443.394	968.99
443.769	962.21
444.143	934.64
444.518	970.12
444.892	964.47
445.267	1001.53
445.641	964.24
446.016	992.71
446.39	991.58
446.764	1022.32
447.139	993.39
447.513	1004.92
447.887	1020.51
448.262	1016.22
448.636	1018.93
449.01	1034.07
449.384	1063.22
449.758	1071.58
450.132	1085.14
450.506	1097.57
450.88	1085.14
451.254	1060.06
451.628	1093.95
452.002	1103.9
452.376	1100.51
452.75	1117.91
453.123	1114.52
453.497	1107.29
453.871	1157
454.244	1184.35
454.618	1171.01
454.992	1175.31
455.365	1187.96
455.739	1239.94
456.112	1246.49
456.486	1259.37
456.859	1282.2
457.232	1278.13
457.606	1316.1
457.979	1301.41
458.352	1326.04
458.725	1357.68
459.099	1337.34
459.472	1368.3
459.845	1417.34
460.218	1405.36
460.591	1394.06
460.964	1433.61
461.337	1450.1
461.71	1479.71
462.083	1524.23
462.456	1497.56
462.829	1537.11
463.201	1563.55
463.574	1569.65
463.947	1598.8
464.32	1617.78
464.692	1634.28
465.065	1636.31
465.438	1679.02
465.81	1716.76
466.183	1750.21
466.555	1792.02
466.928	1765.35
467.3	1794.05
467.672	1812.13
468.045	1903.2
468.417	1928.28
468.789	1916.31
469.161	1950.2
469.534	1998.56
469.906	2047.6
470.278	2068.84
470.65	2088.96
471.022	2149.52
471.394	2207.82
471.766	2201.27
472.138	2238.33
472.51	2314.94
472.882	2367.37
473.253	2409.4
473.625	2459.79
473.997	2539.34
474.369	2571.66
474.74	2600.58
475.112	2708.83
475.484	2721.71
475.855	2823.63
476.227	2877.64
476.598	2992.44
476.97	3041.93
477.341	3101.81
477.713	3217.74
478.084	3252.54
478.455	3351.97
478.827	3448.02
479.198	3570.73
479.569	3588.35
479.94	3752.87
480.311	3845.52
480.682	3963.71
481.053	4075.12
481.424	4169.58
481.795	4255.91
482.166	4398.27
482.537	4518.27
482.908	4618.83
483.279	4755.1
483.65	4838.71
484.021	5050.01
484.391	5098.82
484.762	5222.89
485.133	5353.05
485.503	5523.89
485.874	5700.84
486.244	5753.04
486.615	6019.93
486.985	6140.6
487.356	6268.28
487.726	6377.21
488.097	6571.32
488.467	6727.03
488.837	6831.2
489.207	7023.52
489.578	7216.96
489.948	7320.68
490.318	7499.89
490.688	7675.48
491.058	7889.93
491.428	8082.7
491.798	8230.26
492.168	8460.77
492.538	8607.88
492.908	8690.82
493.278	8930.13
493.648	9015.1
494.017	9180.97
494.387	9407.18
494.757	9485.15
495.126	9672.94
495.496	9796.78
495.866	9934.4
496.235	10142.98
496.605	10279.02
496.974	10415.29
497.344	10603.31
497.713	10742.29
498.082	10875.17
498.452	11052.79
498.821	11119.91
499.19	11246
499.559	11466.11
499.928	11490.97
500.298	11648.03
500.667	11743.84
501.036	11853.22
501.405	12005.76
501.774	12102.25
502.143	12171.63
502.512	12334.34
502.88	12506.31
503.249	12468.57
503.618	12745.85
503.987	12813.65
504.356	12899.97
504.724	12960.99
505.093	13146.29
505.462	13128.89
505.83	13341.99
506.199	13440.75
506.567	13565.49
506.936	13608.43
507.304	13760.74
507.672	13769.33
508.041	13845.03
508.409	14013.39
508.777	14058.59
509.145	14238.02
509.514	14181.07
509.882	14342.65
510.25	14380.84
510.618	14493.15
510.986	14646.37
511.354	14633.26
511.722	14769.53
512.09	14884.1
512.458	14859.02
512.826	15006.58
513.193	15092
513.561	15100.82
513.929	15150.31
514.297	15275.28
514.664	15342.39
515.032	15469.62
515.4	15464.42
515.767	15609.96
516.135	15513.46
516.502	15549.39
516.869	15719.33
517.237	15706
517.604	15708.49
517.972	15836.17
518.339	15953.9
518.706	15905.77
519.073	15918.65
519.44	15998.42
519.808	16166.55
520.175	16018.99
520.542	16294.46
520.909	16231.64
521.276	16230.51
521.643	16384.63
522.009	16380.11
522.376	16463.95
522.743	16518.63
523.11	16532.19
523.477	16755.46
523.843	16754.79
524.21	16867.78
524.577	17010.6
524.943	16992.07
525.31	17030.48
525.676	17067.55
526.043	17126.08
526.409	17107.54
526.776	17250.37
527.142	17242.68
527.508	17273.42
527.874	17282.23
528.241	17317.03
528.607	17259.18
528.973	17377.14
529.339	17369.46
529.705	17410.81
530.071	17538.27
530.437	17485.84
530.803	17596.57
531.169	17544.14
531.535	17399.29
531.901	17430.25
532.267	17524.26
532.632	17479.06
532.998	17496.91
533.364	17555.67
533.73	17476.57
534.095	17585.72
534.461	17576.23
534.826	17619.62
535.192	17642.45
535.557	17602.67
535.923	17515.22
536.288	17545.95
536.653	17579.85
537.019	17460.76
537.384	17384.37
537.749	17491.72
538.114	17388.67
538.479	17372.4
538.845	17411.49
539.21	17310.25
539.575	17368.78
539.94	17312.06
540.305	17325.17
540.67	17192.51
541.034	17195.23
541.399	17162.68
541.764	17205.62
542.129	17117.49
542.494	17044.72
542.858	17083.14
543.223	17061.44
543.587	17060.54
543.952	17056.25
544.316	16989.58
544.681	16849.92
545.045	16902.35
545.41	16965.18
545.774	16926.08
546.138	16876.14
546.503	16816.03
546.867	16715.24
547.231	16754.56
547.595	16741.68
547.959	16721.34
548.324	16631.4
548.688	16648.57
549.052	16594.56
549.416	16508.69
549.779	16539.2
550.143	16512.98
550.507	16488.13
550.871	16441.12
551.235	16408.58
551.599	16417.17
551.962	16300.79
552.326	16353.44
552.689	16380.11
553.053	16255.14
553.417	16290.16
553.78	16448.58
554.143	16268.02
554.507	16282.93
554.87	16209.49
555.234	16405.87
555.597	16195.93
555.96	16140.79
556.323	16210.84
556.686	16141.02
557.05	16198.64
557.413	16145.76
557.776	16098.53
558.139	16178.3
558.502	16128.14
558.865	16066.89
559.228	16113.45
559.59	16173.56
559.953	16143.5
560.316	16207.91
560.679	16150.96
561.041	16305.53
561.404	16213.33
561.767	16243.39
562.129	16232.09
562.492	16222.37
562.854	16244.52
563.217	16240.45
563.579	16219.43
563.941	16258.08
564.304	16235.25
564.666	16273.22
565.028	16345.3
565.39	16319.09
565.753	16374.23
566.115	16327.68
566.477	16337.62
566.839	16373.78
567.201	16481.57
567.563	16336.04
567.925	16456.26
568.287	16423.04
568.648	16388.24
569.01	16512.76
569.372	16550.5
569.734	16520.89
570.095	16566.54
570.457	16592.53
570.819	16534.45
571.18	16519.99
571.542	16655.13
571.903	16597.05
572.265	16538.97
572.626	16684.28
572.987	16647.22
573.349	16671.4
573.71	16727.44
574.071	16722.7
574.432	16757.05
574.794	16790.94
575.155	16841.34
575.516	16776.71
575.877	16740.1
576.238	16824.61
576.599	16916.36
576.96	16825.29
577.32	16752.98
577.681	16900.09
578.042	16855.57
578.403	16785.52
578.763	16867.32
579.124	16933.31
579.485	16841.34
579.845	16902.8
580.206	16784.16
580.566	16833.2
580.927	16815.8
581.287	16964.95
581.648	16878.4
582.008	16901.22
582.368	16833.65
582.728	16820.55
583.089	16827.33
583.449	16741.45
583.809	16871.17
584.169	16773.32
584.529	16682.02
584.889	16897.83
585.249	16679.08
585.609	16707.78
585.969	16795.91
586.329	16712.75
586.688	16683.6
587.048	16669.82
587.408	16674.56
587.768	16661.45
588.127	16566.32
588.487	16682.02
588.846	16754.56
589.206	16569.93
589.565	16641.34
589.925	16669.36
590.284	16570.61
590.643	16702.36
591.003	16539.88
591.362	16750.27
591.721	16583.49
592.08	16530.84
592.44	16697.16
592.799	16539.2
593.158	16568.8
593.517	16523.38
593.876	16617.16
594.235	16522.25
594.593	16540.78
594.952	16455.13
595.311	16508.24
595.67	16554.11
596.029	16681.57
596.387	16537.62
596.746	16651.29
597.104	16502.14
597.463	16472.76
597.822	16520.89
598.18	16493.78
598.538	16449.71
598.897	16532.19
599.255	16378.52
599.613	16658.52
599.972	16383.72
600.33	16479.76
600.688	16430.27
601.046	16514.34
601.404	16467.11
601.762	16402.03
602.12	16610.16
602.478	16576.03
602.836	16551.17
603.194	16324.06
603.552	16449.03
603.91	16424.85
604.268	16493.55
604.625	16404.96
604.983	16457.39
605.341	16324.74
605.698	16482.93
606.056	16458.07
606.413	16420.33
606.771	16545.07
607.128	16551.85
607.485	16476.37
607.843	16445.87
608.2	16508.46
608.557	16663.04
608.914	16557.28
609.272	16599.31
609.629	16500.55
609.986	16653.55
610.343	16573.55
610.7	16710.49
611.057	16514.79
611.414	16601.12
611.771	16589.14
612.127	16684.28
612.484	16666.88
612.841	16737.16
613.198	16639.31
613.554	16719.31
613.911	16700.78
614.267	16761.34
614.624	16695.35
614.98	16750.04
615.337	16805.41
615.693	16709.81
616.05	16816.25
616.406	16910.26
616.762	16753.66
617.118	16775.58
617.475	16811.96
617.831	16884.05
618.187	16790.04
618.543	16828.68
618.899	16928.34
619.255	16829.36
619.611	16842.24
619.967	16900.32
620.323	16947.55
620.678	16883.37
621.034	16844.05
621.39	16835.69
621.746	16884.27
622.101	17025.51
622.457	16887.66
622.812	16998.39
623.168	16971.95
623.523	16986.64
623.879	17042.01
624.234	16858.29
624.589	16908.91
624.945	16856.03
625.3	16956.14
625.655	16885.63
626.01	16950.49
626.365	16959.07
626.72	16931.96
627.075	16941.45
627.43	16900.77
627.785	16891.28
628.14	16911.84
628.495	16936.93
628.85	16915.91
629.205	16905.06
629.559	16927.89
629.914	16880.21
630.269	16841.56
630.623	16892.86
630.978	16804.73
631.332	16918.85
631.687	16738.74
632.041	16823.26
632.396	16876.36
632.75	16739.19
633.104	16778.97
633.459	16707.56
633.813	16699.19
634.167	16686.31
634.521	16679.53
634.875	16714.11
635.229	16637.73
635.583	16564.06
635.937	16495.58
636.291	16555.02
636.645	16529.93
636.999	16531.06
637.352	16513.89
637.706	16461.46
638.06	16441.8
638.413	16405.64
638.767	16382.37
639.121	16429.82
639.474	16282.48
639.828	16339.43
640.181	16297.85
640.534	16274.8
640.888	16384.63
641.241	16292.65
641.594	16307.57
641.947	16261.24
642.301	16241.35
642.654	16303.27
643.007	16305.31
643.36	16249.26
643.713	16219.43
644.066	16321.8
644.419	16147.57
644.771	16113.22
645.124	16001.81
645.477	15922.49
645.83	15800.46
646.182	15846.56
646.535	15692.67
646.888	15757.98
647.24	15689.28
647.593	15806.11
647.945	15738.77
648.298	15575.61
648.65	15586.91
649.002	15550.07
649.355	15686.11
649.707	15685.89
650.059	15781.93
650.411	15923.85
650.763	15892.21
651.115	16071.64
651.467	15983.51
651.819	15998.42
652.171	16085.88
652.523	16003.62
652.875	16015.37
653.227	15931.76
653.578	16135.59
653.93	16044.97
654.282	16004.75
654.633	15944.41
654.985	15937.18
655.337	15989.16
655.688	16114.58
656.039	16040
656.391	16012.66
656.742	15940.12
657.094	15991.19
657.445	16017.18
657.796	15999.55
658.147	15992.32
658.498	15975.37
658.849	16019.89
659.2	15973.79
659.551	15924.52
659.902	16093.33
660.253	16041.36
660.604	16002.94
660.955	15935.82
661.306	16133.78
661.656	16107.34
662.007	16004.3
662.358	16047.91
662.708	16122.71
663.059	16057.18
663.409	15942.83
663.76	16098.76
664.11	16066.44
664.461	16110.28
664.811	16139.21
665.161	16157.74
665.511	16030.51
665.862	16053.11
666.212	16194.57
666.562	16086.78
666.912	16122.94
667.262	16141.24
667.612	16071.64
667.962	16157.06
668.312	16096.5
668.662	16210.84
669.011	16171.98
669.361	16156.38
669.711	16067.57
670.06	16053.79
670.41	16051.53
670.76	15932.21
671.109	16151.19
671.459	15997.29
671.808	15944.64
672.157	16074.35
672.507	15908.48
672.856	15887.01
673.205	15939.67
673.554	15952.32
673.904	15954.58
674.253	16005.2
674.602	15868.71
674.951	15594.14
675.3	15630.07
675.649	15800.01
675.998	15802.49
676.346	15797.07
676.695	15891.98
677.044	15757.98
677.393	15913.23
677.741	15753.91
678.09	15764.08
678.438	15709.16
678.787	15718.65
679.135	15679.56
679.484	15622.84
679.832	15761.37
680.181	15661.25
680.529	15511.2
680.877	15473.01
681.225	15545.78
681.573	15616.96
681.922	15455.84
682.27	15460.36
682.618	15384.2
682.966	15407.48
683.314	15445.89
683.661	15406.12
684.009	15389.62
684.357	15244.54
684.705	15253.13
685.053	15259.23
685.4	15252.68
685.748	15255.39
686.095	15202.51
686.443	15061.27
686.79	15120.48
687.138	15142.62
687.485	15054.27
687.832	14971.1
688.18	15116.41
688.527	14903.08
688.874	14885.23
689.221	14846.14
689.568	14850.2
689.915	14875.06
690.262	14725.46
690.609	14670.77
690.956	14679.36
691.303	14611.79
691.65	14587.38
691.997	14495.18
692.344	14469.42
692.69	14413.83
693.037	14392.36
693.383	14253.16
693.73	14348.75
694.077	14245.7
694.423	14135.42
694.769	14106.04
695.116	14051.81
695.462	14048.64
695.808	14053.84
696.155	14055.42
696.501	13868.99
696.847	13894.75
697.193	13841.42
697.539	13838.48
697.885	13665.15
698.231	13710.35
698.577	13588.77
698.923	13573.63
699.269	13527.07
699.614	13419.05
699.96	13418.83
700.306	13388.55
700.651	13275.33
700.997	13298.83
701.342	13193.3
701.688	13247.31
702.033	13140.19
702.379	13150.36
702.724	13077.59
703.069	13100.19
703.415	12961.21
703.76	12910.37
704.105	12920.08
704.45	12877.83
704.795	12831.05
705.14	12756.02
705.485	12752.63
705.83	12651.39
706.175	12694.55
706.52	12570.26
706.865	12628.11
707.209	12591.51
707.554	12419.76
707.899	12516.03
708.243	12441.23
708.588	12414.33
708.932	12226.09
709.277	12317.84
709.621	12353.55
709.966	12230.61
710.31	12228.58
710.654	12095.7
710.998	12130.5
711.342	12198.52
711.687	12088.92
712.031	12010.28
712.375	12037.85
712.719	12035.36
713.063	11923.27
713.407	12018.86
713.75	11850.51
714.094	11963.27
714.438	11856.61
714.782	11875.82
715.125	11812.09
715.469	11831.98
715.812	11743.62
716.156	11669.72
716.499	11712.88
716.843	11649.83
717.186	11598.54
717.53	11717.63
717.873	11652.77
718.216	11688.93
718.559	11592.21
718.902	11467.47
719.246	11531.42
719.589	11489.84
719.932	11530.29
720.275	11466.11
720.617	11505.43
720.96	11469.5
721.303	11494.81
721.646	11478.31
721.989	11433.34
722.331	11431.99
722.674	11424.53
723.016	11408.26
723.359	11377.53
723.701	11430.63
724.044	11284.87
724.386	11338.2
724.729	11398.77
725.071	11353.57
725.413	11359
725.755	11319.9
726.097	11221.6
726.439	11169.85
726.782	11241.94
727.124	11253.69
727.465	11174.37
727.807	11281.71
728.149	11261.37
728.491	11163.75
728.833	11215.72
729.175	11159.45
729.516	11181.15
729.858	11167.14
730.199	11186.57
730.541	11080.58
730.882	11169.17
731.224	11181.82
731.565	11096.18
731.906	11102.5
732.248	11176.85
732.589	11102.05
732.93	11123.75
733.271	11101.83
733.612	11040.13
733.953	11201.71
734.294	11099.57
734.635	11089.4
734.976	11119.23
735.317	11081.26
735.658	11080.36
735.999	11095.95
736.339	11130.07
736.68	11200.36
737.021	11133.92
737.361	11101.37
737.702	11198.32
738.042	11188.15
738.383	11219.34
738.723	11185.44
739.063	11133.92
739.404	11253.69
739.744	11259.79
740.084	11230.86
740.424	11268.83
740.764	11262.5
741.104	11301.82
741.444	11262.27
741.784	11255.27
742.124	11262.95
742.464	11351.31
742.804	11286.23
743.143	11310.41
743.483	11404.19
743.823	11344.76
744.162	11396.06
744.502	11471.76
744.841	11463.4
745.181	11529.39
745.52	11560.35
745.86	11608.71
746.199	11617.97
746.538	11746.1
746.877	11777.74
747.216	11855.71
747.556	11867.91
747.895	11972.76
748.234	11963.95
748.573	12077.85
748.911	12121.46
749.25	12184.06
749.589	12163.27
749.928	12250.05
750.267	12402.58
750.605	12495.01
750.944	12620.66
751.283	12570.71
751.621	12873.53
751.96	12778.17
752.298	12945.39
752.636	13116.46
752.975	13149
753.313	13280.3
753.651	13470.8
753.989	13513.29
754.327	13633.51
754.666	13719.84
755.004	13901.75
755.342	14001.19
755.679	14272.36
756.017	14301.29
756.355	14515.3
756.693	14657.21
757.031	14818.11
757.368	14940.37
757.706	15090.42
758.044	15298.55
758.381	15523.63
758.719	15728.37
759.056	15918.42
759.394	16120.45
759.731	16185.31
760.068	16318.41
760.405	16500.1
760.743	16600.67
761.08	16853.31
761.417	16991.16
761.754	17274.32
762.091	17332.4
762.428	17564.03
762.765	17720.41
763.102	17901.2
763.438	17982.32
763.775	18131.25
764.112	18516.32
764.449	18617.11
764.785	18721.51
765.122	18914.05
765.458	19033.14
765.795	19229.97
766.131	19320.37
766.467	19483.98
766.804	19630.42
767.14	19745.89
767.476	19901.82
767.812	19989.95
768.148	20294.58
768.485	20215.26
768.821	20343.17
769.157	20406.89
769.492	20592.42
769.828	20727.79
770.164	20779.09
770.5	20866.09
770.836	21002.13
771.171	21022.24
771.507	21122.58
771.842	21213.65
772.178	21222.01
772.513	21345.4
772.849	21485.28
773.184	21427.2
773.519	21616.13
773.855	21567.09
774.19	21636.46
774.525	21684.15
774.86	21869
775.195	21907.42
775.53	21862
775.865	21930.02
776.2	21808.89
776.535	21933.63
776.87	22030.35
777.205	21946.97
777.539	21888.44
777.874	22131.14
778.209	21976.8
778.543	22013.4
778.878	21966.63
779.212	22018.83
779.547	22044.14
779.881	22116
780.215	22012.95
780.55	22198.71
780.884	22079.84
781.218	22251.14
781.552	22128.66
781.886	22057.47
782.22	22021.54
782.554	22082.33
782.888	21893.41
783.222	21747.2
783.556	21855.22
783.889	21864.03
784.223	21808.66
784.557	21662.45
784.89	21994.87
785.224	21833.52
785.557	21810.02
785.891	21742.9
786.224	21655
786.558	21700.19
786.891	21571.83
787.224	21638.95
787.557	21508.11
787.891	21528.9
788.224	21511.72
788.557	21588.56
788.89	21487.32
789.223	21504.27
789.556	21353.99
789.888	21391.27
790.221	21343.14
790.554	21105.41
790.887	21214.56
791.219	21269.47
791.552	21102.69
791.884	21057.27
792.217	21033.77
792.549	20885.3
792.882	20887.78
793.214	20827.67
793.546	20948.57
793.879	20659.77
794.211	20575.48
794.543	20778.41
794.875	20644.4
795.207	20712.65
795.539	20638.75
795.871	20674.68
796.203	20427.46
796.535	20296.61
796.867	20352.88
797.198	20225.65
797.53	20250.96
797.862	20091.19
798.193	20270.17
798.525	20155.37
798.856	20079.9
799.188	20008.94
799.519	19927.81
799.85	19782.95
800.182	19933.46
800.513	19848.49
800.844	19665.9
801.175	19850.07
801.506	19773.01
801.837	19572.56
802.168	19618.44
802.499	19552.68
802.83	19486.92
803.161	19390.2
803.491	19364.43
803.822	19446.69
804.153	19290.31
804.483	19181.16
804.814	19166.47
805.145	19097.32
805.475	19096.19
805.805	18938.91
806.136	19029.08
806.466	19005.12
806.796	19035.63
807.126	18908.85
807.457	18782.75
807.787	18854.39
808.117	18734.39
808.447	18701.17
808.777	18797.67
809.107	18703.89
809.436	18618.92
809.766	18601.29
810.096	18482.42
810.426	18404.46
810.755	18449.88
811.085	18398.13
811.414	18305.48
811.744	18288.53
812.073	18241.75
812.403	18183
812.732	18103.9
813.061	18136.67
813.39	18087.63
813.719	17961.31
814.049	18099.83
814.378	17985.94
814.707	17979.16
815.036	17985.49
815.365	17786.17
815.693	17706.4
816.022	17771.48
816.351	17678.38
816.68	17708.43
817.008	17630.47
817.337	17473.41
817.665	17471.83
817.994	17487.42
818.322	17489.46
818.651	17442.68
818.979	17302.12
819.307	17415.56
819.636	17406.07
819.964	17276.58
820.292	17294.21
820.62	17229.8
820.948	17171.72
821.276	17289.69
821.604	17214.89
821.932	17269.8
822.259	17266.41
822.587	17223.47
822.915	17202.46
823.243	17313.19
823.57	17258.95
823.898	17273.87
824.225	17221.67
824.553	17173.53
824.88	17159.97
825.207	17305.51
825.535	17182.12
825.862	17291.95
826.189	17195.9
826.516	17252.63
826.843	17305.73
827.17	17202.01
827.497	17223.7
827.824	17221.21
828.151	17287.2
828.478	17192.29
828.805	17389.35
829.131	17115.91
829.458	17240.87
829.785	17112.74
830.111	17208.11
830.438	17249.01
830.764	17209.24
831.09	17141.67
831.417	17100.31
831.743	17245.17
832.069	17196.81
832.395	17187.54
832.722	17185.06
833.048	17168.79
833.374	17175.79
833.7	17125.4
834.026	17073.2
834.351	17185.28
834.677	17028.68
835.003	17071.16
835.329	17060.09
835.654	17041.11
835.98	16983.48
836.306	16921.11
836.631	16872.07
836.956	16912.07
837.282	16861.45
837.607	16830.72
837.932	16877.95
838.258	16828.46
838.583	16887.66
838.908	16706.65
839.233	16699.19
839.558	16633.66
839.883	16589.37
840.208	16585.3
840.533	16567.22
840.858	16599.31
841.182	16574.23
841.507	16561.8
841.832	16568.58
842.156	16484.28
842.481	16419.88
842.805	16529.03
843.13	16372.42
843.454	16411.52
843.778	16213.78
844.103	16295.59
844.427	16215.59
844.751	16276.83
845.075	16155.25
845.399	16062.37
845.723	16043.84
846.047	16032.54
846.371	15926.78
846.695	15884.75
847.019	15761.59
847.343	15807.01
847.666	15555.27
847.99	15550.75
848.313	15496.29
848.637	15454.03
848.96	15448.15
849.284	15442.73
849.607	15276.41
849.931	15307.37
850.254	15086.81
850.577	15022.18
850.9	15047.03
851.223	14957.77
851.546	14884.33
851.869	14816.53
852.192	14856.3
852.515	14743.09
852.838	14666.48
853.161	14585.12
853.483	14588.06
853.806	14517.56
854.129	14535.41
854.451	14411.34
854.774	14494.96
855.096	14334.28
855.419	14360.5
855.741	14297.45
856.063	14211.12
856.385	14155.31
856.708	14090.45
857.03	14104.69
857.352	14078.47
857.674	14011.58
857.996	13873.05
858.318	13916.22
858.64	13920.06
858.961	13835.54
859.283	13732.72
859.605	13727.75
859.926	13683.23
860.248	13668.76
860.57	13597.35
860.891	13597.13
861.212	13576.56
861.534	13513.74
861.855	13494.31
862.176	13479.39
862.498	13556
862.819	13539.5
863.14	13522.1
863.461	13428.32
863.782	13343.8
864.103	13465.15
864.424	13318.04
864.745	13349.9
865.065	13273.97
865.386	13215.44
865.707	13213.41
866.027	13275.55
866.348	13119.63
866.668	13204.82
866.989	13154.43
867.309	13098.16
867.63	13016.8
867.95	13105.39
868.27	13062.23
868.59	13022.91
868.91	13019.52
869.23	13004.83
869.55	12928.67
869.87	12950.14
870.19	12916.92
870.51	12891.16
870.83	13009.8
871.15	12812.74
871.469	12834.44
871.789	12818.84
872.109	12857.03
872.428	12698.85
872.748	12744.04
873.067	12657.94
873.386	12630.15
873.706	12742.69
874.025	12588.12
874.344	12509.7
874.663	12565.97
874.982	12580.66
875.301	12582.01
875.62	12577.95
875.939	12500.43
876.258	12529.81
876.577	12463.6
876.896	12590.6
877.214	12437.38
877.533	12458.85
877.852	12437.16
878.17	12413.88
878.489	12333.43
878.807	12404.84
879.125	12336.82
879.444	12369.36
879.762	12219.09
880.08	12313.09
880.398	12134.34
880.716	12164.17
881.034	12121.01
881.352	12259.76
881.67	12092.76
881.988	12174.79
882.306	12070.61
882.624	12004.85
882.941	11985.42
883.259	11942.03
883.577	11972.54
883.894	11938.87
884.212	11976.83
884.529	11904.52
884.846	11867.46
885.164	11812.54
885.481	11789.72
885.798	11834.01
886.115	11723.73
886.432	11700.68
886.75	11626.78
887.067	11658.2
887.383	11653
887.7	11634.24
888.017	11558.99
888.334	11548.37
888.651	11519.67
888.967	11560.35
889.284	11505.88
889.6	11424.98
889.917	11342.95
890.233	11310.18
890.55	11328.26
890.866	11304.99
891.182	11263.4
891.498	11232.44
891.815	11193.8
892.131	11118.1
892.447	11111.54
892.763	11071.32
893.079	11104.54
893.395	10988.61
893.71	11043.07
894.026	10990.87
894.342	10982.51
894.657	10817.54
894.973	10913.36
895.289	10852.34
895.604	10783.64
895.92	10739.12
896.235	10726.47
896.55	10715.85
896.865	10586.36
897.181	10600.37
897.496	10597.66
897.811	10537.55
898.126	10523.76
898.441	10509.98
898.756	10423.2
899.071	10352.47
899.386	10400.83
899.7	10329.64
900.015	10220.72
900.33	10219.36
900.644	10192.47
900.959	10235.86
901.273	10183.43
901.588	10054.85
901.902	10072.7
902.216	10005.13
902.531	10043.1
902.845	9893.72
903.159	9883.33
903.473	9848.75
903.787	9845.59
904.101	9735.76
904.415	9784.35
904.729	9731.24
905.042	9663.22
905.356	9630
905.67	9581.64
905.984	9572.15
906.297	9531.25
906.611	9456.9
906.924	9458.03
907.237	9416
907.551	9392.49
907.864	9389.33
908.177	9318.37
908.491	9344.58
908.804	9212.38
909.117	9171.93
909.43	9114.31
909.743	9096.68
910.056	9029.56
910.368	9017.14
910.681	8992.5
910.994	9006.97
911.307	8917.03
911.619	8830.93
911.932	8908.44
912.244	8789.12
912.557	8779.4
912.869	8711.38
913.181	8658.05
913.494	8738.73
913.806	8630.93
914.118	8618.5
914.43	8587.54
914.742	8576.02
915.054	8473.87
915.366	8472.52
915.678	8438.85
915.99	8434.1
916.302	8387.32
916.613	8277.27
916.925	8317.95
917.236	8281.79
917.548	8219.64
917.859	8144.84
918.171	8164.95
918.482	8129.7
918.794	8052.64
919.105	8072.53
919.416	8013.77
919.727	8030.04
920.038	7974.45
920.349	7915.7
920.66	7878.18
920.971	7899.65
921.282	7798.41
921.593	7715.7
921.903	7722.71
922.214	7719.77
922.525	7661.92
922.835	7615.59
923.146	7613.56
923.456	7590.05
923.767	7540.11
924.077	7577.85
924.387	7484.29
924.697	7409.95
925.008	7454.47
925.318	7354.35
925.628	7368.82
925.938	7307.12
926.248	7262.38
926.558	7249.05
926.867	7246.33
927.177	7222.83
927.487	7212.44
927.796	7090.63
928.106	7115.49
928.416	7080.69
928.725	7102.38
929.034	7033.01
929.344	6980.58
929.653	6973.8
929.962	6924.54
930.271	6926.8
930.581	6855.38
930.89	6901.03
931.199	6827.81
931.508	6802.05
931.817	6770.42
932.125	6767.93
932.434	6748.27
932.743	6688.16
933.051	6626.01
933.36	6659.68
933.669	6573.58
933.977	6592.11
934.286	6543.08
934.594	6509.41
934.902	6452.01
935.21	6400.48
935.519	6428.73
935.827	6442.06
936.135	6375.62
936.443	6335.85
936.751	6342.4
937.059	6312.57
937.367	6286.36
937.674	6291.33
937.982	6285
938.29	6214.05
938.597	6155.29
938.905	6128.85
939.213	6072.13
939.52	6042.3
939.827	6079.36
940.135	6086.14
940.442	5984.22
940.749	6004.33
941.056	6040.49
941.363	5920.72
941.67	5875.98
941.977	5870.33
942.284	5820.61
942.591	5821.29
942.898	5781.06
943.205	5751.91
943.511	5746.49
943.818	5716.21
944.125	5678.24
944.431	5673.04
944.738	5645.47
945.044	5591.24
945.35	5580.84
945.657	5554.4
945.963	5490
946.269	5447.51
946.575	5485.7
946.881	5475.08
947.187	5478.47
947.493	5405.48
947.799	5397.34
948.105	5396.67
948.41	5369.32
948.716	5291.81
949.022	5366.38
949.327	5313.28
949.633	5284.58
949.938	5252.71
950.244	5244.81
950.549	5171.14
950.854	5207.52
951.16	5172.04
951.465	5130.01
951.77	5073.06
952.075	5142.89
952.38	5054.53
952.685	5033.06
952.99	4998.71
953.294	5012.27
953.599	4957.13
953.904	4959.62
954.209	4932.05
954.513	4935.44
954.818	4884.36
955.122	4863.12
955.426	4876
955.731	4808.43
956.035	4818.83
956.339	4784.93
956.643	4794.2
956.948	4750.81
957.252	4704.93
957.556	4722.11
957.86	4741.99
958.163	4691.83
958.467	4670.36
958.771	4710.58
959.075	4643.47
959.378	4577.7
959.682	4589.68
959.985	4545.16
960.289	4501.1
960.592	4478.72
960.896	4518.05
961.199	4450.93
961.502	4505.39
961.805	4462.45
962.108	4397.37
962.411	4426.52
962.714	4406.18
963.017	4335
963.32	4349.91
963.623	4301.55
963.926	4288.22
964.228	4309.69
964.531	4260.42
964.833	4237.6
965.136	4216.58
965.438	4251.84
965.741	4174.78
966.043	4153.99
966.345	4168.68
966.648	4151.05
966.95	4118.51
967.252	4097.27
967.554	4067.21
967.856	4054.1
968.158	4033.31
968.46	4027.89
968.761	4019.53
969.063	4003.71
969.365	3940.43
969.666	3998.96
969.968	3918.29
970.269	3911.96
970.571	3905.63
970.872	3864.28
971.174	3845.75
971.475	3870.15
971.776	3795.13
972.077	3833.09
972.378	3802.36
972.679	3775.47
972.98	3773.88
973.281	3735.69
973.582	3714.45
973.883	3761.23
974.183	3702.7
974.484	3676.49
974.785	3683.26
975.085	3633.32
975.386	3613.21
975.686	3641.23
975.986	3601.01
976.287	3593.32
976.587	3551.06
976.887	3559.2
977.187	3570.27
977.487	3579.76
977.787	3494.34
978.087	3492.99
978.387	3476.94
978.687	3459.77
978.987	3434.91
979.286	3429.71
979.586	3407.34
979.885	3403.05
980.185	3359.43
980.484	3397.85
980.784	3342.71
981.083	3316.49
981.382	3311.3
981.682	3351.97
981.981	3286.66
982.28	3236.04
982.579	3266.55
982.878	3240.11
983.177	3230.4
983.475	3264.29
983.774	3194.01
984.073	3186.55
984.372	3194.69
984.67	3133.9
984.969	3159.89
985.267	3121.92
985.566	3118.31
985.864	3116.95
986.162	3092.32
986.461	3065.88
986.759	3060
987.057	3020.01
987.355	3013.45
987.653	2985.66
987.951	2992.66
988.249	2997.63
988.547	3002.83
988.844	2983.62
989.142	2963.96
989.44	2916.51
989.737	2917.18
990.035	2879.9
990.332	2883.06
990.63	2878.54
990.927	2866.79
991.224	2835.6
991.521	2830.18
991.819	2829.73
992.116	2828.6
992.413	2819.78
992.71	2767.58
993.006	2801.71
993.303	2755.61
993.6	2740.24
993.897	2704.99
994.193	2714.7
994.49	2669.96
994.787	2694.59
995.083	2694.59
995.379	2671.99
995.676	2679
995.972	2646.23
996.268	2612.33
996.565	2582.95
996.861	2584.76
997.157	2566.91
997.453	2581.15
997.749	2529.62
998.044	2582.05
998.34	2548.15
998.636	2525.78
998.932	2493.01
999.227	2475.61
999.523	2493.24
999.818	2461.83
1000.114	2448.95
1000.409	2427.03
1000.704	2431.32
1001	2421.83
1001.295	2404.43
1001.59	2378.89
1001.885	2416.41
1002.18	2368.5
1002.475	2349.74
1002.77	2324.88
1003.065	2303.87
1003.359	2299.12
1003.654	2307.48
1003.949	2248.95
1004.243	2286.47
1004.538	2257.31
1004.832	2273.81
1005.127	2246.92
1005.421	2233.13
1005.715	2197.65
1006.009	2200.14
1006.304	2193.36
1006.598	2184.77
1006.892	2161.5
1007.186	2145.68
1007.48	2143.19
1007.773	2126.02
1008.067	2138.67
1008.361	2072.69
1008.655	2093.7
1008.948	2091.89
1009.242	2069.75
1009.535	2051.9
1009.829	2036.08
1010.122	2005.57
1010.415	2008.73
1010.708	1976.42
1011.001	2011.22
1011.295	1983.2
1011.588	1978.9
1011.881	1958.56
1012.173	1921.5
1012.466	1904.78
1012.759	1919.02
1013.052	1907.04
1013.344	1896.19
1013.637	1894.39
1013.93	1885.57
1014.222	1879.92
1014.514	1881.73
1014.807	1847.61
1015.099	1818
1015.391	1842.86
1015.683	1794.05
1015.976	1816.65
1016.268	1773.71
1016.56	1752.69
1016.851	1761.51
1017.143	1748.63
1017.435	1742.52
1017.727	1748.85
1018.018	1732.13
1018.31	1734.84
1018.602	1695.07
1018.893	1672.7
1019.185	1670.21
1019.476	1658.23
1019.767	1646.03
1020.058	1631.79
1020.35	1634.51
1020.641	1611.68
1020.932	1592.7
1021.223	1591.34
1021.514	1580.04
1021.804	1590.89
1022.095	1563.09
1022.386	1556.54
1022.677	1543.89
1022.967	1536.88
1023.258	1520.84
1023.548	1535.98
1023.839	1491.68
1024.129	1495.07
1024.419	1498.92
1024.709	1466.15
1025	1460.72
1025.29	1463.21
1025.58	1442.19
1025.87	1415.3
1026.16	1421.86
1026.449	1434.06
1026.739	1419.37
1027.029	1414.62
1027.319	1407.62
1027.608	1385.02
1027.898	1373.95
1028.187	1368.98
1028.477	1350.67
1028.766	1360.84
1029.055	1330.56
1029.344	1329.65
1029.634	1312.48
1029.923	1300.05
1030.212	1304.8
1030.501	1302.54
1030.79	1265.48
1031.078	1290.56
1031.367	1257.34
1031.656	1262.76
1031.945	1249.66
1032.233	1242.2
1032.522	1225.93
1032.81	1221.63
1033.099	1259.6
1033.387	1232.93
1033.675	1224.12
1033.963	1182.77
1034.251	1160.17
1034.54	1170.79
1034.828	1161.52
1035.116	1156.1
1035.403	1157
1035.691	1125.14
1035.979	1129.43
1036.267	1111.58
1036.554	1113.16
1036.842	1109.1
1037.129	1094.86
1037.417	1092.15
1037.704	1094.63
1037.992	1069.77
1038.279	1091.24
1038.566	1058.7
1038.853	1058.7
1039.14	1058.7
