Data from hue_170_FLMS001491_00050.txt Node
Date: Tue Feb 07 16:48:45 GMT 2017
User: dcchb
Spectrometer: FLMS00149
Trigger mode: 0
Integration Time (sec): 2.000000E-2
Scans to average: 10
Electric dark correction enabled: true
Nonlinearity correction enabled: false
Boxcar width: 0
XAxis mode: Wavelengths
Number of Pixels in Spectrum: 2048
>>>>>Begin Spectral Data<<<<<
341.393	17.33
341.776	17.33
342.16	17.33
342.543	-80.97
342.927	-72.84
343.31	-54.53
343.693	-84.59
344.077	-66.51
344.46	-68.09
344.843	-48.66
345.226	-48.2
345.61	-15.21
345.993	-2.78
346.376	-1.88
346.759	-4.36
347.142	28.18
347.525	51.68
347.908	68.18
348.291	75.41
348.674	82.64
349.057	88.74
349.44	117.89
349.823	148.4
350.206	166.7
350.588	168.06
350.971	206.48
351.354	241.28
351.737	212.58
352.119	235.18
352.502	249.19
352.884	281.28
353.267	267.49
353.65	275.18
354.032	270.88
354.414	302.75
354.797	337.55
355.179	313.82
355.562	308.17
355.944	326.7
356.326	329.86
356.709	326.25
357.091	322.63
357.473	316.76
357.855	329.19
358.238	338
358.62	333.93
359.002	329.64
359.384	344.78
359.766	344.1
360.148	334.84
360.53	342.97
360.912	326.7
361.294	340.49
361.676	325.8
362.057	335.74
362.439	324.21
362.821	306.59
363.203	312.92
363.584	320.15
363.966	330.09
364.348	332.8
364.729	312.69
365.111	322.86
365.493	309.75
365.874	316.08
366.256	302.75
366.637	293.93
367.019	298.9
367.4	303.42
367.781	300.71
368.163	309.07
368.544	326.25
368.925	295.29
369.306	318.57
369.688	301.84
370.069	317.44
370.45	318.79
370.831	317.44
371.212	323.99
371.593	290.09
371.974	296.19
372.355	318.34
372.736	316.08
373.117	318.57
373.498	321.95
373.879	305.23
374.26	323.08
374.641	300.94
375.021	321.95
375.402	299.81
375.783	296.87
376.163	310.2
376.544	328.51
376.925	328.51
377.305	322.41
377.686	307.04
378.066	328.73
378.447	341.39
378.827	318.57
379.208	333.03
379.588	342.07
379.968	314.95
380.349	314.27
380.729	329.86
381.109	330.77
381.489	338.9
381.87	322.41
382.25	349.98
382.63	328.28
383.01	339.81
383.39	348.17
383.77	349.3
384.15	326.47
384.53	348.17
384.91	349.75
385.29	361.28
385.67	345.46
386.049	356.98
386.429	348.85
386.809	355.85
387.189	334.84
387.568	358.34
387.948	358.79
388.328	363.08
388.707	372.35
389.087	343.2
389.466	354.95
389.846	353.37
390.225	372.35
390.605	366.93
390.984	374.61
391.363	365.57
391.743	368.96
392.122	363.76
392.501	367.83
392.881	363.08
393.26	351.33
393.639	401.5
394.018	381.16
394.397	380.26
394.776	361.5
395.155	378
395.534	382.07
395.913	392.46
396.292	391.33
396.671	393.14
397.05	388.39
397.429	394.95
397.808	401.05
398.186	396.98
398.565	362.86
398.944	395.85
399.323	410.54
399.701	412.8
400.08	417.09
400.458	410.09
400.837	410.54
401.215	408.28
401.594	422.97
401.972	378.22
402.351	427.26
402.729	397.43
403.107	427.49
403.486	414.16
403.864	420.94
404.242	429.75
404.62	441.95
404.999	451.89
405.377	436.3
405.755	439.47
406.133	437.43
406.511	428.17
406.889	453.48
407.267	448.28
407.645	467.04
408.023	453.25
408.401	467.04
408.779	475.17
409.156	491.44
409.534	494.83
409.912	493.93
410.29	499.8
410.667	507.26
411.045	489.41
411.422	511.33
411.8	509.52
412.178	530.76
412.555	533.47
412.933	520.59
413.31	524.66
413.687	540.03
414.065	540.03
414.442	536.19
414.819	524.44
415.197	538.45
415.574	598.11
415.951	557.43
416.328	545.9
416.705	554.04
417.082	578.67
417.46	563.53
417.837	601.04
418.214	604.21
418.591	594.26
418.967	604.21
419.344	617.09
419.721	615.05
420.098	605.34
420.475	614.15
420.852	645.56
421.228	641.72
421.605	639.01
421.982	644.88
422.358	662.28
422.735	661.61
423.111	665.67
423.488	672
423.864	681.27
424.241	705.22
424.617	693.24
424.994	685.11
425.37	728.72
425.746	729.63
426.123	706.58
426.499	710.87
426.875	726.01
427.251	770.76
427.627	759.23
428.003	763.07
428.379	773.24
428.756	796.29
429.132	774.15
429.507	794.03
429.883	801.49
430.259	792.68
430.635	817.54
431.011	825.44
431.387	828.16
431.763	844.65
432.138	853.24
432.514	853.24
432.89	873.35
433.265	892.56
433.641	928.04
434.016	909.28
434.392	931.43
434.767	929.62
435.143	939.34
435.518	962.39
435.894	952.45
436.269	959.23
436.644	967.14
437.02	1006.23
437.395	990.64
437.77	990.86
438.145	1037.19
438.52	1040.58
438.895	1049.17
439.271	1032.44
439.646	1081.93
440.021	1100.24
440.395	1085.1
440.77	1084.65
441.145	1095.04
441.52	1112.89
441.895	1134.36
442.27	1135.27
442.645	1144.08
443.019	1180.01
443.394	1139.33
443.769	1168.71
444.143	1179.11
444.518	1198.32
444.892	1197.19
445.267	1196.51
445.641	1219.78
446.016	1217.52
446.39	1238.77
446.764	1280.8
447.139	1290.52
447.513	1291.65
447.887	1251.42
448.262	1242.61
448.636	1270.4
449.01	1318.99
449.384	1318.31
449.758	1328.71
450.132	1338.43
450.506	1374.58
450.88	1353.34
451.254	1353.34
451.628	1411.19
452.002	1403.28
452.376	1424.75
452.75	1417.75
453.123	1463.17
453.497	1457.97
453.871	1468.37
454.244	1513.79
454.618	1500.91
454.992	1536.39
455.365	1566.89
455.739	1563.96
456.112	1591.53
456.486	1596.05
456.859	1585.65
457.232	1617.51
457.606	1633.78
457.979	1671.52
458.352	1710.39
458.725	1708.36
459.099	1721.92
459.472	1777.74
459.845	1767.34
460.218	1763.5
460.591	1836.49
460.964	1859.32
461.337	1866.1
461.71	1889.6
462.083	1951.74
462.456	1946.32
462.829	1968.92
463.201	2008.01
463.574	2014.79
463.947	2041.46
464.32	2087.78
464.692	2107.9
465.065	2141.12
465.438	2140.89
465.81	2212.75
466.183	2214.33
466.555	2288.68
466.928	2290.72
467.3	2308.57
467.672	2343.14
468.045	2386.76
468.417	2436.7
468.789	2475.12
469.161	2467.66
469.534	2544.27
469.906	2625.85
470.278	2633.98
470.65	2696.81
471.022	2755.11
471.394	2802.12
471.766	2824.71
472.138	2863.13
472.51	2930.02
472.882	3027.87
473.253	3040.75
473.625	3075.55
473.997	3199.62
474.369	3194.2
474.74	3331.59
475.112	3320.97
475.484	3386.51
475.855	3473.28
476.227	3521.64
476.598	3661.75
476.97	3694.97
477.341	3859.04
477.713	3862.2
478.084	3887.74
478.455	4097.22
478.827	4067.17
479.198	4214.73
479.569	4258.57
479.94	4427.61
480.311	4518.45
480.682	4554.16
481.053	4770.88
481.424	4811.78
481.795	4893.59
482.166	5053.58
482.537	5120.7
482.908	5258.1
483.279	5357.08
483.65	5495.38
484.021	5649.05
484.391	5737.86
484.762	5887.91
485.133	5935.59
485.503	5995.25
485.874	6228.47
486.244	6294.45
486.615	6437.05
486.985	6586.87
487.356	6692.18
487.726	6793.2
488.097	6960.65
488.467	7097.82
488.837	7193.64
489.207	7386.4
489.578	7471.6
489.948	7559.73
490.318	7795.43
490.688	7884.92
491.058	7982.54
491.428	8145.7
491.798	8210.56
492.168	8427.05
492.538	8457.11
492.908	8681.28
493.278	8799.02
493.648	8845.35
494.017	8983.65
494.387	9157.43
494.757	9243.98
495.126	9362.62
495.496	9279.91
495.866	9442.17
496.235	9618.43
496.605	9772.78
496.974	9854.81
497.344	9914.92
497.713	9962.83
498.082	10071.3
498.452	10221.36
498.821	10290.28
499.19	10324.63
499.559	10480.33
499.928	10457.96
500.298	10637.84
500.667	10634.45
501.036	10721
501.405	10920.55
501.774	10876.25
502.143	11012.75
502.512	11041.67
502.88	11189.47
503.249	11163.03
503.618	11261.33
503.987	11322.12
504.356	11358.95
504.724	11490.25
505.093	11425.39
505.462	11523.02
505.83	11585.61
506.199	11639.17
506.567	11787.87
506.936	11844.14
507.304	11906.96
507.672	11939.28
508.041	11978.15
508.409	12038.26
508.777	12145.37
509.145	12233.51
509.514	12211.59
509.882	12225.82
510.25	12235.99
510.618	12280.51
510.986	12364.12
511.354	12403.67
511.722	12540.39
512.09	12628.3
512.458	12579.03
512.826	12689.77
513.193	12739.03
513.561	12750.1
513.929	12826.48
514.297	12838.69
514.664	12922.75
515.032	12956.2
515.4	13027.84
515.767	12972.02
516.135	13065.35
516.502	12919.82
516.869	13201.62
517.237	13117.1
517.604	13080.72
517.972	13192.58
518.339	13243.87
518.706	13245.68
519.073	13231.9
519.44	13278
519.808	13369.75
520.175	13298.11
520.542	13420.82
520.909	13503.3
521.276	13384.21
521.643	13446.81
522.009	13524.55
522.376	13562.51
522.743	13535.17
523.11	13671.21
523.477	13705.78
523.843	13755.27
524.21	13858.1
524.577	13883.18
524.943	13872.78
525.31	13908.72
525.676	13893.58
526.043	13898.1
526.409	13966.57
526.776	13967.7
527.142	13934.7
527.508	14018.54
527.874	14080.92
528.241	14077.75
528.607	14019.22
528.973	14153.68
529.339	14107.13
529.705	14099.45
530.071	14097.86
530.437	14177.64
530.803	14107.58
531.169	14172.66
531.535	14072.55
531.901	13977.64
532.267	14098.09
532.632	14152.78
532.998	14029.62
533.364	14102.84
533.73	14087.47
534.095	14138.54
534.461	14051.31
534.826	14066.68
535.192	14031.42
535.557	14188.26
535.923	14023.06
536.288	13984.19
536.653	14018.09
537.019	13925.21
537.384	13852.9
537.749	13862.62
538.114	13868.49
538.479	13795.95
538.845	13837.53
539.21	13748.72
539.575	13733.35
539.94	13692.68
540.305	13676.63
540.67	13562.96
541.034	13640.93
541.399	13584.66
541.764	13604.54
542.129	13570.87
542.494	13504.89
542.858	13510.31
543.223	13404.55
543.587	13465.56
543.952	13350.54
544.316	13310.77
544.681	13258.34
545.045	13301.73
545.41	13287.72
545.774	13210.2
546.138	13156.65
546.503	13185.8
546.867	13129.08
547.231	13127.95
547.595	13061.28
547.959	13058.57
548.324	12959.59
548.688	12924.11
549.052	12918.46
549.416	12940.15
549.779	12834.62
550.143	12802.98
550.507	12883.21
550.871	12865.13
551.235	12713.49
551.599	12781.29
551.962	12737.67
552.326	12601.18
552.689	12707.84
553.053	12589.2
553.417	12590.56
553.78	12632.82
554.143	12561.63
554.507	12522.54
554.87	12576.32
555.234	12622.87
555.597	12384.69
555.96	12472.14
556.323	12494.52
556.686	12390.56
557.05	12461.75
557.413	12529.54
557.776	12496.55
558.139	12454.74
558.502	12415.2
558.865	12443.9
559.228	12464.91
559.59	12437.12
559.953	12388.98
560.316	12454.74
560.679	12464.69
561.041	12352.6
561.404	12435.76
561.767	12467.62
562.129	12325.26
562.492	12448.87
562.854	12390.79
563.217	12407.29
563.579	12420.62
563.941	12415.42
564.304	12417.91
564.666	12537.68
565.028	12467.17
565.39	12494.06
565.753	12487.74
566.115	12498.58
566.477	12492.03
566.839	12562.31
567.201	12669.43
567.563	12616.09
567.925	12625.59
568.287	12544.68
568.648	12553.05
569.01	12518.02
569.372	12545.81
569.734	12588.52
570.095	12666.26
570.457	12693.15
570.819	12611.35
571.18	12643.66
571.542	12633.27
571.903	12602.99
572.265	12646.38
572.626	12722.98
572.987	12698.8
573.349	12762.98
573.71	12793.27
574.071	12724.11
574.432	12739.48
574.794	12827.39
575.155	12709.43
575.516	12642.31
575.877	12803.89
576.238	12800.72
576.599	12865.13
576.96	12903.32
577.32	12852.92
577.681	12908.97
578.042	12768.18
578.403	12815.64
578.763	12796.43
579.124	12780.84
579.485	12767.96
579.845	12843.43
580.206	12747.84
580.566	12815.41
580.927	12846.37
581.287	12848.63
581.648	12782.42
582.008	12830.1
582.368	12810.21
582.728	12807.73
583.089	12782.42
583.449	12785.36
583.809	12755.53
584.169	12753.72
584.529	12741.06
584.889	12784.45
585.249	12678.01
585.609	12685.02
585.969	12763.66
586.329	12711.91
586.688	12760.05
587.048	12728.41
587.408	12718.24
587.768	12685.92
588.127	12629.43
588.487	12629.43
588.846	12724.57
589.206	12576.1
589.565	12652.03
589.925	12656.55
590.284	12572.03
590.643	12633.04
591.003	12619.26
591.362	12704.91
591.721	12602.54
592.08	12540.16
592.44	12614.06
592.799	12578.36
593.158	12606.6
593.517	12567.51
593.876	12587.85
594.235	12562.99
594.593	12581.97
594.952	12613.61
595.311	12459.49
595.67	12571.58
596.029	12549.88
596.387	12561.86
596.746	12574.97
597.104	12522.31
597.463	12421.98
597.822	12529.32
598.18	12478.02
598.538	12472.6
598.897	12537.45
599.255	12370
599.613	12608.86
599.972	12480.28
600.33	12627.17
600.688	12434.86
601.046	12506.49
601.404	12516.44
601.762	12517.79
602.12	12575.42
602.478	12515.53
602.836	12529.09
603.194	12421.52
603.552	12520.05
603.91	12443.22
604.268	12489.09
604.625	12416.78
604.983	12540.39
605.341	12451.13
605.698	12471.69
606.056	12494.74
606.413	12502.43
606.771	12474.86
607.128	12573.84
607.485	12424.46
607.843	12509.43
608.2	12492.93
608.557	12551.69
608.914	12549.88
609.272	12564.34
609.629	12561.86
609.986	12642.76
610.343	12576.55
610.7	12637.56
611.057	12604.8
611.414	12613.16
611.771	12586.04
612.127	12637.34
612.484	12700.16
612.841	12689.54
613.198	12638.02
613.554	12675.75
613.911	12692.7
614.267	12652.7
614.624	12596.43
614.98	12704
615.337	12745.36
615.693	12669.43
616.05	12747.39
616.406	12800.5
616.762	12697.9
617.118	12716.66
617.475	12701.52
617.831	12793.27
618.187	12779.48
618.543	12786.49
618.899	12768.63
619.255	12773.6
619.611	12839.14
619.967	12838.24
620.323	12896.31
620.678	12799.37
621.034	12866.94
621.39	12740.16
621.746	12744.68
622.101	12915.75
622.457	12860.61
622.812	12825.58
623.168	12934.05
623.523	12846.15
623.879	12858.57
624.234	12849.08
624.589	12785.81
624.945	12837.33
625.3	12929.08
625.655	12831.91
626.01	12793.04
626.365	12745.13
626.72	12817.22
627.075	12792.59
627.43	12792.81
627.785	12746.49
628.14	12819.48
628.495	12855.86
628.85	12769.31
629.205	12665.81
629.559	12800.72
629.914	12718.92
630.269	12854.73
630.623	12669.65
630.978	12669.88
631.332	12800.72
631.687	12688.64
632.041	12620.84
632.396	12662.2
632.75	12671.46
633.104	12663.33
633.459	12544.01
633.813	12631.69
634.167	12540.39
634.521	12578.58
634.875	12530.9
635.229	12570.9
635.583	12527.96
635.937	12459.71
636.291	12459.26
636.645	12509.88
636.999	12416.1
637.352	12491.58
637.706	12361.64
638.06	12431.47
638.413	12429.21
638.767	12346.72
639.121	12380.62
639.474	12313.5
639.828	12347.18
640.181	12387.4
640.534	12319.83
640.888	12336.55
641.241	12277.12
641.594	12314.41
641.947	12306.72
642.301	12285.71
642.654	12251.13
643.007	12302.88
643.36	12294.97
643.713	12246.39
644.066	12245.71
644.419	12228.99
644.771	12177.69
645.124	12008.2
645.477	11983.12
645.83	11951.93
646.182	11843.46
646.535	11802.33
646.888	11863.12
647.24	11854.31
647.593	11839.84
647.945	11787.42
648.298	11775.66
648.65	11808.43
649.002	11705.16
649.355	11833.06
649.707	11838.04
650.059	11898.15
650.411	11993.51
650.763	12028.99
651.115	12177.69
651.467	12160.97
651.819	12051.59
652.171	12088.43
652.523	12088.88
652.875	12081.87
653.227	11970.91
653.578	12104.02
653.93	12014.08
654.282	12038.71
654.633	11984.25
654.985	12014.75
655.337	12014.75
655.688	12035.77
656.039	12126.39
656.391	11941.31
656.742	12052.27
657.094	12051.82
657.445	12122.1
657.796	12038.26
658.147	12037.8
658.498	12027.64
658.849	12063.79
659.2	12015.43
659.551	11998.94
659.902	12047.52
660.253	12006.85
660.604	12097.46
660.955	12028.77
661.306	12120.29
661.656	12089.78
662.007	12070.35
662.358	12017.01
662.708	12089.56
663.059	12043.68
663.409	12022.44
663.76	12107.86
664.11	12046.62
664.461	12108.99
664.811	12153.06
665.161	12032.83
665.511	12123.68
665.862	12037.35
666.212	12163
666.562	12156.9
666.912	12090.91
667.262	12109.44
667.612	12084.36
667.962	12134.07
668.312	12084.36
668.662	12127.07
669.011	12169.33
669.361	12143.56
669.711	12109.67
670.06	12137.46
670.41	12071.48
670.76	12045.94
671.109	12092.94
671.459	12066.96
671.808	12084.13
672.157	12112.61
672.507	11946.96
672.856	12009.56
673.205	12046.17
673.554	12079.39
673.904	12010.24
674.253	12100.4
674.602	12039.84
674.951	11877.58
675.3	11763.69
675.649	11979.73
675.998	11921.88
676.346	11975.66
676.695	11978.15
677.044	11920.29
677.393	11941.76
677.741	11954.87
678.09	11941.31
678.438	11840.3
678.787	11874.87
679.135	11861.54
679.484	11845.49
679.832	11819.28
680.181	11747.42
680.529	11796.91
680.877	11725.04
681.225	11734.54
681.573	11741.54
681.922	11622
682.27	11589.68
682.618	11647.53
682.966	11509.01
683.314	11612.51
683.661	11552.39
684.009	11510.36
684.357	11429.69
684.705	11511.49
685.053	11520.76
685.4	11438.72
685.748	11470.36
686.095	11399.4
686.443	11359.4
686.79	11402.57
687.138	11367.31
687.485	11369.35
687.832	11301.33
688.18	11318.5
688.527	11160.31
688.874	11239.41
689.221	11164.83
689.568	11202.57
689.915	11129.13
690.262	11120.77
690.609	11038.96
690.956	10937.95
691.303	11055.91
691.65	10915.12
691.997	10888.68
692.344	10817.72
692.69	10866.31
693.037	10853.2
693.383	10717.61
693.73	10722.36
694.077	10701.57
694.423	10687.78
694.769	10605.07
695.116	10652.08
695.462	10555.81
695.808	10534.57
696.155	10601.68
696.501	10444.17
696.847	10512.87
697.193	10370.73
697.539	10375.48
697.885	10330.05
698.231	10248.93
698.577	10272.43
698.923	10311.97
699.269	10187.91
699.614	10122.38
699.96	10045.54
700.306	10093.9
700.651	10002.83
700.997	9936.39
701.342	10005.54
701.688	10000.12
702.033	9964.64
702.379	9957.18
702.724	9851.42
703.069	9821.37
703.415	9727.81
703.76	9737.98
704.105	9705.66
704.45	9693.01
704.795	9564.65
705.14	9579.11
705.485	9582.95
705.83	9526.91
706.175	9495.5
706.52	9505.44
706.865	9459.79
707.209	9472.45
707.554	9383.64
707.899	9353.58
708.243	9319.01
708.588	9379.57
708.932	9271.1
709.277	9274.04
709.621	9339.8
709.966	9252.34
710.31	9170.54
710.654	9217.54
710.998	9153.59
711.342	9163.76
711.687	9112.23
712.031	9093.25
712.375	9050.54
712.719	9077.43
713.063	9042.4
713.407	8967.83
713.75	9033.14
714.094	9040.14
714.438	8887.83
714.782	8919.69
715.125	8917.21
715.469	8979.35
715.812	8910.88
716.156	8848.28
716.499	8842.63
716.843	8863.88
717.186	8799.02
717.53	8855.29
717.873	8801.73
718.216	8819.13
718.559	8738.23
718.902	8728.06
719.246	8758.34
719.589	8649.19
719.932	8690.32
720.275	8667.95
720.617	8712.47
720.96	8691
721.303	8682.86
721.646	8709.53
721.989	8615.07
722.331	8697.78
722.674	8625.47
723.016	8626.6
723.359	8601.29
723.701	8653.26
724.044	8614.84
724.386	8597.9
724.729	8603.32
725.071	8500.72
725.413	8556.54
725.755	8565.58
726.097	8535.52
726.439	8462.76
726.782	8478.8
727.124	8476.77
727.465	8457.11
727.807	8469.99
728.149	8521.06
728.491	8469.76
728.833	8488.52
729.175	8468.41
729.516	8433.83
729.858	8503.89
730.199	8492.59
730.541	8499.14
730.882	8407.39
731.224	8483.32
731.565	8453.27
731.906	8441.29
732.248	8466.6
732.589	8435.41
732.93	8387.51
733.271	8413.27
733.612	8494.85
733.953	8425.92
734.294	8394.96
734.635	8348.41
734.976	8442.19
735.317	8438.58
735.658	8432.93
735.999	8425.7
736.339	8381.86
736.68	8458.92
737.021	8456.66
737.361	8446.49
737.702	8478.8
738.042	8455.75
738.383	8439.93
738.723	8482.87
739.063	8437.22
739.404	8510.67
739.744	8496.2
740.084	8467.96
740.424	8441.97
740.764	8535.98
741.104	8560.16
741.444	8502.98
741.784	8534.39
742.124	8553.6
742.464	8587.05
742.804	8577.78
743.143	8597.9
743.483	8675.41
743.823	8604.9
744.162	8697.1
744.502	8705.24
744.841	8701.85
745.181	8706.82
745.52	8801.73
745.86	8794.27
746.199	8892.58
746.538	8863.65
746.877	8922.63
747.216	8990.88
747.556	9031.78
747.895	9112.23
748.234	9135.28
748.573	9189.07
748.911	9192.23
749.25	9239.01
749.589	9322.17
749.928	9420.02
750.267	9470.19
750.605	9589.96
750.944	9565.78
751.283	9566.01
751.621	9768.71
751.96	9785.21
752.298	9952.21
752.636	10024.07
752.975	10067.46
753.313	10130.74
753.651	10287.34
753.989	10313.1
754.327	10508.35
754.666	10548.8
755.004	10697.28
755.342	10867.44
755.679	10983.6
756.017	11038.96
756.355	11183.14
756.693	11297.71
757.031	11561.66
757.368	11513.52
757.706	11706.74
758.044	11835.1
758.381	12086.39
758.719	12139.5
759.056	12326.38
759.394	12495.87
759.731	12530.67
760.068	12676.43
760.405	12884.11
760.743	13042.52
761.08	13266.47
761.417	13328.39
761.754	13567.93
762.091	13636.63
762.428	13857.42
762.765	13977.41
763.102	14216.28
763.438	14323.39
763.775	14491.75
764.112	14620.34
764.449	14943.27
764.785	14934.9
765.122	15026.65
765.458	15211.05
765.795	15354.1
766.131	15558.39
766.467	15644.94
766.804	15831.6
767.14	15887.87
767.476	16082.67
767.812	16127.64
768.148	16299.16
768.485	16394.53
768.821	16516.33
769.157	16712.71
769.492	16762.65
769.828	16918.35
770.164	16952.03
770.5	17061.63
770.836	17253.49
771.171	17296.42
771.507	17425.69
771.842	17426.82
772.178	17691.67
772.513	17634.95
772.849	17707.49
773.184	17769.41
773.519	17918.1
773.855	17987.03
774.19	17995.84
774.525	18149.73
774.86	18233.57
775.195	18207.59
775.53	18202.16
775.865	18274.93
776.2	18155.61
776.535	18223.41
776.87	18431.99
777.205	18501.59
777.539	18427.02
777.874	18583.85
778.209	18441.03
778.543	18567.35
778.878	18574.81
779.212	18613.23
779.547	18564.41
779.881	18603.51
780.215	18700.68
780.55	18669.04
780.884	18598.76
781.218	18667.46
781.552	18704.3
781.886	18609.16
782.22	18686.44
782.554	18707.23
782.888	18565.09
783.222	18493.91
783.556	18545.2
783.889	18499.1
784.223	18426.56
784.557	18468.14
784.89	18582.49
785.224	18472.89
785.557	18358.54
785.891	18450.97
786.224	18461.14
786.558	18472.89
786.891	18386.34
787.224	18395.38
787.557	18348.37
787.891	18441.93
788.224	18354.7
788.557	18328.49
788.89	18391.99
789.223	18320.58
789.556	18217.53
789.888	18273.35
790.221	18164.88
790.554	18088.27
790.887	18137.31
791.219	18111.32
791.552	18043.07
791.884	18004.43
792.217	18028.38
792.549	17976.86
792.882	17914.49
793.214	17856.41
793.546	17833.36
793.879	17767.82
794.211	17625
794.543	17702.51
794.875	17773.02
795.207	17737.54
795.539	17704.1
795.871	17693.25
796.203	17536.19
796.535	17524.89
796.867	17440.37
797.198	17474.72
797.53	17363.09
797.862	17327.61
798.193	17392.69
798.525	17318.8
798.856	17263.88
799.188	17167.61
799.519	17052.59
799.85	16983.89
800.182	17020.72
800.513	17086.94
800.844	16982.53
801.175	16852.82
801.506	17084.45
801.837	16963.55
802.168	16829.77
802.499	16844.01
802.83	16763.33
803.161	16653.05
803.491	16686.5
803.822	16750.22
804.153	16475.88
804.483	16553.84
804.814	16525.82
805.145	16481.76
805.475	16459.16
805.805	16334.19
806.136	16422.77
806.466	16397.01
806.796	16326.96
807.126	16222.78
807.457	16247.86
807.787	16257.81
808.117	16189.11
808.447	16117.92
808.777	16131.03
809.107	16063.46
809.436	16039.06
809.766	16028.21
810.096	15934.2
810.426	15918.38
810.755	15907.31
811.085	15880.87
811.414	15848.33
811.744	15781.66
812.073	15646.52
812.403	15736.24
812.732	15639.74
813.061	15688.33
813.39	15617.15
813.719	15676.81
814.049	15617.37
814.378	15550.25
814.707	15536.02
815.036	15502.57
815.365	15471.16
815.693	15351.84
816.022	15296.7
816.351	15349.36
816.68	15211.28
817.008	15301.22
817.337	15115.69
817.665	15220.55
817.994	15171.96
818.322	15175.35
818.651	15094
818.979	15010.83
819.307	15109.59
819.636	15061.45
819.964	15047.9
820.292	15125.41
820.62	14977.61
820.948	14880.67
821.276	15013.55
821.604	14960.21
821.932	15036.37
822.259	15030.72
822.587	15056.93
822.915	14950.5
823.243	14938.29
823.57	14949.59
823.898	14953.43
824.225	14831.86
824.553	14900.55
824.88	14907.11
825.207	15046.54
825.535	14925.41
825.862	14939.88
826.189	14948.24
826.516	15021
826.843	15019.87
827.17	14932.64
827.497	14997.28
827.824	14998.86
828.151	15005.86
828.478	14945.53
828.805	15048.57
829.131	14976.71
829.458	14930.38
829.785	14878.86
830.111	14924.96
830.438	14977.16
830.764	14962.7
831.09	15007.44
831.417	14972.19
831.743	15002.02
832.069	14923.83
832.395	14847.22
832.722	14912.76
833.048	14892.19
833.374	14884.51
833.7	14795.02
834.026	14909.14
834.351	14931.97
834.677	14815.81
835.003	14895.36
835.329	14860.78
835.654	14845.19
835.98	14848.13
836.306	14790.5
836.631	14757.06
836.956	14865.08
837.282	14809.94
837.607	14713.21
837.932	14702.37
838.258	14701.92
838.583	14681.8
838.908	14518.64
839.233	14649.26
839.558	14609.71
839.883	14417.63
840.208	14461.7
840.533	14498.98
840.858	14465.09
841.182	14527.91
841.507	14442.71
841.832	14382.6
842.156	14291.53
842.481	14311.42
842.805	14245.2
843.13	14244.53
843.454	14270.29
843.778	14139.44
844.103	14162.27
844.427	14101.03
844.751	14136.73
845.075	14022.39
845.399	14018.77
845.723	13919.11
846.047	13952.56
846.371	13818.78
846.695	13940.35
847.019	13772.22
847.343	13654.49
847.666	13554.15
847.99	13583.08
848.313	13609.06
848.637	13444.1
848.96	13526.81
849.284	13411.78
849.607	13374.94
849.931	13302.4
850.254	13238.68
850.577	13179.92
850.9	13072.35
851.223	13113.03
851.546	13030.1
851.869	12915.07
852.192	12937.44
852.515	12869.87
852.838	12818.58
853.161	12786.94
853.483	12685.7
853.806	12640.27
854.129	12650.22
854.451	12633.27
854.774	12442.99
855.096	12556.89
855.419	12483.67
855.741	12494.06
856.063	12437.12
856.385	12352.15
856.708	12337.46
857.03	12256.33
857.352	12271.92
857.674	12197.57
857.996	12166.16
858.318	12095.66
858.64	12149.67
858.961	12085.71
859.283	12044.36
859.605	11978.82
859.926	12027.64
860.248	11893.18
860.57	11885.72
860.891	12000.97
861.212	11899.73
861.534	11859.73
861.855	11790.81
862.176	11837.36
862.498	11778.38
862.819	11706.51
863.14	11774.76
863.461	11643.69
863.782	11648.89
864.103	11680.75
864.424	11582
864.745	11572.05
865.065	11546.29
865.386	11521.21
865.707	11519.4
866.027	11466.52
866.348	11458.61
866.668	11502.68
866.989	11461.32
867.309	11387.2
867.63	11432.62
867.95	11442.57
868.27	11337.03
868.59	11331.61
868.91	11336.35
869.23	11212.52
869.55	11203.93
869.87	11310.82
870.19	11286.86
870.51	11306.07
870.83	11314.89
871.15	11203.48
871.469	11240.31
871.789	11218.39
872.109	11181.1
872.428	11135.91
872.748	11213.19
873.067	11151.73
873.386	11118.28
873.706	11045.29
874.025	11060.43
874.344	11043.03
874.663	11085.51
874.982	11053.2
875.301	11015.91
875.62	10990.83
875.939	10991.96
876.258	10967.78
876.577	10977.72
876.896	10942.47
877.214	10853.43
877.533	10906.08
877.852	10828.8
878.17	10799.19
878.489	10779.31
878.807	10843.94
879.125	10807.78
879.444	10779.53
879.762	10725.52
880.08	10655.69
880.398	10690.95
880.716	10735.01
881.034	10618.18
881.352	10688.91
881.67	10646.66
881.988	10612.76
882.306	10616.37
882.624	10551.52
882.941	10465.64
883.259	10443.5
883.577	10535.92
883.894	10414.57
884.212	10445.98
884.529	10443.04
884.846	10397.85
885.164	10327.57
885.481	10350.39
885.798	10271.3
886.115	10167.57
886.432	10227.91
886.75	10227.23
887.067	10248.25
887.383	10203.73
887.7	10196.95
888.017	10136.84
888.334	10073.34
888.651	10032.21
888.967	10105.2
889.284	9976.16
889.6	9982.04
889.917	9890.29
890.233	9963.96
890.55	9835.15
890.866	9940.68
891.182	9872.66
891.498	9791.76
891.815	9785.66
892.131	9774.36
892.447	9740.46
892.763	9686.23
893.079	9580.02
893.395	9608.94
893.71	9639
894.026	9634.48
894.342	9517.87
894.657	9454.82
894.973	9546.8
895.289	9483.52
895.604	9416.63
895.92	9381.15
896.235	9357.65
896.55	9410.98
896.865	9380.02
897.181	9329.18
897.496	9290.76
897.811	9183.87
898.126	9176.41
898.441	9136.64
898.756	9118.11
899.071	9073.14
899.386	9109.75
899.7	8964.89
900.015	8949.52
900.33	8959.92
900.644	8882.41
900.959	8859.81
901.273	8854.39
901.588	8896.87
901.902	8729.42
902.216	8702.3
902.531	8732.36
902.845	8674.05
903.159	8608.52
903.473	8713.37
903.787	8586.37
904.101	8542.76
904.415	8515.64
904.729	8448.29
905.042	8421.18
905.356	8427.5
905.67	8448.07
905.984	8414.62
906.297	8401.52
906.611	8295.08
906.924	8341.4
907.237	8270.9
907.551	8169.21
907.864	8241.97
908.177	8184.12
908.491	8168.98
908.804	8122.2
909.117	8076.1
909.43	7989.55
909.743	7980.74
910.056	7960.4
910.368	7915.43
910.681	7868.42
910.994	7835.66
911.307	7802.21
911.619	7793.17
911.932	7761.76
912.244	7752.27
912.557	7728.09
912.869	7672.95
913.181	7586.17
913.494	7558.15
913.806	7525.83
914.118	7539.39
914.43	7460.52
914.742	7513.18
915.054	7446.29
915.366	7386.4
915.678	7341.88
915.99	7328.78
916.302	7301.66
916.613	7289.91
916.925	7281.77
917.236	7247.87
917.548	7107.99
917.859	7174.66
918.171	7116.58
918.482	7076.35
918.794	7126.97
919.105	7078.61
919.416	7025.06
919.727	6982.34
920.038	6975.57
920.349	6970.82
920.66	6923.14
920.971	6894.21
921.282	6888.11
921.593	6798.17
921.903	6777.38
922.214	6759.75
922.525	6790.03
922.835	6747.1
923.146	6686.76
923.456	6693.76
923.767	6678.4
924.077	6591.17
924.387	6593.65
924.697	6624.61
925.008	6525.86
925.318	6490.83
925.628	6525.41
925.938	6475.47
926.248	6403.83
926.558	6448.35
926.867	6362.93
927.177	6296.94
927.487	6296.94
927.796	6244.51
928.106	6272.53
928.416	6231.18
928.725	6204.96
929.034	6168.13
929.344	6188.47
929.653	6171.29
929.962	6078.41
930.271	6079.54
930.581	6028.92
930.89	6051.3
931.199	5977.17
931.508	5972.88
931.817	5940.11
932.125	5954.58
932.434	5897.63
932.743	5876.39
933.051	5885.88
933.36	5839.32
933.669	5812.43
933.977	5825.31
934.286	5778.99
934.594	5744.64
934.902	5736.95
935.21	5663.51
935.519	5676.16
935.827	5626.22
936.135	5586.68
936.443	5575.38
936.751	5584.42
937.059	5548.03
937.367	5547.58
937.674	5567.01
937.982	5461.93
938.29	5449.96
938.597	5509.16
938.905	5395.72
939.213	5398.21
939.52	5320.69
939.827	5371.31
940.135	5350.52
940.442	5290.64
940.749	5333.8
941.056	5272.56
941.363	5213.58
941.67	5222.39
941.977	5174.93
942.284	5098.55
942.591	5119.12
942.898	5151.21
943.205	5096.52
943.511	5084.54
943.818	5064.2
944.125	4986.46
944.431	5030.31
944.738	4973.36
945.044	4969.06
945.35	4927.94
945.657	4968.39
945.963	4906.02
946.269	4859.24
946.575	4889.52
946.881	4877.99
947.187	4846.36
947.493	4776.07
947.799	4782.63
948.105	4752.35
948.41	4715.29
948.716	4761.61
949.022	4721.16
949.327	4667.83
949.633	4641.62
949.938	4624.89
950.244	4638.45
950.549	4585.57
950.854	4576.98
951.16	4559.13
951.465	4540.15
951.77	4515.06
952.075	4508.74
952.38	4535.18
952.685	4482.52
952.99	4432.13
953.294	4443.2
953.599	4374.73
953.904	4376.76
954.209	4325.01
954.513	4318.69
954.818	4325.92
955.122	4291.79
955.426	4280.49
955.731	4262.19
956.035	4231
956.339	4261.06
956.643	4241.4
956.948	4189.88
957.252	4193.94
957.556	4173.15
957.86	4119.6
958.163	4113.72
958.467	4084.12
958.771	4074.4
959.075	4096.32
959.378	4042.53
959.682	4072.14
959.985	4005.7
960.289	3988.07
960.592	3964.57
960.896	3971.35
961.199	3939.03
961.502	3960.5
961.805	3878.7
962.108	3916.66
962.411	3880.28
962.714	3896.32
963.017	3859.94
963.32	3866.27
963.623	3787.63
963.926	3838.02
964.228	3774.07
964.531	3758.02
964.833	3753.5
965.136	3744.69
965.438	3712.15
965.741	3711.92
966.043	3699.49
966.345	3694.97
966.648	3654.52
966.95	3601.19
967.252	3599.61
967.554	3655.65
967.856	3614.3
968.158	3598.7
968.46	3579.72
968.761	3586.73
969.063	3560.51
969.365	3523.23
969.666	3518.48
969.968	3518.71
970.269	3468.76
970.571	3485.04
970.872	3390.8
971.174	3463.79
971.475	3420.63
971.776	3355.1
972.077	3388.77
972.378	3407.98
972.679	3383.12
972.98	3334.76
973.281	3353.74
973.582	3317.36
973.883	3300.86
974.183	3272.61
974.484	3278.26
974.785	3265.15
975.085	3238.04
975.386	3253.86
975.686	3186.29
975.986	3194.2
976.287	3221.77
976.587	3150.13
976.887	3177.7
977.187	3157.59
977.487	3140.86
977.787	3130.47
978.087	3117.59
978.387	3080.3
978.687	3097.48
978.987	3043.24
979.286	3044.6
979.586	2994.2
979.885	3025.16
980.185	2998.27
980.484	3010.25
980.784	2994.65
981.083	2982.45
981.382	2997.14
981.682	2957.14
981.981	2904.94
982.28	2902.45
982.579	2897.71
982.878	2866.97
983.177	2876.01
983.475	2895.67
983.774	2820.87
984.073	2818.39
984.372	2772.29
984.67	2765.05
984.969	2792.4
985.267	2766.18
985.566	2763.7
985.864	2796.47
986.162	2743.81
986.461	2710.59
986.759	2699.97
987.057	2703.14
987.355	2688.22
987.653	2682.57
987.951	2657.71
988.249	2659.97
988.547	2643.02
988.844	2617.26
989.142	2623.14
989.44	2598.05
989.737	2580.2
990.035	2599.64
990.332	2542.91
990.63	2549.92
990.927	2541.11
991.224	2539.98
991.521	2497.49
991.819	2545.85
992.116	2498.62
992.413	2490.03
992.71	2484.38
993.006	2481.22
993.303	2446.87
993.6	2464.27
993.897	2412.97
994.193	2433.31
994.49	2412.52
994.787	2389.02
995.083	2386.76
995.379	2369.58
995.676	2359.64
995.972	2346.99
996.268	2304.28
996.565	2309.7
996.861	2306.54
997.157	2318.29
997.453	2305.86
997.749	2272.41
998.044	2257.72
998.34	2241.23
998.636	2245.29
998.932	2231.28
999.227	2215.24
999.523	2229.93
999.818	2175.69
1000.114	2166.2
1000.409	2173.66
1000.704	2188.12
1001	2134.11
1001.295	2133.88
1001.59	2123.94
1001.885	2137.95
1002.18	2131.62
1002.475	2098.63
1002.77	2074.45
1003.065	2067.22
1003.359	2060.89
1003.654	2054.34
1003.949	2053.21
1004.243	2043.72
1004.538	2023.15
1004.832	2005.98
1005.127	2001.46
1005.421	1924.4
1005.715	1976.83
1006.009	1991.97
1006.304	1937.73
1006.598	1952.42
1006.892	1910.84
1007.186	1907.68
1007.48	1928.69
1007.773	1911.07
1008.067	1895.7
1008.361	1875.13
1008.655	1859.54
1008.948	1831.97
1009.242	1842.14
1009.535	1822.25
1009.829	1827.68
1010.122	1800.11
1010.415	1794.91
1010.708	1814.34
1011.001	1800.79
1011.295	1769.83
1011.588	1757.17
1011.881	1766.21
1012.173	1731.86
1012.466	1729.38
1012.759	1745.87
1013.052	1724.86
1013.344	1681.69
1013.637	1693.9
1013.93	1674.46
1014.222	1664.52
1014.514	1652.77
1014.807	1641.92
1015.099	1663.84
1015.391	1619.55
1015.683	1611.41
1015.976	1603.96
1016.268	1609.83
1016.56	1576.61
1016.851	1588.59
1017.143	1572.77
1017.435	1571.87
1017.727	1528.48
1018.018	1573.22
1018.31	1533.9
1018.602	1548.14
1018.893	1520.79
1019.185	1531.87
1019.476	1479.21
1019.767	1491.42
1020.058	1463.17
1020.35	1441.25
1020.641	1477.63
1020.932	1424.3
1021.223	1447.8
1021.514	1426.33
1021.804	1411.87
1022.095	1403.73
1022.386	1421.36
1022.677	1392.89
1022.967	1396.73
1023.258	1403.96
1023.548	1356.5
1023.839	1349.5
1024.129	1374.58
1024.419	1335.26
1024.709	1354.24
1025	1298.43
1025.29	1339.78
1025.58	1280.35
1025.87	1306.56
1026.16	1262.04
1026.449	1262.04
1026.739	1306.34
1027.029	1276.73
1027.319	1234.93
1027.608	1260.91
1027.898	1241.48
1028.187	1239.22
1028.477	1239.67
1028.766	1196.96
1029.055	1216.39
1029.344	1202.61
1029.634	1187.24
1029.923	1168.71
1030.212	1177.3
1030.501	1164.87
1030.79	1149.05
1031.078	1163.29
1031.367	1149.28
1031.656	1129.62
1031.945	1115.83
1032.233	1114.7
1032.522	1103.4
1032.81	1087.36
1033.099	1111.76
1033.387	1099.56
1033.675	1079
1033.963	1095.49
1034.251	1055.04
1034.54	1063.86
1034.828	1045.55
1035.116	1036.29
1035.403	1045.33
1035.691	1031.54
1035.979	1029.96
1036.267	1017.76
1036.554	1016.63
1036.842	1015.95
1037.129	1017.76
1037.417	1003.52
1037.704	1008.72
1037.992	972.79
1038.279	968.27
1038.566	969.4
1038.853	969.4
1039.14	969.4
