Data from hue_70_FLMS001491_46.txt Node
Date: Mon Feb 06 15:20:58 GMT 2017
User: dcchb
Spectrometer: FLMS00149
Trigger mode: 0
Integration Time (sec): 2.000000E-2
Scans to average: 10
Electric dark correction enabled: true
Nonlinearity correction enabled: false
Boxcar width: 0
XAxis mode: Wavelengths
Number of Pixels in Spectrum: 2048
>>>>>Begin Spectral Data<<<<<
341.393	-30.14
341.776	-30.14
342.16	-30.14
342.543	-65.17
342.927	-51.61
343.31	-74.43
343.693	-75.34
344.077	-68.56
344.46	-59.74
344.843	-43.47
345.226	-36.47
345.61	-43.7
345.993	0.14
346.376	-20.88
346.759	9.18
347.142	39.24
347.525	33.59
347.908	61.61
348.291	77.65
348.674	86.69
349.057	114.49
349.44	102.51
349.823	126.69
350.206	144.54
350.588	206.69
350.971	206.92
351.354	203.53
351.737	215.73
352.119	269.74
352.502	257.99
352.884	277.42
353.267	285.56
353.65	280.36
354.032	309.51
354.414	292.79
354.797	318.55
355.179	309.74
355.562	307.25
355.944	323.52
356.326	322.84
356.709	324.2
357.091	342.96
357.473	330.08
357.855	329.17
358.238	331.66
358.62	339.79
359.002	341.6
359.384	327.59
359.766	323.52
360.148	324.65
360.53	333.69
360.912	328.49
361.294	324.43
361.676	305.67
362.057	326.23
362.439	331.88
362.821	332.34
363.203	322.17
363.584	315.39
363.966	316.97
364.348	315.61
364.729	310.64
365.111	316.74
365.493	327.36
365.874	312.45
366.256	309.29
366.637	303.86
367.019	307.7
367.4	290.08
367.781	324.2
368.163	314.26
368.544	319
368.925	302.28
369.306	311.09
369.688	292.79
370.069	293.01
370.45	297.08
370.831	306.8
371.212	306.12
371.593	321.94
371.974	282.85
372.355	283.98
372.736	297.76
373.117	288.72
373.498	308.61
373.879	308.38
374.26	302.96
374.641	313.58
375.021	297.99
375.402	306.35
375.783	303.64
376.163	312.45
376.544	328.04
376.925	308.38
377.305	321.26
377.686	315.16
378.066	319.23
378.447	315.39
378.827	330.98
379.208	316.07
379.588	348.15
379.968	316.07
380.349	328.72
380.729	322.39
381.109	338.89
381.489	336.4
381.87	340.7
382.25	321.26
382.63	327.59
383.01	337.76
383.39	335.05
383.77	352.45
384.15	332.79
384.53	336.4
384.91	334.6
385.29	341.6
385.67	337.53
386.049	329.85
386.429	344.09
386.809	327.36
387.189	351.77
387.568	331.43
387.948	365.1
388.328	325.1
388.707	347.25
389.087	351.32
389.466	354.26
389.846	353.13
390.225	344.76
390.605	349.96
390.984	336.18
391.363	347.48
391.743	357.87
392.122	362.62
392.501	359.45
392.881	356.74
393.26	364.2
393.639	369.17
394.018	347.48
394.397	364.2
394.776	376.85
395.155	369.17
395.534	362.39
395.913	362.17
396.292	351.54
396.671	382.96
397.05	358.55
397.429	387.7
397.808	357.42
398.186	375.27
398.565	357.42
398.944	356.97
399.323	388.15
399.701	386.12
400.08	377.76
400.458	378.21
400.837	370.53
401.215	390.41
401.594	389.51
401.972	383.18
402.351	383.63
402.729	367.59
403.107	368.49
403.486	408.72
403.864	405.55
404.242	407.59
404.62	386.12
404.999	373.24
405.377	392.9
405.755	405.1
406.133	396.29
406.511	396.97
406.889	406.91
407.267	413.24
407.645	416.63
408.023	386.8
408.401	424.99
408.779	420.02
409.156	426.57
409.534	427.7
409.912	430.86
410.29	430.86
410.667	418.66
411.045	408.94
411.422	432.9
411.8	432.45
412.178	433.58
412.555	450.52
412.933	447.14
413.31	435.16
413.687	433.35
414.065	436.29
414.442	427.25
414.819	438.1
415.197	457.53
415.574	460.02
415.951	460.47
416.328	436.97
416.705	467.47
417.082	455.5
417.46	467.47
417.837	473.8
418.214	487.81
418.591	472.22
418.967	479.68
419.344	480.35
419.721	484.87
420.098	468.6
420.475	501.15
420.852	472.9
421.228	481.71
421.605	509.73
421.982	490.52
422.358	498.21
422.735	492.11
423.111	494.37
423.488	530.3
423.864	532.33
424.241	523.29
424.617	538.21
424.994	518.77
425.37	520.35
425.746	535.95
426.123	547.92
426.499	551.77
426.875	559.9
427.251	551.09
427.627	555.38
428.003	551.99
428.379	567.58
428.756	537.98
429.132	542.27
429.507	556.96
429.883	561.03
430.259	576.4
430.635	580.24
431.011	584.53
431.387	598.77
431.763	607.58
432.138	602.16
432.514	573.69
432.89	606
433.265	626.57
433.641	620.01
434.016	618.88
434.392	614.14
434.767	638.54
435.143	639.67
435.518	630.63
435.894	657.3
436.269	629.5
436.644	645.77
437.02	682.84
437.395	643.06
437.77	672.44
438.145	682.61
438.52	660.69
438.895	675.15
439.271	695.26
439.646	698.2
440.021	682.84
440.395	678.09
440.77	705.89
441.145	717.64
441.52	682.16
441.895	722.61
442.27	710.86
442.645	701.37
443.019	752.66
443.394	715.6
443.769	713.12
444.143	725.32
444.518	751.08
444.892	742.04
445.267	747.01
445.641	745.43
446.016	757.64
446.39	766.45
446.764	752.66
447.139	762.16
447.513	787.47
447.887	772.55
448.262	769.84
448.636	773.45
449.01	768.48
449.384	787.47
449.758	789.72
450.132	810.06
450.506	792.89
450.88	819.78
451.254	803.51
451.628	825.66
452.002	821.36
452.376	832.89
452.75	834.7
453.123	857.07
453.497	863.4
453.871	872.21
454.244	866.33
454.618	900.91
454.992	875.15
455.365	884.19
455.739	888.93
456.112	920.34
456.486	933.45
456.859	935.26
457.232	970.96
457.606	968.25
457.979	992.66
458.352	979.1
458.725	994.47
459.099	989.72
459.472	1010.96
459.845	999.21
460.218	1001.02
460.591	1035.59
460.964	1021.13
461.337	1075.37
461.71	1085.54
462.083	1078.08
462.456	1096.38
462.829	1101.58
463.201	1137.06
463.574	1129.38
463.947	1145.2
464.32	1189.26
464.692	1187
465.065	1175.93
465.438	1190.62
465.81	1217.28
466.183	1250.73
466.555	1262.03
466.928	1273.33
467.3	1282.59
467.672	1282.59
468.045	1325.98
468.417	1333.44
468.789	1360.78
469.161	1409.14
469.534	1447.56
469.906	1427.67
470.278	1459.54
470.65	1464.74
471.022	1517.16
471.394	1556.48
471.766	1537.28
472.138	1573.66
472.51	1630.61
472.882	1685.29
473.253	1704.96
473.625	1731.62
473.997	1748.8
474.369	1783.82
474.74	1812.52
475.112	1873.09
475.484	1915.8
475.855	2000.77
476.227	2004.38
476.598	2020.65
476.97	2091.39
477.341	2153.3
477.713	2215
478.084	2268.1
478.455	2339.29
478.827	2411.83
479.198	2488.66
479.569	2479.85
479.94	2568.89
480.311	2643.69
480.682	2750.8
481.053	2851.37
481.424	2920.97
481.795	2967.07
482.166	3081.42
482.537	3117.12
482.908	3253.39
483.279	3292.26
483.65	3461.75
484.021	3534.74
484.391	3619.26
484.762	3681.85
485.133	3780.61
485.503	3904.9
485.874	4019.92
486.244	4107.6
486.615	4250.65
486.985	4344.66
487.356	4511.21
487.726	4556.41
488.097	4748.26
488.467	4837.08
488.837	4962.95
489.207	5097.41
489.578	5225.09
489.948	5385.08
490.318	5479.32
490.688	5626.21
491.058	5795.47
491.428	5977.16
491.798	6029.59
492.168	6207.21
492.538	6305.74
492.908	6422.57
493.278	6546.41
493.648	6682.45
494.017	6872.73
494.387	7012.16
494.757	7116.34
495.126	7279.27
495.496	7376.22
495.866	7526.95
496.235	7710.67
496.605	7803.33
496.974	7906.15
497.344	8101.85
497.713	8179.14
498.082	8363.76
498.452	8520.6
498.821	8584.55
499.19	8665.68
499.559	8877.87
499.928	9041.49
500.298	9095.04
500.667	9248.26
501.036	9367.35
501.405	9418.88
501.774	9604.63
502.143	9706.1
502.512	9809.83
502.88	9995.81
503.249	10009.14
503.618	10156.94
503.987	10297.95
504.356	10396.03
504.724	10538.62
505.093	10624.49
505.462	10818.16
505.83	10825.85
506.199	10998.5
506.567	11138.15
506.936	11189.45
507.304	11342.67
507.672	11461.76
508.041	11533.4
508.409	11742.21
508.777	11743.79
509.145	11941.52
509.514	11976.55
509.882	12155.53
510.25	12165.02
510.618	12312.13
510.986	12370.21
511.354	12505.35
511.722	12653.37
512.09	12836.64
512.458	12782.18
512.826	12975.39
513.193	13028.27
513.561	13067.82
513.929	13166.57
514.297	13305.33
514.664	13430.75
515.032	13393.91
515.4	13570.18
515.767	13697.86
516.135	13817.18
516.502	13753.45
516.869	14030.51
517.237	14040.45
517.604	14054.23
517.972	14207.68
518.339	14288.35
518.706	14356.6
519.073	14460.33
519.44	14537.16
519.808	14665.97
520.175	14642.92
520.542	14854.67
520.909	14923.36
521.276	14946.64
521.643	15122.91
522.009	15249.91
522.376	15268.44
522.743	15407.65
523.11	15421.2
523.477	15651.26
523.843	15727.64
524.21	15849.44
524.577	15934.41
524.943	15997.01
525.31	16071.58
525.676	16306.38
526.043	16256.44
526.409	16354.29
526.776	16519.93
527.142	16554.73
527.508	16663.43
527.874	16698.23
528.241	16724.22
528.607	16822.07
528.973	16992.01
529.339	16925.35
529.705	17090.54
530.071	17196.75
530.437	17340.7
530.803	17375.96
531.169	17416.63
531.535	17330.76
531.901	17464.54
532.267	17509.96
532.632	17640.58
532.998	17566.68
533.364	17643.75
533.73	17757.87
534.095	17881.7
534.461	17917.64
534.826	17907.24
535.192	17977.07
535.557	17955.38
535.923	17958.77
536.288	18050.74
536.653	18051.19
537.019	18058.88
537.384	18059.78
537.749	18050.74
538.114	18191.75
538.479	18141.13
538.845	18235.37
539.21	18155.37
539.575	18274.46
539.94	18250.06
540.305	18318.53
540.67	18308.59
541.034	18307
541.399	18364.4
541.764	18440.11
542.129	18517.17
542.494	18527.56
542.858	18498.86
543.223	18555.59
543.587	18584.74
543.952	18519.43
544.316	18621.57
544.681	18535.25
545.045	18625.41
545.41	18666.32
545.774	18680.33
546.138	18724.62
546.503	18647.33
546.867	18667.45
547.231	18784.96
547.595	18810.95
547.959	18831.96
548.324	18772.53
548.688	18791.74
549.052	18828.12
549.416	18876.26
549.779	18731.85
550.143	18857.95
550.507	19031.51
550.871	19022.92
551.235	18885.97
551.599	19128.9
551.962	19052.07
552.326	19088.45
552.689	19104.95
553.053	19135.68
553.417	19074.89
553.78	19308.11
554.143	19103.59
554.507	19120.99
554.87	19231.5
555.234	19311.95
555.597	19187.89
555.96	19330.25
556.323	19364.38
556.686	19413.19
557.05	19582.68
557.413	19451.61
557.776	19521.21
558.139	19727.08
558.502	19580.87
558.865	19652.51
559.228	19692.73
559.59	19758.49
559.953	19754.88
560.316	19965.27
560.679	19803.46
561.041	20024.93
561.404	20019.05
561.767	20142.21
562.129	20012.27
562.492	20206.62
562.854	20232.6
563.217	20073.74
563.579	20218.37
563.941	20358.7
564.304	20372.49
564.666	20454.97
565.028	20483.9
565.39	20544.23
565.753	20631.46
566.115	20655.64
566.477	20706.94
566.839	20716.21
567.201	20855.64
567.563	20944.68
567.925	20927.73
568.287	20908.52
568.648	20931.34
569.01	21034.39
569.372	21139.47
569.734	21109.87
570.095	21294.5
570.457	21308.51
570.819	21309.86
571.18	21322.52
571.542	21418.79
571.903	21466.24
572.265	21651.55
572.626	21570.42
572.987	21549.86
573.349	21593.7
573.71	21641.83
574.071	21749.17
574.432	21775.39
574.794	21983.52
575.155	21805.44
575.516	21760.92
575.877	21849.96
576.238	21905.55
576.599	21972.22
576.96	22012.67
577.32	22102.16
577.681	22159.11
578.042	22074.82
578.403	22192.55
578.763	22101.93
579.124	22089.05
579.485	22347.12
579.845	22311.42
580.206	22265.32
580.566	22288.59
580.927	22255.38
581.287	22294.24
581.648	22240.01
582.008	22500.34
582.368	22254.47
582.728	22424.41
583.089	22255.6
583.449	22327.69
583.809	22327.01
584.169	22452.66
584.529	22271.42
584.889	22471.87
585.249	22341.7
585.609	22247.47
585.969	22307.58
586.329	22316.39
586.688	22362.72
587.048	22388.93
587.408	22402.26
587.768	22279.56
588.127	22287.46
588.487	22352.32
588.846	22369.27
589.206	22246.34
589.565	22249.27
589.925	22355.71
590.284	22273
590.643	22325.43
591.003	22393.45
591.362	22498.53
591.721	22369.5
592.08	22310.06
592.44	22455.82
592.799	22478.42
593.158	22405.65
593.517	22350.29
593.876	22337.86
594.235	22359.78
594.593	22348.48
594.952	22365.65
595.311	22270.29
595.67	22299.22
596.029	22471.19
596.387	22480.68
596.746	22517.74
597.104	22321.81
597.463	22375.15
597.822	22500.34
598.18	22419.44
598.538	22355.94
598.897	22502.37
599.255	22326.33
599.613	22706.21
599.972	22471.19
600.33	22500.11
600.688	22402.72
601.046	22578.3
601.404	22542.15
601.762	22506.67
602.12	22602.71
602.478	22568.59
602.836	22599.1
603.194	22584.41
603.552	22607
603.91	22534.01
604.268	22650.17
604.625	22532.66
604.983	22621.69
605.341	22591.41
605.698	22694.91
606.056	22683.84
606.413	22651.98
606.771	22808.36
607.128	22809.03
607.485	22622.82
607.843	22751.18
608.2	22865.3
608.557	22866.21
608.914	22864.17
609.272	22992.53
609.629	22965.87
609.986	23057.61
610.343	22957.05
610.7	23192.53
611.057	23027.56
611.414	23054
611.771	23141.23
612.127	23295.12
612.484	23191.62
612.841	23287.66
613.198	23224.39
613.554	23204.95
613.911	23393.65
614.267	23385.74
614.624	23305.29
614.98	23369.92
615.337	23535.12
615.693	23401.79
616.05	23449.24
616.406	23540.54
616.762	23465.74
617.118	23447.89
617.475	23485.85
617.831	23579.63
618.187	23536.02
618.543	23645.4
618.899	23704.6
619.255	23764.71
619.611	23622.34
619.967	23864.37
620.323	23782.79
620.678	23631.61
621.034	23580.31
621.39	23586.19
621.746	23656.24
622.101	23823.24
622.457	23769.46
622.812	23865.05
623.168	23768.33
623.523	23803.58
623.879	23935.11
624.234	23749.12
624.589	23828.44
624.945	23849.91
625.3	23915.44
625.655	23876.12
626.01	23919.06
626.365	23815.56
626.72	23958.16
627.075	23827.76
627.43	23944.82
627.785	23940.08
628.14	23931.72
628.495	23932.39
628.85	23931.94
629.205	23828.67
629.559	24025.95
629.914	23853.3
630.269	23843.36
630.623	23779.85
630.978	23758.39
631.332	23758.84
631.687	23884.26
632.041	23807.2
632.396	23863.47
632.75	23635.9
633.104	23782.11
633.459	23660.31
633.813	23716.13
634.167	23778.95
634.521	23668.45
634.875	23688.56
635.229	23590.48
635.583	23518.17
635.937	23405.18
636.291	23616.92
636.645	23602.68
636.999	23559.3
637.352	23560.65
637.706	23493.31
638.06	23574.89
638.413	23464.16
638.767	23287.66
639.121	23337.38
639.474	23182.81
639.828	23232.07
640.181	23290.15
640.534	23394.55
640.888	23206.54
641.241	23260.32
641.594	23193.43
641.947	23260.09
642.301	23242.02
642.654	23247.44
643.007	23272.3
643.36	23121.57
643.713	23202.24
644.066	23219.19
644.419	23077.95
644.771	22897.17
645.124	22835.47
645.477	22734.91
645.83	22538.98
646.182	22516.84
646.535	22375.15
646.888	22449.95
647.24	22300.8
647.593	22449.72
647.945	22470.74
648.298	22310.74
648.65	22263.28
649.002	22219.22
649.355	22357.97
649.707	22357.75
650.059	22422.38
650.411	22750.5
650.763	22672.54
651.115	22896.94
651.467	22827.11
651.819	22794.34
652.171	22816.49
652.523	22668.92
652.875	22747.11
653.227	22654.01
653.578	22806.1
653.93	22778.3
654.282	22624.63
654.633	22674.35
654.985	22645.42
655.337	22837.05
655.688	22727.23
656.039	22845.64
656.391	22656.95
656.742	22731.97
657.094	22689.04
657.445	22769.26
657.796	22706.66
658.147	22629.83
658.498	22728.81
658.849	22654.91
659.2	22733.78
659.551	22683.61
659.902	22731.29
660.253	22756.61
660.604	22740.11
660.955	22657.85
661.306	22742.82
661.656	22724.52
662.007	22756.61
662.358	22598.19
662.708	22665.76
663.059	22691.52
663.409	22648.59
663.76	22727.68
664.11	22722.93
664.461	22740.56
664.811	22733.78
665.161	22724.29
665.511	22674.35
665.862	22696.95
666.212	22811.07
666.562	22809.26
666.912	22791.41
667.262	22752.09
667.612	22683.39
667.962	22742.37
668.312	22682.93
668.662	22867.11
669.011	22696.27
669.361	22654.69
669.711	22633.44
670.06	22708.24
670.41	22600.68
670.76	22612.88
671.109	22662.37
671.459	22673.9
671.808	22601.81
672.157	22657.4
672.507	22549.38
672.856	22522.49
673.205	22664.63
673.554	22670.96
673.904	22550.96
674.253	22637.06
674.602	22476.39
674.951	22183.74
675.3	22083.85
675.649	22463.51
675.998	22380.12
676.346	22477.52
676.695	22490.4
677.044	22247.01
677.393	22355.26
677.741	22356.84
678.09	22245.66
678.438	22287.69
678.787	22275.04
679.135	22216.05
679.484	22128.15
679.832	22332.66
680.181	22162.5
680.529	22214.47
680.877	22158.65
681.225	22159.11
681.573	22130.18
681.922	22022.61
682.27	21958.21
682.618	22054.48
682.966	21952.11
683.314	21922.5
683.661	21895.84
684.009	21749.17
684.357	21716.41
684.705	21708.72
685.053	21696.52
685.4	21651.78
685.748	21533.13
686.095	21511.21
686.443	21415.62
686.79	21431.67
687.138	21479.8
687.485	21412.23
687.832	21402.74
688.18	21437.32
688.527	21264.21
688.874	21276.64
689.221	21148.74
689.568	21144.44
689.915	21162.3
690.262	21052.47
690.609	20940.16
690.956	20893.6
691.303	20870.1
691.65	20878.24
691.997	20709.2
692.344	20549.66
692.69	20672.82
693.037	20598.92
693.383	20336.1
693.73	20473.73
694.077	20441.41
694.423	20323.9
694.769	20280.96
695.116	20178.82
695.462	20210.68
695.808	20105.38
696.155	20128.2
696.501	19975.21
696.847	20007.98
697.193	19821.09
697.539	19847.75
697.885	19742.45
698.231	19669.68
698.577	19622.45
698.923	19569.12
699.269	19559.85
699.614	19407.09
699.96	19418.39
700.306	19394.66
700.651	19272.85
700.997	19241.9
701.342	19191.73
701.688	19078.74
702.033	19110.15
702.379	19044.84
702.724	18942.92
703.069	18998.74
703.415	18674.68
703.76	18781.12
704.105	18815.01
704.45	18681.01
704.795	18635.36
705.14	18480.11
705.485	18542.25
705.83	18408.7
706.175	18524.17
706.52	18379.09
706.865	18278.53
707.209	18223.62
707.554	18169.83
707.899	18258.87
708.243	18118.99
708.588	18077.18
708.932	17902.04
709.277	17957.86
709.621	17964.64
709.966	17856.85
710.31	17907.24
710.654	17761.71
710.998	17806.23
711.342	17790.86
711.687	17770.75
712.031	17625.89
712.375	17454.37
712.719	17633.58
713.063	17510.19
713.407	17515.39
713.75	17442.17
714.094	17467.7
714.438	17434.71
714.782	17400.81
715.125	17245.79
715.469	17308.39
715.812	17171.89
716.156	17103.87
716.499	17080.6
716.843	17159.69
717.186	17156.3
717.53	17112.01
717.873	17212.34
718.216	16995.4
718.559	16987.27
718.902	16875.4
719.246	16906.82
719.589	16904.56
719.932	16719.93
720.275	16751.57
720.617	16801.51
720.96	16722.87
721.303	16734.39
721.646	16744.11
721.989	16686.48
722.331	16778.68
722.674	16662.75
723.016	16697.33
723.359	16622.76
723.701	16690.32
724.044	16465.25
724.386	16492.81
724.729	16510.44
725.071	16453.27
725.413	16513.38
725.755	16406.94
726.097	16377.11
726.439	16343.89
726.782	16321.52
727.124	16388.86
727.465	16354.51
727.807	16312.71
728.149	16281.75
728.491	16274.74
728.833	16300.73
729.175	16245.14
729.516	16183.9
729.858	16168.76
730.199	16180.51
730.541	16196.78
730.882	16166.04
731.224	16149.32
731.565	16004.01
731.906	16159.49
732.248	16123.11
732.589	16129.21
732.93	15964.69
733.271	16059.83
733.612	16160.85
733.953	16078.36
734.294	15998.82
734.635	16027.29
734.976	16051.92
735.317	16005.37
735.658	15993.39
735.999	16087.18
736.339	16010.34
736.68	16020.06
737.021	15995.65
737.361	15955.88
737.702	16058.02
738.042	15963.34
738.383	15971.7
738.723	15999.27
739.063	15882.44
739.404	16047.85
739.744	15921.98
740.084	15943.22
740.424	15899.38
740.764	15910.68
741.104	16004.69
741.444	15923.11
741.784	15974.86
742.124	15937.12
742.464	16003.11
742.804	15976.9
743.143	15916.11
743.483	15987.52
743.823	15901.64
744.162	16023.67
744.502	16007.18
744.841	15907.29
745.181	16088.76
745.52	16097.12
745.86	16075.2
746.199	16036.33
746.538	16130.79
746.877	16199.72
747.216	16154.74
747.556	16145.03
747.895	16206.49
748.234	16232.48
748.573	16311.58
748.911	16260.73
749.25	16376.21
749.589	16338.47
749.928	16414.17
750.267	16468.18
750.605	16429.31
750.944	16489.88
751.283	16526.03
751.621	16716.99
751.96	16590.21
752.298	16648.52
752.636	16743.2
752.975	16732.81
753.313	16808.96
753.651	17009.41
753.989	16913.37
754.327	17067.49
754.666	17072.23
755.004	17163.31
755.342	17278.33
755.679	17305.9
756.017	17318.33
756.355	17395.84
756.693	17507.48
757.031	17552
757.368	17533.92
757.706	17630.64
758.044	17700.47
758.381	17815.04
758.719	17811.2
759.056	17953.34
759.394	17971.19
759.731	18009.16
760.068	18040.8
760.405	18072.21
760.743	18133.9
761.08	18157.86
761.417	18378.19
761.754	18349.94
762.091	18411.41
762.428	18383.84
762.765	18387.68
763.102	18545.64
763.438	18516.26
763.775	18514
764.112	18637.84
764.449	18757.61
764.785	18700.89
765.122	18762.81
765.458	18751.96
765.795	18769.82
766.131	18859.53
766.467	18841.91
766.804	18857.27
767.14	18786.99
767.476	18897.05
767.812	18861.34
768.148	18961.9
768.485	18795.58
768.821	18861.57
769.157	18877.84
769.492	18885.97
769.828	18880.32
770.164	18815.24
770.5	18804.17
770.836	18930.26
771.171	18780.89
771.507	18856.14
771.842	18720.1
772.178	18762.36
772.513	18762.81
772.849	18816.14
773.184	18704.51
773.519	18744.06
773.855	18755.81
774.19	18619.09
774.525	18661.12
774.86	18660.89
775.195	18663.15
775.53	18586.77
775.865	18449.6
776.2	18351.52
776.535	18353.56
776.87	18377.96
777.205	18336.61
777.539	18229.49
777.874	18241.92
778.209	18260.68
778.543	18271.3
778.878	18093.22
779.212	18088.71
779.547	18155.14
779.881	18068.59
780.215	18083.51
780.55	18054.81
780.884	17867.02
781.218	17893.68
781.552	17840.12
781.886	17801.48
782.22	17729.39
782.554	17666.34
782.888	17514.03
783.222	17500.47
783.556	17479.68
783.889	17328.05
784.223	17309.74
784.557	17347.03
784.89	17362.17
785.224	17189.75
785.557	17145
785.891	17049.41
786.224	17143.19
786.558	17135.28
786.891	16938.45
787.224	16850.55
787.557	16919.24
787.891	16825.91
788.224	16766.25
788.557	16812.81
788.89	16665.92
789.223	16740.94
789.556	16565.81
789.888	16564.45
790.221	16465.25
790.554	16372.82
790.887	16311.58
791.219	16304.57
791.552	16352.25
791.884	16135.99
792.217	16231.8
792.549	16141.41
792.882	16065.71
793.214	15957.69
793.546	16051.7
793.879	15837.69
794.211	15827.3
794.543	15962.43
794.875	15808.09
795.207	15879.05
795.539	15693.97
795.871	15704.36
796.203	15625.95
796.535	15465.95
796.867	15458.49
797.198	15421.88
797.53	15425.72
797.862	15365.16
798.193	15417.36
798.525	15222.57
798.856	15352.73
799.188	15196.8
799.519	15155
799.85	14955.45
800.182	15046.3
800.513	15011.95
800.844	14968.11
801.175	14996.13
801.506	14920.2
801.837	14834.33
802.168	14794.55
802.499	14761.56
802.83	14616.71
803.161	14613.77
803.491	14619.42
803.822	14613.77
804.153	14491.96
804.483	14484.96
804.814	14437.28
805.145	14444.73
805.475	14384.4
805.805	14265.3
806.136	14382.36
806.466	14306.21
806.796	14227.79
807.126	14132.65
807.457	14139.43
807.787	14160.9
808.117	14107.34
808.447	14013.33
808.777	14096.49
809.107	13955.93
809.436	13931.98
809.766	13978.98
810.096	13857.63
810.426	13827.12
810.755	13872.09
811.085	13793.9
811.414	13732.89
811.744	13689.5
812.073	13579.67
812.403	13646.56
812.732	13542.16
813.061	13589.61
813.39	13464.65
813.719	13489.5
814.049	13550.07
814.378	13485.21
814.707	13380.13
815.036	13383.29
815.365	13330.86
815.693	13226.46
816.022	13223.97
816.351	13170.87
816.68	13102.62
817.008	13201.15
817.337	13043.64
817.665	12991.89
817.994	13055.84
818.322	13056.07
818.651	12883.19
818.979	12950.76
819.307	12970.65
819.636	12971.1
819.964	12890.2
820.292	12842.29
820.62	12838.9
820.948	12878.22
821.276	12883.64
821.604	12755.74
821.932	12818.79
822.259	12782.18
822.587	12775.17
822.915	12767.72
823.243	12847.04
823.57	12708.06
823.898	12769.07
824.225	12742.18
824.553	12711.9
824.88	12708.96
825.207	12725.46
825.535	12736.3
825.862	12800.93
826.189	12784.66
826.516	12766.36
826.843	12820.37
827.17	12765
827.497	12831.89
827.824	12826.24
828.151	12786.92
828.478	12785.57
828.805	12799.35
829.131	12747.6
829.458	12704.67
829.785	12681.84
830.111	12753.25
830.438	12764.78
830.764	12803.65
831.09	12679.13
831.417	12685.91
831.743	12716.87
832.069	12750.99
832.395	12657.44
832.722	12662.41
833.048	12610.21
833.374	12609.08
833.7	12569.08
834.026	12551.22
834.351	12534.73
834.677	12685.01
835.003	12598.23
835.329	12562.75
835.654	12449.31
835.98	12474.62
836.306	12509.19
836.631	12479.36
836.956	12547.61
837.282	12469.64
837.607	12440.04
837.932	12429.42
838.258	12402.98
838.583	12334.51
838.908	12281.85
839.233	12365.01
839.558	12275.52
839.883	12273.94
840.208	12300.16
840.533	12239.82
840.858	12218.35
841.182	12292.47
841.507	12188.52
841.832	12146.04
842.156	12144.91
842.481	12086.6
842.805	12108.07
843.13	12065.13
843.454	12047.51
843.778	12019.94
844.103	11992.82
844.427	11934.97
844.751	11878.25
845.075	11868.98
845.399	11859.04
845.723	11798.48
846.047	11809.77
846.371	11715.99
846.695	11652.49
847.019	11614.07
847.343	11653.39
847.666	11510.35
847.99	11454.3
848.313	11431.25
848.637	11395.77
848.96	11405.04
849.284	11356.9
849.607	11246.63
849.931	11258.15
850.254	11204.14
850.577	11139.96
850.9	11037.14
851.223	11033.07
851.546	10972.06
851.869	10889.12
852.192	10933.19
852.515	10804.83
852.838	10919.85
853.161	10773.19
853.483	10785.62
853.806	10710.82
854.129	10687.77
854.451	10568.68
854.774	10617.04
855.096	10603.03
855.419	10558.28
855.741	10526.19
856.063	10437.38
856.385	10446.19
856.708	10421.11
857.03	10369.59
857.352	10398.06
857.674	10347.44
857.996	10224.96
858.318	10222.92
858.64	10201.23
858.961	10184.05
859.283	10188.35
859.605	10128.69
859.926	10094.34
860.248	10119.2
860.57	10085.98
860.891	10033.55
861.212	9978.18
861.534	9999.88
861.855	9929.15
862.176	10005.53
862.498	9978.18
862.819	9924.85
863.14	9913.33
863.461	9843.05
863.782	9813.44
864.103	9837.62
864.424	9754.69
864.745	9801.92
865.065	9840.79
865.386	9749.26
865.707	9693.22
866.027	9777.29
866.348	9713.56
866.668	9712.2
866.989	9724.86
867.309	9625.65
867.63	9682.37
867.95	9615.48
868.27	9574.58
868.59	9535.03
868.91	9538.42
869.23	9513.34
869.55	9484.19
869.87	9590.17
870.19	9508.59
870.51	9465.66
870.83	9504.75
871.15	9396.73
871.469	9399.44
871.789	9379.1
872.109	9485.99
872.428	9386.11
872.748	9373.68
873.067	9404.87
873.386	9420.46
873.706	9404.64
874.025	9339.1
874.344	9293.23
874.663	9269.5
874.982	9264.08
875.301	9245.55
875.62	9234.25
875.939	9130.07
876.258	9162.16
876.577	9202.84
876.896	9132.33
877.214	9173.46
877.533	9136.62
877.852	9150.64
878.17	9136.85
878.489	9047.36
878.807	9114.48
879.125	9042.84
879.444	9076.29
879.762	9061.15
880.08	9050.98
880.398	9008.27
880.716	9002.62
881.034	8949.28
881.352	8972.33
881.67	8894.82
881.988	8909.74
882.306	8935.73
882.624	8860.47
882.941	8778.44
883.259	8823.19
883.577	8835.84
883.894	8787.25
884.212	8794.03
884.529	8762.17
884.846	8674.49
885.164	8765.11
885.481	8667.71
885.798	8681.95
886.115	8643.08
886.432	8681.04
886.75	8582.51
887.067	8673.36
887.383	8547.94
887.7	8539.35
888.017	8530.09
888.334	8576.41
888.651	8481.05
888.967	8466.59
889.284	8409.86
889.6	8354.27
889.917	8335.97
890.233	8427.94
890.55	8265.46
890.866	8369.41
891.182	8301.17
891.498	8313.14
891.815	8247.38
892.131	8201.96
892.447	8144.56
892.763	8135.75
893.079	8198.8
893.395	8140.27
893.71	8106.59
894.026	8103.43
894.342	8040.38
894.657	8048.07
894.973	8013.04
895.289	8018.91
895.604	7994.06
895.92	7892.14
896.235	7814.4
896.55	7883.55
896.865	7809.65
897.181	7787.51
897.496	7801.74
897.811	7765.81
898.126	7710
898.441	7725.81
898.756	7760.39
899.071	7691.01
899.386	7663.67
899.7	7604.01
900.015	7557.91
900.33	7492.6
900.644	7502.54
900.959	7546.16
901.273	7427.74
901.588	7452.37
901.902	7438.59
902.216	7382.32
902.531	7383.68
902.845	7295.99
903.159	7288.31
903.473	7249.44
903.787	7235.43
904.101	7219.61
904.415	7187.75
904.729	7211.7
905.042	7130.12
905.356	7118.6
905.67	7074.76
905.984	7062.1
906.297	7028.88
906.611	6985.27
906.924	7026.62
907.237	6955.21
907.551	6973.29
907.864	6885.84
908.177	6916.8
908.491	6863.69
908.804	6762
909.117	6802.9
909.43	6794.54
909.743	6754.54
910.056	6750.7
910.368	6719.96
910.681	6683.36
910.994	6619.63
911.307	6584.6
911.619	6533.98
911.932	6609.23
912.244	6517.03
912.557	6489.01
912.869	6479.29
913.181	6472.97
913.494	6440.2
913.806	6366.75
914.118	6384.15
914.43	6337.38
914.742	6368.56
915.054	6307.32
915.366	6255.12
915.678	6300.09
915.99	6208.79
916.302	6193.88
916.613	6165.18
916.925	6137.16
917.236	6162.69
917.548	6132.18
917.859	6084.5
918.171	6021
918.482	6012.41
918.794	6009.47
919.105	6030.49
919.416	5933.77
919.727	5939.65
920.038	5911.62
920.349	5900.1
920.66	5785.75
920.971	5819.42
921.282	5821.23
921.593	5774.9
921.903	5764.06
922.214	5738.75
922.525	5727.67
922.835	5693.1
923.146	5622.37
923.456	5647.68
923.767	5619.65
924.077	5577.85
924.387	5625.76
924.697	5504.4
925.008	5508.02
925.318	5511.41
925.628	5510.5
925.938	5445.42
926.248	5402.94
926.558	5412.65
926.867	5405.2
927.177	5385.08
927.487	5379.21
927.796	5303.5
928.106	5318.65
928.416	5249.27
928.725	5291.08
929.034	5207.91
929.344	5211.53
929.653	5178.76
929.962	5152.77
930.271	5156.62
930.581	5117.97
930.89	5072.78
931.199	5087.24
931.508	5075.71
931.817	5036.17
932.125	4989.84
932.434	5014.47
932.743	4955.27
933.051	4937.86
933.36	4930.41
933.669	4881.82
933.977	4868.94
934.286	4839.79
934.594	4875.04
934.902	4805.44
935.21	4774.93
935.519	4793.46
935.827	4767.02
936.135	4753.24
936.443	4687.25
936.751	4662.62
937.059	4660.58
937.367	4630.3
937.674	4631.43
937.982	4657.42
938.29	4583.3
938.597	4587.14
938.905	4550.76
939.213	4483.41
939.52	4510.76
939.827	4487.25
940.135	4494.49
940.442	4473.92
940.749	4444.54
941.056	4479.8
941.363	4428.95
941.67	4411.1
941.977	4343.76
942.284	4346.47
942.591	4359.35
942.898	4329.52
943.205	4308.73
943.511	4274.38
943.818	4295.17
944.125	4227.37
944.431	4221.05
944.738	4203.42
945.044	4185.79
945.35	4160.48
945.657	4150.99
945.963	4116.64
946.269	4055.63
946.575	4115.97
946.881	4101.05
947.187	4125
947.493	4053.59
947.799	4048.17
948.105	4017.89
948.41	4028.51
948.716	4013.14
949.022	3941.96
949.327	3941.05
949.633	3938.34
949.938	3913.03
950.244	3944.9
950.549	3906.48
950.854	3854.05
951.16	3857.21
951.465	3815.63
951.77	3823.77
952.075	3808.4
952.38	3779.48
952.685	3800.27
952.99	3716.65
953.294	3761.62
953.599	3717.78
953.904	3680.27
954.209	3709.42
954.513	3671.91
954.818	3638.46
955.122	3639.59
955.426	3614.28
955.731	3574.28
956.035	3593.95
956.339	3579.03
956.643	3550.33
956.948	3569.54
957.252	3533.83
957.556	3522.08
957.86	3515.08
958.163	3496.55
958.467	3478.02
958.771	3496.09
959.075	3455.87
959.378	3435.53
959.682	3423.78
959.985	3423.55
960.289	3403.67
960.592	3412.25
960.896	3359.37
961.199	3355.31
961.502	3356.21
961.805	3330.45
962.108	3335.87
962.411	3287.74
962.714	3233.5
963.017	3224.01
963.32	3282.77
963.623	3246.16
963.926	3217.68
964.228	3221.98
964.531	3178.14
964.833	3195.31
965.136	3125.71
965.438	3134.07
965.741	3148.98
966.043	3119.61
966.345	3092.49
966.648	3100.4
966.95	3068.31
967.252	3110.34
967.554	3059.95
967.856	3021.08
968.158	3006.62
968.46	3005.26
968.761	3001.19
969.063	2991.93
969.365	2983.79
969.666	2962.1
969.968	2973.62
970.269	2921.19
970.571	2926.62
970.872	2925.49
971.174	2943.11
971.475	2900.63
971.776	2854.3
972.077	2852.27
972.378	2824.7
972.679	2831.48
972.98	2829.45
973.281	2832.38
973.582	2781.76
973.883	2793.51
974.183	2758.71
974.484	2781.76
974.785	2763.23
975.085	2757.13
975.386	2718.71
975.686	2687.75
975.986	2696.79
976.287	2676
976.587	2695.44
976.887	2657.02
977.187	2663.35
977.487	2672.39
977.787	2615.89
978.087	2603.24
978.387	2605.5
978.687	2620.19
978.987	2582.22
979.286	2566.63
979.586	2553.52
979.885	2532.96
980.185	2551.94
980.484	2544.03
980.784	2534.76
981.083	2503.13
981.382	2492.73
981.682	2477.59
981.981	2496.12
982.28	2505.84
982.579	2443.24
982.878	2461.32
983.177	2436.24
983.475	2433.07
983.774	2429.46
984.073	2433.52
984.372	2395.11
984.67	2405.95
984.969	2375.22
985.267	2358.72
985.566	2342.9
985.864	2386.52
986.162	2342
986.461	2340.42
986.759	2332.96
987.057	2246.86
987.355	2294.32
987.653	2261.78
987.951	2278.27
988.249	2278.73
988.547	2262.91
988.844	2240.53
989.142	2255.9
989.44	2221.55
989.737	2199.41
990.035	2211.38
990.332	2174.32
990.63	2180.87
990.927	2171.38
991.224	2159.18
991.521	2168.22
991.819	2096.58
992.116	2120.09
992.413	2120.31
992.71	2115.79
993.006	2130.48
993.303	2111.05
993.6	2106.98
993.897	2134.77
994.193	2064.49
994.49	2059.52
994.787	2030.6
995.083	2045.51
995.379	2055
995.676	2017.94
995.972	2032.86
996.268	1994.67
996.565	1990.37
996.861	1986.3
997.157	2011.39
997.453	1968.68
997.749	1965.06
998.044	1944.04
998.34	1909.47
998.636	1935.68
998.932	1893.88
999.227	1899.98
999.523	1854.1
999.818	1914.44
1000.114	1877.38
1000.409	1877.83
1000.704	1861.34
1001	1845.52
1001.295	1856.59
1001.59	1835.12
1001.885	1838.28
1002.18	1793.54
1002.475	1791.28
1002.77	1782.92
1003.065	1773.65
1003.359	1784.5
1003.654	1751.06
1003.949	1723.03
1004.243	1751.51
1004.538	1725.75
1004.832	1737.04
1005.127	1700.89
1005.421	1723.49
1005.715	1691.4
1006.009	1724.16
1006.304	1687.55
1006.598	1691.85
1006.892	1659.08
1007.186	1656.37
1007.48	1644.17
1007.773	1640.32
1008.067	1653.88
1008.361	1630.83
1008.655	1594.45
1008.948	1593.32
1009.242	1578.18
1009.535	1587.44
1009.829	1596.94
1010.122	1592.19
1010.415	1539.08
1010.708	1535.92
1011.001	1512.42
1011.295	1516.03
1011.588	1483.49
1011.881	1480.78
1012.173	1497.95
1012.466	1508.58
1012.759	1474.23
1013.052	1502.47
1013.344	1486.2
1013.637	1455.92
1013.93	1443.49
1014.222	1454.79
1014.514	1434
1014.807	1404.62
1015.099	1452.53
1015.391	1409.82
1015.683	1424.06
1015.976	1409.14
1016.268	1394.91
1016.56	1380.44
1016.851	1375.92
1017.143	1382.25
1017.435	1351.29
1017.727	1341.57
1018.018	1350.16
1018.31	1330.28
1018.602	1338.41
1018.893	1324.63
1019.185	1314.68
1019.476	1279.2
1019.767	1314.23
1020.058	1293.44
1020.35	1262.25
1020.641	1256.38
1020.932	1261.8
1021.223	1270.16
1021.514	1251.63
1021.804	1208.47
1022.095	1260.67
1022.386	1205.08
1022.677	1229.49
1022.967	1197.17
1023.258	1197.62
1023.548	1191.52
1023.839	1180
1024.129	1178.42
1024.419	1163.95
1024.709	1179.55
1025	1163.95
1025.29	1159.21
1025.58	1138.42
1025.87	1127.34
1026.16	1124.18
1026.449	1129.6
1026.739	1113.56
1027.029	1128.25
1027.319	1085.31
1027.608	1087.34
1027.898	1093.22
1028.187	1097.51
1028.477	1076.72
1028.766	1054.12
1029.055	1056.61
1029.344	1071.07
1029.634	1028.59
1029.923	1036.05
1030.212	1024.75
1030.501	1040.34
1030.79	1013.9
1031.078	1011.19
1031.367	1003.05
1031.656	1001.47
1031.945	992.66
1032.233	949.72
1032.522	987.91
1032.81	951.3
1033.099	982.94
1033.387	962.83
1033.675	956.05
1033.963	978.65
1034.251	961.7
1034.54	945.65
1034.828	904.3
1035.116	917.41
1035.403	927.35
1035.691	915.15
1035.979	934.13
1036.267	918.76
1036.554	922.38
1036.842	923.96
1037.129	905.43
1037.417	876.05
1037.704	888.03
1037.992	884.41
1038.279	863.4
1038.566	856.62
1038.853	856.62
1039.14	856.62
