Data from hue_310_FLMS001491_59.txt Node
Date: Mon Feb 06 15:49:53 GMT 2017
User: dcchb
Spectrometer: FLMS00149
Trigger mode: 0
Integration Time (sec): 2.000000E-2
Scans to average: 10
Electric dark correction enabled: true
Nonlinearity correction enabled: false
Boxcar width: 0
XAxis mode: Wavelengths
Number of Pixels in Spectrum: 2048
>>>>>Begin Spectral Data<<<<<
341.393	-20.35
341.776	-20.35
342.16	-20.35
342.543	-76.4
342.927	-64.19
343.31	-81.14
343.693	-71.88
344.077	-66.23
344.46	-53.12
344.843	-59
345.226	-42.72
345.61	-25.1
345.993	-32.1
346.376	-0.01
346.759	23.94
347.142	21.68
347.525	46.54
347.908	58.74
348.291	79.08
348.674	87.44
349.057	113.88
349.44	120.66
349.823	124.73
350.206	166.31
350.588	173.54
350.971	204.05
351.354	209.47
351.737	236.14
352.119	251.05
352.502	254.44
352.884	281.79
353.267	289.7
353.65	282.24
354.032	303.03
354.414	304.61
354.797	307.32
355.179	302.8
355.562	322.46
355.944	321.56
356.326	326.53
356.709	326.08
357.091	323.14
357.473	344.16
357.855	317.49
358.238	344.38
358.62	332.86
359.002	308.9
359.384	335.34
359.766	347.1
360.148	318.62
360.53	331.95
360.912	321.33
361.294	349.58
361.676	318.62
362.057	332.18
362.439	310.26
362.821	318.4
363.203	325.4
363.584	297.83
363.966	314.1
364.348	330.82
364.729	311.39
365.111	325.18
365.493	315.91
365.874	322.46
366.256	298.06
366.637	312.07
367.019	309.81
367.4	303.48
367.781	301.22
368.163	299.64
368.544	300.54
368.925	314.1
369.306	323.82
369.688	316.81
370.069	299.19
370.45	306.19
370.831	314.78
371.212	313.2
371.593	317.04
371.974	318.17
372.355	309.13
372.736	322.46
373.117	326.53
373.498	327.21
373.879	335.57
374.26	306.87
374.641	322.92
375.021	312.75
375.402	310.26
375.783	343.25
376.163	304.84
376.544	319.98
376.925	332.18
377.305	319.07
377.686	314.1
378.066	331.5
378.447	344.16
378.827	348.68
379.208	334.89
379.588	312.07
379.968	332.86
380.349	342.58
380.729	324.27
381.109	330.15
381.489	338.06
381.87	333.76
382.25	331.5
382.63	332.18
383.01	342.58
383.39	344.38
383.77	342.12
384.15	352.29
384.53	352.97
384.91	339.41
385.29	359.3
385.67	335.34
386.049	340.54
386.429	370.15
386.809	362.01
387.189	348.9
387.568	342.58
387.948	359.07
388.328	355
388.707	332.41
389.087	360.43
389.466	380.77
389.846	349.58
390.225	361.33
390.605	362.69
390.984	383.48
391.363	380.09
391.743	362.91
392.122	394.33
392.501	362.01
392.881	373.08
393.26	373.08
393.639	351.62
394.018	356.36
394.397	376.02
394.776	367.66
395.155	371.28
395.534	394.1
395.913	361.78
396.292	407.21
396.671	389.13
397.05	409.92
397.429	415.12
397.808	392.07
398.186	381.67
398.565	402.46
398.944	413.31
399.323	408.79
399.701	390.94
400.08	410.82
400.458	428.22
400.837	420.99
401.215	426.19
401.594	415.12
401.972	420.54
402.351	417.83
402.729	417.6
403.107	418.51
403.486	426.42
403.864	422.8
404.242	429.13
404.62	441.56
404.999	421.44
405.377	446.08
405.755	455.12
406.133	436.58
406.511	438.39
406.889	477.49
407.267	467.09
407.645	478.84
408.023	459.63
408.401	483.14
408.779	472.97
409.156	484.04
409.534	491.5
409.912	513.19
410.29	491.5
410.667	519.75
411.045	504.38
411.422	536.47
411.8	523.59
412.178	527.43
412.555	540.54
412.933	542.8
413.31	556.13
413.687	564.94
414.065	571.04
414.442	567.65
414.819	570.59
415.197	605.17
415.574	607.88
415.951	605.17
416.328	632.29
416.705	607.88
417.082	620.76
417.46	642
417.837	670.25
418.214	651.04
418.591	691.95
418.967	658.95
419.344	684.71
419.721	676.58
420.098	696.92
420.475	705.28
420.852	718.39
421.228	719.06
421.605	713.19
421.982	745.95
422.358	743.92
422.735	741.21
423.111	792.28
423.488	777.37
423.864	792.06
424.241	794.09
424.617	788.44
424.994	817.82
425.37	821.21
425.746	818.5
426.123	819.17
426.499	820.08
426.875	864.14
427.251	858.95
427.627	884.48
428.003	895.56
428.379	895.1
428.756	900.3
429.132	916.57
429.507	902.79
429.883	945.05
430.259	925.39
430.635	951.15
431.011	986.85
431.387	964.03
431.763	994.99
432.138	964.48
432.514	1011.71
432.89	992.5
433.265	1056
433.641	1048.32
434.016	1060.75
434.392	1089.9
434.767	1111.82
435.143	1089.9
435.518	1113.85
435.894	1132.61
436.269	1137.13
436.644	1133.74
437.02	1146.85
437.395	1141.65
437.77	1197.92
438.145	1197.02
438.52	1190.01
438.895	1213.74
439.271	1218.94
439.646	1243.34
440.021	1255.77
440.395	1247.86
440.77	1219.84
441.145	1251.48
441.52	1280.4
441.895	1294.64
442.27	1273.85
442.645	1298.71
443.019	1298.48
443.394	1314.75
443.769	1305.49
444.143	1295.55
444.518	1321.53
444.892	1320.4
445.267	1332.83
445.641	1311.36
446.016	1328.99
446.39	1356.11
446.764	1324.47
447.139	1346.62
447.513	1382.1
447.887	1379.16
448.262	1352.94
448.636	1391.36
449.01	1403.56
449.384	1373.96
449.758	1408.54
450.132	1452.6
450.506	1418.71
450.88	1400.18
451.254	1415.09
451.628	1444.47
452.002	1432.04
452.376	1463.9
452.75	1445.15
453.123	1486.73
453.497	1478.82
453.871	1510
454.244	1515.2
454.618	1500.96
454.992	1522.88
455.365	1535.54
455.739	1553.84
456.112	1576.22
456.486	1550
456.859	1550.68
457.232	1598.36
457.606	1589.1
457.979	1586.16
458.352	1654.63
458.725	1646.27
459.099	1651.92
459.472	1696.44
459.845	1683.78
460.218	1675.42
460.591	1684.69
460.964	1729.21
461.337	1732.14
461.71	1774.63
462.083	1762.65
462.456	1784.57
462.829	1765.59
463.201	1814.63
463.574	1802.2
463.947	1819.37
464.32	1855.53
464.692	1838.81
465.065	1834.74
465.438	1877.68
465.81	1884.68
466.183	1904.12
466.555	1952.93
466.928	1935.75
467.3	1970.56
467.672	1954.74
468.045	2017.79
468.417	1981.18
468.789	2030.44
469.161	2042.87
469.534	2062.3
469.906	2089.65
470.278	2108.63
470.65	2113.6
471.022	2157.9
471.394	2182.75
471.766	2180.95
472.138	2200.38
472.51	2203.77
472.882	2252.81
473.253	2264.56
473.625	2295.74
473.997	2307.27
474.369	2313.6
474.74	2357.89
475.112	2352.24
475.484	2391.56
475.855	2451.67
476.227	2408.51
476.598	2489.86
476.97	2511.56
477.341	2567.15
477.713	2556.75
478.084	2555.62
478.455	2596.98
478.827	2616.41
479.198	2699.8
479.569	2695.73
479.94	2761.27
480.311	2748.61
480.682	2820.7
481.053	2876.07
481.424	2880.59
481.795	2916.97
482.166	2923.3
482.537	2940.02
482.908	3003.3
483.279	3003.75
483.65	3057.53
484.021	3105.44
484.391	3123.07
484.762	3171.43
485.133	3158.32
485.503	3175.72
485.874	3283.29
486.244	3263.63
486.615	3302.27
486.985	3358.32
487.356	3391.31
487.726	3420.01
488.097	3500.46
488.467	3440.57
488.837	3549.72
489.207	3522.83
489.578	3580.68
489.948	3608.25
490.318	3619.33
490.688	3647.35
491.058	3749.72
491.428	3714.01
491.798	3758.31
492.168	3821.13
492.538	3856.38
492.908	3836.95
493.278	3905.65
493.648	3908.58
494.017	3947
494.387	3940.9
494.757	3953.1
495.126	4040.78
495.496	4029.71
495.866	4064.96
496.235	4092.99
496.605	4143.38
496.974	4128.01
497.344	4124.17
497.713	4175.92
498.082	4169.82
498.452	4210.95
498.821	4181.12
499.19	4230.16
499.559	4297.73
499.928	4274.68
500.298	4313.32
500.667	4333.66
501.036	4302.02
501.405	4340.89
501.774	4351.51
502.143	4404.39
502.512	4391.06
502.88	4445.97
503.249	4431.06
503.618	4450.49
503.987	4464.05
504.356	4497.04
504.724	4539.53
505.093	4512.41
505.462	4552.41
505.83	4541.56
506.199	4581.56
506.567	4614.33
506.936	4648.9
507.304	4629.92
507.672	4668.11
508.041	4671.73
508.409	4704.27
508.777	4732.06
509.145	4749.24
509.514	4732.74
509.882	4784.94
510.25	4784.04
510.618	4801.44
510.986	4775.23
511.354	4803.25
511.722	4860.42
512.09	4879.18
512.458	4881.44
512.826	4947.88
513.193	4890.93
513.561	4903.81
513.929	4933.64
514.297	4929.35
514.664	5022.9
515.032	5017.71
515.4	4985.39
515.767	5026.97
516.135	5030.36
516.502	4997.82
516.869	5091.83
517.237	5092.73
517.604	5097.03
517.972	5129.12
518.339	5126.86
518.706	5110.13
519.073	5130.7
519.44	5129.34
519.808	5151.04
520.175	5190.58
520.542	5262.45
520.909	5283.01
521.276	5235.33
521.643	5274.42
522.009	5317.36
522.376	5323.46
522.743	5332.73
523.11	5328.43
523.477	5401.2
523.843	5464.93
524.21	5457.24
524.577	5476.45
524.943	5511.25
525.31	5501.08
525.676	5557.81
526.043	5603.45
526.409	5595.32
526.776	5623.11
527.142	5647.3
527.508	5726.84
527.874	5738.14
528.241	5728.65
528.607	5795.09
528.973	5826.95
529.339	5796.22
529.705	5843.9
530.071	5873.5
530.437	5897.01
530.803	5924.58
531.169	5996.66
531.535	5979.26
531.901	5984.46
532.267	6012.71
532.632	6054.06
532.998	6089.32
533.364	6127.06
533.73	6119.82
534.095	6160.5
534.461	6151.24
534.826	6217.22
535.192	6190.78
535.557	6312.81
535.923	6286.37
536.288	6265.81
536.653	6313.27
537.019	6323.44
537.384	6365.92
537.749	6429.87
538.114	6409.08
538.479	6397.78
538.845	6428.29
539.21	6455.41
539.575	6509.87
539.94	6561.17
540.305	6605.01
540.67	6564.79
541.034	6586.71
541.399	6692.01
541.764	6647.95
542.129	6702.63
542.494	6742.86
542.858	6734.27
543.223	6754.84
543.587	6781.28
543.952	6808.17
544.316	6888.62
544.681	6854.72
545.045	6925.68
545.41	6937.2
545.774	6925.23
546.138	6931.33
546.503	7018.56
546.867	7012.23
547.231	7104.43
547.595	7072.57
547.959	7098.78
548.324	7159.8
548.688	7128.84
549.052	7183.98
549.416	7175.39
549.779	7196.41
550.143	7223.3
550.507	7220.14
550.871	7317.99
551.235	7277.99
551.599	7350.08
551.962	7396.4
552.326	7380.81
552.689	7467.81
553.053	7420.13
553.417	7437.98
553.78	7500.58
554.143	7472.78
554.507	7499.68
554.87	7577.64
555.234	7610.41
555.597	7555.04
555.96	7594.81
556.323	7598.88
556.686	7662.16
557.05	7691.99
557.413	7647.69
557.776	7705.55
558.139	7747.35
558.502	7831.42
558.865	7769.05
559.228	7851.3
559.59	7855.6
559.953	7841.14
560.316	7964.52
560.679	7903.96
561.041	7956.84
561.404	8044.97
561.767	8048.14
562.129	7999.78
562.492	8068.02
562.854	8058.08
563.217	8081.13
563.579	8105.54
563.941	8179.43
564.304	8183.73
564.666	8264.4
565.028	8294.68
565.39	8222.37
565.753	8295.13
566.115	8346.43
566.477	8332.87
566.839	8431.85
567.201	8409.48
567.563	8454
567.925	8465.75
568.287	8505.52
568.648	8481.8
569.01	8575.35
569.372	8671.62
569.734	8628.69
570.095	8644.96
570.457	8691.96
570.819	8743.48
571.18	8807.66
571.542	8804.95
571.903	8815.57
572.265	8803.14
572.626	8950.71
572.987	9009.69
573.349	9027.09
573.71	9084.72
574.071	9106.19
574.432	9220.08
574.794	9250.36
575.155	9283.81
575.516	9343.69
575.877	9453.52
576.238	9500.75
576.599	9569.45
576.96	9696
577.32	9721.31
577.681	9877.47
578.042	9891.48
578.403	10059.16
578.763	10099.38
579.124	10121.53
579.485	10327.17
579.845	10420.05
580.206	10542.76
580.566	10664.11
580.927	10714.28
581.287	10949.3
581.648	11028.4
582.008	11197.88
582.368	11330.54
582.728	11523.3
583.089	11631.54
583.449	11850.52
583.809	12074.7
584.169	12149.04
584.529	12326.44
584.889	12664.06
585.249	12784.51
585.609	12883.26
585.969	13202.35
586.329	13445.06
586.688	13643.24
587.048	13838.94
587.408	14070.35
587.768	14388.76
588.127	14574.74
588.487	14829.43
588.846	15249.98
589.206	15294.5
589.565	15635.05
589.925	15999.34
590.284	16177.19
590.643	16416.5
591.003	16805.87
591.362	17143.49
591.721	17286.99
592.08	17609.69
592.44	17976.24
592.799	18343.23
593.158	18507.75
593.517	18828.19
593.876	19116.55
594.235	19472.47
594.593	19875.62
594.952	20077.65
595.311	20431.99
595.67	20685.09
596.029	21141.8
596.387	21412.76
596.746	21837.15
597.104	22089.35
597.463	22380.41
597.822	22593.52
598.18	23031.47
598.538	23311.24
598.897	23624.22
599.255	23869.41
599.613	24422.17
599.972	24528.61
600.33	24884.3
600.688	25042.27
601.046	25416.04
601.404	25783.04
601.762	26004.05
602.12	26374.89
602.478	26700.3
602.836	27040.18
603.194	27090.12
603.552	27477.46
603.91	27560.84
604.268	27999.48
604.625	28179.36
604.983	28575.05
605.341	28505.23
605.698	29020.24
606.056	29366.45
606.413	29588.81
606.771	29943.61
607.128	30232.19
607.485	30343.82
607.843	30541.78
608.2	30946.06
608.557	31196.68
608.914	31379.05
609.272	31693.16
609.629	31931.58
609.986	32249.08
610.343	32409.08
610.7	32780.14
611.057	32980.36
611.414	33020.59
611.771	33312.78
612.127	33623.28
612.484	33729.49
612.841	34066.21
613.198	34016.94
613.554	34261.68
613.911	34595.01
614.267	34723.14
614.624	34842.69
614.98	34849.69
615.337	35322.9
615.693	35464.82
616.05	35594.98
616.406	35861.87
616.762	35848.08
617.118	35995.2
617.475	36133.95
617.831	36487.84
618.187	36638.34
618.543	36615.07
618.899	36864.78
619.255	37001.27
619.611	37111.33
619.967	37431.32
620.323	37551.54
620.678	37543.18
621.034	37653.46
621.39	37714.7
621.746	37727.13
622.101	38280.11
622.457	38077.63
622.812	38186.1
623.168	38414.12
623.523	38494.34
623.879	38767.1
624.234	38616.37
624.589	38752.64
624.945	38825.18
625.3	38952.41
625.655	39012.29
626.01	39194.66
626.365	39178.62
626.72	39176.58
627.075	39363.7
627.43	39260.2
627.785	39373.41
628.14	39574.09
628.495	39637.36
628.85	39600.3
629.205	39582.45
629.559	39843.23
629.914	39713.74
630.269	39819.28
630.623	39665.84
630.978	39847.07
631.332	40012.72
631.687	40038.71
632.041	40041.42
632.396	40113.73
632.75	40052.72
633.104	40201.87
633.459	40013.4
633.813	40077.58
634.167	40043.23
634.521	40062.66
634.875	40038.48
635.229	39927.52
635.583	39878.26
635.937	40000.29
636.291	40012.49
636.645	40037.13
636.999	39965.49
637.352	40128.65
637.706	39946.73
638.06	40181.75
638.413	40091.14
638.767	40003.68
639.121	40115.32
639.474	39799.39
639.828	39896.11
640.181	39942.89
640.534	40037.13
640.888	39996
641.241	39723.46
641.594	39823.8
641.947	40043.9
642.301	39927.75
642.654	39933.85
643.007	39877.58
643.36	39838.71
643.713	39777.47
644.066	39939.95
644.419	39626.06
644.771	39626.29
645.124	39118.73
645.477	39235.79
645.83	39001.9
646.182	38820.89
646.535	38625.18
646.888	38831.28
647.24	38542.25
647.593	38926.19
647.945	38768.68
648.298	38659.99
648.65	38681.23
649.002	38519.65
649.355	38683.04
649.707	38602.13
650.059	38780.21
650.411	39190.82
650.763	39362.34
651.115	39637.14
651.467	39562.11
651.819	39613.63
652.171	39466.52
652.523	39380.19
652.875	39349.23
653.227	39280.76
653.578	39611.15
653.93	39442.34
654.282	39329.35
654.633	39196.7
654.985	39390.59
655.337	39370.02
655.688	39323.25
656.039	39420.42
656.391	39089.81
656.742	39120.99
657.094	39215.9
657.445	39282.34
657.796	39176.36
658.147	39245.51
658.498	39040.54
658.849	39338.84
659.2	39209.8
659.551	39121.9
659.902	39236.92
660.253	39313.75
660.604	39223.59
660.955	38981.79
661.306	39106.53
661.656	39055.46
662.007	39074.21
662.358	39122.8
662.708	39225.62
663.059	39070.37
663.409	38776.14
663.76	39146.75
664.11	39072.18
664.461	39118.05
664.811	39009.13
665.161	39059.07
665.511	39039.41
665.862	39025.4
666.212	39182.46
666.562	39123.48
666.912	38944.72
667.262	38942.46
667.612	39020.88
667.962	39057.72
668.312	39012.07
668.662	39051.61
669.011	38941.33
669.361	38923.93
669.711	38887.1
670.06	38827.67
670.41	38841.45
670.76	38793.99
671.109	39043.25
671.459	38864.5
671.808	38927.55
672.157	38893.43
672.507	38749.25
672.856	38759.87
673.205	38897.72
673.554	38988.57
673.904	38753.09
674.253	38965.06
674.602	38765.52
674.951	38287.11
675.3	37963.51
675.649	38649.59
675.998	38508.58
676.346	38659.53
676.695	38725.75
677.044	38502.7
677.393	38603.04
677.741	38770.04
678.09	38495.7
678.438	38490.05
678.787	38484.17
679.135	38598.97
679.484	38365.98
679.832	38445.08
680.181	38198.98
680.529	38417.73
680.877	38271.52
681.225	38119.66
681.573	38365.76
681.922	38064.75
682.27	38140.9
682.618	38071.53
682.966	37919.21
683.314	37959.21
683.661	37940.91
684.009	37609.17
684.357	37639.22
684.705	37626.34
685.053	37647.13
685.4	37638.09
685.748	37398.32
686.095	37512.9
686.443	37263.19
686.79	37194.04
687.138	37334.15
687.485	37418.21
687.832	37206.47
688.18	37290.76
688.527	37083.08
688.874	36993.82
689.221	37029.75
689.568	36917.89
689.915	36759.47
690.262	36882.41
690.609	36638.34
690.956	36580.49
691.303	36565.13
691.65	36437.67
691.997	36424.11
692.344	36152.48
692.69	36150.22
693.037	36206.49
693.383	35910
693.73	35943.67
694.077	35756.33
694.423	35761.53
694.769	35793.85
695.116	35522.89
695.462	35575.1
695.808	35457.36
696.155	35452.61
696.501	35296.23
696.847	35154.32
697.193	35022.79
697.539	35209
697.885	34829.13
698.231	34813.99
698.577	34730.15
698.923	34774.44
699.269	34496.48
699.614	34372.64
699.96	34423.71
700.306	34313.43
700.651	34162.7
700.997	34189.82
701.342	34109.6
701.688	34058.07
702.033	33989.15
702.379	33962.03
702.724	33825.54
703.069	33913.22
703.415	33468.48
703.76	33477.07
704.105	33636.39
704.45	33504.19
704.795	33401.37
705.14	33109.85
705.485	33172.9
705.83	32920.02
706.175	33116.4
706.52	33027.14
706.865	32809.97
707.209	32899.69
707.554	32666.92
707.899	32802.06
708.243	32596.64
708.588	32536.08
708.932	32339.25
709.277	32412.24
709.621	32349.64
709.966	32188.07
710.31	32145.13
710.654	31937.45
710.998	32024.23
711.342	32111.91
711.687	31928.19
712.031	31733.16
712.375	31694.52
712.719	31761.64
713.063	31698.81
713.407	31595.31
713.75	31608.19
714.094	31573.84
714.438	31536.33
714.782	31587.86
715.125	31175.44
715.469	31358.26
715.812	31166.17
716.156	30933.41
716.499	31098.15
716.843	30992.84
717.186	30874.65
717.53	30956.91
717.873	31001.43
718.216	30821.55
718.559	30767.09
718.902	30470.15
719.246	30649.12
719.589	30558.05
719.932	30324.61
720.275	30397.38
720.617	30353.31
720.96	30269.02
721.303	30322.35
721.646	30359.87
721.989	30129.36
722.331	30163.49
722.674	30085.07
723.016	30094.79
723.359	30063.15
723.701	29956.26
724.044	29845.08
724.386	29641.69
724.729	29917.17
725.071	29802.14
725.413	29704.74
725.755	29897.05
726.097	29631.07
726.439	29436.5
726.782	29453.22
727.124	29593.33
727.465	29455.71
727.807	29397.4
728.149	29324.64
728.491	29291.19
728.833	29302.49
729.175	29213.23
729.516	29161.03
729.858	29147.24
730.199	29079.22
730.541	29035.61
730.882	28970.75
731.224	29159.22
731.565	28745.9
731.906	28903.18
732.248	28906.34
732.589	28763.75
732.93	28599.91
733.271	28530.76
733.612	28718.78
733.953	28676.75
734.294	28443.76
734.635	28412.8
734.976	28549.74
735.317	28346.36
735.658	28443.53
735.999	28441.5
736.339	28309.98
736.68	28445.79
737.021	28278.79
737.361	28252.8
737.702	28261.39
738.042	28159.25
738.383	28114.95
738.723	28182.07
739.063	27967.39
739.404	28037.21
739.744	28030.44
740.084	28033.15
740.424	27979.59
740.764	27895.07
741.104	27925.58
741.444	27734.62
741.784	27545.48
742.124	27712.93
742.464	27709.31
742.804	27532.82
743.143	27533.05
743.483	27629.99
743.823	27483.56
744.162	27381.19
744.502	27491.01
744.841	27293.28
745.181	27382.99
745.52	27218.25
745.86	27208.99
746.199	27171.7
746.538	27328.98
746.877	27272.72
747.216	27137.8
747.556	26952.5
747.895	27051.93
748.234	26848.55
748.573	26902.56
748.911	26899.84
749.25	26772.16
749.589	26631.15
749.928	26790.47
750.267	26793.18
750.605	26730.81
750.944	26719.74
751.283	26591.15
751.621	26583.47
751.96	26403.81
752.298	26324.49
752.636	26361.55
752.975	26298.5
753.313	26132.18
753.651	26300.31
753.989	26104.38
754.327	26155.91
754.666	25999.08
755.004	26037.49
755.342	25986.2
755.679	25925.86
756.017	25817.16
756.355	25909.81
756.693	25707.56
757.031	25748.91
757.368	25613.1
757.706	25572.65
758.044	25588.92
758.381	25442.03
758.719	25373.56
759.056	25295.82
759.394	25208.14
759.731	25143.51
760.068	25079.78
760.405	24906.22
760.743	24975.6
761.08	24959.78
761.417	24747.81
761.754	24748.26
762.091	24678.66
762.428	24561.83
762.765	24520.02
763.102	24484.54
763.438	24379.46
763.775	24346.24
764.112	24410.87
764.449	24282.06
764.785	24225.79
765.122	23996.19
765.458	23959.81
765.795	23842.97
766.131	23796.87
766.467	23704.22
766.804	23755.75
767.14	23618.57
767.476	23577.9
767.812	23421.52
768.148	23519.37
768.485	23331.35
768.821	23154.63
769.157	23144.01
769.492	23057.68
769.828	23133.39
770.164	22958.7
770.5	22877.12
770.836	22872.6
771.171	22703.57
771.507	22713.74
771.842	22447.31
772.178	22470.36
772.513	22380.87
772.849	22398.72
773.184	22289.34
773.519	22250.47
773.855	22250.25
774.19	21937.71
774.525	21954.66
774.86	21918.51
775.195	21870.15
775.53	21746.31
775.865	21590.83
776.2	21520.78
776.535	21291.63
776.87	21401.91
777.205	21267.45
777.539	21170.73
777.874	21276.71
778.209	21006.67
778.543	20955.82
778.878	20869.49
779.212	20875.14
779.547	20773.9
779.881	20791.3
780.215	20517.41
780.55	20590.18
780.884	20483.97
781.218	20392.22
781.552	20478.32
781.886	20256.18
782.22	20220.25
782.554	20163.98
782.888	19926.47
783.222	19921.5
783.556	19808.05
783.889	19770.54
784.223	19592.01
784.557	19568.28
784.89	19733.25
785.224	19500.72
785.557	19410.32
785.891	19470.66
786.224	19329.42
786.558	19218.69
786.891	19241.97
787.224	19094.4
787.557	19070.22
787.891	18973.05
788.224	19026.6
788.557	18922.65
788.89	18833.39
789.223	18819.15
789.556	18680.62
789.888	18630.46
790.221	18560.4
790.554	18440.86
790.887	18467.3
791.219	18306.17
791.552	18359.05
791.884	18248.55
792.217	18187.08
792.549	18075.22
792.882	17981.89
793.214	17987.99
793.546	17908.44
793.879	17885.39
794.211	17751.61
794.543	17839.74
794.875	17759.97
795.207	17735.79
795.539	17579.41
795.871	17543.48
796.203	17400.43
796.535	17305.07
796.867	17254.22
797.198	17352.52
797.53	17212.64
797.862	17106.43
798.193	17158.63
798.525	17065.75
798.856	17033.44
799.188	16899.2
799.519	16808.13
799.85	16770.39
800.182	16705.76
800.513	16748.02
800.844	16558.87
801.175	16663.05
801.506	16531.75
801.837	16475.26
802.168	16422.6
802.499	16417.86
802.83	16325.66
803.161	16340.12
803.491	16244.76
803.822	16255.15
804.153	16082.95
804.483	16032.78
804.814	16051.99
805.145	15995.27
805.475	15957.31
805.805	15813.13
806.136	15861.72
806.466	15919.34
806.796	15860.13
807.126	15733.13
807.457	15643.64
807.787	15640.93
808.117	15523.87
808.447	15542.18
808.777	15628.95
809.107	15425.79
809.436	15383.76
809.766	15379.24
810.096	15330.43
810.426	15349.64
810.755	15343.54
811.085	15211.56
811.414	15199.81
811.744	15146.93
812.073	15112.81
812.403	15083.21
812.732	15085.46
813.061	15024.22
813.39	14930.67
813.719	14893.83
814.049	14919.59
814.378	14837.11
814.707	14834.62
815.036	14765.02
815.365	14769.09
815.693	14619.71
816.022	14683.89
816.351	14551.69
816.68	14519.83
817.008	14558.7
817.337	14369.55
817.665	14343.56
817.994	14381.3
818.322	14363.68
818.651	14294.75
818.979	14236.22
819.307	14351.7
819.636	14243.91
819.964	14147.64
820.292	14149.9
820.62	14193.96
820.948	14052.27
821.276	14159.16
821.604	14079.84
821.932	14111.48
822.259	14084.36
822.587	14080.07
822.915	14124.36
823.243	14104.47
823.57	13991.71
823.898	14063.12
824.225	13984.93
824.553	14045.49
824.88	14043.68
825.207	13999.62
825.535	14091.59
825.862	14037.81
826.189	13972.27
826.516	14079.16
826.843	14123.46
827.17	14087.53
827.497	14043.01
827.824	14072.38
828.151	14060.41
828.478	14079.16
828.805	14103.12
829.131	13985.38
829.458	14000.07
829.785	13934.08
830.111	13993.29
830.438	14052.5
830.764	14001.43
831.09	14024.93
831.417	13934.99
831.743	14005.27
832.069	14052.27
832.395	13975.66
832.722	13957.36
833.048	13941.54
833.374	13872.62
833.7	13908.32
834.026	13924.59
834.351	13894.99
834.677	13852.5
835.003	13952.84
835.329	13929.79
835.654	13774.76
835.98	13810.02
836.306	13818.15
836.631	13723.24
836.956	13820.41
837.282	13786.74
837.607	13638.72
837.932	13647.76
838.258	13669.91
838.583	13710.59
838.908	13588.78
839.233	13573.87
839.558	13573.64
839.883	13504.04
840.208	13471.5
840.533	13493.19
840.858	13416.58
841.182	13450.03
841.507	13474.89
841.832	13396.7
842.156	13352.4
842.481	13382.91
842.805	13267.21
843.13	13248.23
843.454	13226.08
843.778	13218.4
844.103	13148.79
844.427	13114.67
844.751	13156.48
845.075	13045.29
845.399	13061.79
845.723	12897.05
846.047	12994.9
846.371	12841.68
846.695	12868.57
847.019	12702.48
847.343	12789.25
847.666	12680.1
847.99	12575.02
848.313	12583.16
848.637	12531.63
848.96	12532.31
849.284	12475.82
849.607	12379.32
849.931	12342.71
850.254	12239.21
850.577	12148.14
850.9	12066.79
851.223	12063.62
851.546	12009.61
851.869	11930.75
852.192	11993.57
852.515	11903.63
852.838	11890.52
853.161	11861.37
853.483	11720.58
853.806	11767.13
854.129	11758.09
854.451	11669.51
854.774	11628.83
855.096	11533.02
855.419	11461.15
855.741	11471.77
856.063	11488.5
856.385	11396.75
856.708	11346.81
857.03	11329.86
857.352	11347.94
857.674	11314.04
857.996	11219.58
858.318	11239.01
858.64	11199.24
858.961	11114.95
859.283	11174.16
859.605	11098.45
859.926	11129.86
860.248	11068.62
860.57	11021.84
860.891	11056.19
861.212	11017.1
861.534	10888.51
861.855	10916.99
862.176	10900.72
862.498	10962.18
862.819	10890.55
863.14	10848.06
863.461	10764.45
863.782	10709.76
864.103	10708.63
864.424	10799.02
864.745	10728.29
865.065	10702.3
865.386	10664.79
865.707	10745.69
866.027	10651.46
866.348	10707.95
866.668	10572.14
866.989	10646.26
867.309	10491.91
867.63	10533.04
867.95	10526.94
868.27	10479.94
868.59	10489.43
868.91	10511.57
869.23	10493.27
869.55	10386.38
869.87	10517.68
870.19	10448.07
870.51	10402.88
870.83	10362.43
871.15	10299.83
871.469	10259.6
871.789	10327.17
872.109	10368.75
872.428	10274.74
872.748	10279.94
873.067	10218.93
873.386	10242.88
873.706	10235.87
874.025	10255.08
874.344	10218.7
874.663	10231.58
874.982	10225.03
875.301	10215.31
875.62	10110.45
875.939	10066.39
876.258	10052.15
876.577	10011.25
876.896	10066.16
877.214	10071.81
877.533	10031.36
877.852	10020.97
878.17	10005.82
878.489	10018.03
878.807	9999.5
879.125	9994.3
879.444	9946.39
879.762	9861.42
880.08	9861.87
880.398	9885.38
880.716	9905.26
881.034	9852.61
881.352	9823.46
881.67	9792.72
881.988	9750.24
882.306	9813.06
882.624	9715.21
882.941	9689.45
883.259	9717.02
883.577	9699.62
883.894	9609.22
884.212	9614.2
884.529	9587.08
884.846	9563.8
885.164	9571.03
885.481	9503.01
885.798	9537.36
886.115	9443.35
886.432	9446.97
886.75	9383.69
887.067	9425.5
887.383	9397.03
887.7	9431.38
888.017	9336.24
888.334	9378.5
888.651	9343.24
888.967	9258.95
889.284	9246.52
889.6	9169.91
889.917	9146.41
890.233	9153.19
890.55	9171.72
890.866	9131.05
891.182	9069.58
891.498	9133.53
891.815	9102.12
892.131	9020.77
892.447	9016.02
892.763	8946.64
893.079	8974.67
893.395	8892.18
893.71	8916.14
894.026	8861.22
894.342	8874.33
894.657	8845.4
894.973	8797.95
895.289	8757.04
895.604	8750.72
895.92	8663.03
896.235	8664.84
896.55	8666.42
896.865	8614.22
897.181	8595.47
897.496	8577.61
897.811	8512.98
898.126	8506.65
898.441	8463.94
898.756	8447
899.071	8412.65
899.386	8381.01
899.7	8345.3
900.015	8334.46
900.33	8267.57
900.644	8237.06
900.959	8206.1
901.273	8166.1
901.588	8147.57
901.902	8125.65
902.216	8084.75
902.531	8078.87
902.845	8088.81
903.159	8065.54
903.473	7985.31
903.787	7919.55
904.101	7935.14
904.415	7898.08
904.729	7852.66
905.042	7860.57
905.356	7797.75
905.67	7764.98
905.984	7744.19
906.297	7708.71
906.611	7660.12
906.924	7641.59
907.237	7674.13
907.551	7637.75
907.864	7588.26
908.177	7523.86
908.491	7509.62
908.804	7491.09
909.117	7487.47
909.43	7374.93
909.743	7335.39
910.056	7317.31
910.368	7308.95
910.681	7278.89
910.994	7275.73
911.307	7242.51
911.619	7177.42
911.932	7154.83
912.244	7144.43
912.557	7125
912.869	7075.51
913.181	7061.72
913.494	7082.06
913.806	7013.36
914.118	6997.32
914.43	6962.97
914.742	6971.33
915.054	6937.2
915.366	6850.88
915.678	6823.99
915.99	6839.13
916.302	6806.81
916.613	6727.49
916.925	6756.42
917.236	6722.75
917.548	6673.03
917.859	6692.01
918.171	6602.52
918.482	6623.54
918.794	6558.46
919.105	6548.74
919.416	6548.29
919.727	6522.75
920.038	6487.27
920.349	6423.09
920.66	6402.53
920.971	6308.07
921.282	6398.46
921.593	6341.74
921.903	6304.23
922.214	6300.16
922.525	6248.18
922.835	6175.42
923.146	6212.7
923.456	6181.52
923.767	6146.49
924.077	6103.1
924.387	6099.71
924.697	6068.98
925.008	6014.52
925.318	5970.45
925.628	6009.77
925.938	6005.03
926.248	5925.25
926.558	5887.97
926.867	5874.41
927.177	5850.45
927.487	5834.18
927.796	5812.26
928.106	5786.95
928.416	5790.12
928.725	5786.95
929.034	5674.86
929.344	5721.64
929.653	5703.56
929.962	5649.1
930.271	5635.09
930.581	5595.54
930.89	5569.1
931.199	5500.63
931.508	5542.44
931.817	5475.32
932.125	5492.95
932.434	5456.79
932.743	5388.54
933.051	5364.59
933.36	5411.37
933.669	5316.68
933.977	5378.83
934.286	5304.48
934.594	5293.86
934.902	5226.97
935.21	5278.94
935.519	5272.84
935.827	5194.2
936.135	5190.36
936.443	5145.61
936.751	5083.92
937.059	5101.32
937.367	5110.13
937.674	5022.9
937.982	5071.04
938.29	5006.86
938.597	5015.9
938.905	4987.2
939.213	4973.87
939.52	4868.78
939.827	4956.01
940.135	4873.08
940.442	4893.64
940.749	4838.73
941.056	4832.4
941.363	4789.92
941.67	4794.66
941.977	4750.14
942.284	4736.58
942.591	4749.24
942.898	4730.03
943.205	4677.38
943.511	4677.6
943.818	4626.98
944.125	4596.48
944.431	4620.66
944.738	4553.31
945.044	4530.04
945.35	4553.99
945.657	4508.34
945.963	4490.94
946.269	4485.29
946.575	4501.34
946.881	4467.89
947.187	4468.79
947.493	4415.69
947.799	4377.05
948.105	4389.47
948.41	4350.61
948.716	4315.58
949.022	4315.13
949.327	4301.34
949.633	4257.5
949.938	4260.89
950.244	4235.81
950.549	4213.89
950.854	4218.86
951.16	4142.93
951.465	4171.4
951.77	4127.56
952.075	4126.88
952.38	4127.33
952.685	4120.56
952.99	4036.26
953.294	4059.54
953.599	4042.14
953.904	4000.78
954.209	4013.44
954.513	3991.97
954.818	3977.73
955.122	3954.46
955.426	3968.92
955.731	3922.14
956.035	3904.29
956.339	3890.96
956.643	3904.29
956.948	3847.79
957.252	3828.13
957.556	3833.33
957.86	3831.3
958.163	3827.46
958.467	3754.24
958.771	3772.99
959.075	3807.34
959.378	3754.92
959.682	3698.42
959.985	3696.84
960.289	3662.26
960.592	3674.92
960.896	3630.4
961.199	3633.11
961.502	3605.09
961.805	3581.36
962.108	3545.43
962.411	3580.68
962.714	3522.83
963.017	3528.48
963.32	3509.5
963.623	3485.77
963.926	3554.02
964.228	3477.63
964.531	3522.15
964.833	3444.87
965.136	3437.41
965.438	3445.09
965.741	3395.6
966.043	3383.4
966.345	3399.9
966.648	3374.36
966.95	3377.3
967.252	3344.3
967.554	3331.65
967.856	3332.33
968.158	3264.98
968.46	3246.91
968.761	3274.25
969.063	3306.79
969.365	3208.04
969.666	3211.2
969.968	3188.15
970.269	3190.18
970.571	3177.3
970.872	3176.4
971.174	3150.19
971.475	3168.26
971.776	3157.64
972.077	3103.63
972.378	3132.33
972.679	3128.49
972.98	3048.72
973.281	3024.31
973.582	3091.88
973.883	3048.27
974.183	3047.59
974.484	3010.08
974.785	2980.7
975.085	3020.92
975.386	3032.22
975.686	2952.68
975.986	2954.71
976.287	2912
976.587	2919.23
976.887	2899.8
977.187	2924.43
977.487	2868.39
977.787	2874.03
978.087	2830.42
978.387	2829.29
978.687	2845.79
978.987	2779.57
979.286	2794.49
979.586	2772.79
979.885	2749.52
980.185	2749.07
980.484	2756.75
980.784	2766.92
981.083	2727.37
981.382	2727.15
981.682	2736.41
981.981	2712
982.28	2678.56
982.579	2683.31
982.878	2648.73
983.177	2667.71
983.475	2615.51
983.774	2657.09
984.073	2615.96
984.372	2605.34
984.67	2583.19
984.969	2602.86
985.267	2549.98
985.566	2559.92
985.864	2561.5
986.162	2545
986.461	2542.74
986.759	2519.24
987.057	2479.02
987.355	2497.55
987.653	2508.62
987.951	2461.84
988.249	2429.3
988.547	2457.1
988.844	2436.53
989.142	2415.74
989.44	2388.85
989.737	2434.95
990.035	2402.41
990.332	2387.27
990.63	2359.7
990.927	2357.89
991.224	2375.97
991.521	2362.18
991.819	2330.77
992.116	2337.55
992.413	2280.15
992.71	2289.87
993.006	2277.67
993.303	2240.38
993.6	2245.58
993.897	2235.18
994.193	2249.42
994.49	2208.52
994.787	2218.91
995.083	2221.17
995.379	2219.36
995.676	2189.08
995.972	2185.47
996.268	2152.7
996.565	2140.04
996.861	2126.94
997.157	2126.03
997.453	2152.7
997.749	2123.55
998.044	2100.72
998.34	2061.63
998.636	2047.62
998.932	2064.56
999.227	2078.12
999.523	2031.57
999.818	2050.33
1000.114	2049.88
1000.409	2011.46
1000.704	2018.24
1001	2014.62
1001.295	1987.5
1001.59	1966.04
1001.885	1962.65
1002.18	1964.91
1002.475	1931.91
1002.77	1928.07
1003.065	1936.21
1003.359	1924.46
1003.654	1897.56
1003.949	1893.04
1004.243	1874.29
1004.538	1894.85
1004.832	1868.86
1005.127	1848.75
1005.421	1838.36
1005.715	1827.28
1006.009	1830.9
1006.304	1836.77
1006.598	1819.15
1006.892	1807.85
1007.186	1792.26
1007.48	1769.66
1007.773	1752.93
1008.067	1752.71
1008.361	1748.41
1008.655	1725.82
1008.948	1729.66
1009.242	1688.98
1009.535	1707.96
1009.829	1721.07
1010.122	1703.44
1010.415	1689.88
1010.708	1681.07
1011.001	1648.53
1011.295	1645.14
1011.588	1620.73
1011.881	1617.34
1012.173	1618.25
1012.466	1618.47
1012.759	1581.41
1013.052	1579.83
1013.344	1593.39
1013.637	1572.83
1013.93	1592.26
1014.222	1537.12
1014.514	1527.18
1014.807	1521.53
1015.099	1548.65
1015.391	1515.2
1015.683	1527.18
1015.976	1517.23
1016.268	1510.23
1016.56	1484.92
1016.851	1476.78
1017.143	1471.59
1017.435	1457.57
1017.727	1462.77
1018.018	1449.89
1018.31	1416.67
1018.602	1434.98
1018.893	1414.41
1019.185	1413.28
1019.476	1385.94
1019.767	1365.37
1020.058	1369.22
1020.35	1368.09
1020.641	1356.33
1020.932	1348.42
1021.223	1347.3
1021.514	1354.98
1021.804	1336.9
1022.095	1317.01
1022.386	1296.22
1022.677	1308.65
1022.967	1294.87
1023.258	1286.28
1023.548	1271.82
1023.839	1287.64
1024.129	1292.83
1024.419	1252.61
1024.709	1248.77
1025	1246.96
1025.29	1213.06
1025.58	1251.03
1025.87	1226.62
1026.16	1199.05
1026.449	1210.8
1026.739	1192.27
1027.029	1197.02
1027.319	1171.25
1027.608	1204.7
1027.898	1150.92
1028.187	1171.93
1028.477	1148.2
1028.766	1145.04
1029.055	1129.9
1029.344	1120.18
1029.634	1119.73
1029.923	1105.95
1030.212	1100.3
1030.501	1087.87
1030.79	1076.57
1031.078	1064.59
1031.367	1099.62
1031.656	1054.87
1031.945	1046.06
1032.233	1057.36
1032.522	1060.97
1032.81	1031.15
1033.099	1055.55
1033.387	1039.51
1033.675	1014.65
1033.963	1027.3
1034.251	1014.87
1034.54	1016.91
1034.828	1004.03
1035.116	964.71
1035.403	994.54
1035.691	961.54
1035.979	976.91
1036.267	956.57
1036.554	984.59
1036.842	966.74
1037.129	938.49
1037.417	944.37
1037.704	934.42
1037.992	925.39
1038.279	930.81
1038.566	948.21
1038.853	948.21
1039.14	948.21
