Data from hue_22_FLMS001491_00039.txt Node
Date: Tue Feb 07 17:10:02 GMT 2017
User: dcchb
Spectrometer: FLMS00149
Trigger mode: 0
Integration Time (sec): 2.000000E-2
Scans to average: 10
Electric dark correction enabled: true
Nonlinearity correction enabled: false
Boxcar width: 0
XAxis mode: Wavelengths
Number of Pixels in Spectrum: 2048
>>>>>Begin Spectral Data<<<<<
341.393	-1.89
341.776	-1.89
342.16	-1.89
342.543	-39.41
342.927	-67.43
343.31	-55.22
343.693	-64.26
344.077	-77.82
344.46	-64.04
344.843	-47.99
345.226	-59.07
345.61	-10.25
345.993	-21.33
346.376	-7.77
346.759	20.03
347.142	19.8
347.525	52.34
347.908	63.87
348.291	74.49
348.674	76.3
349.057	100.93
349.44	132.12
349.823	138.44
350.206	168.5
350.588	187.25
350.971	212.57
351.354	230.19
351.737	229.29
352.119	247.37
352.502	257.76
352.884	253.02
353.267	286.24
353.65	294.6
354.032	307.48
354.414	313.35
354.797	309.51
355.179	319.23
355.562	316.07
355.944	334.6
356.326	331.88
356.709	333.69
357.091	321.04
357.473	355.84
357.855	347.48
358.238	339.34
358.62	352
359.002	348.61
359.384	346.35
359.766	344.31
360.148	359.91
360.53	354.93
360.912	326.46
361.294	341.6
361.676	347.7
362.057	349.28
362.439	341.15
362.821	306.12
363.203	333.69
363.584	326.01
363.966	324.2
364.348	344.31
364.729	316.52
365.111	308.83
365.493	331.88
365.874	311.55
366.256	321.26
366.637	338.44
367.019	309.51
367.4	319.91
367.781	302.28
368.163	329.62
368.544	330.53
368.925	318.78
369.306	336.18
369.688	314.03
370.069	303.41
370.45	312.68
370.831	338.66
371.212	328.72
371.593	316.29
371.974	333.47
372.355	344.99
372.736	330.75
373.117	320.58
373.498	316.52
373.879	315.39
374.26	331.88
374.641	314.48
375.021	323.52
375.402	324.43
375.783	335.05
376.163	331.43
376.544	332.11
376.925	317.65
377.305	339.34
377.686	338.89
378.066	328.95
378.447	331.43
378.827	336.4
379.208	338.89
379.588	326.01
379.968	347.7
380.349	327.14
380.729	353.13
381.109	335.5
381.489	345.22
381.87	349.51
382.25	352.22
382.63	341.38
383.01	361.49
383.39	339.57
383.77	339.79
384.15	354.26
384.53	339.79
384.91	348.15
385.29	367.82
385.67	334.37
386.049	352.22
386.429	354.03
386.809	347.93
387.189	348.38
387.568	352.67
387.948	368.95
388.328	362.17
388.707	364.43
389.087	361.71
389.466	346.8
389.846	372.11
390.225	370.75
390.605	371.66
390.984	374.14
391.363	361.49
391.743	368.04
392.122	356.97
392.501	378.44
392.881	392.67
393.26	375.05
393.639	388.83
394.018	360.36
394.397	379.34
394.776	377.76
395.155	369.4
395.534	375.05
395.913	364.88
396.292	398.1
396.671	393.13
397.05	382.5
397.429	368.04
397.808	386.12
398.186	413.69
398.565	427.25
398.944	406.01
399.323	368.72
399.701	392.67
400.08	394.71
400.458	408.27
400.837	401.71
401.215	403.07
401.594	414.14
401.972	410.98
402.351	400.36
402.729	408.04
403.107	397.64
403.486	437.64
403.864	427.02
404.242	409.85
404.62	444.2
404.999	436.29
405.377	428.6
405.755	435.16
406.133	455.04
406.511	441.26
406.889	444.42
407.267	439.9
407.645	452.33
408.023	437.42
408.401	471.54
408.779	434.25
409.156	443.52
409.534	468.15
409.912	445.33
410.29	447.81
410.667	458.43
411.045	466.34
411.422	450.07
411.8	474.93
412.178	474.71
412.555	499.11
412.933	483.97
413.31	483.07
413.687	490.75
414.065	488.72
414.442	482.61
414.819	497.3
415.197	508.83
415.574	499.79
415.951	516.51
416.328	518.77
416.705	523.07
417.082	523.52
417.46	523.74
417.837	526.46
418.214	519.22
418.591	507.02
418.967	514.25
419.344	524.2
419.721	520.81
420.098	539.11
420.475	532.33
420.852	532.78
421.228	540.24
421.605	567.13
421.982	550.86
422.358	554.02
422.735	549.73
423.111	549.96
423.488	572.56
423.864	568.71
424.241	562.16
424.617	556.96
424.994	574.82
425.37	587.47
425.746	586.79
426.123	587.47
426.499	583.85
426.875	601.71
427.251	620.24
427.627	598.09
428.003	616.4
428.379	602.61
428.756	613.91
429.132	621.37
429.507	632.67
429.883	626.11
430.259	631.54
430.635	643.97
431.011	641.71
431.387	674.47
431.763	685.77
432.138	667.69
432.514	655.04
432.89	670.63
433.265	671.99
433.641	685.32
434.016	679.45
434.392	702.04
434.767	723.29
435.143	713.79
435.518	699.11
435.894	720.35
436.269	736.17
436.644	731.42
437.02	731.42
437.395	771.65
437.77	733.46
438.145	763.51
438.52	742.49
438.895	761.7
439.271	756.51
439.646	768.03
440.021	792.21
440.395	765.54
440.77	780.69
441.145	792.66
441.52	822.94
441.895	812.32
442.27	798.09
442.645	807.13
443.019	805.09
443.394	830.85
443.769	837.41
444.143	826.56
444.518	822.94
444.892	850.06
445.267	832.89
445.641	870.85
446.016	842.83
446.39	855.26
446.764	860.91
447.139	858.2
447.513	858.2
447.887	843.28
448.262	875.82
448.636	874.69
449.01	893.23
449.384	909.95
449.758	922.15
450.132	901.81
450.506	928.03
450.88	889.61
451.254	907.24
451.628	944.98
452.002	933.45
452.376	939.1
452.75	953.11
453.123	956.5
453.497	970.96
453.871	989.95
454.244	992.21
454.618	990.17
454.992	1023.84
455.365	1006.22
455.739	1015.93
456.112	1030.62
456.486	1045.54
456.859	1030.85
457.232	1041.24
457.606	1073.79
457.979	1063.16
458.352	1063.16
458.725	1105.2
459.099	1101.58
459.472	1115.59
459.845	1133.9
460.218	1148.59
460.591	1140.68
460.964	1162.14
461.337	1161.24
461.71	1179.55
462.083	1203.95
462.456	1215.48
462.829	1212.99
463.201	1231.75
463.574	1239.88
463.947	1264.29
464.32	1266.1
464.692	1288.69
465.065	1315.36
465.438	1350.39
465.81	1336.83
466.183	1350.84
466.555	1366.21
466.928	1384.74
467.3	1374.12
467.672	1398.52
468.045	1436.26
468.417	1444.62
468.789	1456.15
469.161	1479.65
469.534	1502.93
469.906	1542.25
470.278	1542.93
470.65	1552.19
471.022	1550.38
471.394	1617.95
471.766	1632.19
472.138	1637.39
472.51	1665.18
472.882	1706.76
473.253	1731.17
473.625	1791.96
473.997	1788.34
474.369	1794.22
474.74	1790.83
475.112	1855.46
475.484	1895.46
475.855	1904.95
476.227	1941.33
476.598	1991.95
476.97	2005.74
477.341	2036.25
477.713	2095.45
478.084	2085.28
478.455	2152.4
478.827	2193.08
479.198	2217.03
479.569	2259.52
479.94	2307.88
480.311	2312.62
480.682	2364.15
481.053	2423.13
481.424	2475.78
481.795	2479.4
482.166	2577.47
482.537	2596.46
482.908	2643.46
483.279	2675.55
483.65	2763.46
484.021	2798.94
484.391	2805.94
484.762	2862.66
485.133	2911.25
485.503	2939.27
485.874	3013.85
486.244	3008.88
486.615	3124.13
486.985	3167.52
487.356	3213.84
487.726	3176.55
488.097	3294.07
488.467	3322.31
488.837	3437.11
489.207	3450.45
489.578	3494.29
489.948	3541.74
490.318	3569.99
490.688	3604.11
491.058	3645.7
491.428	3752.81
491.798	3738.57
492.168	3815.18
492.538	3845.24
492.908	3926.59
493.278	3964.1
493.648	3948.51
494.017	4065.8
494.387	4099.92
494.757	4109.41
495.126	4215.17
495.496	4229.41
495.866	4213.82
496.235	4308.28
496.605	4336.75
496.974	4336.52
497.344	4349.86
497.713	4442.28
498.082	4473.47
498.452	4485.67
498.821	4517.08
499.19	4601.15
499.559	4596.86
499.928	4602.28
500.298	4564.99
500.667	4685.89
501.036	4684.76
501.405	4762.28
501.774	4720.24
502.143	4777.42
502.512	4796.17
502.88	4882.72
503.249	4808.38
503.618	4897.87
503.987	4946.9
504.356	4992.55
504.724	4987.81
505.093	4956.17
505.462	4970.41
505.83	5046.11
506.199	5099.67
506.567	5181.25
506.936	5116.16
507.304	5197.97
507.672	5233
508.041	5249.04
508.409	5280
508.777	5318.42
509.145	5385.54
509.514	5337.63
509.882	5416.95
510.25	5394.8
510.618	5430.51
510.986	5457.4
511.354	5524.29
511.722	5534.01
512.09	5586.89
512.458	5587.56
512.826	5640.22
513.193	5635.02
513.561	5625.3
513.929	5670.5
514.297	5707.34
514.664	5749.37
515.032	5783.49
515.4	5814.45
515.767	5861.46
516.135	5890.61
516.502	5866.43
516.869	5953.88
517.237	5951.17
517.604	5896.26
517.972	5995.92
518.339	6011.51
518.706	6015.58
519.073	5992.53
519.44	6068.46
519.808	6079.98
520.175	6104.16
520.542	6164.95
520.909	6212.41
521.276	6176.48
521.643	6270.03
522.009	6272.97
522.376	6359.75
522.743	6354.1
523.11	6395.45
523.477	6456.92
523.843	6443.36
524.21	6510.25
524.577	6586.63
524.943	6624.83
525.31	6630.48
525.676	6680.19
526.043	6692.85
526.409	6730.13
526.776	6799.06
527.142	6867.08
527.508	6868.66
527.874	6892.84
528.241	6953.18
528.607	6957.92
528.973	6980.3
529.339	6960.86
529.705	7075.89
530.071	7121.76
530.437	7159.05
530.803	7182.33
531.169	7223.45
531.535	7220.29
531.901	7192.49
532.267	7275.43
532.632	7328.31
532.998	7305.49
533.364	7361.3
533.73	7397.46
534.095	7448.76
534.461	7488.08
534.826	7552.49
535.192	7547.29
535.557	7592.48
535.923	7559.49
536.288	7617.34
536.653	7668.87
537.019	7718.13
537.384	7712.48
537.749	7711.12
538.114	7774.85
538.479	7807.62
538.845	7823.89
539.21	7846.26
539.575	7868.63
539.94	7953.6
540.305	8044.68
540.67	7966.94
541.034	8030.66
541.399	8018.01
541.764	8110.66
542.129	8130.1
542.494	8143.88
542.858	8181.62
543.223	8248.51
543.587	8235.4
543.952	8239.25
544.316	8335.74
544.681	8297.78
545.045	8326.7
545.41	8365.35
545.774	8427.72
546.138	8390.2
546.503	8496.42
546.867	8500.93
547.231	8552.68
547.595	8546.81
547.959	8602.4
548.324	8631.33
548.688	8565.11
549.052	8638.33
549.416	8729.86
549.779	8691.89
550.143	8747.03
550.507	8783.41
550.871	8813.47
551.235	8890.3
551.599	8929.85
551.962	8882.85
552.326	8926.46
552.689	8997.87
553.053	8986.35
553.417	9027.47
553.78	9076.29
554.143	9093.01
554.507	9091.88
554.87	9099.56
555.234	9196.51
555.597	9160.35
555.96	9264.76
556.323	9297.52
556.686	9307.69
557.05	9314.92
557.413	9348.6
557.776	9351.53
558.139	9516.95
558.502	9502.49
558.865	9466.11
559.228	9579.55
559.59	9494.58
559.953	9629.94
560.316	9691.64
560.679	9625.88
561.041	9706.1
561.404	9815.7
561.767	9819.77
562.129	9778.42
562.492	9877.17
562.854	9881.69
563.217	9843.95
563.579	9912.42
563.941	9975.25
564.304	10011.4
564.666	10061.35
565.028	10093.89
565.39	10087.11
565.753	10203.71
566.115	10204.62
566.477	10260.89
566.839	10237.39
567.201	10367.1
567.563	10312.41
567.925	10397.38
568.287	10468.57
568.648	10484.61
569.01	10476.93
569.372	10527.55
569.734	10549.02
570.095	10602.8
570.457	10695
570.819	10666.98
571.18	10674.66
571.542	10786.3
571.903	10770.03
572.265	10917.14
572.626	10919.4
572.987	10924.37
573.349	11017.93
573.71	11071.04
574.071	11148.77
574.432	11167.08
574.794	11351.48
575.155	11345.15
575.516	11317.36
575.877	11435.32
576.238	11424.7
576.599	11598.48
576.96	11646.39
577.32	11702.66
577.681	11765.48
578.042	11831.47
578.403	11842.77
578.763	12005.7
579.124	12063.1
579.485	12157.11
579.845	12246.6
580.206	12354.84
580.566	12419.02
580.927	12588.51
581.287	12789.86
581.648	12791.44
582.008	12960.93
582.368	13173.58
582.728	13233.01
583.089	13324.76
583.449	13546.23
583.809	13673.68
584.169	13815.37
584.529	13985.31
584.889	14274.57
585.249	14256.04
585.609	14478.63
585.969	14683.82
586.329	14824.16
586.688	15084.26
587.048	15238.84
587.408	15500.52
587.768	15680.18
588.127	15909.1
588.487	16100.73
588.846	16464.12
589.206	16566.26
589.565	16865.23
589.925	17267.03
590.284	17310.42
590.643	17581.6
591.003	17963.96
591.362	18261.58
591.721	18420.9
592.08	18871.28
592.44	19155.57
592.799	19344.49
593.158	19628.1
593.517	19955.1
593.876	20320.74
594.235	20448.42
594.593	20757.56
594.952	21173.82
595.311	21450.2
595.67	21776.97
596.029	22139.22
596.387	22379.67
596.746	22802.03
597.104	22954.11
597.463	23223.26
597.822	23621.44
598.18	23783.7
598.538	24144.14
598.897	24470.01
599.255	24672.71
599.613	25328.74
599.972	25408.51
600.33	25715.17
600.688	25995.16
601.046	26343.18
601.404	26808.93
601.762	27042.14
602.12	27309.71
602.478	27716.25
602.836	27965.28
603.194	28067.88
603.552	28445.27
603.91	28695.43
604.268	29078.02
604.625	29282.08
604.983	29640.04
605.341	29804.78
605.698	30180.59
606.056	30518.89
606.413	30841.14
606.771	31059.44
607.128	31334.01
607.485	31429.82
607.843	31793.88
608.2	32269.8
608.557	32380.98
608.914	32574.2
609.272	33003.12
609.629	33183.22
609.986	33568.75
610.343	33541.18
610.7	34060.04
611.057	34133.71
611.414	34329.63
611.771	34652.56
612.127	34771.66
612.484	35071.99
612.841	35307.69
613.198	35396.72
613.554	35667.9
613.911	35965.98
614.267	36309.24
614.624	36306.76
614.98	36494.77
615.337	36986.06
615.693	36857.03
616.05	37132.05
616.406	37610.23
616.762	37512.6
617.118	37570.45
617.475	37800.28
617.831	38040.95
618.187	38189.65
618.543	38508.96
618.899	38713.7
619.255	38753.7
619.611	38849.74
619.967	39218.32
620.323	39244.99
620.678	39285.66
621.034	39279.11
621.39	39492.21
621.746	39643.17
622.101	40113.89
622.457	39879.54
622.812	40073.21
623.168	40207.22
623.523	40384.84
623.879	40480.88
624.234	40213.32
624.589	40503.71
624.945	40733.99
625.3	40928.1
625.655	40884.94
626.01	40897.14
626.365	41152.05
626.72	41014.43
627.075	41102.34
627.43	41263.24
627.785	41199.74
628.14	41331.03
628.495	41545.49
628.85	41633.62
629.205	41504.13
629.559	41697.12
629.914	41467.98
630.269	41724.69
630.623	41719.95
630.978	41721.3
631.332	41824.58
631.687	41965.59
632.041	41790
632.396	41942.99
632.75	41928.08
633.104	41940.96
633.459	41856.89
633.813	41880.17
634.167	41952.26
634.521	42007.85
634.875	42015.31
635.229	42120.16
635.583	41866.61
635.937	41977.79
636.291	41999.71
636.645	41982.77
636.999	42034.29
637.352	42139.37
637.706	41983.44
638.06	42072.71
638.413	41961.3
638.767	41884.46
639.121	42026.15
639.474	42031.35
639.828	41951.13
640.181	41975.99
640.534	42051.92
640.888	41854.41
641.241	41762.88
641.594	42068.19
641.947	42119.26
642.301	41895.99
642.654	41989.09
643.007	41989.32
643.36	41936.44
643.713	41970.11
644.066	42086.04
644.419	41815.54
644.771	41599.05
645.124	41184.6
645.477	41277.93
645.83	40931.95
646.182	41006.97
646.535	40889.01
646.888	40836.58
647.24	40648.11
647.593	40961.55
647.945	41003.81
648.298	40762.69
648.65	40644.04
649.002	40540.32
649.355	40752.06
649.707	40646.3
650.059	40781.67
650.411	41207.19
650.763	41279.28
651.115	41743.9
651.467	41664.58
651.819	41752.72
652.171	41437.02
652.523	41528.99
652.875	41531.93
653.227	41328.55
653.578	41637.92
653.93	41458.94
654.282	41414.87
654.633	41374.42
654.985	41303.01
655.337	41361.09
655.688	41365.83
656.039	41535.09
656.391	41258.49
656.742	41304.14
657.094	41222.33
657.445	41359.96
657.796	41340.98
658.147	41264.14
658.498	41350.69
658.849	41341.88
659.2	41279.06
659.551	41216.46
659.902	41271.82
660.253	41171.94
660.604	41222.33
660.955	41114.09
661.306	41203.58
661.656	41206.52
662.007	41170.58
662.358	41254.65
662.708	41362.67
663.059	41166.52
663.409	41125.39
663.76	41384.59
664.11	41207.19
664.461	41252.16
664.811	41293.07
665.161	41238.15
665.511	41036.58
665.862	41055.11
666.212	41215.1
666.562	41238.38
666.912	41117.7
667.262	41156.12
667.612	41139.85
667.962	41222.56
668.312	41032.28
668.662	41245.61
669.011	41263.69
669.361	41113.64
669.711	41055.78
670.06	41047.2
670.41	40859.41
670.76	40919.29
671.109	41152.51
671.459	40906.86
671.808	40950.48
672.157	41170.36
672.507	40825.06
672.856	40955.22
673.205	40974.43
673.554	41018.05
673.904	40954.09
674.253	41092.17
674.602	40993.19
674.951	40298.06
675.3	40267.11
675.649	40837.03
675.998	40786.87
676.346	40822.57
676.695	40868.67
677.044	40540.54
677.393	40792.29
677.741	40640.88
678.09	40699.41
678.438	40535.57
678.787	40586.64
679.135	40577.61
679.484	40468.23
679.832	40665.96
680.181	40261.68
680.529	40423.26
680.877	40242.47
681.225	40242.7
681.573	40465.29
681.922	40180.1
682.27	40173.1
682.618	40216.26
682.966	40022.37
683.314	40091.52
683.661	39923.39
684.009	39778.53
684.357	39887.45
684.705	39724.75
685.053	39733.79
685.4	39681.81
685.748	39505.77
686.095	39531.76
686.443	39372.21
686.79	39424.87
687.138	39403.4
687.485	39430.74
687.832	39274.14
688.18	39294.25
688.527	39036.85
688.874	39001.6
689.221	38893.58
689.568	38829.4
689.915	38840.7
690.262	38734.04
690.609	38679.35
690.956	38490.2
691.303	38570.88
691.65	38449.07
691.997	38347.83
692.344	38152.58
692.69	38184.9
693.037	38150.1
693.383	37809.54
693.73	37941.74
694.077	37821.52
694.423	37775.87
694.769	37708.53
695.116	37542.43
695.462	37640.96
695.808	37361.19
696.155	37536.56
696.501	37210.46
696.847	37153.29
697.193	36925.27
697.539	37085.27
697.885	36798.72
698.231	36675.79
698.577	36811.6
698.923	36645.51
699.269	36558.05
699.614	36367.09
699.96	36167.1
700.306	36283.71
700.651	36048.68
700.997	36100.89
701.342	35910.61
701.688	35892.53
702.033	35774.79
702.379	35737.96
702.724	35696.6
703.069	35696.6
703.415	35344.52
703.76	35422.49
704.105	35383.84
704.45	35378.65
704.795	35062.04
705.14	35055.04
705.485	34966.68
705.83	34925.78
706.175	34954.02
706.52	34793.35
706.865	34756.52
707.209	34796.29
707.554	34497.54
707.899	34510.87
708.243	34365.57
708.588	34404.43
708.932	34149.53
709.277	34150.88
709.621	34140.49
709.966	33947.27
710.31	34013.48
710.654	33656.66
710.998	33831.79
711.342	33815.52
711.687	33518.81
712.031	33530.79
712.375	33351.35
712.719	33490.56
713.063	33460.73
713.407	33448.08
713.75	33337.34
714.094	33293.05
714.438	33260.51
714.782	33124.69
715.125	33029.1
715.469	33030.91
715.812	32959.73
716.156	32757.25
716.499	32751.6
716.843	32772.16
717.186	32602.22
717.53	32782.33
717.873	32701.65
718.216	32655.33
718.559	32529.23
718.902	32199.97
719.246	32323.36
719.589	32250.14
719.932	32288.56
720.275	32088.56
720.617	32160.65
720.96	32019.64
721.303	32105.06
721.646	31988
721.989	31668.01
722.331	31948.45
722.674	31763.37
723.016	31785.97
723.359	31691.96
723.701	31727.89
724.044	31478.64
724.386	31333.1
724.729	31447.45
725.071	31402.71
725.413	31385.08
725.755	31342.82
726.097	31216.04
726.439	30934.02
726.782	30977.18
727.124	31189.15
727.465	31028.93
727.807	31112.77
728.149	30957.52
728.491	30932.21
728.833	30881.36
729.175	30790.29
729.516	30711.65
729.858	30802.72
730.199	30832.78
730.541	30757.75
730.882	30758.88
731.224	30699.67
731.565	30461.26
731.906	30511.88
732.248	30570.41
732.589	30355.5
732.93	30316.63
733.271	30181.72
733.612	30328.84
733.953	30278.67
734.294	30184.21
734.635	30163.64
734.976	30257.88
735.317	29959.58
735.658	30063.31
735.999	30040.48
736.339	29953.25
736.68	30063.98
737.021	29894.04
737.361	29730.43
737.702	29831.22
738.042	29842.97
738.383	29639.59
738.723	29860.37
739.063	29678
739.404	29752.81
739.744	29615.63
740.084	29537.44
740.424	29587.61
740.764	29508.97
741.104	29596.2
741.444	29269.88
741.784	29395.75
742.124	29267.85
742.464	29459.25
742.804	29296.09
743.143	29219.71
743.483	29199.83
743.823	29144.23
744.162	29130.45
744.502	29165.93
744.841	28984.24
745.181	28971.58
745.52	28845.48
745.86	29026.72
746.199	28908.08
746.538	28889.78
746.877	28795.09
747.216	28987.18
747.556	28803
747.895	28682.1
748.234	28600.52
748.573	28577.92
748.911	28435.55
749.25	28628.32
749.589	28519.39
749.928	28452.27
750.267	28543.35
750.605	28358.94
750.944	28281.43
751.283	28325.27
751.621	28278.49
751.96	28100.19
752.298	28136.35
752.636	28255.9
752.975	28020.65
753.313	27961.44
753.651	28044.38
753.989	27804.16
754.327	27829.69
754.666	27701.56
755.004	27769.81
755.342	27720.09
755.679	27641.22
756.017	27502.69
756.355	27562.58
756.693	27491.62
757.031	27567.1
757.368	27423.15
757.706	27289.37
758.044	27188.13
758.381	27177.28
758.719	27097.96
759.056	27167.34
759.394	27076.04
759.731	26945.87
760.068	26906.1
760.405	26839.66
760.743	26704.52
761.08	26776.39
761.417	26596.05
761.754	26603.96
762.091	26500.46
762.428	26466.79
762.765	26328.71
763.102	26361.71
763.438	26158.1
763.775	26071.55
764.112	26132.79
764.449	26118.55
764.785	25948.16
765.122	25760.14
765.458	25685.57
765.795	25685.79
766.131	25641.27
766.467	25631.56
766.804	25432.69
767.14	25420.26
767.476	25368.97
767.812	25175.52
768.148	25255.97
768.485	25070.67
768.821	25013.27
769.157	24908.64
769.492	24903.22
769.828	24945.47
770.164	24714.52
770.5	24620.06
770.836	24491.25
771.171	24471.36
771.507	24315.66
771.842	24173.74
772.178	24187.53
772.513	24278.15
772.849	24041.09
773.184	23936.01
773.519	23868.44
773.855	23868.21
774.19	23785.73
774.525	23576.02
774.86	23584.15
775.195	23558.39
775.53	23477.72
775.865	23325.63
776.2	23228.01
776.535	23023.49
776.87	23050.16
777.205	22924.28
777.539	22771.75
777.874	22955.24
778.209	22650.85
778.543	22594.35
778.878	22459.44
779.212	22510.96
779.547	22320.01
779.881	22388.25
780.215	22176.96
780.55	22356.84
780.884	22183.29
781.218	22042.27
781.552	22026.91
781.886	22034.36
782.22	21761.15
782.554	21735.61
782.888	21600.7
783.222	21473.47
783.556	21336.08
783.889	21435.06
784.223	21241.39
784.557	21283.65
784.89	21246.59
785.224	21084.33
785.557	21050.44
785.891	20948.97
786.224	20899.48
786.558	20864.45
786.891	20639.6
787.224	20578.81
787.557	20576.78
787.891	20534.06
788.224	20364.58
788.557	20423.56
788.89	20323.22
789.223	20285.94
789.556	20129.33
789.888	20083.91
790.221	20026.06
790.554	19885.49
790.887	19868.55
791.219	19835.33
791.552	19755.33
791.884	19674.2
792.217	19628.1
792.549	19472.85
792.882	19398.5
793.214	19321.89
793.546	19408.9
793.879	19270.82
794.211	19114.89
794.543	19191.28
794.875	19095.46
795.207	19178.62
795.539	19030.15
795.871	18910.38
796.203	18806.2
796.535	18734.56
796.867	18799.65
797.198	18725.75
797.53	18550.61
797.862	18507.45
798.193	18543.16
798.525	18412.76
798.856	18516.26
799.188	18154.24
799.519	18198.31
799.85	18029.95
800.182	18152.88
800.513	18130.06
800.844	17895.04
801.175	18061.81
801.506	17922.83
801.837	17975.49
802.168	17768.26
802.499	17785.44
802.83	17586.8
803.161	17592.22
803.491	17593.8
803.822	17646.68
804.153	17546.35
804.483	17309.52
804.814	17365.11
805.145	17354.94
805.475	17257.09
805.805	17196.98
806.136	17226.58
806.466	17161.95
806.796	17137.09
807.126	17009.86
807.457	16974.61
807.787	16889.19
808.117	16833.37
808.447	16768.74
808.777	16931.45
809.107	16778.01
809.436	16761.51
809.766	16685.8
810.096	16526.26
810.426	16515.19
810.755	16537.56
811.085	16534.17
811.414	16484.91
811.744	16288.98
812.073	16306.61
812.403	16314.51
812.732	16128.08
813.061	16191.81
813.39	16120.4
813.719	15969.21
814.049	16141.41
814.378	16008.99
814.707	15975.09
815.036	15995.43
815.365	15879.72
815.693	15791.14
816.022	15831.36
816.351	15685.38
816.68	15674.76
817.008	15713.85
817.337	15526.96
817.665	15547.3
817.994	15577.13
818.322	15499.62
818.651	15498.94
818.979	15440.64
819.307	15350.02
819.636	15416.69
819.964	15375.1
820.292	15427.08
820.62	15328.33
820.948	15237.48
821.276	15325.16
821.604	15237.48
821.932	15335.33
822.259	15310.47
822.587	15258.95
822.915	15277.03
823.243	15235.45
823.57	15212.85
823.898	15207.2
824.225	15207.88
824.553	15166.97
824.88	15144.6
825.207	15315.67
825.535	15200.87
825.862	15220.98
826.189	15166.3
826.516	15234.09
826.843	15214.66
827.17	15261.66
827.497	15265.5
827.824	15255.56
828.151	15262.79
828.478	15162.91
828.805	15294.2
829.131	15161.55
829.458	15074.32
829.785	15026.41
830.111	15138.73
830.438	15282
830.764	15172.62
831.09	15144.83
831.417	15099.86
831.743	15162.91
832.069	15159.29
832.395	15159.29
832.722	15053.76
833.048	15051.95
833.374	15020.54
833.7	14959.52
834.026	14958.84
834.351	15005.4
834.677	15016.47
835.003	14975.79
835.329	14903.48
835.654	14875.68
835.98	14853.76
836.306	14928.11
836.631	14794.78
836.956	14855.12
837.282	14861.45
837.607	14789.13
837.932	14651.28
838.258	14781
838.583	14764.5
838.908	14631.85
839.233	14712.52
839.558	14621
839.883	14621
840.208	14471.85
840.533	14633.43
840.858	14597.5
841.182	14578.74
841.507	14513.43
841.832	14331.06
842.156	14432.53
842.481	14432.08
842.805	14381.46
843.13	14351.4
843.454	14297.39
843.778	14209.49
844.103	14190.05
844.427	14117.96
844.751	14163.16
845.075	14176.49
845.399	14056.27
845.723	14012.65
846.047	14035.93
846.371	13821.02
846.695	13897.4
847.019	13781.47
847.343	13759.1
847.666	13722.04
847.99	13633.23
848.313	13617.18
848.637	13510.52
848.96	13561.14
849.284	13343.75
849.607	13332.22
849.931	13291.32
850.254	13302.16
850.577	13203.41
850.9	13057.2
851.223	13104.43
851.546	13028.5
851.869	12944.66
852.192	12968.84
852.515	12837.09
852.838	12784.44
853.161	12798
853.483	12786.92
853.806	12665.57
854.129	12743.76
854.451	12546.25
854.774	12537.21
855.096	12494.73
855.419	12583.31
855.741	12513.26
856.063	12376.99
856.385	12351
856.708	12421.28
857.03	12324.34
857.352	12302.19
857.674	12251.57
857.996	12247.95
858.318	12157.34
858.64	12188.75
858.961	12077.56
859.283	12119.14
859.605	12003.22
859.926	12062.87
860.248	11950.11
860.57	11887.29
860.891	11918.02
861.212	11917.57
861.534	11812.94
861.855	11808.19
862.176	11753.5
862.498	11819.94
862.819	11788.31
863.14	11655.65
863.461	11688.42
863.782	11599.61
864.103	11642.1
864.424	11597.12
864.745	11651.13
865.065	11625.15
865.386	11507.41
865.707	11525.26
866.027	11479.61
866.348	11553.96
866.668	11469.9
866.989	11453.63
867.309	11362.1
867.63	11428.77
867.95	11425.6
868.27	11342.22
868.59	11365.49
868.91	11297.47
869.23	11326.85
869.55	11258.83
869.87	11340.86
870.19	11205.95
870.51	11261.77
870.83	11271.94
871.15	11210.24
871.469	11192.16
871.789	11206.17
872.109	11155.78
872.428	11093.86
872.748	11047.76
873.067	11104.03
873.386	11000.98
873.706	11066.29
874.025	11066.29
874.344	10991.72
874.663	11022.22
874.982	10928.67
875.301	10992.85
875.62	10953.07
875.939	10858.84
876.258	10979.29
876.577	10833.3
876.896	10855
877.214	10812.74
877.533	10800.99
877.852	10742.23
878.17	10796.92
878.489	10786.3
878.807	10759.41
879.125	10761.21
879.444	10681.67
879.762	10650.48
880.08	10638.73
880.398	10566.87
880.716	10733.42
881.034	10640.09
881.352	10647.32
881.67	10552.41
881.988	10612.52
882.306	10542.46
882.624	10455.46
882.941	10420.88
883.259	10446.42
883.577	10407.1
883.894	10420.43
884.212	10408.68
884.529	10397.83
884.846	10332.3
885.164	10333.88
885.481	10337.27
885.798	10239.87
886.115	10227.22
886.432	10233.32
886.75	10216.37
887.067	10236.26
887.383	10153.55
887.7	10108.58
888.017	10121.01
888.334	10131.85
888.651	10043.94
888.967	10019.31
889.284	9983.16
889.6	9948.13
889.917	9915.81
890.233	9933.67
890.55	9862.93
890.866	9844.85
891.182	9832.43
891.498	9806.66
891.815	9749.04
892.131	9735.7
892.447	9728.25
892.763	9718.98
893.079	9679.43
893.395	9562.83
893.71	9581.36
894.026	9565.99
894.342	9523.73
894.657	9487.12
894.973	9509.5
895.289	9429.95
895.604	9479.21
895.92	9373
896.235	9369.84
896.55	9302.5
896.865	9266.34
897.181	9339.78
897.496	9213.68
897.811	9222.95
898.126	9191.76
898.441	9185.66
898.756	9130.75
899.071	9075.61
899.386	9047.36
899.7	9022.95
900.015	8941.6
900.33	8927.36
900.644	8954.26
900.959	8921.04
901.273	8874.26
901.588	8788.84
901.902	8728.05
902.216	8771.66
902.531	8730.53
902.845	8754.26
903.159	8667.94
903.473	8652.12
903.787	8621.38
904.101	8537.09
904.415	8575.96
904.729	8510.65
905.042	8461.61
905.356	8400.82
905.67	8366.47
905.984	8420.26
906.297	8346.14
906.611	8263.2
906.924	8301.17
907.237	8279.92
907.551	8226.37
907.864	8162.86
908.177	8146.59
908.491	8122.87
908.804	8075.41
909.117	8032.02
909.43	7996.77
909.743	7980.95
910.056	7980.27
910.368	7872.25
910.681	7877.45
910.994	7857.34
911.307	7790.9
911.619	7734.63
911.932	7832.25
912.244	7726.72
912.557	7714.29
912.869	7700.05
913.181	7641.97
913.494	7595.2
913.806	7559.04
914.118	7535.99
914.43	7519.72
914.742	7538.93
915.054	7537.57
915.366	7400.17
915.678	7415.77
915.99	7342.1
916.302	7356.33
916.613	7254.64
916.925	7246.28
917.236	7219.61
917.548	7207.64
917.859	7184.59
918.171	7105.04
918.482	7143.46
918.794	7099.84
919.105	7084.7
919.416	7063.91
919.727	7004.48
920.038	6955.66
920.349	6946.17
920.66	6949.56
920.971	6897.81
921.282	6888.1
921.593	6892.39
921.903	6806.06
922.214	6775.78
922.525	6714.77
922.835	6693.98
923.146	6644.49
923.456	6647.42
923.767	6626.86
924.077	6617.59
924.387	6608.78
924.697	6495.11
925.008	6484.72
925.318	6493.53
925.628	6432.74
925.938	6410.37
926.248	6392.74
926.558	6333.99
926.867	6385.74
927.177	6353.65
927.487	6290.37
927.796	6244.04
928.106	6204.95
928.416	6233.88
928.725	6236.36
929.034	6135.35
929.344	6203.82
929.653	6139.64
929.962	6094.67
930.271	6033.43
930.581	6012.86
930.89	5989.36
931.199	5900.33
931.508	5932.41
931.817	5935.8
932.125	5919.08
932.434	5907.78
932.743	5875.92
933.051	5779.88
933.36	5790.95
933.669	5804.06
933.977	5803.15
934.286	5701.01
934.594	5746.66
934.902	5608.13
935.21	5643.38
935.519	5628.02
935.827	5604.06
936.135	5579.88
936.443	5515.48
936.751	5530.39
937.059	5538.53
937.367	5485.42
937.674	5469.83
937.982	5494.01
938.29	5403.39
938.597	5445.65
938.905	5349.38
939.213	5337.63
939.52	5313.22
939.827	5291.3
940.135	5221.02
940.442	5238.42
940.749	5277.97
941.056	5218.54
941.363	5168.37
941.67	5150.51
941.977	5133.79
942.284	5078.2
942.591	5104.19
942.898	5125.66
943.205	5106.9
943.511	5029.16
943.818	5082.72
944.125	4977.41
944.431	5051.31
944.738	4978.32
945.044	4945.77
945.35	4908.71
945.657	4892.67
945.963	4851.77
946.269	4836.62
946.575	4821.94
946.881	4805.44
947.187	4800.24
947.493	4768.6
947.799	4712.56
948.105	4723.63
948.41	4720.02
948.716	4652.9
949.022	4682.73
949.327	4711.2
949.633	4581.26
949.938	4609.51
950.244	4592.56
950.549	4538.33
950.854	4547.14
951.16	4487.25
951.465	4463.3
951.77	4444.32
952.075	4443.19
952.38	4421.95
952.685	4419.91
952.99	4370.42
953.294	4378.11
953.599	4334.72
953.904	4308.05
954.209	4320.93
954.513	4307.15
954.818	4289.97
955.122	4281.84
955.426	4259.92
955.731	4248.84
956.035	4221.27
956.339	4191.9
956.643	4176.75
956.948	4155.29
957.252	4160.94
957.556	4085.01
957.86	4127.49
958.163	4065.12
958.467	4078.9
958.771	4080.71
959.075	4077.1
959.378	3999.13
959.682	3985.12
959.985	3968.4
960.289	3979.47
960.592	3925.91
960.896	3959.59
961.199	3936.76
961.502	3906.03
961.805	3886.37
962.108	3842.98
962.411	3858.12
962.714	3825.13
963.017	3797.33
963.32	3802.75
963.623	3775.86
963.926	3803.21
964.228	3773.15
964.531	3716.88
964.833	3737.9
965.136	3675.75
965.438	3687.05
965.741	3679.82
966.043	3695.64
966.345	3611.12
966.648	3607.5
966.95	3584.91
967.252	3573.83
967.554	3560.5
967.856	3602.53
968.158	3492.93
968.46	3506.94
968.761	3505.36
969.063	3498.35
969.365	3471.46
969.666	3463.1
969.968	3456.55
970.269	3441.86
970.571	3447.73
970.872	3412.25
971.174	3387.85
971.475	3375.19
971.776	3392.37
972.077	3346.49
972.378	3336.78
972.679	3332.93
972.98	3297.68
973.281	3270.11
973.582	3286.83
973.883	3290.22
974.183	3270.11
974.484	3206.38
974.785	3205.03
975.085	3207.51
975.386	3202.77
975.686	3172.04
975.986	3167.74
976.287	3127.06
976.587	3123.9
976.887	3151.47
977.187	3131.36
977.487	3090.23
977.787	3066.05
978.087	3073.28
978.387	3082.09
978.687	3084.58
978.987	3011.59
979.286	2990.57
979.586	3025.6
979.885	2974.75
980.185	2982.21
980.484	2950.35
980.784	2942.89
981.083	2972.27
981.382	2922.78
981.682	2950.8
981.981	2882.33
982.28	2894.08
982.579	2882.78
982.878	2826.51
983.177	2821.54
983.475	2839.84
983.774	2800.75
984.073	2835.55
984.372	2775.21
984.67	2777.24
984.969	2772.95
985.267	2765.72
985.566	2752.84
985.864	2718.49
986.162	2745.61
986.461	2725.72
986.759	2718.49
987.057	2676.46
987.355	2696.79
987.653	2646.85
987.951	2659.05
988.249	2609.11
988.547	2612.95
988.844	2608.66
989.142	2620.86
989.44	2623.58
989.737	2591.03
990.035	2559.62
990.332	2578.6
990.63	2524.37
990.927	2517.59
991.224	2527.98
991.521	2485.73
991.819	2531.6
992.116	2480.98
992.413	2498.83
992.71	2497.48
993.006	2463.81
993.303	2421.77
993.6	2423.13
993.897	2445.73
994.193	2404.37
994.49	2394.88
994.787	2377.93
995.083	2348.1
995.379	2351.04
995.676	2316.46
995.972	2359.63
996.268	2331.38
996.565	2320.76
996.861	2307.65
997.157	2292.28
997.453	2279.4
997.749	2278.5
998.044	2260.65
998.34	2245.51
998.636	2214.77
998.932	2239.18
999.227	2197.82
999.523	2211.61
999.818	2163.02
1000.114	2191.95
1000.409	2174.55
1000.704	2167.99
1001	2157.15
1001.295	2128.45
1001.59	2123.25
1001.885	2136.13
1002.18	2118.5
1002.475	2075.34
1002.77	2095.23
1003.065	2078.5
1003.359	2067.88
1003.654	2043.25
1003.949	2024.72
1004.243	2018.39
1004.538	2008.68
1004.832	2001.44
1005.127	1991.05
1005.421	1984.04
1005.715	1948.79
1006.009	1953.54
1006.304	1961.45
1006.598	1912.41
1006.892	1942.69
1007.186	1903.82
1007.48	1899.75
1007.773	1901.56
1008.067	1879.41
1008.361	1898.17
1008.655	1859.98
1008.948	1840.54
1009.242	1828.12
1009.535	1833.54
1009.829	1825.86
1010.122	1795.35
1010.415	1799.87
1010.708	1799.64
1011.001	1771.62
1011.295	1752.19
1011.588	1742.24
1011.881	1747.67
1012.173	1722.36
1012.466	1733.43
1012.759	1709.02
1013.052	1710.6
1013.344	1719.87
1013.637	1704.73
1013.93	1666.09
1014.222	1667.44
1014.514	1651.62
1014.807	1651.85
1015.099	1619.99
1015.391	1622.7
1015.683	1637.16
1015.976	1610.27
1016.268	1594
1016.56	1609.82
1016.851	1582.7
1017.143	1578.4
1017.435	1558.29
1017.727	1557.84
1018.018	1529.59
1018.31	1544.51
1018.602	1529.59
1018.893	1501.34
1019.185	1522.14
1019.476	1490.72
1019.767	1517.84
1020.058	1486.43
1020.35	1465.64
1020.641	1454.11
1020.932	1427.67
1021.223	1426.32
1021.514	1430.61
1021.804	1445.07
1022.095	1401.01
1022.386	1401.01
1022.677	1399.2
1022.967	1382.93
1023.258	1379.09
1023.548	1348.58
1023.839	1379.09
1024.129	1335.7
1024.419	1323.95
1024.709	1317.85
1025	1310.62
1025.29	1309.26
1025.58	1288.02
1025.87	1286.89
1026.16	1284.4
1026.449	1277.4
1026.739	1246.89
1027.029	1239.88
1027.319	1266.55
1027.608	1264.74
1027.898	1257.96
1028.187	1237.4
1028.477	1232.65
1028.766	1226.55
1029.055	1198.98
1029.344	1216.38
1029.634	1206.21
1029.923	1188.81
1030.212	1160.56
1030.501	1167.57
1030.79	1148.81
1031.078	1134.8
1031.367	1142.03
1031.656	1146.55
1031.945	1132.31
1032.233	1133.9
1032.522	1145.87
1032.81	1093.22
1033.099	1095.93
1033.387	1118.98
1033.675	1101.13
1033.963	1076.95
1034.251	1073.11
1034.54	1087.34
1034.828	1051.41
1035.116	1064.29
1035.403	1052.77
1035.691	1022.94
1035.979	1033.33
1036.267	1016.39
1036.554	1032.2
1036.842	1000.57
1037.129	992.43
1037.417	989.49
1037.704	988.82
1037.992	987.69
1038.279	996.5
1038.566	972.32
1038.853	972.32
1039.14	972.32
