Data from hue_32_FLMS001491_00098.txt Node
Date: Tue Feb 07 17:24:17 GMT 2017
User: dcchb
Spectrometer: FLMS00149
Trigger mode: 0
Integration Time (sec): 2.000000E-2
Scans to average: 10
Electric dark correction enabled: true
Nonlinearity correction enabled: false
Boxcar width: 0
XAxis mode: Wavelengths
Number of Pixels in Spectrum: 2048
>>>>>Begin Spectral Data<<<<<
341.393	-11.43
341.776	-11.43
342.16	-11.43
342.543	-55.72
342.927	-62.95
343.31	-66.11
343.693	-65.89
344.077	-64.31
344.46	-54.59
344.843	-57.98
345.226	-27.7
345.61	-45.78
345.993	-37.64
346.376	-7.81
346.759	14.11
347.142	27.89
347.525	58.85
347.908	53.88
348.291	74.22
348.674	86.2
349.057	112.64
349.44	123.49
349.823	158.51
350.206	169.13
350.588	214.56
350.971	222.01
351.354	244.16
351.737	266.98
352.119	266.08
352.502	261.79
352.884	266.08
353.267	284.61
353.65	301.56
354.032	315.34
354.414	308.34
354.797	333.65
355.179	334.78
355.562	341.33
355.944	345.17
356.326	352.63
356.709	342.46
357.091	332.97
357.473	336.36
357.855	341.78
358.238	366.19
358.62	364.38
359.002	367.77
359.384	360.99
359.766	352.18
360.148	357.15
360.53	330.71
360.912	348.11
361.294	329.58
361.676	346.3
362.057	347.21
362.439	362.58
362.821	316.25
363.203	339.07
363.584	336.36
363.966	324.61
364.348	347.89
364.729	327.1
365.111	353.76
365.493	334.55
365.874	326.42
366.256	320.77
366.637	334.33
367.019	316.47
367.4	320.77
367.781	333.42
368.163	313.76
368.544	321.67
368.925	306.53
369.306	339.98
369.688	310.6
370.069	321.22
370.45	317.83
370.831	324.61
371.212	329.36
371.593	333.2
371.974	326.87
372.355	311.73
372.736	317.15
373.117	339.3
373.498	330.26
373.879	329.36
374.26	318.96
374.641	317.83
375.021	318.51
375.402	324.61
375.783	335.01
376.163	343.14
376.544	338.62
376.925	320.54
377.305	335.68
377.686	327.32
378.066	337.49
378.447	341.56
378.827	333.2
379.208	357.15
379.588	327.32
379.968	335.01
380.349	330.94
380.729	350.82
381.109	329.36
381.489	351.05
381.87	322.8
382.25	349.02
382.63	336.81
383.01	367.32
383.39	358.06
383.77	343.37
384.15	350.37
384.53	347.89
384.91	349.92
385.29	371.16
385.67	358.28
386.049	365.29
386.429	365.06
386.809	365.74
387.189	384.27
387.568	348.34
387.948	368.68
388.328	362.58
388.707	368
389.087	358.51
389.466	368.68
389.846	385.85
390.225	376.59
390.605	378.17
390.984	382.24
391.363	403.93
391.743	378.39
392.122	395.79
392.501	391.73
392.881	381.33
393.26	391.73
393.639	396.92
394.018	391.05
394.397	406.42
394.776	378.17
395.155	400.31
395.534	385.63
395.913	389.24
396.292	400.77
396.671	393.76
397.05	417.04
397.429	394.89
397.808	394.44
398.186	404.38
398.565	398.73
398.944	389.24
399.323	419.97
399.701	400.77
400.08	418.84
400.458	407.32
400.837	420.88
401.215	431.5
401.594	395.12
401.972	405.29
402.351	405.74
402.729	429.69
403.107	430.14
403.486	412.52
403.864	424.04
404.242	421.1
404.62	420.43
404.999	442.57
405.377	429.24
405.755	435.34
406.133	433.31
406.511	449.35
406.889	432.4
407.267	450.93
407.645	428.79
408.023	461.78
408.401	442.8
408.779	457.49
409.156	468.11
409.534	438.96
409.912	454.32
410.29	466.3
410.667	481.44
411.045	449.13
411.422	455.23
411.8	488.22
412.178	484.38
412.555	476.02
412.933	495.23
413.31	479.63
413.687	498.16
414.065	486.41
414.442	487.54
414.819	494.32
415.197	501.1
415.574	493.65
415.951	507.88
416.328	518.5
416.705	506.3
417.082	515.57
417.46	498.62
417.837	520.99
418.214	510.82
418.591	529.35
418.967	514.44
419.344	541.33
419.721	526.86
420.098	543.81
420.475	541.1
420.852	556.47
421.228	551.72
421.605	558.05
421.982	578.61
422.358	535.45
422.735	563.47
423.111	556.69
423.488	568.9
423.864	567.09
424.241	574.1
424.617	548.11
424.994	583.13
425.37	573.19
425.746	589.91
426.123	593.3
426.499	591.04
426.875	569.58
427.251	583.81
427.627	592.85
428.003	595.56
428.379	631.95
428.756	603.7
429.132	605.05
429.507	633.08
429.883	629.01
430.259	628.33
430.635	627.43
431.011	631.95
431.387	647.99
431.763	669.91
432.138	652.29
432.514	644.38
432.89	674.88
433.265	667.43
433.641	679.4
434.016	701.78
434.392	680.98
434.767	735.22
435.143	707.88
435.518	704.26
435.894	718.27
436.269	717.14
436.644	727.54
437.02	728.22
437.395	740.87
437.77	742.9
438.145	738.16
438.52	738.38
438.895	749.68
439.271	763.69
439.646	758.72
440.021	783.36
440.395	782
440.77	777.03
441.145	781.55
441.52	770.93
441.895	782.23
442.27	797.59
442.645	809.12
443.019	795.33
443.394	799.85
443.769	826.97
444.143	826.52
444.518	830.13
444.892	823.81
445.267	835.78
445.641	835.11
446.016	843.47
446.39	852.05
446.764	853.64
447.139	845.27
447.513	851.83
447.887	845.27
448.262	866.29
448.636	864.93
449.01	839.17
449.384	875.1
449.758	873.07
450.132	896.57
450.506	909.23
450.88	891.6
451.254	901.77
451.628	911.71
452.002	916.01
452.376	924.82
452.75	946.06
453.123	924.82
453.497	943.58
453.871	958.72
454.244	972.5
454.618	994.42
454.992	1003.91
455.365	994.42
455.739	1009.11
456.112	992.84
456.486	1021.31
456.859	1031.94
457.232	1041.65
457.606	1025.38
457.979	1059.96
458.352	1060.41
458.725	1081.88
459.099	1085.27
459.472	1119.84
459.845	1139.28
460.218	1138.6
460.591	1163.01
460.964	1145.83
461.337	1159.62
461.71	1189.9
462.083	1167.98
462.456	1216.56
462.829	1206.62
463.201	1216.79
463.574	1230.12
463.947	1273.96
464.32	1282.55
464.692	1287.07
465.065	1291.59
465.438	1300.4
465.81	1319.39
466.183	1344.24
466.555	1361.64
466.928	1356.45
467.3	1384.02
467.672	1373.85
468.045	1436.9
468.417	1435.09
468.789	1438.93
469.161	1461.53
469.534	1494.07
469.906	1519.38
470.278	1558.48
470.65	1542.21
471.022	1579.72
471.394	1611.36
471.766	1630.34
472.138	1671.92
472.51	1681.18
472.882	1710.79
473.253	1764.57
473.625	1752.6
473.997	1808.64
474.369	1835.76
474.74	1841.18
475.112	1908.75
475.484	1936.32
475.855	1962.53
476.227	2016.32
476.598	2056.09
476.97	2082.3
477.341	2106.48
477.713	2180.15
478.084	2224.67
478.455	2287.27
478.827	2285.91
479.198	2409.3
479.569	2402.3
479.94	2468.73
480.311	2500.37
480.682	2586.92
481.053	2638.67
481.424	2695.17
481.795	2724.1
482.166	2803.87
482.537	2853.58
482.908	2926.12
483.279	3020.36
483.65	3063.3
484.021	3155.04
484.391	3190.07
484.762	3245.66
485.133	3311.65
485.503	3376.06
485.874	3461.48
486.244	3520.01
486.615	3622.6
486.985	3671.87
487.356	3780.11
487.726	3833.9
488.097	3936.04
488.467	3972.65
488.837	4102.82
489.207	4180.78
489.578	4311.85
489.948	4326.09
490.318	4398.4
490.688	4492.86
491.058	4597.94
491.428	4655.8
491.798	4718.17
492.168	4864.38
492.538	4918.16
492.908	4950.7
493.278	5031.6
493.648	5067.76
494.017	5147.31
494.387	5258.27
494.757	5315.44
495.126	5447.41
495.496	5492.16
495.866	5549.56
496.235	5595.66
496.605	5753.62
496.974	5763.56
497.344	5855.99
497.713	5888.08
498.082	5981.41
498.452	6039.49
498.821	6095.53
499.19	6133.5
499.559	6247.84
499.928	6269.54
500.298	6365.81
500.667	6474.28
501.036	6474.28
501.405	6574.39
501.774	6580.72
502.143	6706.36
502.512	6706.59
502.88	6740.26
503.249	6815.29
503.618	6886.92
503.987	6923.31
504.356	6963.53
504.724	7003.53
505.093	7048.28
505.462	7189.51
505.83	7151.78
506.199	7219.34
506.567	7357.65
506.936	7319.23
507.304	7409.4
507.672	7497.3
508.041	7514.93
508.409	7634.7
508.777	7661.37
509.145	7754.92
509.514	7773.68
509.882	7792.21
510.25	7828.82
510.618	7922.38
510.986	7894.58
511.354	7960.12
511.722	8120.11
512.09	8172.99
512.458	8117.85
512.826	8212.31
513.193	8282.59
513.561	8298.19
513.929	8319.43
514.297	8377.51
514.664	8434.23
515.032	8511.74
515.4	8609.36
515.767	8591.51
516.135	8637.16
516.502	8610.72
516.869	8761.9
517.237	8834.22
517.604	8806.87
517.972	8821.34
518.339	8889.13
518.706	8883.03
519.073	9001.22
519.44	9076.24
519.808	9095.68
520.175	9095.45
520.542	9217.94
520.909	9240.99
521.276	9191.04
521.643	9294.32
522.009	9422.22
522.376	9407.31
522.743	9408.21
523.11	9530.92
523.477	9613.86
523.843	9693.4
524.21	9836.45
524.577	9827.64
524.943	9893.62
525.31	9875.09
525.676	9958.26
526.043	10017.69
526.409	10084.13
526.776	10186.72
527.142	10195.54
527.508	10236.67
527.874	10365.7
528.241	10403.67
528.607	10391.01
528.973	10537.45
529.339	10458.81
529.705	10650.67
530.071	10610.44
530.437	10704.22
530.803	10740.16
531.169	10861.06
531.535	10833.26
531.901	10856.76
532.267	10918.68
532.632	10976.99
532.998	11054.27
533.364	11140.37
533.73	11237.32
534.095	11308.05
534.461	11274.6
534.826	11345.11
535.192	11377.2
535.557	11465.79
535.923	11417.65
536.288	11502.4
536.653	11580.13
537.019	11552.34
537.384	11530.19
537.749	11716.17
538.114	11667.36
538.479	11731.77
538.845	11759.79
539.21	11771.77
539.575	11856.28
539.94	11955.49
540.305	11973.8
540.67	11997.98
541.034	12021.48
541.399	12123.4
541.764	12125.88
542.129	12266.67
542.494	12237.97
542.858	12348.47
543.223	12296.72
543.587	12433.22
543.952	12326.33
544.316	12452.2
544.681	12435.48
545.045	12594.12
545.41	12690.16
545.774	12684.96
546.138	12751.18
546.503	12704.85
546.867	12785.53
547.231	12884.73
547.595	12825.3
547.959	12960.21
548.324	13022.58
548.688	13046.31
549.052	13047.89
549.416	13088.57
549.779	13145.52
550.143	13192.75
550.507	13265.96
550.871	13298.51
551.235	13303.48
551.599	13448.78
551.962	13428.45
552.326	13494.43
552.689	13573.53
553.053	13610.36
553.417	13566.97
553.78	13677.93
554.143	13722.9
554.507	13750.02
554.87	13816.46
555.234	13909.11
555.597	13811.94
555.96	13950.69
556.323	14005.15
556.686	13999.28
557.05	14083.8
557.413	14061.2
557.776	14099.84
558.139	14199.73
558.502	14234.07
558.865	14244.02
559.228	14444.92
559.59	14383.68
559.953	14465.48
560.316	14620.51
560.679	14575.99
561.041	14633.61
561.404	14658.47
561.767	14844.91
562.129	14739.15
562.492	14804.23
562.854	14862.76
563.217	14797.9
563.579	14982.76
563.941	15050.1
564.304	15064.34
564.666	15173.71
565.028	15181.85
565.39	15182.98
565.753	15343.2
566.115	15427.72
566.477	15394.72
566.839	15415.74
567.201	15568.73
567.563	15665.68
567.925	15628.16
568.287	15658.22
568.648	15721.95
569.01	15799.01
569.372	15862.73
569.734	15955.84
570.095	15982.28
570.457	16107.02
570.819	16111.09
571.18	16139.79
571.542	16344.08
571.903	16290.52
572.265	16503.85
572.626	16436.5
572.987	16438.31
573.349	16642.15
573.71	16678.53
574.071	16805.08
574.432	16832.88
574.794	17006.43
575.155	17061.8
575.516	17097.73
575.877	17163.04
576.238	17184.28
576.599	17414.56
576.96	17505.63
577.32	17572.29
577.681	17684.83
578.042	17788.33
578.403	18004.37
578.763	18013.41
579.124	18135.89
579.485	18322.1
579.845	18576.33
580.206	18569.78
580.566	18726.16
580.927	18878.25
581.287	19213.15
581.648	19091.35
582.008	19469.64
582.368	19538.57
582.728	19751.22
583.089	19852.23
583.449	20058.78
583.809	20329.73
584.169	20437.53
584.529	20605.21
584.889	20968.59
585.249	21039.77
585.609	21206.32
585.969	21644.95
586.329	21769.02
586.688	22063.25
587.048	22255.33
587.408	22451.49
587.768	22560.64
588.127	22849.22
588.487	23072.94
588.846	23428.64
589.206	23529.2
589.565	23745.01
589.925	24156.07
590.284	24312.23
590.643	24629.51
591.003	24979.1
591.362	25217.97
591.721	25467
592.08	25608.01
592.44	25995.35
592.799	26178.17
593.158	26581.32
593.517	26801.65
593.876	26962.78
594.235	27225.82
594.593	27504.01
594.952	27860.38
595.311	28026.93
595.67	28388.28
596.029	28798.44
596.387	28985.55
596.746	29334.24
597.104	29375.82
597.463	29743.95
597.822	29956.6
598.18	30181.68
598.538	30311.17
598.897	30822.79
599.255	30888.33
599.613	31432.49
599.972	31579.16
600.33	31930.56
600.688	32104.79
601.046	32221.4
601.404	32543.88
601.762	32732.8
602.12	33199.23
602.478	33431.08
602.836	33618.2
603.194	33588.14
603.552	33896.83
603.91	33999.88
604.268	34275.81
604.625	34481
604.983	34808.9
605.341	34684.38
605.698	35137.71
606.056	35362.33
606.413	35527.75
606.771	35862.88
607.128	36063.11
607.485	36036.67
607.843	36244.8
608.2	36538.35
608.557	36900.15
608.914	36865.57
609.272	37181.04
609.629	37212.91
609.986	37561.82
610.343	37652.44
610.7	38044.3
611.057	38200.45
611.414	38207.68
611.771	38439.54
612.127	38725.18
612.484	38897.83
612.841	38924.27
613.198	38979.41
613.554	39102.8
613.911	39451.94
614.267	39552.96
614.624	39546.4
614.98	39660.3
615.337	39960.63
615.693	39893.74
616.05	40034.53
616.406	40467.96
616.762	40515.87
617.118	40436.55
617.475	40521.52
617.831	40692.59
618.187	40918.35
618.543	41173.93
618.899	41250.54
619.255	41350.65
619.611	41476.75
619.967	41747.25
620.323	41755.84
620.678	41704.54
621.034	41726.23
621.39	41801.71
621.746	41773.69
622.101	42341.58
622.457	42165.09
622.812	42340.23
623.168	42304.98
623.523	42438.08
623.879	42471.75
624.234	42390.17
624.589	42603.05
624.945	42601.69
625.3	42616.61
625.655	42704.06
626.01	42778.18
626.365	42876.03
626.72	42819.09
627.075	42791.52
627.43	42828.35
627.785	42956.26
628.14	43146.76
628.495	43031.28
628.85	43047.33
629.205	42917.16
629.559	43373.42
629.914	43137.27
630.269	43253.65
630.623	43185.63
630.978	43074.22
631.332	43318.73
631.687	43417.71
632.041	43233.09
632.396	43433.08
632.75	43217.27
633.104	43264.05
633.459	43183.82
633.813	43380.88
634.167	43229.24
634.521	43139.53
634.875	43302.69
635.229	43306.3
635.583	43124.16
635.937	43216.59
636.291	43136.14
636.645	43183.82
636.999	43102.69
637.352	43355.8
637.706	43086.88
638.06	43259.75
638.413	43042.81
638.767	43113.32
639.121	43204.39
639.474	42929.82
639.828	42963.26
640.181	43169.59
640.534	43015.24
640.888	42984.05
641.241	42871.06
641.594	42953.55
641.947	43082.81
642.301	42881.23
642.654	43103.6
643.007	43052.75
643.36	43062.47
643.713	43044.16
644.066	43047.78
644.419	42765.98
644.771	42581.13
645.124	42185.2
645.477	42327.35
645.83	41957.64
646.182	41956.74
646.535	41727.14
646.888	41816.17
647.24	41495.5
647.593	41876.96
647.945	41828.6
648.298	41589.06
648.65	41551.1
649.002	41531.89
649.355	41603.75
649.707	41687.82
650.059	41723.52
650.411	42252.1
650.763	42320.12
651.115	42673.33
651.467	42509.49
651.819	42515.59
652.171	42475.82
652.523	42401.02
652.875	42409.15
653.227	42212.55
653.578	42540.22
653.93	42304.3
654.282	42281.02
654.633	42105.66
654.985	42345.43
655.337	42295.26
655.688	42205.77
656.039	42444.18
656.391	41926.23
656.742	42213
657.094	42245.09
657.445	42368.93
657.796	42140.01
658.147	42209.84
658.498	42210.06
658.849	42060.24
659.2	42189.95
659.551	42001.48
659.902	42161.25
660.253	42110.63
660.604	42037.19
660.955	41995.6
661.306	42182.04
661.656	42121.48
662.007	42129.84
662.358	42197.18
662.708	42083.96
663.059	42018.66
663.409	41906.57
663.76	42075.6
664.11	42037.19
664.461	42049.61
664.811	42202.61
665.161	42122.16
665.511	41921.48
665.862	41976.85
666.212	41954.02
666.562	41953.57
666.912	41858.89
667.262	41747.48
667.612	41868.6
667.962	41926
668.312	41742.73
668.662	42042.61
669.011	41848.94
669.361	41707.7
669.711	41744.09
670.06	41639.91
670.41	41708.83
670.76	41685.78
671.109	41763.07
671.459	41810.75
671.808	41757.64
672.157	41718.55
672.507	41588.61
672.856	41669.96
673.205	41666.57
673.554	41794.93
673.904	41586.35
674.253	41802.39
674.602	41633.35
674.951	41107.27
675.3	40856.43
675.649	41514.26
675.998	41450.53
676.346	41545.22
676.695	41652.56
677.044	41358.33
677.393	41420.7
677.741	41551.77
678.09	41486.69
678.438	41409.63
678.787	41496.18
679.135	41474.49
679.484	41094.16
679.832	41220.94
680.181	41086.7
680.529	41250.09
680.877	41053.93
681.225	40969.19
681.573	41227.49
681.922	40981.85
682.27	40761.29
682.618	40870.89
682.966	40987.95
683.314	40916.76
683.661	40729.2
684.009	40472.71
684.357	40579.82
684.705	40437
685.053	40453.95
685.4	40339.38
685.748	40243.11
686.095	40369.88
686.443	40104.81
686.79	40075.88
687.138	40043.79
687.485	40100.74
687.832	40002.21
688.18	39976.9
688.527	39945.94
688.874	39818.26
689.221	39732.39
689.568	39700.07
689.915	39581.88
690.262	39528.55
690.609	39385.5
690.956	39260.99
691.303	39329.46
691.65	39081.56
691.997	39036.59
692.344	38795.24
692.69	39017.6
693.037	38758.85
693.383	38436.6
693.73	38672.98
694.077	38452.42
694.423	38545.98
694.769	38278.64
695.116	38181.69
695.462	38162.26
695.808	38168.13
696.155	38168.81
696.501	37843.62
696.847	37854.92
697.193	37710.29
697.539	37858.99
697.885	37579.68
698.231	37372.68
698.577	37419.68
698.923	37335.84
699.269	37303.3
699.614	36939.47
699.96	37080.25
700.306	37016.3
700.651	36810.66
700.997	36739.25
701.342	36599.59
701.688	36663.09
702.033	36401.85
702.379	36530.89
702.724	36500.83
703.069	36429.42
703.415	36065.82
703.76	36025.14
704.105	36026.72
704.45	35987.4
704.795	35831.25
705.14	35755.09
705.485	35694.98
705.83	35681.87
706.175	35729.78
706.52	35463.8
706.865	35264.48
707.209	35301.09
707.554	35253.18
707.899	35240.3
708.243	34987.2
708.588	35036.24
708.932	34745.85
709.277	34812.52
709.621	34947.2
709.966	34779.75
710.31	34639.64
710.654	34352.64
710.998	34449.81
711.342	34430.61
711.687	34220.22
712.031	34174.34
712.375	34107.22
712.719	34279.42
713.063	34223.83
713.407	34299.54
713.75	34001.01
714.094	33947
714.438	33721.02
714.782	33868.81
715.125	33624.53
715.469	33747.69
715.812	33598.99
716.156	33313.57
716.499	33369.62
716.843	33481.93
717.186	33236.74
717.53	33385.89
717.873	33381.14
718.216	33204.88
718.559	33029.29
718.902	32880.36
719.246	32885.11
719.589	32935.5
719.932	32727.15
720.275	32842.63
720.617	32761.5
720.96	32665.68
721.303	32724.66
721.646	32658.45
721.989	32356.76
722.331	32448.29
722.674	32408.06
723.016	32510.88
723.359	32409.19
723.701	32449.87
724.044	32160.84
724.386	32057.11
724.729	32182.3
725.071	32081.97
725.413	31999.26
725.755	32084.45
726.097	31939.6
726.439	31602.88
726.782	31804.23
727.124	31775.76
727.465	31676.1
727.807	31713.16
728.149	31555.43
728.491	31521.08
728.833	31573.51
729.175	31370.57
729.516	31384.36
729.858	31357.24
730.199	31431.59
730.541	31180.75
730.882	31212.16
731.224	31397.47
731.565	31072.05
731.906	31209.22
732.248	31204.7
732.589	30986.18
732.93	30800.19
733.271	30708.67
733.612	30885.16
733.953	31020.3
734.294	30773.98
734.635	30784.6
734.976	30751.83
735.317	30677.48
735.658	30559.52
735.999	30586.41
736.339	30617.6
736.68	30559.75
737.021	30509.81
737.361	30282.01
737.702	30458.06
738.042	30340.77
738.383	30275.91
738.723	30398.17
739.063	30216.48
739.404	30231.39
739.744	30163.15
740.084	30141.23
740.424	30207.67
740.764	29922.25
741.104	30016.71
741.444	29881.35
741.784	29740.11
742.124	30013.1
742.464	29812.2
742.804	29759.54
743.143	29742.14
743.483	29734.01
743.823	29585.54
744.162	29632.54
744.502	29674.57
744.841	29543.5
745.181	29660.79
745.52	29459.66
745.86	29583.28
746.199	29473
746.538	29343.06
746.877	29345.99
747.216	29202.49
747.556	29155.26
747.895	29284.07
748.234	29054.25
748.573	29092.89
748.911	29072.33
749.25	29129.73
749.589	29004.08
749.928	28972.44
750.267	28934.93
750.605	28884.54
750.944	28817.42
751.283	28699.91
751.621	28888.6
751.96	28561.83
752.298	28666.92
752.636	28627.37
752.975	28481.38
753.313	28428.73
753.651	28493.59
753.989	28169.75
754.327	28262.41
754.666	28143.77
755.004	28180.37
755.342	28196.42
755.679	28053.15
756.017	28048.17
756.355	28043.88
756.693	27934.73
757.031	28004.56
757.368	27748.97
757.706	27741.74
758.044	27625.36
758.381	27721.4
758.719	27561.41
759.056	27538.81
759.394	27511.47
759.731	27372.49
760.068	27271.25
760.405	27169.1
760.743	27147.86
761.08	27185.82
761.417	27019.73
761.754	26904.7
762.091	26935.44
762.428	26871.03
762.765	26687.76
763.102	26734.54
763.438	26727.76
763.775	26533.41
764.112	26483.92
764.449	26485.5
764.785	26306.53
765.122	26186.53
765.458	26168
765.795	26036.93
766.131	25998.51
766.467	25892.07
766.804	25903.37
767.14	25718.29
767.476	25636.94
767.812	25666.99
768.148	25551.97
768.485	25483.72
768.821	25262.03
769.157	25181.81
769.492	25133.45
769.828	25043.51
770.164	24935.04
770.5	24917.64
770.836	24953.57
771.171	24632.9
771.507	24740.01
771.842	24523.3
772.178	24568.49
772.513	24336.63
772.849	24405.11
773.184	24168.73
773.519	24393.13
773.855	24100.48
774.19	23996.53
774.525	23976.87
774.86	23916.98
775.195	23769.87
775.53	23758.12
775.865	23662.3
776.2	23405.13
776.535	23340.05
776.87	23270.9
777.205	23241.75
777.539	23123.56
777.874	23111.58
778.209	23081.53
778.543	22945.71
778.878	22823.45
779.212	22771.48
779.547	22644.7
779.881	22732.83
780.215	22563.8
780.55	22555.66
780.884	22394.54
781.218	22363.8
781.552	22233.19
781.886	22161.32
782.22	22041.55
782.554	21970.82
782.888	21904.16
783.222	21654.44
783.556	21749.13
783.889	21602.24
784.223	21482.92
784.557	21534.67
784.89	21458.97
785.224	21293.78
785.557	21200.67
785.891	21198.41
786.224	21070.51
786.558	21100.11
786.891	20910.74
787.224	20786.22
787.557	20708.03
787.891	20616.51
788.224	20630.74
788.557	20639.78
788.89	20561.14
789.223	20489.05
789.556	20285.67
789.888	20306.68
790.221	20165.44
790.554	20040.93
790.887	20062.62
791.219	19958.44
791.552	19853.36
791.884	19910.76
792.217	19918.67
792.549	19775.62
792.882	19627.61
793.214	19526.14
793.546	19614.95
793.879	19457.44
794.211	19289.31
794.543	19425.12
794.875	19297.44
795.207	19378.12
795.539	19205.02
795.871	19205.92
796.203	19014.51
796.535	18989.66
796.867	18903.33
797.198	18764.8
797.53	18815.88
797.862	18745.14
798.193	18682.09
798.525	18596.22
798.856	18538.37
799.188	18476.45
799.519	18412.27
799.85	18244.14
800.182	18213.18
800.513	18332.5
800.844	18112.84
801.175	18221.77
801.506	18189
801.837	18073.3
802.168	18032.17
802.499	18002.56
802.83	17857.26
803.161	17792.4
803.491	17814.55
803.822	17826.3
804.153	17681.22
804.483	17500.88
804.814	17531.16
805.145	17489.36
805.475	17480.77
805.805	17424.27
806.136	17371.62
806.466	17433.76
806.796	17375.46
807.126	17171.17
807.457	17152.42
807.787	17150.16
808.117	17151.06
808.447	17031.97
808.777	17088.24
809.107	16987
809.436	16823.39
809.766	16898.86
810.096	16769.83
810.426	16700
810.755	16754.91
811.085	16692.77
811.414	16724.63
811.744	16499.55
812.073	16494.13
812.403	16500.23
812.732	16474.92
813.061	16335.71
813.39	16294.13
813.719	16289.39
814.049	16340.91
814.378	16235.83
814.707	16160.8
815.036	16010.75
815.365	16028.38
815.693	15965.55
816.022	15945.89
816.351	15984.76
816.68	15807.37
817.008	15814.37
817.337	15744.54
817.665	15632.23
817.994	15684.43
818.322	15744.54
818.651	15615.73
818.979	15548.62
819.307	15635.17
819.636	15579.58
819.964	15444.44
820.292	15495.06
820.62	15465.45
820.948	15492.35
821.276	15494.61
821.604	15415.74
821.932	15470.65
822.259	15528.96
822.587	15415.29
822.915	15345.68
823.243	15407.38
823.57	15374.38
823.898	15357.89
824.225	15330.77
824.553	15368.51
824.88	15361.73
825.207	15416.87
825.535	15311.33
825.862	15317.89
826.189	15304.78
826.516	15389.98
826.843	15382.75
827.17	15319.24
827.497	15413.48
827.824	15331.45
828.151	15381.84
828.478	15323.09
828.805	15464.1
829.131	15301.84
829.458	15309.98
829.785	15342.52
830.111	15308.85
830.438	15368.73
830.764	15273.6
831.09	15333.93
831.417	15258.68
831.743	15291.45
832.069	15333.71
832.395	15181.85
832.722	15285.35
833.048	15254.39
833.374	15310.43
833.7	15063.21
834.026	15189.08
834.351	15188.4
834.677	15075.41
835.003	15188.63
835.329	15172.81
835.654	15148.63
835.98	15025.92
836.306	15024.79
836.631	14954.28
836.956	15087.61
837.282	15033.15
837.607	15010.33
837.932	14914.28
838.258	14927.84
838.583	14939.14
838.908	14748.41
839.233	14852.36
839.558	14795.64
839.883	14709.99
840.208	14634.97
840.533	14728.07
840.858	14705.02
841.182	14757.9
841.507	14671.8
841.832	14613.95
842.156	14473.39
842.481	14555.42
842.805	14564.24
843.13	14432.71
843.454	14426.16
843.778	14421.87
844.103	14367.4
844.427	14363.79
844.751	14337.8
845.075	14263.45
845.399	14303.45
845.723	14176.68
846.047	14178.26
846.371	14171.03
846.695	14042.89
847.019	13990.24
847.343	13921.99
847.666	13808.32
847.99	13856.01
848.313	13784.6
848.637	13665.95
848.96	13664.15
849.284	13635.22
849.607	13528.56
849.931	13546.86
850.254	13432.06
850.577	13373.76
850.9	13270.26
851.223	13326.08
851.546	13167.66
851.869	13048.8
852.192	13244.04
852.515	13031.85
852.838	13042.69
853.161	12992.98
853.483	12905.07
853.806	12805.19
854.129	12843.6
854.451	12769.48
854.774	12686.77
855.096	12766.32
855.419	12716.6
855.741	12609.03
856.063	12533.78
856.385	12574.01
856.708	12458.08
857.03	12376.5
857.352	12464.63
857.674	12449.72
857.996	12243.84
858.318	12300.57
858.64	12323.39
858.961	12226.67
859.283	12170.85
859.605	12150.97
859.926	12169.04
860.248	12055.6
860.57	12143.73
860.891	12059.22
861.212	12026.22
861.534	11994.81
861.855	11868.26
862.176	11976.73
862.498	11970.41
862.819	11842.95
863.14	11866.68
863.461	11764.08
863.782	11775.61
864.103	11838.88
864.424	11771.99
864.745	11723.86
865.065	11689.51
865.386	11634.6
865.707	11629.4
866.027	11652.67
866.348	11691.99
866.668	11664.2
866.989	11581.04
867.309	11467.37
867.63	11484.54
867.95	11490.42
868.27	11396.86
868.59	11490.19
868.91	11432.34
869.23	11380.36
869.55	11364.32
869.87	11378.33
870.19	11442.28
870.51	11442.74
870.83	11383.75
871.15	11295.85
871.469	11270.54
871.789	11367.26
872.109	11270.99
872.428	11228.28
872.748	11241.39
873.067	11188.73
873.386	11195.74
873.706	11210.2
874.025	11091.56
874.344	11103.08
874.663	11116.42
874.982	11072.58
875.301	11061.05
875.62	11050.43
875.939	11064.44
876.258	11045.91
876.577	11067.15
876.896	11022.86
877.214	10972.92
877.533	10969.08
877.852	10933.6
878.17	10897.89
878.489	10874.39
878.807	10998.91
879.125	10868.97
879.444	10879.13
879.762	10813.15
880.08	10778.12
880.398	10848.18
880.716	10836.88
881.034	10785.8
881.352	10792.58
881.67	10678.91
881.988	10746.48
882.306	10642.08
882.624	10523.66
882.941	10562.98
883.259	10560.95
883.577	10488.86
883.894	10541.74
884.212	10478.24
884.529	10519.14
884.846	10431.69
885.164	10435.98
885.481	10394.18
885.798	10397.34
886.115	10317.12
886.432	10300.62
886.75	10316.66
887.067	10298.59
887.383	10241.41
887.7	10231.92
888.017	10223.56
888.334	10257
888.651	10089.1
888.967	10131.81
889.284	10056.78
889.6	10164.13
889.917	9957.35
890.233	9960.74
890.55	9932.49
890.866	10011.59
891.182	9943.34
891.498	9874.19
891.815	9859.05
892.131	9840.07
892.447	9815.21
892.763	9776.11
893.079	9794.19
893.395	9777.02
893.71	9721.65
894.026	9657.7
894.342	9636.91
894.657	9590.13
894.973	9563.24
895.289	9578.83
895.604	9531.15
895.92	9481.43
896.235	9471.94
896.55	9494.54
896.865	9387.42
897.181	9434.65
897.496	9387.65
897.811	9330.93
898.126	9257.48
898.441	9246.41
898.756	9185.17
899.071	9224.94
899.386	9171.61
899.7	9148.11
900.015	9089.8
900.33	9038.73
900.644	9011.61
900.959	9019.52
901.273	8945.85
901.588	8884.84
901.902	8873.99
902.216	8855.23
902.531	8829.92
902.845	8857.27
903.159	8758.96
903.473	8750.15
903.787	8717.61
904.101	8583.6
904.415	8628.35
904.729	8638.52
905.042	8600.1
905.356	8541.57
905.67	8496.82
905.984	8497.5
906.297	8442.14
906.611	8414.79
906.924	8409.37
907.237	8390.39
907.551	8333.89
907.864	8253.67
908.177	8320.56
908.491	8234.23
908.804	8215.48
909.117	8166.89
909.43	8126.21
909.743	8107.91
910.056	8091.19
910.368	7982.49
910.681	8031.98
910.994	8002.6
911.307	7943.17
911.619	7905.88
911.932	7865.88
912.244	7862.04
912.557	7859.55
912.869	7819.55
913.181	7751.31
913.494	7749.27
913.806	7659.56
914.118	7652.1
914.43	7641.03
914.742	7568.49
915.054	7550.41
915.366	7484.42
915.678	7472.67
915.99	7443.52
916.302	7398.77
916.613	7336.86
916.925	7324.88
917.236	7370.3
917.548	7299.79
917.859	7274.03
918.171	7209.4
918.482	7189.51
918.794	7194.71
919.105	7176.63
919.416	7099.8
919.727	7098.44
920.038	7055.28
920.349	7050.31
920.66	7003.76
920.971	6933.93
921.282	6956.98
921.593	6907.26
921.903	6905.23
922.214	6849.86
922.525	6818.9
922.835	6800.15
923.146	6741.84
923.456	6727.83
923.767	6734.61
924.077	6704.56
924.387	6612.81
924.697	6588.63
925.008	6611.45
925.318	6571.68
925.628	6519.48
925.938	6505.01
926.248	6448.97
926.558	6470.44
926.867	6443.09
927.177	6387.5
927.487	6392.93
927.796	6319.25
928.106	6282.19
928.416	6277.67
928.725	6264.57
929.034	6218.24
929.344	6250.1
929.653	6240.16
929.962	6097.57
930.271	6129.88
930.581	6137.34
930.89	6049.88
931.199	6043.1
931.508	6026.61
931.817	6022.99
932.125	6020.73
932.434	5931.24
932.743	5903.45
933.051	5846.05
933.36	5893.96
933.669	5843.56
933.977	5780.74
934.286	5851.02
934.594	5794.75
934.902	5718.37
935.21	5652.83
935.519	5707.97
935.827	5676.11
936.135	5607.64
936.443	5632.95
936.751	5611.7
937.059	5578.71
937.367	5580.29
937.674	5518.82
937.982	5535.77
938.29	5443.12
938.597	5502.1
938.905	5409.9
939.213	5396.12
939.52	5379.62
939.827	5383.69
940.135	5294.65
940.442	5319.51
940.749	5283.8
941.056	5275.89
941.363	5259.62
941.67	5232.5
941.977	5193.41
942.284	5170.13
942.591	5113.86
942.898	5142.11
943.205	5126.29
943.511	5100.3
943.818	5090.59
944.125	5053.75
944.431	5012.17
944.738	5000.19
945.044	5048.33
945.35	4980.76
945.657	4927.2
945.963	4945.05
946.269	4891.27
946.575	4871.38
946.881	4822.34
947.187	4870.48
947.493	4821.22
947.799	4833.19
948.105	4755.91
948.41	4728.79
948.716	4765.4
949.022	4680.65
949.327	4679.98
949.633	4696.7
949.938	4693.31
950.244	4626.42
950.549	4602.46
950.854	4591.84
951.16	4566.76
951.465	4567.66
951.77	4490.38
952.075	4555.69
952.38	4527.66
952.685	4480.21
952.99	4459.19
953.294	4419.64
953.599	4402.92
953.904	4351.62
954.209	4360.66
954.513	4346.2
954.818	4349.59
955.122	4317.95
955.426	4282.92
955.731	4298.06
956.035	4273.43
956.339	4230.04
956.643	4204.28
956.948	4188.69
957.252	4157.96
957.556	4174.68
957.86	4144.17
958.163	4142.81
958.467	4150.27
958.771	4083.83
959.075	4049.94
959.378	4058.07
959.682	4087
959.985	3987.34
960.289	3999.09
960.592	3997.28
960.896	3981.69
961.199	3929.26
961.502	3979.88
961.805	3903.5
962.108	3847.68
962.411	3905.98
962.714	3847
963.017	3867.57
963.32	3822.6
963.623	3835.25
963.926	3806.78
964.228	3800.9
964.531	3775.14
964.833	3776.5
965.136	3729.27
965.438	3743.05
965.741	3699.21
966.043	3685.43
966.345	3692.66
966.648	3659.89
966.95	3648.59
967.252	3642.26
967.554	3631.42
967.856	3606.11
968.158	3538.76
968.46	3548.03
968.761	3545.09
969.063	3503.51
969.365	3516.84
969.666	3497.41
969.968	3471.42
970.269	3471.65
970.571	3445.21
970.872	3457.64
971.174	3393.46
971.475	3424.19
971.776	3393.23
972.077	3365.43
972.378	3410.18
972.679	3331.99
972.98	3364.3
973.281	3324.31
973.582	3315.04
973.883	3271.2
974.183	3297.19
974.484	3262.39
974.785	3278.2
975.085	3216.96
975.386	3250.63
975.686	3178.32
975.986	3227.58
976.287	3156.4
976.587	3162.95
976.887	3186.91
977.187	3135.61
977.487	3115.27
977.787	3136.29
978.087	3062.39
978.387	3100.36
978.687	3054.03
978.987	3065.33
979.286	3037.99
979.586	3041.15
979.885	3017.87
980.185	2973.35
980.484	3003.86
980.784	2994.37
981.083	2962.96
981.382	2945.33
981.682	2947.59
981.981	2924.77
982.28	2894.03
982.579	2889.29
982.878	2909.63
983.177	2856.97
983.475	2855.62
983.774	2836.63
984.073	2801.61
984.372	2818.56
984.67	2795.96
984.969	2837.09
985.267	2792.34
985.566	2747.37
985.864	2772
986.162	2752.79
986.461	2772.91
986.759	2699.69
987.057	2702.63
987.355	2672.57
987.653	2703.76
987.951	2677.32
988.249	2639.35
988.547	2671.44
988.844	2615.85
989.142	2627.83
989.44	2621.72
989.737	2601.61
990.035	2591.44
990.332	2595.96
990.63	2568.84
990.927	2564.55
991.224	2546.92
991.521	2538.56
991.819	2520.71
992.116	2534.5
992.413	2512.58
992.71	2460.37
993.006	2457.21
993.303	2454.27
993.6	2460.15
993.897	2445.23
994.193	2451.11
994.49	2416.76
994.787	2412.01
995.083	2399.36
995.379	2405.91
995.676	2346.48
995.972	2363.88
996.268	2353.26
996.565	2366.36
996.861	2312.81
997.157	2307.61
997.453	2292.24
997.749	2267.84
998.044	2274.84
998.34	2288.4
998.636	2260.6
998.932	2240.27
999.227	2180.61
999.523	2231.9
999.818	2213.37
1000.114	2202.3
1000.409	2158.91
1000.704	2179.02
1001	2154.17
1001.295	2113.72
1001.59	2151.68
1001.885	2120.72
1002.18	2099.93
1002.475	2108.29
1002.77	2095.19
1003.065	2089.99
1003.359	2093.15
1003.654	2054.28
1003.949	2046.6
1004.243	2011.12
1004.538	2027.39
1004.832	2013.38
1005.127	1967.5
1005.421	1986.71
1005.715	1988.52
1006.009	1931.12
1006.304	1938.8
1006.598	1947.17
1006.892	1959.14
1007.186	1970.67
1007.48	1927.96
1007.773	1944.45
1008.067	1890.9
1008.361	1886.6
1008.655	1894.96
1008.948	1845.47
1009.242	1863.78
1009.535	1843.21
1009.829	1826.72
1010.122	1819.94
1010.415	1815.19
1010.708	1771.13
1011.001	1833.05
1011.295	1763.89
1011.588	1767.06
1011.881	1756.44
1012.173	1735.65
1012.466	1764.8
1012.759	1733.39
1013.052	1756.66
1013.344	1720.73
1013.637	1708.75
1013.93	1691.58
1014.222	1696.1
1014.514	1682.54
1014.807	1676.21
1015.099	1635.54
1015.391	1652.26
1015.683	1629.66
1015.976	1631.92
1016.268	1624.24
1016.56	1585.14
1016.851	1591.47
1017.143	1590.11
1017.435	1605.48
1017.727	1564.13
1018.018	1576.55
1018.31	1541.53
1018.602	1540.17
1018.893	1545.37
1019.185	1535.88
1019.476	1502.66
1019.767	1486.84
1020.058	1502.66
1020.35	1470.79
1020.641	1466.5
1020.932	1468.99
1021.223	1435.99
1021.514	1447.29
1021.804	1410.23
1022.095	1422.89
1022.386	1396.67
1022.677	1420.63
1022.967	1410.46
1023.258	1387.41
1023.548	1417.69
1023.839	1379.95
1024.129	1338.14
1024.419	1365.03
1024.709	1350.8
1025	1351.48
1025.29	1307.64
1025.58	1314.19
1025.87	1301.76
1026.16	1335.88
1026.449	1272.61
1026.739	1282.55
1027.029	1285.49
1027.319	1287.97
1027.608	1260.63
1027.898	1243.23
1028.187	1236.22
1028.477	1234.42
1028.766	1223.57
1029.055	1210.46
1029.344	1217.02
1029.634	1231.03
1029.923	1185.83
1030.212	1212.04
1030.501	1172.5
1030.79	1193.97
1031.078	1167.3
1031.367	1169.56
1031.656	1143.57
1031.945	1133.18
1032.233	1148.54
1032.522	1133.4
1032.81	1139.05
1033.099	1118.94
1033.387	1108.09
1033.675	1093.4
1033.963	1106.28
1034.251	1077.81
1034.54	1091.82
1034.828	1070.35
1035.116	1062.9
1035.403	1066.29
1035.691	1045.72
1035.979	1074.65
1036.267	1028.09
1036.554	1012.5
1036.842	1030.35
1037.129	1026.06
1037.417	1021.09
1037.704	1010.02
1037.992	981.54
1038.279	1009.56
1038.566	976.12
1038.853	976.12
1039.14	976.12
