Data from hue_38_FLMS001491_00063.txt Node
Date: Tue Feb 07 17:31:49 GMT 2017
User: dcchb
Spectrometer: FLMS00149
Trigger mode: 0
Integration Time (sec): 2.000000E-2
Scans to average: 10
Electric dark correction enabled: true
Nonlinearity correction enabled: false
Boxcar width: 0
XAxis mode: Wavelengths
Number of Pixels in Spectrum: 2048
>>>>>Begin Spectral Data<<<<<
341.393	-9.94
341.776	-9.94
342.16	-9.94
342.543	-52.2
342.927	-51.3
343.31	-58.76
343.693	-66.66
344.077	-84.52
344.46	-57.17
344.843	-51.98
345.226	-51.07
345.61	-14.01
345.993	-14.91
346.376	2.26
346.759	21.69
347.142	18.53
347.525	49.49
347.908	40.9
348.291	74.8
348.674	81.35
349.057	110.05
349.44	134.23
349.823	140.56
350.206	175.59
350.588	196.38
350.971	224.4
351.354	227.11
351.737	235.93
352.119	264.4
352.502	279.54
352.884	296.26
353.267	293.1
353.65	311.4
354.032	287.68
354.414	314.12
354.797	323.61
355.179	330.39
355.562	325.42
355.944	337.39
356.326	350.95
356.709	349.6
357.091	347.34
357.473	352.99
357.855	352.31
358.238	335.81
358.62	349.82
359.002	345.53
359.384	350.5
359.766	343.04
360.148	357.28
360.53	373.55
360.912	336.26
361.294	365.41
361.676	348.24
362.057	346.43
362.439	335.36
362.821	350.5
363.203	333.1
363.584	344.62
363.966	329.48
364.348	333.32
364.729	330.61
365.111	341.01
365.493	320.9
365.874	316.15
366.256	323.61
366.637	355.02
367.019	340.33
367.4	320.9
367.781	335.58
368.163	334
368.544	295.13
368.925	335.81
369.306	308.24
369.688	308.69
370.069	315.47
370.45	312.99
370.831	314.34
371.212	319.99
371.593	337.84
371.974	313.44
372.355	323.38
372.736	314.34
373.117	339.43
373.498	313.44
373.879	325.64
374.26	319.09
374.641	311.63
375.021	320.22
375.402	317.96
375.783	329.48
376.163	329.93
376.544	342.59
376.925	343.95
377.305	339.2
377.686	342.14
378.066	339.88
378.447	334
378.827	350.05
379.208	356.83
379.588	346.66
379.968	346.66
380.349	344.85
380.729	339.65
381.109	360.67
381.489	367.67
381.87	352.53
382.25	347.56
382.63	369.71
383.01	356.6
383.39	349.82
383.77	344.62
384.15	367.67
384.53	366.32
384.91	369.93
385.29	356.6
385.67	341.91
386.049	376.49
386.429	371.97
386.809	376.26
387.189	369.48
387.568	363.15
387.948	388.69
388.328	367.22
388.707	362.25
389.087	377.17
389.466	388.69
389.846	389.82
390.225	362.7
390.605	354.34
390.984	422.81
391.363	394.11
391.743	381.46
392.122	394.79
392.501	388.92
392.881	379.88
393.26	389.14
393.639	391.18
394.018	390.5
394.397	403.83
394.776	408.12
395.155	385.98
395.534	420.1
395.913	402.93
396.292	425.07
396.671	395.92
397.05	418.07
397.429	417.84
397.808	393.89
398.186	411.74
398.565	405.87
398.944	409.93
399.323	393.66
399.701	413.77
400.08	397.28
400.458	448.8
400.837	410.16
401.215	442.7
401.594	431.4
401.972	428.92
402.351	430.05
402.729	439.99
403.107	427.79
403.486	443.83
403.864	423.49
404.242	444.06
404.62	454
404.999	445.41
405.377	458.52
405.755	445.19
406.133	441.8
406.511	445.64
406.889	436.37
407.267	470.27
407.645	459.65
408.023	475.69
408.401	463.72
408.779	460.55
409.156	478.63
409.534	473.89
409.912	465.75
410.29	482.47
410.667	479.54
411.045	472.3
411.422	472.53
411.8	473.89
412.178	495.58
412.555	490.83
412.933	510.5
413.31	495.58
413.687	524.73
414.065	494.68
414.442	512.08
414.819	517.73
415.197	515.01
415.574	502.59
415.951	522.02
416.328	526.54
416.705	515.01
417.082	504.39
417.46	505.52
417.837	533.09
418.214	543.49
418.591	526.31
418.967	562.47
419.344	546.2
419.721	581.68
420.098	543.94
420.475	548.46
420.852	576.48
421.228	580.78
421.605	559.53
421.982	569.93
422.358	587.56
422.735	566.99
423.111	580.1
423.488	575.8
423.864	594.33
424.241	588.69
424.617	599.53
424.994	594.11
425.37	577.16
425.746	596.37
426.123	615.58
426.499	625.75
426.875	631.4
427.251	620.1
427.627	636.82
428.003	661.9
428.379	638.18
428.756	649.93
429.132	637.95
429.507	663.26
429.883	657.38
430.259	676.37
430.635	684.28
431.011	656.03
431.387	692.64
431.763	686.08
432.138	682.24
432.514	693.77
432.89	684.95
433.265	722.01
433.641	730.6
434.016	729.92
434.392	753.65
434.767	722.92
435.143	732.86
435.518	737.16
435.894	750.04
436.269	766.76
436.644	758.4
437.02	753.88
437.395	747.1
437.77	783.93
438.145	758.62
438.52	793.2
438.895	783.03
439.271	806.31
439.646	808.57
440.021	817.15
440.395	821.67
440.77	802.46
441.145	802.01
441.52	823.03
441.895	842.69
442.27	844.05
442.645	847.44
443.019	860.54
443.394	825.06
443.769	852.63
444.143	860.99
444.518	858.28
444.892	889.47
445.267	882.91
445.641	868.45
446.016	875.23
446.39	891.95
446.764	908.9
447.139	913.87
447.513	900.54
447.887	908
448.262	879.3
448.636	929.69
449.01	910.03
449.384	938.05
449.758	912.52
450.132	948.68
450.506	950.94
450.88	954.1
451.254	966.53
451.628	970.82
452.002	981.9
452.376	1010.59
452.75	1011.72
453.123	1029.8
453.497	1028.45
453.871	995
454.244	1027.54
454.618	1037.71
454.992	1051.05
455.365	1052.85
455.739	1073.42
456.112	1092.85
456.486	1085.85
456.859	1108.9
457.232	1128.78
457.606	1134.43
457.979	1148.9
458.352	1156.35
458.725	1181.66
459.099	1183.7
459.472	1213.75
459.845	1191.38
460.218	1244.94
460.591	1220.53
460.964	1242.68
461.337	1264.6
461.71	1267.09
462.083	1303.47
462.456	1304.37
462.829	1300.08
463.201	1298.04
463.574	1333.3
463.947	1351.38
464.32	1387.76
464.692	1400.64
465.065	1389.12
465.438	1415.78
465.81	1416.69
466.183	1439.28
466.555	1477.93
466.928	1475.89
467.3	1505.05
467.672	1555.21
468.045	1529.23
468.417	1576.23
468.789	1606.29
469.161	1592.5
469.534	1631.82
469.906	1679.05
470.278	1688.77
470.65	1710.69
471.022	1733.74
471.394	1778.94
471.766	1772.61
472.138	1828.88
472.51	1865.49
472.882	1890.57
473.253	1924.24
473.625	1941.64
473.997	2019.16
474.369	2038.82
474.74	2067.97
475.112	2124.24
475.484	2161.07
475.855	2196.1
476.227	2261.64
476.598	2328.3
476.97	2334.85
477.341	2396.77
477.713	2440.61
478.084	2501.63
478.455	2561.29
478.827	2593.6
479.198	2728.06
479.569	2754.05
479.94	2816.65
480.311	2873.82
480.682	2906.82
481.053	3024.1
481.424	3149.75
481.795	3217.32
482.166	3225.9
482.537	3288.28
482.908	3398.1
483.279	3474.94
483.65	3550.42
484.021	3654.37
484.391	3729.17
484.762	3737.75
485.133	3864.31
485.503	3946.56
485.874	4036.73
486.244	4092.55
486.615	4232.21
486.985	4360.79
487.356	4401.24
487.726	4514.91
488.097	4666.77
488.467	4734.56
488.837	4855.47
489.207	4937.27
489.578	5068.57
489.948	5168.23
490.318	5267.43
490.688	5387.2
491.058	5450.25
491.428	5582.23
491.798	5703.8
492.168	5781.99
492.538	5878.04
492.908	5989.22
493.278	6145.6
493.648	6178.37
494.017	6339.49
494.387	6428.31
494.757	6522.31
495.126	6599.6
495.496	6652.93
495.866	6757.11
496.235	6882.98
496.605	6955.52
496.974	7078.91
497.344	7189.64
497.713	7236.42
498.082	7375.17
498.452	7459.92
498.821	7558.22
499.19	7580.37
499.559	7653.36
499.928	7793.92
500.298	7910.3
500.667	7976.06
501.036	8017.64
501.405	8095.83
501.774	8173.12
502.143	8282.27
502.512	8366.56
502.88	8521.81
503.249	8527.46
503.618	8613.11
503.987	8634.12
504.356	8809.71
504.724	8853.33
505.093	8883.83
505.462	8954.11
505.83	9058.97
506.199	9164.73
506.567	9289.25
506.936	9288.34
507.304	9434.78
507.672	9481.33
508.041	9519.07
508.409	9685.62
508.777	9748.9
509.145	9783.7
509.514	9842.23
509.882	9924.71
510.25	9941.21
510.618	10075.67
510.986	10056.91
511.354	10071.37
511.722	10301.42
512.09	10406.73
512.458	10378.71
512.826	10544.13
513.193	10605.6
513.561	10589.78
513.929	10650.57
514.297	10814.4
514.664	10874.06
515.032	10927.85
515.4	11026.38
515.767	11079.48
516.135	11186.82
516.502	11079.93
516.869	11293.26
517.237	11289.42
517.604	11285.35
517.972	11462.75
518.339	11506.82
518.706	11510.43
519.073	11620.71
519.44	11723.99
519.808	11816.86
520.175	11764.66
520.542	11868.61
520.909	11972.57
521.276	11946.35
521.643	12147.03
522.009	12205.55
522.376	12362.16
522.743	12434.93
523.11	12471.76
523.477	12629.72
523.843	12680.12
524.21	12774.35
524.577	12828.36
524.943	12897.29
525.31	12999.88
525.676	13131.63
526.043	13144.51
526.409	13148.58
526.776	13349.25
527.142	13363.04
527.508	13434
527.874	13566.65
528.241	13680.32
528.607	13627.66
528.973	13749.47
529.339	13820.2
529.705	14007.77
530.071	14037.82
530.437	14152.4
530.803	14231.94
531.169	14217.03
531.535	14185.39
531.901	14341.09
532.267	14329.34
532.632	14536.79
532.998	14619.05
533.364	14711.03
533.73	14662.21
534.095	14851.59
534.461	14885.48
534.826	14954.41
535.192	14981.98
535.557	15080.96
535.923	15162.54
536.288	15136.78
536.653	15215.19
537.019	15141.52
537.384	15297.9
537.749	15422.42
538.114	15413.83
538.479	15380.39
538.845	15595.07
539.21	15499.03
539.575	15630.78
539.94	15686.59
540.305	15790.55
540.67	15720.94
541.034	15877.1
541.399	15976.76
541.764	15938.34
542.129	16065.34
542.494	16089.52
542.858	16285.45
543.223	16198.67
543.587	16381.72
543.952	16411.09
544.316	16460.36
544.681	16412.22
545.045	16522.73
545.41	16566.57
545.774	16660.58
546.138	16719.79
546.503	16816.06
546.867	16749.84
547.231	16915.94
547.595	16979.44
547.959	17047.46
548.324	17080.68
548.688	17105.31
549.052	17287.91
549.416	17197.74
549.779	17273.67
550.143	17342.14
550.507	17435.25
550.871	17491.97
551.235	17490.16
551.599	17596.6
551.962	17637.05
552.326	17703.04
552.689	17761.11
553.053	17775.8
553.417	17819.64
553.78	18118.62
554.143	17976.93
554.507	18126.53
554.87	18100.99
555.234	18257.15
555.597	18176.47
555.96	18261.44
556.323	18370.36
556.686	18424.15
557.05	18536.91
557.413	18576.69
557.776	18646.52
558.139	18744.82
558.502	18746.85
558.865	18716.8
559.228	18990.01
559.59	19005.15
559.953	18987.98
560.316	19206.73
560.679	19295.76
561.041	19353.62
561.404	19313.84
561.767	19486.95
562.129	19438.13
562.492	19654.17
562.854	19572.82
563.217	19655.98
563.579	19659.37
563.941	19730.1
564.304	19813.49
564.666	20032.02
565.028	20070.66
565.39	20084.67
565.753	20252.12
566.115	20220.49
566.477	20346.36
566.839	20255.96
567.201	20488.73
567.563	20540.7
567.925	20625.45
568.287	20694.37
568.648	20788.61
569.01	20764.65
569.372	21048.94
569.734	20990.63
570.095	21100.91
570.457	21237.41
570.819	21281.7
571.18	21357.18
571.542	21464.97
571.903	21503.62
572.265	21598.3
572.626	21700.9
572.987	21708.58
573.349	21889.14
573.71	22010.72
574.071	21968.91
574.432	22174.78
574.794	22235.57
575.155	22398.28
575.516	22352.41
575.877	22532.51
576.238	22608.22
576.599	22789.23
576.96	22759.18
577.32	22857.93
577.681	22996.46
578.042	23203.46
578.403	23349.44
578.763	23471.93
579.124	23622.88
579.485	23748.3
579.845	23949.65
580.206	23975.64
580.566	24166.6
580.927	24262.64
581.287	24465.57
581.648	24591.22
582.008	24772.68
582.368	24941.27
582.728	25200.47
583.089	25308.26
583.449	25412.67
583.809	25624.64
584.169	25749.61
584.529	26011.75
584.889	26310.95
585.249	26446.99
585.609	26365.18
585.969	26788.9
586.329	26915.22
586.688	27216.46
587.048	27352.5
587.408	27449
587.768	27731.25
588.127	27853.05
588.487	28083.56
588.846	28482.64
589.206	28451.23
589.565	28675.18
589.925	29076.98
590.284	29069.74
590.643	29361.94
591.003	29566.23
591.362	29859.1
591.721	30029.72
592.08	30180.68
592.44	30356.94
592.799	30698.63
593.158	30866.53
593.517	30998.51
593.876	31330.93
594.235	31231.27
594.593	31638.72
594.952	31844.13
595.311	31990.57
595.67	32254.52
596.029	32625.81
596.387	32771.57
596.746	33007.72
597.104	33175.85
597.463	33194.61
597.822	33636.63
598.18	33644.54
598.538	33735.38
598.897	34231.64
599.255	34067.13
599.613	34715.7
599.972	34600.45
600.33	34986.42
600.688	35118.17
601.046	35294.67
601.404	35493.53
601.762	35660.08
602.12	35951.15
602.478	35980.75
602.836	36125.38
603.194	36230.91
603.552	36463.45
603.91	36516.78
604.268	36789.09
604.625	36764.46
604.983	37128.52
605.341	37020.5
605.698	37192.47
606.056	37542.97
606.413	37580.71
606.771	37940.47
607.128	38012.56
607.485	38049.17
607.843	38093.91
608.2	38488.48
608.557	38633.33
608.914	38511.08
609.272	38957.62
609.629	39012.76
609.986	39256.14
610.343	39132.53
610.7	39529.13
611.057	39646.87
611.414	39575.46
611.771	39844.83
612.127	39943.81
612.484	40104.26
612.841	40297.92
613.198	40281.43
613.554	40323.91
613.911	40642.1
614.267	40724.58
614.624	40609.55
614.98	40935.42
615.337	41083.89
615.693	41154.85
616.05	41052.93
616.406	41374.51
616.762	41380.15
617.118	41409.53
617.475	41666.93
617.831	41644.33
618.187	41936.07
618.543	41832.8
618.899	42124.32
619.255	42071.21
619.611	42052.91
619.967	42166.57
620.323	42428.26
620.678	42219.68
621.034	42336.97
621.39	42414.7
621.746	42263.97
622.101	42889.49
622.457	42522.27
622.812	42724.3
623.168	42820.57
623.523	42864.18
623.879	43126.1
624.234	42868.03
624.589	42996.16
624.945	43056.95
625.3	43226.89
625.655	43259.65
626.01	43216.04
626.365	43360.67
626.72	43188.02
627.075	43214.68
627.43	43195.7
627.785	43192.31
628.14	43336.71
628.495	43462.81
628.85	43362.93
629.205	43419.42
629.559	43606.54
629.914	43441.34
630.269	43441.12
630.623	43405.19
630.978	43313.44
631.332	43506.43
631.687	43639.08
632.041	43541.91
632.396	43639.98
632.75	43406.32
633.104	43435.69
633.459	43375.13
633.813	43286.55
634.167	43324.06
634.521	43345.07
634.875	43414.45
635.229	43365.64
635.583	43385.75
635.937	43289.26
636.291	43283.38
636.645	43398.86
636.999	43270.73
637.352	43414.9
637.706	43124.97
638.06	43328.13
638.413	43124.97
638.767	43188.92
639.121	43290.84
639.474	42969.49
639.828	43021.47
640.181	43206.77
640.534	43018.53
640.888	42985.08
641.241	42938.53
641.594	43015.37
641.947	43166.77
642.301	42922.94
642.654	43010.85
643.007	43095.82
643.36	43050.17
643.713	42873.45
644.066	43083.61
644.419	42735.15
644.771	42539.45
645.124	42177.42
645.477	42047.71
645.83	41990.31
646.182	41750.54
646.535	41787.15
646.888	41905.11
647.24	41592.13
647.593	41751.44
647.945	41761.61
648.298	41532.69
648.65	41456.31
649.002	41454.5
649.355	41607.04
649.707	41633.26
650.059	41687.27
650.411	42177.42
650.763	42245.67
651.115	42657.18
651.467	42532.22
651.819	42460.8
652.171	42405.21
652.523	42423.74
652.875	42271.88
653.227	42139.91
653.578	42351.43
653.93	42357.08
654.282	42066.46
654.633	42069.18
654.985	42187.59
655.337	42132.23
655.688	42162.28
656.039	42360.69
656.391	41955.51
656.742	42050.65
657.094	42145.11
657.445	42235.5
657.796	42241.15
658.147	42092
658.498	42087.03
658.849	42078.44
659.2	42010.19
659.551	41865.11
659.902	42121.15
660.253	42117.31
660.604	42112.79
660.955	41790.99
661.306	42014.26
661.656	41964.77
662.007	41990.99
662.358	41995.51
662.708	41937.88
663.059	41932.23
663.409	41733.14
663.76	42024.66
664.11	41940.14
664.461	41895.85
664.811	41904.43
665.161	41986.47
665.511	41733.82
665.862	41872.57
666.212	41966.13
666.562	41859.69
666.912	41829.41
667.262	41692.01
667.612	41780.82
667.962	41739.47
668.312	41753.03
668.662	41920.03
669.011	41897.66
669.361	41838.67
669.711	41563.43
670.06	41694.95
670.41	41629.41
670.76	41602.52
671.109	41762.29
671.459	41684.33
671.808	41571.11
672.157	41791.9
672.507	41404.11
672.856	41472.58
673.205	41641.16
673.554	41629.41
673.904	41466.93
674.253	41726.13
674.602	41578.79
674.951	41089.32
675.3	40908.98
675.649	41428.06
675.998	41380.15
676.346	41488.17
676.695	41483.65
677.044	41105.59
677.393	41296.99
677.741	41464.45
678.09	41237.79
678.438	41204.11
678.787	41293.83
679.135	41322.53
679.484	40941.07
679.832	41167.51
680.181	40909.21
680.529	41017.23
680.877	40968.64
681.225	40840.73
681.573	41137.22
681.922	40901.52
682.27	40777.23
682.618	40811.36
682.966	40821.07
683.314	40747.63
683.661	40580.4
684.009	40453.4
684.357	40317.13
684.705	40305.61
685.053	40335.21
685.4	40275.78
685.748	40098.15
686.095	40077.36
686.443	39967.54
686.79	40038.04
687.138	39974.09
687.485	40024.48
687.832	39799.41
688.18	39902.91
688.527	39670.82
688.874	39567.1
689.221	39571.16
689.568	39476.25
689.915	39435.57
690.262	39420.88
690.609	39226.09
690.956	39285.97
691.303	39094.11
691.65	38850.28
691.997	39027.9
692.344	38791.75
692.69	38750.39
693.037	38586.33
693.383	38385.43
693.73	38558.31
694.077	38366
694.423	38428.82
694.769	38158.32
695.116	38173.91
695.462	38065.89
695.808	38085.55
696.155	38185.89
696.501	37611.21
696.847	37774.37
697.193	37520.14
697.539	37658.67
697.885	37342.52
698.231	37316.31
698.577	37251
698.923	37237.44
699.269	37178.46
699.614	36934.17
699.96	36857.79
700.306	36752.48
700.651	36689.2
700.997	36566.72
701.342	36598.81
701.688	36602.65
702.033	36408.53
702.379	36280.18
702.724	36296.9
703.069	36342.1
703.415	36040.18
703.76	35948.66
704.105	35921.77
704.45	35822.11
704.795	35630.25
705.14	35670.02
705.485	35481.33
705.83	35380.76
706.175	35423.25
706.52	35355.68
706.865	35256.47
707.209	35209.02
707.554	35098.29
707.899	35182.13
708.243	34945.52
708.588	34863.72
708.932	34814
709.277	34637.51
709.621	34717.28
709.966	34553.22
710.31	34561.58
710.654	34208.82
710.998	34385.08
711.342	34223.05
711.687	34220.12
712.031	34065.77
712.375	34090.63
712.719	34033
713.063	33941.25
713.407	33956.17
713.75	33897.87
714.094	33834.59
714.438	33464.88
714.782	33673.69
715.125	33569.51
715.469	33542.39
715.812	33467.14
716.156	33213.59
716.499	33198.9
716.843	33298.79
717.186	33140.37
717.53	33277.32
717.873	33231.22
718.216	32994.39
718.559	32879.59
718.902	32727.73
719.246	32795.52
719.589	32715.75
719.932	32461.97
720.275	32653.15
720.617	32501.52
720.96	32497.45
721.303	32455.19
721.646	32435.31
721.989	32291.58
722.331	32391.92
722.674	32263.78
723.016	32239.38
723.359	32150.57
723.701	32286.38
724.044	31996.45
724.386	31902.21
724.729	32018.59
725.071	31932.49
725.413	31968.65
725.755	31925.04
726.097	31758.71
726.439	31690.47
726.782	31636.68
727.124	31774.76
727.465	31549
727.807	31504.71
728.149	31379.06
728.491	31436.24
728.833	31383.13
729.175	31417.25
729.516	31295.67
729.858	31143.14
730.199	31256.35
730.541	31164.15
730.882	31092.06
731.224	31150.82
731.565	30962.58
731.906	30943.14
732.248	30941.79
732.589	30766.87
732.93	30744.05
733.271	30650.49
733.612	30848.68
733.953	30740.66
734.294	30536.6
734.635	30421.12
734.976	30664.5
735.317	30496.37
735.658	30503.83
735.999	30573.89
736.339	30371.63
736.68	30416.15
737.021	30433.55
737.361	30188.13
737.702	30282.14
738.042	30206.21
738.383	30132.09
738.723	30238.98
739.063	30044.41
739.404	30195.59
739.744	30039.66
740.084	29807.58
740.424	29967.35
740.764	29896.84
741.104	30020
741.444	29727.35
741.784	29741.14
742.124	29831.98
742.464	29656.85
742.804	29707.24
743.143	29645.32
743.483	29464.76
743.823	29563.97
744.162	29342.51
744.502	29504.08
744.841	29321.71
745.181	29429.06
745.52	29385.89
745.86	29372.34
746.199	29249.17
746.538	29204.2
746.877	29363.97
747.216	29341.6
747.556	29040.59
747.895	29171.21
748.234	29070.87
748.573	28871.11
748.911	28952.91
749.25	28940.93
749.589	28759.92
749.928	28761.73
750.267	28838.56
750.605	28557.89
750.944	28634.28
751.283	28524.45
751.621	28579.14
751.96	28521.74
752.298	28497.78
752.636	28474.51
752.975	28242.2
753.313	28339.14
753.651	28223.89
753.989	28095.08
754.327	28124.68
754.666	27978.7
755.004	27978.47
755.342	28030.22
755.679	27999.72
756.017	27810.79
756.355	27821.19
756.693	27711.59
757.031	27758.82
757.368	27639.5
757.706	27656.45
758.044	27452.84
758.381	27519.28
758.719	27333.97
759.056	27389.56
759.394	27296.46
759.731	27013.53
760.068	27145.73
760.405	26973.08
760.743	26975.11
761.08	27069.34
761.417	26836.58
761.754	26751.61
762.091	26643.14
762.428	26526.31
762.765	26426.88
763.102	26512.52
763.438	26421.45
763.775	26307.33
764.112	26318.18
764.449	26250.61
764.785	26132.19
765.122	25887.68
765.458	25908.47
765.795	25816.72
766.131	25788.93
766.467	25691.98
766.804	25583.96
767.14	25554.13
767.476	25469.39
767.812	25454.47
768.148	25365.66
768.485	25246.34
768.821	25054.26
769.157	25053.13
769.492	24955.73
769.828	25028.72
770.164	24793.25
770.5	24822.85
770.836	24791.66
771.171	24532.01
771.507	24567.94
771.842	24285.46
772.178	24290.21
772.513	24148.29
772.849	24228.06
773.184	24087.95
773.519	24083.66
773.855	23858.81
774.19	23801.86
774.525	23683.22
774.86	23692.26
775.195	23659.26
775.53	23545.6
775.865	23530.91
776.2	23402.1
776.535	23203.23
776.87	23156.91
777.205	23079.39
777.539	22997.81
777.874	22968.89
778.209	22774.32
778.543	22732.06
778.878	22628.56
779.212	22578.39
779.547	22518.28
779.881	22572.29
780.215	22405.74
780.55	22436.25
780.884	22166.65
781.218	22130.94
781.552	22152.19
781.886	21974.11
782.22	21909.71
782.554	21867.67
782.888	21634.91
783.222	21549.72
783.556	21563.27
783.889	21375.94
784.223	21236.28
784.557	21214.36
784.89	21356.95
785.224	21127.58
785.557	21020.46
785.891	20994.25
786.224	20862.73
786.558	20929.85
786.891	20631.32
787.224	20637.88
787.557	20582.06
787.891	20569.18
788.224	20494.15
788.557	20484.43
788.89	20426.81
789.223	20351.56
789.556	20152.01
789.888	20170.09
790.221	20139.36
790.554	19985.69
790.887	19989.76
791.219	19879.7
791.552	19833.38
791.884	19749.99
792.217	19680.84
792.549	19611.46
792.882	19501.86
793.214	19418.92
793.546	19444.46
793.879	19310
794.211	19190.46
794.543	19240.85
794.875	19147.29
795.207	19150
795.539	19069.33
795.871	19103.68
796.203	18937.36
796.535	18721.54
796.867	18702.56
797.198	18688.77
797.53	18702.56
797.862	18517.03
798.193	18611.94
798.525	18463.47
798.856	18495.33
799.188	18333.76
799.519	18175.79
799.85	18165.4
800.182	18227.77
800.513	18101.44
800.844	18043.59
801.175	18094.21
801.506	17959.08
801.837	17912.98
802.168	17868.91
802.499	17829.81
802.83	17676.6
803.161	17709.59
803.491	17606.99
803.822	17572.19
804.153	17536.94
804.483	17421.91
804.814	17270.96
805.145	17401.35
805.475	17370.84
805.805	17175.59
806.136	17340.56
806.466	17237.29
806.796	17113.45
807.126	17097.86
807.457	17096.27
807.787	16933.57
808.117	16970.63
808.447	16802.04
808.777	16898.09
809.107	16854.25
809.436	16788.94
809.766	16757.53
810.096	16585.78
810.426	16596.4
810.755	16520.24
811.085	16566.34
811.414	16454.26
811.744	16324.77
812.073	16320.7
812.403	16394.6
812.732	16186.69
813.061	16238.22
813.39	16178.78
813.719	16182.85
814.049	16124.55
814.378	16120.25
814.707	16112.57
815.036	16048.39
815.365	15979.01
815.693	15788.96
816.022	15875.06
816.351	15779.25
816.68	15680.04
817.008	15676.88
817.337	15514.17
817.665	15585.13
817.994	15556.2
818.322	15555.3
818.651	15494.96
818.979	15432.14
819.307	15460.16
819.636	15402.98
819.964	15322.76
820.292	15377
820.62	15402.31
820.948	15347.17
821.276	15357.11
821.604	15229.66
821.932	15315.08
822.259	15304.23
822.587	15340.84
822.915	15233.05
823.243	15269.43
823.57	15252.93
823.898	15304.91
824.225	15175.87
824.553	15146.95
824.88	15220.39
825.207	15261.52
825.535	15231.69
825.862	15308.75
826.189	15254.97
826.516	15274.85
826.843	15308.75
827.17	15234.4
827.497	15267.85
827.824	15289.32
828.151	15286.38
828.478	15253.84
828.805	15257.45
829.131	15245.25
829.458	15223.55
829.785	15139.49
830.111	15196.66
830.438	15274.63
830.764	15232.37
831.09	15232.14
831.417	15070.34
831.743	15251.35
832.069	15175.19
832.395	15139.71
832.722	15174.06
833.048	15098.13
833.374	15087.29
833.7	15025.82
834.026	15100.62
834.351	15012.71
834.677	15072.37
835.003	15022.88
835.329	15044.58
835.654	15045.03
835.98	14942.66
836.306	14981.75
836.631	14915.31
836.956	14874.64
837.282	14835.54
837.607	14768.88
837.932	14795.32
838.258	14747.41
838.583	14805.49
838.908	14721.42
839.233	14803.68
839.558	14678.71
839.883	14636.9
840.208	14574.76
840.533	14522.56
840.858	14535.66
841.182	14530.01
841.507	14563.23
841.832	14410.92
842.156	14468.32
842.481	14424.25
842.805	14432.39
843.13	14426.97
843.454	14316.91
843.778	14237.82
844.103	14199.63
844.427	14165.73
844.751	14266.74
845.075	14135.9
845.399	14137.48
845.723	14083.7
846.047	14049.57
846.371	13975
846.695	13935.68
847.019	13821.56
847.343	13773.42
847.666	13772.07
847.99	13667.44
848.313	13665.18
848.637	13574.33
848.96	13487.55
849.284	13421.79
849.607	13322.81
849.931	13371.63
850.254	13230.16
850.577	13245.98
850.9	13129.82
851.223	13101.12
851.546	12988.36
851.869	12989.94
852.192	13031.52
852.515	12951.3
852.838	12866.1
853.161	12929.83
853.483	12712.21
853.806	12703.62
854.129	12727.12
854.451	12672.66
854.774	12578.2
855.096	12604.87
855.419	12567.13
855.741	12572.1
856.063	12495.04
856.385	12454.14
856.708	12376.85
857.03	12357.42
857.352	12346.34
857.674	12342.27
857.996	12268.15
858.318	12176.63
858.64	12184.54
858.961	12140.47
859.283	12062.51
859.605	12008.27
859.926	12043.98
860.248	12029.06
860.57	11935.05
860.891	11908.61
861.212	11887.37
861.534	11906.81
861.855	11788.84
862.176	11775.28
862.498	11795.62
862.819	11846.24
863.14	11705.45
863.461	11679.24
863.782	11703.2
864.103	11691.67
864.424	11542.52
864.745	11678.56
865.065	11537.1
865.386	11551.56
865.707	11605.57
866.027	11619.81
866.348	11550.66
866.668	11466.82
866.989	11444.44
867.309	11464.11
867.63	11454.16
867.95	11428.63
868.27	11340.49
868.59	11302.53
868.91	11350.21
869.23	11353.37
869.55	11307.73
869.87	11409.87
870.19	11267.73
870.51	11306.14
870.83	11298.01
871.15	11244.22
871.469	11221.17
871.789	11243.32
872.109	11231.34
872.428	11127.39
872.748	11157.45
873.067	11176.66
873.386	11193.38
873.706	11132.36
874.025	11090.33
874.344	10953.61
874.663	11037.9
874.982	10919.03
875.301	11050.33
875.62	10937.79
875.939	10855.53
876.258	10929.2
876.577	10910.22
876.896	10839.49
877.214	10907.51
877.533	10840.62
877.852	10879.94
878.17	10871.13
878.489	10844.91
878.807	10741.41
879.125	10780.96
879.444	10721.3
879.762	10678.59
880.08	10768.98
880.398	10645.6
880.716	10705.03
881.034	10645.6
881.352	10667.52
881.67	10683.56
881.988	10594.52
882.306	10572.38
882.624	10549.55
882.941	10452.83
883.259	10471.14
883.577	10442.66
883.894	10425.26
884.212	10424.13
884.529	10439.95
884.846	10305.04
885.164	10331.25
885.481	10326.73
885.798	10350.24
886.115	10220.07
886.432	10246.28
886.75	10227.08
887.067	10219.17
887.383	10150.92
887.7	10156.8
888.017	10104.14
888.334	10126.97
888.651	10116.57
888.967	10051.71
889.284	10030.24
889.6	9938.5
889.917	9863.47
890.233	9937.37
890.55	9890.59
890.866	9916.58
891.182	9896.24
891.498	9777.37
891.815	9808.1
892.131	9816.92
892.447	9827.76
892.763	9738.05
893.079	9707.32
893.395	9680.2
893.71	9704.38
894.026	9523.82
894.342	9579.41
894.657	9543.93
894.973	9566.53
895.289	9514.78
895.604	9520.2
895.92	9429.36
896.235	9378.28
896.55	9423.03
896.865	9314.33
897.181	9286.76
897.496	9244.05
897.811	9222.13
898.126	9269.81
898.441	9127.22
898.756	9161.79
899.071	9128.57
899.386	9109.59
899.7	9044.28
900.015	9000.67
900.33	9002.02
900.644	8963.15
900.959	8981.01
901.273	8876.15
901.588	8863.5
901.902	8768.81
902.216	8788.02
902.531	8785.53
902.845	8709.15
903.159	8736.04
903.473	8613.11
903.787	8607.46
904.101	8545.99
904.415	8571.53
904.729	8511.41
905.042	8503.96
905.356	8458.31
905.67	8426.22
905.984	8438.42
906.297	8414.24
906.611	8350.06
906.924	8352.32
907.237	8234.36
907.551	8284.75
907.864	8267.58
908.177	8243.63
908.491	8226
908.804	8108.04
909.117	8086.12
909.43	8042.05
909.743	7987.13
910.056	8030.52
910.368	7968.38
910.681	7931.99
910.994	7900.58
911.307	7831.66
911.619	7786.69
911.932	7794.6
912.244	7786.69
912.557	7717.54
912.869	7696.52
913.181	7689.06
913.494	7618.1
913.806	7657.43
914.118	7563.19
914.43	7535.4
914.742	7561.61
915.054	7468.5
915.366	7455.62
915.678	7408.62
915.99	7457.21
916.302	7386.47
916.613	7338.79
916.925	7322.75
917.236	7266.25
917.548	7224.22
917.859	7223.09
918.171	7120.04
918.482	7162.52
918.794	7136.31
919.105	7055.86
919.416	7056.99
919.727	7037.1
920.038	7033.04
920.349	6914.62
920.66	6946.03
920.971	6900.38
921.282	6891.57
921.593	6846.83
921.903	6851.12
922.214	6750.78
922.525	6790.1
922.835	6713.95
923.146	6702.2
923.456	6676.21
923.767	6628.3
924.077	6611.35
924.387	6594.4
924.697	6551.92
925.008	6552.82
925.318	6548.3
925.628	6491.13
925.938	6502.88
926.248	6406.84
926.558	6358.93
926.867	6384.69
927.177	6356.9
927.487	6294.3
927.796	6225.15
928.106	6261.98
928.416	6240.97
928.725	6219.05
929.034	6163.23
929.344	6172.27
929.653	6150.57
929.962	6091.37
930.271	6096.56
930.581	6046.17
930.89	6047.75
931.199	5975.44
931.508	6018.82
931.817	6000.07
932.125	5976.79
932.434	5901.09
932.743	5842.33
933.051	5893.63
933.36	5776.35
933.669	5751.04
933.977	5756.91
934.286	5767.98
934.594	5788.77
934.902	5688.44
935.21	5696.57
935.519	5676.91
935.827	5660.64
936.135	5638.27
936.443	5596.91
936.751	5569.57
937.059	5566.63
937.367	5517.14
937.674	5483.02
937.982	5494.09
938.29	5442.79
938.597	5430.59
938.905	5395.56
939.213	5397.15
939.52	5353.98
939.827	5381.55
940.135	5307.43
940.442	5247.77
940.749	5283.25
941.056	5244.38
941.363	5235.79
941.67	5168.45
941.977	5198.96
942.284	5113.31
942.591	5165.74
942.898	5097.27
943.205	5066.99
943.511	5027.44
943.818	5052.75
944.125	5044.16
944.431	4979.53
944.738	5005.74
945.044	4955.12
945.35	4960.77
945.657	4916.48
945.963	4868.12
946.269	4820.89
946.575	4817.95
946.881	4854.34
947.187	4825.18
947.493	4776.6
947.799	4796.03
948.105	4733.66
948.41	4697.73
948.716	4721.91
949.022	4678.3
949.327	4700.44
949.633	4618.64
949.938	4593.55
950.244	4614.12
950.549	4538.86
950.854	4579.09
951.16	4553.55
951.465	4506.1
951.77	4532.31
952.075	4508.13
952.38	4462.03
952.685	4435.82
952.99	4418.64
953.294	4415.7
953.599	4343.61
953.904	4327.8
954.209	4345.42
954.513	4325.31
954.818	4330.51
955.122	4285.31
955.426	4277.4
955.731	4258.65
956.035	4198.76
956.339	4237.85
956.643	4184.97
956.948	4174.35
957.252	4136.61
957.556	4141.81
957.86	4138.65
958.163	4084.64
958.467	4089.16
958.771	4092.32
959.075	4048.48
959.378	4003.74
959.682	3999.89
959.985	4018.2
960.289	3980.01
960.592	3948.37
960.896	3955.38
961.199	3896.62
961.502	3869.28
961.805	3913.57
962.108	3865.66
962.411	3814.14
962.714	3859.56
963.017	3809.84
963.32	3855.72
963.623	3831.31
963.926	3816.85
964.228	3819.79
964.531	3793.8
964.833	3726
965.136	3704.08
965.438	3707.7
965.741	3659.11
966.043	3672.22
966.345	3642.16
966.648	3609.4
966.95	3648.04
967.252	3591.77
967.554	3582.73
967.856	3560.81
968.158	3523.98
968.46	3543.18
968.761	3553.58
969.063	3521.26
969.365	3474.03
969.666	3480.36
969.968	3453.92
970.269	3446.46
970.571	3425.22
970.872	3420.25
971.174	3406.01
971.475	3387.48
971.776	3377.54
972.077	3402.17
972.378	3377.99
972.679	3329.86
972.98	3351.32
973.281	3318.78
973.582	3308.16
973.883	3291.89
974.183	3277.65
974.484	3252.34
974.785	3262.29
975.085	3244.89
975.386	3191.33
975.686	3199.01
975.986	3207.6
976.287	3179.13
976.587	3138.45
976.887	3142.52
977.187	3105
977.487	3133.25
977.787	3130.09
978.087	3071.78
978.387	3102.97
978.687	3099.35
978.987	3068.39
979.286	3034.27
979.586	3001.28
979.885	3008.73
980.185	2992.46
980.484	2943.43
980.784	2920.6
981.083	2955.18
981.382	2930.77
981.682	2908.17
981.981	2900.26
982.28	2911.56
982.579	2888.74
982.878	2884.44
983.177	2848.74
983.475	2870.88
983.774	2846.93
984.073	2825.91
984.372	2835.41
984.67	2780.72
984.969	2802.64
985.267	2747.05
985.566	2777.1
985.864	2759.7
986.162	2740.27
986.461	2672.92
986.759	2693.49
987.057	2670.66
987.355	2656.65
987.653	2670.44
987.951	2671.57
988.249	2654.62
988.547	2660.04
988.844	2618.91
989.142	2639.93
989.44	2601.97
989.737	2555.41
990.035	2575.53
990.332	2556.77
990.63	2568.29
990.927	2530.78
991.224	2538.92
991.521	2520.84
991.819	2501.86
992.116	2531.46
992.413	2447.85
992.71	2446.49
993.006	2490.56
993.303	2435.42
993.6	2459.14
993.897	2429.31
994.193	2408.07
994.49	2426.15
994.787	2389.32
995.083	2376.43
995.379	2346.83
995.676	2364.91
995.972	2401.07
996.268	2342.31
996.565	2277.23
996.861	2302.31
997.157	2322.42
997.453	2285.59
997.749	2290.79
998.044	2283.33
998.34	2237.68
998.636	2252.37
998.932	2223.9
999.227	2201.3
999.523	2245.14
999.818	2179.6
1000.114	2190.22
1000.409	2179.15
1000.704	2167.85
1001	2131.47
1001.295	2118.59
1001.59	2109.32
1001.885	2155.65
1002.18	2113.39
1002.475	2081.53
1002.77	2073.62
1003.065	2089.89
1003.359	2034.52
1003.654	2051.47
1003.949	2052.15
1004.243	2006.95
1004.538	2026.39
1004.832	2009.89
1005.127	2011.25
1005.421	1992.49
1005.715	1954.98
1006.009	1994.07
1006.304	1928.08
1006.598	1938.25
1006.892	1936.67
1007.186	1941.19
1007.48	1920.85
1007.773	1882.44
1008.067	1907.07
1008.361	1842.44
1008.655	1865.04
1008.948	1885.83
1009.242	1819.84
1009.535	1837.24
1009.829	1832.72
1010.122	1814.19
1010.415	1820.29
1010.708	1809.67
1011.001	1808.09
1011.295	1763.8
1011.588	1744.36
1011.881	1740.07
1012.173	1734.87
1012.466	1751.82
1012.759	1710.01
1013.052	1707.07
1013.344	1714.76
1013.637	1659.17
1013.93	1695.55
1014.222	1671.37
1014.514	1672.05
1014.807	1668.88
1015.099	1629.11
1015.391	1658.71
1015.683	1630.69
1015.976	1630.01
1016.268	1637.7
1016.56	1578.49
1016.851	1591.6
1017.143	1615.78
1017.435	1555.89
1017.727	1591.37
1018.018	1544.14
1018.31	1533.74
1018.602	1527.64
1018.893	1538.72
1019.185	1525.61
1019.476	1501.66
1019.767	1503.69
1020.058	1491.26
1020.35	1474.99
1020.641	1435.44
1020.932	1441.54
1021.223	1432.73
1021.514	1452.39
1021.804	1398.16
1022.095	1400.87
1022.386	1384.37
1022.677	1396.8
1022.967	1415.33
1023.258	1379.4
1023.548	1359.29
1023.839	1356.8
1024.129	1354.31
1024.419	1326.74
1024.709	1312.96
1025	1335.56
1025.29	1317.48
1025.58	1292.62
1025.87	1322.23
1026.16	1312.73
1026.449	1280.87
1026.739	1285.84
1027.029	1270.02
1027.319	1279.97
1027.608	1249.46
1027.898	1246.75
1028.187	1256.92
1028.477	1218.73
1028.766	1219.63
1029.055	1223.02
1029.344	1210.36
1029.634	1190.93
1029.923	1180.53
1030.212	1190.25
1030.501	1188.44
1030.79	1167.43
1031.078	1181.89
1031.367	1150.93
1031.656	1154.09
1031.945	1141.21
1032.233	1110.25
1032.522	1125.62
1032.81	1099.63
1033.099	1101.67
1033.387	1119.74
1033.675	1102.34
1033.963	1079.97
1034.251	1079.07
1034.54	1086.07
1034.828	1077.03
1035.116	1055.34
1035.403	1045.4
1035.691	1048.33
1035.979	1038.39
1036.267	1043.14
1036.554	1019.86
1036.842	1057.37
1037.129	1050.37
1037.417	1011.27
1037.704	991.16
1037.992	1004.04
1038.279	985.74
1038.566	976.25
1038.853	976.25
1039.14	976.25
