Data from hue_220_FLMS001491_00045.txt Node
Date: Tue Feb 07 16:39:31 GMT 2017
User: dcchb
Spectrometer: FLMS00149
Trigger mode: 0
Integration Time (sec): 2.000000E-2
Scans to average: 10
Electric dark correction enabled: true
Nonlinearity correction enabled: false
Boxcar width: 0
XAxis mode: Wavelengths
Number of Pixels in Spectrum: 2048
>>>>>Begin Spectral Data<<<<<
341.393	-15.08
341.776	-15.08
342.16	-15.08
342.543	-62.31
342.927	-67.29
343.31	-80.62
343.693	-85.82
344.077	-72.03
344.46	-55.99
344.843	-44.01
345.226	-33.61
345.61	-13.73
345.993	-22.54
346.376	11.58
346.759	11.13
347.142	27.85
347.525	46.38
347.908	65.59
348.291	62.2
348.674	70.56
349.057	113.05
349.44	117.34
349.823	162.54
350.206	170
350.588	184.68
350.971	213.38
351.354	217.9
351.737	229.88
352.119	251.58
352.502	249.54
352.884	270.33
353.267	291.57
353.65	300.84
354.032	303.33
354.414	300.61
354.797	310.78
355.179	313.95
355.562	317.79
355.944	318.47
356.326	331.35
356.709	313.95
357.091	313.72
357.473	355.53
357.855	316.21
358.238	321.86
358.62	336.09
359.002	316.66
359.384	333.61
359.766	355.98
360.148	332.48
360.53	332.7
360.912	331.57
361.294	320.5
361.676	330.9
362.057	343.1
362.439	319.82
362.821	337
363.203	324.34
363.584	326.83
363.966	313.49
364.348	323.44
364.729	319.6
365.111	322.31
365.493	307.85
365.874	312.82
366.256	303.1
366.637	316.66
367.019	308.52
367.4	320.73
367.781	314.4
368.163	327.05
368.544	290.44
368.925	317.56
369.306	302.65
369.688	293.38
370.069	324.34
370.45	312.36
370.831	310.1
371.212	306.94
371.593	314.62
371.974	312.82
372.355	325.25
372.736	287.28
373.117	312.14
373.498	322.76
373.879	314.17
374.26	332.93
374.641	306.94
375.021	312.36
375.402	317.34
375.783	322.99
376.163	323.44
376.544	313.49
376.925	319.82
377.305	348.75
377.686	327.05
378.066	318.24
378.447	313.49
378.827	323.66
379.208	317.11
379.588	322.76
379.968	319.82
380.349	324.34
380.729	324.57
381.109	329.99
381.489	330.44
381.87	340.39
382.25	329.99
382.63	351.46
383.01	346.49
383.39	342.42
383.77	323.66
384.15	333.16
384.53	332.7
384.91	356.66
385.29	366.37
385.67	341.97
386.049	368.18
386.429	361.63
386.809	352.82
387.189	357.56
387.568	369.76
387.948	353.04
388.328	369.31
388.707	347.84
389.087	356.88
389.466	372.93
389.846	362.08
390.225	360.95
390.605	357.34
390.984	391.46
391.363	382.87
391.743	396.88
392.122	354.4
392.501	375.64
392.881	391.46
393.26	382.19
393.639	386.04
394.018	381.52
394.397	375.64
394.776	357.56
395.155	377.67
395.534	395.07
395.913	388.52
396.292	407.28
396.671	416.09
397.05	394.62
397.429	389.2
397.808	411.12
398.186	384.23
398.565	416.54
398.944	424.9
399.323	407.05
399.701	399.59
400.08	416.32
400.458	416.09
400.837	416.99
401.215	426.49
401.594	405.47
401.972	419.71
402.351	431.01
402.729	419.03
403.107	445.92
403.486	442.08
403.864	435.53
404.242	442.53
404.62	446.6
404.999	452.02
405.377	455.64
405.755	472.59
406.133	471.68
406.511	459.48
406.889	495.41
407.267	494.51
407.645	493.15
408.023	466.48
408.401	500.16
408.779	504.22
409.156	533.38
409.534	512.59
409.912	522.53
410.29	542.19
410.667	507.39
411.045	549.87
411.422	551.68
411.8	555.97
412.178	564.11
412.555	597.55
412.933	579.25
413.31	624.22
413.687	605.92
414.065	610.21
414.442	623.32
414.819	628.29
415.197	620.15
415.574	640.49
415.951	644.11
416.328	659.25
416.705	667.16
417.082	650.43
417.46	675.52
417.837	708.74
418.214	693.82
418.591	707.83
418.967	711.45
419.344	730.43
419.721	744.22
420.098	732.24
420.475	765.23
420.852	772.01
421.228	775.18
421.605	785.35
421.982	804.56
422.358	794.61
422.735	820.6
423.111	824.44
423.488	853.59
423.864	877.1
424.241	873.48
424.617	894.95
424.994	916.87
425.37	919.58
425.746	925.46
426.123	948.05
426.499	981.05
426.875	980.82
427.251	977.43
427.627	1020.82
428.003	1011.56
428.379	1030.76
428.756	1032.12
429.132	1064.89
429.507	1061.5
429.883	1076.19
430.259	1081.84
430.635	1091.33
431.011	1121.61
431.387	1126.58
431.763	1134.49
432.138	1159.57
432.514	1171.55
432.89	1186.92
433.265	1207.48
433.641	1247.71
434.016	1245.22
434.392	1301.04
434.767	1334.48
435.143	1329.74
435.518	1329.06
435.894	1368.38
436.269	1411.32
436.644	1424.43
437.02	1443.41
437.395	1442.5
437.77	1475.95
438.145	1485.67
438.52	1523.18
438.895	1527.47
439.271	1529.06
439.646	1596.62
440.021	1609.51
440.395	1591.2
440.77	1609.05
441.145	1655.83
441.52	1693.35
441.895	1702.16
442.27	1693.35
442.645	1724.08
443.019	1771.54
443.394	1785.09
443.769	1794.13
444.143	1774.25
444.518	1842.27
444.892	1782.38
445.267	1828.93
445.641	1887.24
446.016	1877.75
446.39	1878.88
446.764	1887.01
447.139	1873.68
447.513	1893.57
447.887	1959.78
448.262	1943.51
448.636	1974.24
449.01	1948.48
449.384	1995.48
449.758	1999.78
450.132	2010.63
450.506	2030.96
450.88	2064.86
451.254	2042.49
451.628	2090.62
452.002	2113.67
452.376	2136.72
452.75	2123.84
453.123	2160.23
453.497	2193.67
453.871	2200.68
454.244	2253.33
454.618	2274.8
454.992	2292.88
455.365	2292.65
455.739	2361.58
456.112	2362.71
456.486	2371.52
456.859	2406.32
457.232	2465.3
457.606	2446.77
457.979	2473.66
458.352	2540.55
458.725	2524.28
459.099	2562.47
459.472	2607.9
459.845	2633.89
460.218	2645.64
460.591	2688.35
460.964	2693.32
461.337	2724.28
461.71	2773.99
462.083	2796.14
462.456	2818.29
462.829	2826.2
463.201	2890.15
463.574	2883.82
463.947	2907.78
464.32	2994.33
464.692	2967.21
465.065	3048.34
465.438	3024.84
465.81	3071.61
466.183	3144.15
466.555	3185.51
466.928	3190.48
467.3	3209.92
467.672	3265.73
468.045	3305.73
468.417	3328.1
468.789	3407.2
469.161	3400.65
469.534	3417.14
469.906	3506.4
470.278	3553.86
470.65	3555.9
471.022	3627.08
471.394	3685.61
471.766	3702.33
472.138	3754.99
472.51	3865.27
472.882	3854.42
473.253	3891.25
473.625	3925.83
473.997	4013.28
474.369	4016
474.74	4068.65
475.112	4131.7
475.484	4175.77
475.855	4283.79
476.227	4274.52
476.598	4401.3
476.97	4442.2
477.341	4511.35
477.713	4573.72
478.084	4598.81
478.455	4746.82
478.827	4741.85
479.198	4857.1
479.569	4876.31
479.94	4954.28
480.311	4989.53
480.682	5121.28
481.053	5191.33
481.424	5254.61
481.795	5264.32
482.166	5349.52
482.537	5426.58
482.908	5493.92
483.279	5541.38
483.65	5660.47
484.021	5764.2
484.391	5829.28
484.762	5865.44
485.133	5921.26
485.503	5996.96
485.874	6018.88
486.244	6080.8
486.615	6209.84
486.985	6257.75
487.356	6363.28
487.726	6375.48
488.097	6543.84
488.467	6516.27
488.837	6644.18
489.207	6730.28
489.578	6801.23
489.948	6846.88
490.318	6925.75
490.688	6990.61
491.058	7037.84
491.428	7155.12
491.798	7131.62
492.168	7266.98
492.538	7321.67
492.908	7334.55
493.278	7481.44
493.648	7417.49
494.017	7558.28
494.387	7631.27
494.757	7626.3
495.126	7695.67
495.496	7701.32
495.866	7744.03
496.235	7845.05
496.605	7824.94
496.974	7913.07
497.344	7972.73
497.713	8044.59
498.082	8044.14
498.452	8144.48
498.821	8069.67
499.19	8148.54
499.559	8183.34
499.928	8221.08
500.298	8289.33
500.667	8340.63
501.036	8353.51
501.405	8384.02
501.774	8385.6
502.143	8420.85
502.512	8440.96
502.88	8504.01
503.249	8452.94
503.618	8560.96
503.987	8537.69
504.356	8608.64
504.724	8577.46
505.093	8599.83
505.462	8620.39
505.83	8660.85
506.199	8725.48
506.567	8853.38
506.936	8792.59
507.304	8835.76
507.672	8831.69
508.041	8921.63
508.409	8919.6
508.777	8969.09
509.145	9026.49
509.514	8974.28
509.882	8996.43
510.25	9096.09
510.618	9144.45
510.986	9074.85
511.354	9115.07
511.722	9159.14
512.09	9186.26
512.458	9202.53
512.826	9275.29
513.193	9246.37
513.561	9259.25
513.929	9329.98
514.297	9351.9
514.664	9331.34
515.032	9352.13
515.4	9404.78
515.767	9391.22
516.135	9439.81
516.502	9302.86
516.869	9426.02
517.237	9495.63
517.604	9373.14
517.972	9503.08
518.339	9439.58
518.706	9456.08
519.073	9415.4
519.44	9492.01
519.808	9527.04
520.175	9563.65
520.542	9560.48
520.909	9552.12
521.276	9550.31
521.643	9710.54
522.009	9635.28
522.376	9639.58
522.743	9631.89
523.11	9778.1
523.477	9768.16
523.843	9704.66
524.21	9807.93
524.577	9809.97
524.943	9806.13
525.31	9870.08
525.676	9841.15
526.043	9828.5
526.409	9847.26
526.776	9927.93
527.142	9914.6
527.508	9942.17
527.874	9967.93
528.241	9987.82
528.607	9910.76
528.973	9991.21
529.339	9961.38
529.705	9989.62
530.071	9996.86
530.437	10083.86
530.803	10027.14
531.169	9984.65
531.535	10007.93
531.901	10021.71
532.267	9913.69
532.632	10022.39
532.998	10004.31
533.364	10073.46
533.73	9962.05
534.095	10029.17
534.461	9995.73
534.826	10086.34
535.192	10008.38
535.557	10028.49
535.923	9959.12
536.288	9930.42
536.653	9948.72
537.019	9886.35
537.384	9918.89
537.749	9871.89
538.114	9924.77
538.479	9922.73
538.845	9888.38
539.21	9810.65
539.575	9805.67
539.94	9767.71
540.305	9825.56
540.67	9742.4
541.034	9788.27
541.399	9818.1
541.764	9687.94
542.129	9732.91
542.494	9670.08
542.858	9641.61
543.223	9686.81
543.587	9661.27
543.952	9636.41
544.316	9684.32
544.681	9585.34
545.045	9663.76
545.41	9658.11
545.774	9656.98
546.138	9525.46
546.503	9578.56
546.867	9555.06
547.231	9604.78
547.595	9538.56
547.959	9502.86
548.324	9559.81
548.688	9435.97
549.052	9436.64
549.416	9392.8
549.779	9404.1
550.143	9362.97
550.507	9407.72
550.871	9366.14
551.235	9346.03
551.599	9330.88
551.962	9383.76
552.326	9272.58
552.689	9358.68
553.053	9270.77
553.417	9217.22
553.78	9353.93
554.143	9295.86
554.507	9299.92
554.87	9330.43
555.234	9280.26
555.597	9187.16
555.96	9227.38
556.323	9239.14
556.686	9196.42
557.05	9229.19
557.413	9176.31
557.776	9205.69
558.139	9285.01
558.502	9223.54
558.865	9181.51
559.228	9231.9
559.59	9218.57
559.953	9172.92
560.316	9277.55
560.679	9217.44
561.041	9278.23
561.404	9262.19
561.767	9268.06
562.129	9258.12
562.492	9241.62
562.854	9275.52
563.217	9315.52
563.579	9222.41
563.941	9280.49
564.304	9301.73
564.666	9371.11
565.028	9332.01
565.39	9320.72
565.753	9303.31
566.115	9323.2
566.477	9342.18
566.839	9353.93
567.201	9378.34
567.563	9463.99
567.925	9484.33
568.287	9376.76
568.648	9489.07
569.01	9474.38
569.372	9572.91
569.734	9470.32
570.095	9558.22
570.457	9542.4
570.819	9527.94
571.18	9561.61
571.542	9677.54
571.903	9630.31
572.265	9659.92
572.626	9641.16
572.987	9604.1
573.349	9612.69
573.71	9690.42
574.071	9664.89
574.432	9699.69
574.794	9808.39
575.155	9731.55
575.516	9761.16
575.877	9786.47
576.238	9751.66
576.599	9902.62
576.96	9791.21
577.32	9859.01
577.681	9928.38
578.042	9908.95
578.403	9853.81
578.763	9936.97
579.124	10003.86
579.485	10012.22
579.845	9982.62
580.206	10041.37
580.566	9985.78
580.927	10047.48
581.287	10054.48
581.648	10017.65
582.008	10042.28
582.368	10082.05
582.728	10146
583.089	10188.26
583.449	10102.16
583.809	10183.29
584.169	10148.94
584.529	10199.79
584.889	10232.1
585.249	10195.95
585.609	10117.98
585.969	10263.74
586.329	10288.6
586.688	10263.97
587.048	10302.84
587.408	10233.91
587.768	10228.26
588.127	10308.71
588.487	10319.33
588.846	10400.69
589.206	10301.93
589.565	10283.18
589.925	10392.55
590.284	10355.72
590.643	10413.57
591.003	10484.53
591.362	10438.65
591.721	10427.35
592.08	10461.02
592.44	10497.63
592.799	10463.74
593.158	10462.83
593.517	10434.36
593.876	10541.93
594.235	10531.98
594.593	10456.5
594.952	10557.97
595.311	10520.68
595.67	10466.9
596.029	10559.55
596.387	10565.88
596.746	10549.84
597.104	10551.87
597.463	10545.99
597.822	10566.33
598.18	10559.55
598.538	10545.32
598.897	10585.54
599.255	10515.49
599.613	10660.12
599.972	10590.74
600.33	10618.08
600.688	10591.87
601.046	10635.94
601.404	10693.33
601.762	10713.22
602.12	10648.59
602.478	10727.23
602.836	10756.38
603.194	10630.51
603.552	10684.3
603.91	10597.74
604.268	10703.28
604.625	10705.31
604.983	10784.63
605.341	10673.45
605.698	10744.63
606.056	10796.38
606.413	10773.11
606.771	10743.73
607.128	10814.24
607.485	10763.39
607.843	10749.15
608.2	10842.03
608.557	10843.84
608.914	10901.69
609.272	10801.58
609.629	10912.76
609.986	10825.31
610.343	10842.03
610.7	11003.61
611.057	10941.01
611.414	10854.69
611.771	10936.94
612.127	10969.03
612.484	10964.74
612.841	10998.64
613.198	10914.8
613.554	10917.96
613.911	11002.93
614.267	11013.1
614.624	11014.68
614.98	10958.41
615.337	11055.13
615.693	11065.3
616.05	11059.65
616.406	11078.41
616.762	11086.77
617.118	11102.59
617.475	11111.63
617.831	11058.52
618.187	11180.33
618.543	11068.92
618.899	11152.53
619.255	11143.94
619.611	11192.08
619.967	11197.73
620.323	11178.52
620.678	11099.43
621.034	11063.95
621.39	11117.5
621.746	11155.92
622.101	11170.84
622.457	11146.2
622.812	11180.33
623.168	11161.12
623.523	11168.35
623.879	11242.92
624.234	11136.03
624.589	11119.76
624.945	11084.28
625.3	11173.55
625.655	11189.37
626.01	11173.77
626.365	11178.52
626.72	11165.64
627.075	11192.98
627.43	11197.05
627.785	11152.98
628.14	11182.59
628.495	11143.49
628.85	11127.22
629.205	11092.42
629.559	11174.68
629.914	11042.93
630.269	11086.32
630.623	11079.31
630.978	11070.05
631.332	11082.02
631.687	11000.9
632.041	11034.34
632.396	11063.72
632.75	11070.27
633.104	10969.49
633.459	10974.91
633.813	10917.96
634.167	10950.95
634.521	10973.33
634.875	10978.3
635.229	10857.4
635.583	10863.27
635.937	10946.44
636.291	10948.92
636.645	10870.05
636.999	10783.95
637.352	10863.73
637.706	10810.62
638.06	10949.83
638.413	10837.06
638.767	10716.38
639.121	10845.87
639.474	10748.7
639.828	10667.57
640.181	10703.05
640.534	10755.93
640.888	10694.01
641.241	10689.94
641.594	10709.61
641.947	10739.44
642.301	10623.05
642.654	10657.4
643.007	10686.56
643.36	10705.31
643.713	10606.78
644.066	10714.35
644.419	10641.36
644.771	10544.41
645.124	10531.76
645.477	10464.87
645.83	10424.87
646.182	10384.19
646.535	10362.72
646.888	10344.42
647.24	10322.95
647.593	10391.87
647.945	10318.66
648.298	10219.67
648.65	10231.65
649.002	10269.84
649.355	10330.18
649.707	10333.8
650.059	10310.97
650.411	10439.56
650.763	10464.64
651.115	10519.78
651.467	10513
651.819	10548.03
652.171	10492.44
652.523	10493.57
652.875	10546.45
653.227	10484.75
653.578	10597.29
653.93	10485.66
654.282	10493.57
654.633	10522.94
654.985	10487.92
655.337	10558.42
655.688	10484.98
656.039	10586.9
656.391	10390.74
656.742	10509.38
657.094	10521.81
657.445	10540.12
657.796	10493.57
658.147	10468.71
658.498	10520.01
658.849	10570.4
659.2	10589.61
659.551	10520.01
659.902	10504.19
660.253	10503.51
660.604	10550.29
660.955	10472.78
661.306	10526.33
661.656	10586.9
662.007	10543.06
662.358	10470.74
662.708	10563.17
663.059	10474.36
663.409	10453.79
663.76	10588.03
664.11	10580.8
664.461	10594.35
664.811	10593
665.161	10548.03
665.511	10508.48
665.862	10526.33
666.212	10625.31
666.562	10568.14
666.912	10523.17
667.262	10583.96
667.612	10541.25
667.962	10592.32
668.312	10539.21
668.662	10596.39
669.011	10585.99
669.361	10573.11
669.711	10534.47
670.06	10477.3
670.41	10433.23
670.76	10538.76
671.109	10548.03
671.459	10584.86
671.808	10496.96
672.157	10517.97
672.507	10380.12
672.856	10463.51
673.205	10391.42
673.554	10436.39
673.904	10414.02
674.253	10461.48
674.602	10426.67
674.951	10300.8
675.3	10239.34
675.649	10393.68
675.998	10343.06
676.346	10391.42
676.695	10456.96
677.044	10271.2
677.393	10318.66
677.741	10385.32
678.09	10344.19
678.438	10266
678.787	10365.43
679.135	10272.33
679.484	10159.34
679.832	10267.36
680.181	10159.11
680.529	10269.84
680.877	10223.74
681.225	10169.28
681.573	10240.69
681.922	10132.45
682.27	10130.86
682.618	10125.89
682.966	10111.43
683.314	10112.56
683.661	10152.56
684.009	10104.65
684.357	9966.57
684.705	9979.23
685.053	10007.25
685.4	10022.84
685.748	9941.04
686.095	9935.61
686.443	9969.74
686.79	9835.96
687.138	9925.45
687.485	9900.14
687.832	9851.55
688.18	9856.52
688.527	9731.33
688.874	9802.28
689.221	9704.21
689.568	9742.4
689.915	9632.12
690.262	9600.03
690.609	9578.11
690.956	9506.7
691.303	9605.91
691.65	9485.68
691.997	9521.84
692.344	9428.96
692.69	9435.74
693.037	9404.55
693.383	9362.97
693.73	9392.35
694.077	9263.99
694.423	9350.77
694.769	9200.72
695.116	9243.88
695.462	9175.86
695.808	9146.48
696.155	9199.36
696.501	9062.19
696.847	9034.17
697.193	8963.89
697.539	9085.47
697.885	9005.47
698.231	8951.23
698.577	8878.02
698.923	8871.01
699.269	8828.75
699.614	8774.52
699.96	8783.55
700.306	8809.77
700.651	8732.93
700.997	8653.16
701.342	8677.12
701.688	8633.73
702.033	8555.54
702.379	8627.4
702.724	8564.8
703.069	8587.63
703.415	8474.64
703.76	8506.95
704.105	8471.7
704.45	8426.05
704.795	8419.5
705.14	8334.3
705.485	8376.33
705.83	8339.5
706.175	8245.94
706.52	8295.88
706.865	8255.88
707.209	8255.88
707.554	8191.48
707.899	8118.49
708.243	8119.84
708.588	8170.24
708.932	8053.63
709.277	8000.3
709.621	8029.9
709.966	7981.09
710.31	8011.6
710.654	7878.95
710.998	8000.98
711.342	7989.22
711.687	7891.37
712.031	7866.06
712.375	7858.83
712.719	7890.7
713.063	7868.1
713.407	7886.18
713.75	7882.79
714.094	7743.36
714.438	7761.89
714.782	7782.22
715.125	7784.03
715.469	7742.45
715.812	7726.18
716.156	7640.76
716.499	7717.37
716.843	7687.99
717.186	7689.35
717.53	7666.3
717.873	7657.03
718.216	7652.51
718.559	7620.42
718.902	7571.83
719.246	7572.74
719.589	7567.32
719.932	7511.72
720.275	7539.29
720.617	7518.05
720.96	7532.06
721.303	7527.09
721.646	7516.92
721.989	7479.41
722.331	7467.88
722.674	7504.27
723.016	7506.07
723.359	7488.9
723.701	7502.46
724.044	7429.47
724.386	7433.53
724.729	7535.23
725.071	7444.15
725.413	7479.63
725.755	7386.08
726.097	7399.64
726.439	7376.13
726.782	7386.98
727.124	7391.95
727.465	7394.89
727.807	7349.69
728.149	7381.33
728.491	7341.56
728.833	7350.15
729.175	7248.68
729.516	7330.03
729.858	7283.71
730.199	7349.24
730.541	7360.54
730.882	7355.8
731.224	7318.96
731.565	7319.19
731.906	7278.51
732.248	7326.87
732.589	7292.52
732.93	7337.94
733.271	7293.2
733.612	7319.64
733.953	7304.5
734.294	7301.79
734.635	7296.36
734.976	7315.12
735.317	7266.76
735.658	7304.27
735.999	7327.1
736.339	7391.73
736.68	7320.54
737.021	7357.15
737.361	7303.59
737.702	7341.33
738.042	7308.79
738.383	7339.52
738.723	7398.51
739.063	7325.97
739.404	7396.7
739.744	7414.55
740.084	7405.74
740.424	7410.48
740.764	7423.59
741.104	7450.03
741.444	7456.36
741.784	7426.98
742.124	7471.95
742.464	7521.67
742.804	7517.6
743.143	7478.28
743.483	7584.04
743.823	7509.01
744.162	7535
744.502	7626.97
744.841	7566.64
745.181	7711.72
745.52	7671.95
745.86	7731.38
746.199	7732.28
746.538	7770.47
746.877	7846.18
747.216	7853.41
747.556	7866.06
747.895	8021.09
748.234	7934.09
748.573	7997.36
748.911	8110.13
749.25	8091.6
749.589	8179.28
749.928	8272.38
750.267	8322.55
750.605	8339.95
750.944	8442.09
751.283	8549.21
751.621	8615.42
751.96	8638.7
752.298	8718.92
752.636	8884.12
752.975	8897
753.313	8975.64
753.651	9081.4
753.989	9214.5
754.327	9264.22
754.666	9391.67
755.004	9550.99
755.342	9700.37
755.679	9838.44
756.017	9969.51
756.355	10038.89
756.693	10141.26
757.031	10326.56
757.368	10397.75
757.706	10547.8
758.044	10727.01
758.381	10899.66
758.719	11024.85
759.056	11203.83
759.394	11300.78
759.731	11421.23
760.068	11594.78
760.405	11727.66
760.743	11823.7
761.08	12148.44
761.417	12241.54
761.754	12477.02
762.091	12642.89
762.428	12742.32
762.765	12948.64
763.102	13143.67
763.438	13266.37
763.775	13472.02
764.112	13646.48
764.449	13837.66
764.785	13934.83
765.122	14053.47
765.458	14196.07
765.795	14457.53
766.131	14600.35
766.467	14755.6
766.804	14891.42
767.14	15051.64
767.476	15215.7
767.812	15267
768.148	15479.88
768.485	15521.23
768.821	15620.21
769.157	15801.67
769.492	15931.16
769.828	16134.55
770.164	16139.29
770.5	16329.34
770.836	16436.23
771.171	16509.23
771.507	16631.03
771.842	16695.89
772.178	16812.95
772.513	16862.89
772.849	17042.55
773.184	17078.48
773.519	17229.21
773.855	17323.67
774.19	17329.54
774.525	17463.55
774.86	17591.23
775.195	17698.8
775.53	17819.25
775.865	17667.61
776.2	17695.86
776.535	17747.16
776.87	17852.02
777.205	17889.08
777.539	17885.46
777.874	17987.61
778.209	17989.64
778.543	18014.05
778.878	18108.05
779.212	18135.62
779.547	18072.58
779.881	18256.07
780.215	18158.45
780.55	18344.88
780.884	18155.51
781.218	18235.74
781.552	18301.95
781.886	18339.91
782.22	18200.93
782.554	18316.19
782.888	18231.67
783.222	18177.43
783.556	18184.89
783.889	18313.25
784.223	18102.41
784.557	18155.06
784.89	18191.89
785.224	18148.05
785.557	18189.86
785.891	18089.07
786.224	18168.62
786.558	18115.51
786.891	18069.64
787.224	18005.01
787.557	18088.62
787.891	18005.91
788.224	18124.33
788.557	18013.82
788.89	18124.1
789.223	18075.29
789.556	17981.28
789.888	17987.83
790.221	17915.07
790.554	17796.42
790.887	17933.6
791.219	17898.79
791.552	17878.68
791.884	17831.68
792.217	17807.95
792.549	17770.66
792.882	17665.81
793.214	17637.11
793.546	17745.13
793.879	17528.18
794.211	17540.16
794.543	17516.21
794.875	17577
795.207	17567.28
795.539	17551.46
795.871	17579.26
796.203	17412.03
796.535	17325.7
796.867	17328.64
797.198	17297.23
797.53	17303.56
797.862	17212.49
798.193	17273.5
798.525	17099.04
798.856	17219.26
799.188	16947.86
799.519	17001.42
799.85	16939.5
800.182	16922.78
800.513	16949.44
800.844	16865.6
801.175	16822.21
801.506	16844.36
801.837	16742.67
802.168	16806.17
802.499	16710.8
802.83	16605.5
803.161	16570.24
803.491	16621.54
803.822	16672.61
804.153	16474.65
804.483	16405.73
804.814	16412.96
805.145	16361.43
805.475	16369.8
805.805	16293.87
806.136	16249.8
806.466	16264.49
806.796	16228.1
807.126	16144.04
807.457	16157.82
807.787	16134.55
808.117	16026.3
808.447	15990.14
808.777	16000.09
809.107	15954.21
809.436	16005.06
809.766	15889.81
810.096	15824.27
810.426	15878.28
810.755	15857.27
811.085	15817.95
811.414	15777.72
811.744	15717.61
812.073	15636.26
812.403	15614.11
812.732	15582.92
813.061	15558.07
813.39	15525.3
813.719	15471.97
814.049	15557.16
814.378	15524.85
814.707	15373.89
815.036	15395.58
815.365	15352.42
815.693	15256.38
816.022	15284.63
816.351	15262.93
816.68	15285.76
817.008	15221.58
817.337	15031.07
817.665	15014.8
817.994	15184.06
818.322	15120.34
818.651	14996.72
818.979	14932.77
819.307	15069.72
819.636	14946.78
819.964	14910.17
820.292	15003.28
820.62	14940.23
820.948	14890.96
821.276	14984.75
821.604	14923.28
821.932	14936.84
822.259	14943.84
822.587	14985.88
822.915	14954.92
823.243	14950.62
823.57	14887.57
823.898	14880.8
824.225	14816.39
824.553	14935.48
824.88	14968.25
825.207	14862.72
825.535	14918.08
825.862	14954.01
826.189	14872.21
826.516	14923.73
826.843	14974.58
827.17	14949.95
827.497	14982.04
827.824	14956.05
828.151	15075.37
828.478	15023.16
828.805	15027.91
829.131	14907.69
829.458	14894.13
829.785	14848.93
830.111	14940.91
830.438	14943.17
830.764	14883.28
831.09	14967.57
831.417	14861.81
831.743	14906.11
832.069	14939.78
832.395	14894.58
832.722	14923.51
833.048	14880.12
833.374	14909.72
833.7	14818.65
834.026	14868.82
834.351	14900.23
834.677	14796.73
835.003	14827.92
835.329	14859.33
835.654	14816.16
835.98	14745.66
836.306	14784.98
836.631	14707.92
836.956	14740.23
837.282	14828.14
837.607	14685.32
837.932	14585.21
838.258	14637.19
838.583	14667.47
838.908	14658.2
839.233	14633.8
839.558	14575.49
839.883	14487.81
840.208	14498.88
840.533	14414.14
840.858	14496.17
841.182	14543.18
841.507	14483.52
841.832	14376.18
842.156	14360.81
842.481	14287.59
842.805	14280.58
843.13	14248.95
843.454	14233.81
843.778	14231.55
844.103	14175.73
844.427	14104.09
844.751	14082.62
845.075	14106.13
845.399	14112.23
845.723	13949.07
846.047	14044.88
846.371	13888.5
846.695	13893.48
847.019	13749.53
847.343	13697.78
847.666	13590.43
847.99	13599.25
848.313	13487.84
848.637	13464.56
848.96	13474.96
849.284	13427.05
849.607	13377.33
849.931	13229.54
850.254	13191.57
850.577	13192.7
850.9	13060.96
851.223	13118.58
851.546	13030.45
851.869	12904.12
852.192	13011.92
852.515	12847.85
852.838	12819.61
853.161	12750.46
853.483	12772.38
853.806	12678.82
854.129	12697.12
854.451	12550.01
854.774	12572.83
855.096	12530.8
855.419	12435.44
855.741	12455.77
856.063	12420.29
856.385	12382.1
856.708	12364.25
857.03	12251.71
857.352	12258.04
857.674	12208.55
857.996	12160.41
858.318	12111.38
858.64	12132.84
858.961	12076.8
859.283	12035.67
859.605	11938.05
859.926	12056.01
860.248	11903.02
860.57	11901.89
860.891	11942.34
861.212	11803.81
861.534	11789.35
861.855	11806.75
862.176	11802.01
862.498	11813.08
862.819	11783.02
863.14	11662.57
863.461	11709.81
863.782	11706.42
864.103	11629.36
864.424	11683.37
864.745	11659.86
865.065	11622.12
865.386	11563.59
865.707	11554.55
866.027	11535.8
866.348	11526.08
866.668	11488.34
866.989	11444.5
867.309	11439.3
867.63	11373.09
867.95	11458.29
868.27	11316.37
868.59	11352.75
868.91	11328.8
869.23	11355.46
869.55	11214.68
869.87	11376.48
870.19	11251.74
870.51	11255.35
870.83	11280.21
871.15	11178.97
871.469	11263.04
871.789	11262.81
872.109	11195.02
872.428	11125.87
872.748	11170.16
873.067	11152.98
873.386	11166.99
873.706	11084.96
874.025	11083.38
874.344	11016.94
874.663	11009.26
874.982	10967
875.301	11010.16
875.62	11008.35
875.939	10950.28
876.258	10983.72
876.577	10947.11
876.896	10840.45
877.214	10882.93
877.533	10854.23
877.852	10823.95
878.17	10833.44
878.489	10853.78
878.807	10822.37
879.125	10747.34
879.444	10743.73
879.762	10799.09
880.08	10710.06
880.398	10677.52
880.716	10688.14
881.034	10579.44
881.352	10717.29
881.67	10577.41
881.988	10576.05
882.306	10611.08
882.624	10529.72
882.941	10478.2
883.259	10459.89
883.577	10447.69
883.894	10415.38
884.212	10446.11
884.529	10453.57
884.846	10343.29
885.164	10346.45
885.481	10285.66
885.798	10316.17
886.115	10227.13
886.432	10295.83
886.75	10164.31
887.067	10157.08
887.383	10181.03
887.7	10155.72
888.017	10168.15
888.334	10185.33
888.651	10061.03
888.967	10026.01
889.284	10053.35
889.6	9984.43
889.917	9883.19
890.233	9985.33
890.55	9905.78
890.866	9931.32
891.182	9878.67
891.498	9852.23
891.815	9805.45
892.131	9746.24
892.447	9722.74
892.763	9718.9
893.079	9700.37
893.395	9605.68
893.71	9648.39
894.026	9583.31
894.342	9506.93
894.657	9489.75
894.973	9471.45
895.289	9469.64
895.604	9416.31
895.92	9439.36
896.235	9297.67
896.55	9413.59
896.865	9365.46
897.181	9292.47
897.496	9283.2
897.811	9192.13
898.126	9247.04
898.441	9160.95
898.756	9144.67
899.071	9074.39
899.386	8999.14
899.7	9013.6
900.015	9040.27
900.33	8911.69
900.644	8866.94
900.959	8928.86
901.273	8915.98
901.588	8847.96
901.902	8743.33
902.216	8814.29
902.531	8717.12
902.845	8701.52
903.159	8733.84
903.473	8636.89
903.787	8607.74
904.101	8520.51
904.415	8531.81
904.729	8501.98
905.042	8401.64
905.356	8405.26
905.67	8384.69
905.984	8411.36
906.297	8361.64
906.611	8221.08
906.924	8297.69
907.237	8284.58
907.551	8218.6
907.864	8185.15
908.177	8160.29
908.491	8166.4
908.804	8073.06
909.117	8071.03
909.43	7998.04
909.743	7915.33
910.056	7977.02
910.368	7902.67
910.681	7867.42
910.994	7851.83
911.307	7757.59
911.619	7767.31
911.932	7745.16
912.244	7682.79
912.557	7645.96
912.869	7631.49
913.181	7606.64
913.494	7549.91
913.806	7524.38
914.118	7471.05
914.43	7464.27
914.742	7470.82
915.054	7432.4
915.366	7454.78
915.678	7370.94
915.99	7328.68
916.302	7262.69
916.613	7286.87
916.925	7216.82
917.236	7264.27
917.548	7200.55
917.859	7189.25
918.171	7100.21
918.482	7116.25
918.794	7027.44
919.105	7096.82
919.416	7005.52
919.727	6993.32
920.038	6969.82
920.349	6885.75
920.66	6847.11
920.971	6917.16
921.282	6877.16
921.593	6778.64
921.903	6780.9
922.214	6733.21
922.525	6734.57
922.835	6747.9
923.146	6627
923.456	6705.64
923.767	6643.05
924.077	6629.49
924.387	6552.43
924.697	6500
925.008	6569.15
925.318	6456.38
925.628	6469.72
925.938	6456.84
926.248	6370.74
926.558	6404.86
926.867	6349.04
927.177	6325.99
927.487	6303.17
927.796	6275.6
928.106	6226.11
928.416	6267.46
928.725	6202.83
929.034	6134.13
929.344	6184.3
929.653	6136.17
929.962	6112.21
930.271	6100.91
930.581	6037.19
930.89	5984.98
931.199	6010.07
931.508	6033.34
931.817	6005.32
932.125	5931.2
932.434	5912.9
932.743	5849.85
933.051	5860.24
933.36	5834.03
933.669	5728.72
933.977	5810.75
934.286	5728.04
934.594	5716.52
934.902	5700.47
935.21	5711.32
935.519	5689.62
935.827	5615.28
936.135	5592
936.443	5576.41
936.751	5630.19
937.059	5588.16
937.367	5484.43
937.674	5524.43
937.982	5532.34
938.29	5455.28
938.597	5475.84
938.905	5371.67
939.213	5406.02
939.52	5323.98
939.827	5357.43
940.135	5347.71
940.442	5334.83
940.749	5244.21
941.056	5261.84
941.363	5207.83
941.67	5203.76
941.977	5198.79
942.284	5186.36
942.591	5106.36
942.898	5110.2
943.205	5099.58
943.511	5081.28
943.818	5050.77
944.125	5008.29
944.431	4993.15
944.738	4989.76
945.044	4938.68
945.35	4916.54
945.657	4887.16
945.963	4895.52
946.269	4831.34
946.575	4843.77
946.881	4836.77
947.187	4792.92
947.493	4770.1
947.799	4759.03
948.105	4723.32
948.41	4729.88
948.716	4757.9
949.022	4683.32
949.327	4699.59
949.633	4618.92
949.938	4652.82
950.244	4588.41
950.549	4576.66
950.854	4598.13
951.16	4572.37
951.465	4533.95
951.77	4567.85
952.075	4502.09
952.38	4473.39
952.685	4492.14
952.99	4448.75
953.294	4408.3
953.599	4422.31
953.904	4411.92
954.209	4329.21
954.513	4337.8
954.818	4312.49
955.122	4319.26
955.426	4291.47
955.731	4285.14
956.035	4257.35
956.339	4229.1
956.643	4193.84
956.948	4178.25
957.252	4184.81
957.556	4167.4
957.86	4177.12
958.163	4121.08
958.467	4111.36
958.771	4055.54
959.075	4099.61
959.378	4062.77
959.682	4065.71
959.985	3996.56
960.289	3997.69
960.592	4023.91
960.896	3967.64
961.199	3993.4
961.502	3938.71
961.805	3900.29
962.108	3916.34
962.411	3862.55
962.714	3879.95
963.017	3845.61
963.32	3864.59
963.623	3857.36
963.926	3779.17
964.228	3796.57
964.531	3755.44
964.833	3801.76
965.136	3729
965.438	3696.46
965.741	3712.05
966.043	3719.28
966.345	3646.97
966.648	3646.29
966.95	3687.87
967.252	3616.68
967.554	3635.44
967.856	3566.97
968.158	3571.94
968.46	3557.7
968.761	3525.39
969.063	3584.6
969.365	3499.85
969.666	3502.34
969.968	3473.86
970.269	3488.55
970.571	3459.17
970.872	3420.98
971.174	3457.59
971.475	3410.81
971.776	3389.8
972.077	3347.77
972.378	3392.51
972.679	3383.02
972.98	3365.39
973.281	3308.9
973.582	3279.52
973.883	3277.48
974.183	3263.02
974.484	3260.08
974.785	3266.19
975.085	3258.5
975.386	3249.46
975.686	3235
975.986	3217.82
976.287	3253.53
976.587	3170.37
976.887	3166.3
977.187	3150.26
977.487	3128.34
977.787	3137.6
978.087	3089.92
978.387	3108.45
978.687	3088.56
978.987	3031.39
979.286	3048.79
979.586	2991.84
979.885	2999.53
980.185	2995.91
980.484	2973.09
980.784	2969.02
981.083	2954.78
981.382	2977.83
981.682	2988.68
981.981	2944.61
982.28	2923.14
982.579	2881.56
982.878	2904.61
983.177	2880.66
983.475	2878.4
983.774	2846.54
984.073	2807.44
984.372	2818.06
984.67	2823.03
984.969	2821.9
985.267	2793.66
985.566	2810.83
985.864	2823.26
986.162	2784.84
986.461	2749.36
986.759	2740.1
987.057	2682.47
987.355	2679.76
987.653	2710.72
987.951	2662.59
988.249	2612.87
988.547	2610.16
988.844	2637.95
989.142	2608.58
989.44	2608.8
989.737	2604.51
990.035	2562.47
990.332	2572.64
990.63	2579.2
990.927	2525.64
991.224	2544.85
991.521	2530.84
991.819	2555.24
992.116	2489.26
992.413	2499.65
992.71	2481.35
993.006	2453.1
993.303	2498.75
993.6	2453.78
993.897	2432.76
994.193	2401.12
994.49	2407.9
994.787	2395.7
995.083	2371.07
995.379	2371.97
995.676	2363.38
995.972	2371.75
996.268	2342.82
996.565	2337.4
996.861	2341.92
997.157	2306.21
997.453	2310.5
997.749	2283.39
998.044	2258.75
998.34	2261.69
998.636	2246.55
998.932	2227.57
999.227	2194.35
999.523	2204.52
999.818	2197.29
1000.114	2201.35
1000.409	2171.98
1000.704	2182.37
1001	2141.02
1001.295	2152.54
1001.59	2103.05
1001.885	2124.29
1002.18	2099.89
1002.475	2091.3
1002.77	2120.68
1003.065	2055.6
1003.359	2061.25
1003.654	2055.82
1003.949	2048.82
1004.243	2026.22
1004.538	2017.86
1004.832	1988.93
1005.127	2000.91
1005.421	1987.12
1005.715	1974.92
1006.009	1959.1
1006.304	1939.67
1006.598	1935.82
1006.892	1959.1
1007.186	1884.53
1007.48	1935.37
1007.773	1872.32
1008.067	1896.05
1008.361	1871.42
1008.655	1867.58
1008.948	1868.26
1009.242	1854.7
1009.535	1818.99
1009.829	1816.96
1010.122	1799.78
1010.415	1803.62
1010.708	1768.6
1011.001	1804.08
1011.295	1774.47
1011.588	1779.67
1011.881	1748.03
1012.173	1747.58
1012.466	1723.4
1012.759	1722.27
1013.052	1716.17
1013.344	1684.31
1013.637	1698.77
1013.93	1658.09
1014.222	1671.2
1014.514	1658.77
1014.807	1651.09
1015.099	1642.95
1015.391	1644.76
1015.683	1623.74
1015.976	1615.38
1016.268	1580.13
1016.56	1574.25
1016.851	1586.23
1017.143	1602.5
1017.435	1550.75
1017.727	1549.39
1018.018	1555.72
1018.31	1573.57
1018.602	1531.32
1018.893	1496.51
1019.185	1491.32
1019.476	1486.12
1019.767	1478.89
1020.058	1502.16
1020.35	1453.13
1020.641	1446.12
1020.932	1439.57
1021.223	1415.61
1021.514	1444.99
1021.804	1401.83
1022.095	1410.19
1022.386	1410.87
1022.677	1392.79
1022.967	1393.47
1023.258	1362.73
1023.548	1356.86
1023.839	1369.29
1024.129	1350.53
1024.419	1338.33
1024.709	1304.88
1025	1312.79
1025.29	1331.77
1025.58	1272.11
1025.87	1294.26
1026.16	1274.37
1026.449	1273.92
1026.739	1275.28
1027.029	1253.36
1027.319	1264.2
1027.608	1273.92
1027.898	1244.32
1028.187	1233.92
1028.477	1240.48
1028.766	1236.18
1029.055	1202.51
1029.344	1200.7
1029.634	1196.41
1029.923	1195.05
1030.212	1172
1030.501	1177.2
1030.79	1168.61
1031.078	1144.89
1031.367	1138.56
1031.656	1119.58
1031.945	1116.86
1032.233	1113.02
1032.522	1123.87
1032.81	1110.31
1033.099	1112.12
1033.387	1102.85
1033.675	1096.52
1033.963	1082.74
1034.251	1083.19
1034.54	1058.79
1034.828	1043.42
1035.116	1034.83
1035.403	1024.66
1035.691	1062.85
1035.979	1034.38
1036.267	1022.4
1036.554	1018.33
1036.842	1021.5
1037.129	1002.97
1037.417	998.22
1037.704	988.05
1037.992	994.83
1038.279	995.96
1038.566	958.22
1038.853	958.22
1039.14	958.22
