Data from hue_200_FLMS001491_00036.txt Node
Date: Tue Feb 07 16:43:11 GMT 2017
User: dcchb
Spectrometer: FLMS00149
Trigger mode: 0
Integration Time (sec): 2.000000E-2
Scans to average: 10
Electric dark correction enabled: true
Nonlinearity correction enabled: false
Boxcar width: 0
XAxis mode: Wavelengths
Number of Pixels in Spectrum: 2048
>>>>>Begin Spectral Data<<<<<
341.393	-35.71
341.776	-35.71
342.16	-35.71
342.543	-51.98
342.927	-70.51
343.31	-71.86
343.693	-48.59
344.077	-59.21
344.46	-71.18
344.843	-63.28
345.226	-37.29
345.61	-35.03
345.993	-31.41
346.376	-7.23
346.759	4.52
347.142	23.5
347.525	65.31
347.908	59.66
348.291	79.77
348.674	87
349.057	105.31
349.44	121.13
349.823	162.48
350.206	168.13
350.588	170.17
350.971	216.04
351.354	227.79
351.737	240.45
352.119	237.51
352.502	280.67
352.884	290.39
353.267	293.55
353.65	282.7
354.032	298.75
354.414	328.35
354.797	316.6
355.179	327.9
355.562	324.74
355.944	324.29
356.326	327.22
356.709	352.76
357.091	322.7
357.473	346.66
357.855	335.58
358.238	335.36
358.62	353.44
359.002	357.28
359.384	337.39
359.766	338.07
360.148	340.56
360.53	343.72
360.912	350.73
361.294	359.54
361.676	307.79
362.057	318.86
362.439	338.3
362.821	317.73
363.203	329.03
363.584	325.19
363.966	318.18
364.348	343.04
364.729	310.27
365.111	325.87
365.493	333.78
365.874	310.5
366.256	332.19
366.637	311.4
367.019	319.54
367.4	333.55
367.781	299.43
368.163	319.99
368.544	325.87
368.925	322.25
369.306	305.53
369.688	320.9
370.069	321.57
370.45	327.9
370.831	315.92
371.212	309.6
371.593	303.04
371.974	315.92
372.355	315.02
372.736	311.86
373.117	322.25
373.498	333.1
373.879	313.44
374.26	326.09
374.641	304.62
375.021	316.6
375.402	324.06
375.783	346.66
376.163	321.57
376.544	344.4
376.925	319.99
377.305	347.34
377.686	335.81
378.066	336.26
378.447	319.77
378.827	309.82
379.208	335.81
379.588	330.61
379.968	342.59
380.349	323.61
380.729	332.19
381.109	333.78
381.489	342.14
381.87	350.73
382.25	348.24
382.63	330.61
383.01	346.66
383.39	344.4
383.77	334.68
384.15	362.02
384.53	358.41
384.91	358.41
385.29	368.35
385.67	348.92
386.049	364.74
386.429	357.96
386.809	361.57
387.189	350.5
387.568	381.91
387.948	349.37
388.328	358.63
388.707	355.7
389.087	384.4
389.466	364.06
389.846	382.36
390.225	369.71
390.605	387.33
390.984	372.19
391.363	356.15
391.743	390.72
392.122	393.66
392.501	392.76
392.881	376.04
393.26	383.04
393.639	408.58
394.018	390.5
394.397	414.45
394.776	404.51
395.155	388.24
395.534	403.38
395.913	395.02
396.292	393.21
396.671	412.19
397.05	404.51
397.429	423.72
397.808	428.01
398.186	433.43
398.565	415.13
398.944	431.4
399.323	423.72
399.701	415.81
400.08	438.18
400.458	416.49
400.837	444.28
401.215	434.11
401.594	452.64
401.972	446.09
402.351	456.03
402.729	459.87
403.107	444.28
403.486	474.56
403.864	471.63
404.242	471.4
404.62	479.08
404.999	481.12
405.377	479.99
405.755	471.63
406.133	485.86
406.511	494
406.889	512.98
407.267	494.22
407.645	538.06
408.023	537.61
408.401	524.73
408.779	550.95
409.156	542.36
409.534	538.29
409.912	543.71
410.29	573.54
410.667	585.07
411.045	582.58
411.422	571.74
411.8	598.85
412.178	603.37
412.555	629.14
412.933	639.08
413.31	653.09
413.687	641.34
414.065	661.45
414.442	675.91
414.819	685.18
415.197	689.02
415.574	725.63
415.951	713.43
416.328	726.08
416.705	720.21
417.082	750.04
417.46	726.08
417.837	742.13
418.214	773.76
418.591	777.38
418.967	803.37
419.344	816.25
419.721	816.25
420.098	844.05
420.475	842.01
420.852	865.97
421.228	872.29
421.605	879.98
421.982	898.96
422.358	936.7
422.735	943.93
423.111	941.44
423.488	944.16
423.864	979.41
424.241	998.62
424.617	1023.25
424.994	1050.37
425.37	1040.88
425.746	1082.91
426.123	1065.06
426.499	1087.2
426.875	1093.08
427.251	1128.78
427.627	1166.52
428.003	1167.88
428.379	1171.04
428.756	1200.87
429.132	1215.34
429.507	1219.63
429.883	1227.54
430.259	1266.86
430.635	1245.39
431.011	1308.67
431.387	1315.67
431.763	1324.03
432.138	1353.41
432.514	1389.57
432.89	1392.96
433.265	1416.01
433.641	1421.21
434.016	1457.14
434.392	1479.96
434.767	1524.71
435.143	1523.8
435.518	1560.18
435.894	1604.25
436.269	1624.14
436.644	1635.44
437.02	1690.35
437.395	1701.2
437.77	1736.23
438.145	1768.09
438.52	1820.07
438.895	1830.91
439.271	1814.42
439.646	1885.6
440.021	1921.76
440.395	1941.19
440.77	1949.1
441.145	1969.44
441.52	2040.4
441.895	2000.4
442.27	2048.76
442.645	2086.05
443.019	2093.05
443.394	2110
443.769	2105.93
444.143	2182.99
444.518	2183.9
444.892	2177.34
445.267	2204.01
445.641	2275.87
446.016	2272.03
446.39	2310
446.764	2348.41
447.139	2305.7
447.513	2348.19
447.887	2360.16
448.262	2398.13
448.636	2393.84
449.01	2440.39
449.384	2440.39
449.758	2472.03
450.132	2496.88
450.506	2489.65
450.88	2526.49
451.254	2568.52
451.628	2592.7
452.002	2584.34
452.376	2620.5
452.75	2659.59
453.123	2688.74
453.497	2710.21
453.871	2723.32
454.244	2797.44
454.618	2821.39
454.992	2826.82
455.365	2869.3
455.739	2942.07
456.112	2923.76
456.486	2950.66
456.859	2980.71
457.232	3022.07
457.606	3022.07
457.979	3095.96
458.352	3151.1
458.725	3222.51
459.099	3194.72
459.472	3265.22
459.845	3305.68
460.218	3303.42
460.591	3350.87
460.964	3403.3
461.337	3427.25
461.71	3522.85
462.083	3574.6
462.456	3591.09
462.829	3579.11
463.201	3633.8
463.574	3649.17
463.947	3706.57
464.32	3803.52
464.692	3825.89
465.065	3883.06
465.438	3927.35
465.81	3922.61
466.183	4009.84
466.555	4056.16
466.928	4091.42
467.3	4074.7
467.672	4116.73
468.045	4283.28
468.417	4301.58
468.789	4342.26
469.161	4350.17
469.534	4384.52
469.906	4537.96
470.278	4502.48
470.65	4626.55
471.022	4701.57
471.394	4779.99
471.766	4767.11
472.138	4869.48
472.51	4894.11
472.882	4999.64
473.253	5080.77
473.625	5187.66
473.997	5238.28
474.369	5272.86
474.74	5336.81
475.112	5382.23
475.484	5535.45
475.855	5592.62
476.227	5693.64
476.598	5780.19
476.97	5857.93
477.341	5940.18
477.713	6065.15
478.084	6130.91
478.455	6247.07
478.827	6263.11
479.198	6445.93
479.569	6462.65
479.94	6645.25
480.311	6697
480.682	6798.24
481.053	6968.63
481.424	7053.15
481.795	7149.87
482.166	7186.7
482.537	7313.71
482.908	7434.38
483.279	7488.84
483.65	7624.21
484.021	7775.61
484.391	7860.58
484.762	7902.39
485.133	7984.87
485.503	8061.03
485.874	8224.64
486.244	8364.53
486.615	8453.11
486.985	8526.78
487.356	8617.17
487.726	8734.23
488.097	8888.13
488.467	8948.24
488.837	9093.77
489.207	9160.21
489.578	9300.09
489.948	9362.47
490.318	9449.02
490.688	9539.86
491.058	9644.27
491.428	9802
491.798	9832.06
492.168	10025.05
492.538	10025.73
492.908	10093.52
493.278	10189.56
493.648	10213.74
494.017	10313.4
494.387	10396.56
494.757	10423.91
495.126	10620.51
495.496	10586.39
495.866	10651.47
496.235	10759.72
496.605	10850.56
496.974	10870.9
497.344	10964.23
497.713	10968.53
498.082	10978.92
498.452	11192.47
498.821	11185.02
499.19	11168.29
499.559	11271.57
499.928	11308.86
500.298	11378.46
500.667	11479.92
501.036	11431.34
501.405	11447.83
501.774	11506.59
502.143	11589.98
502.512	11606.47
502.88	11755.17
503.249	11727.38
503.618	11777.77
503.987	11735.06
504.356	11862.74
504.724	11866.13
505.093	11829.52
505.462	11922.62
505.83	11976.18
506.199	12101.83
506.567	12120.36
506.936	12172.34
507.304	12152.45
507.672	12243.29
508.041	12209.4
508.409	12304.76
508.777	12373.91
509.145	12438.99
509.514	12397.64
509.882	12420.01
510.25	12408.71
510.618	12533.46
510.986	12452.1
511.354	12583.62
511.722	12530.74
512.09	12689.16
512.458	12629.05
512.826	12684.64
513.193	12760.34
513.561	12742.04
513.929	12795.37
514.297	12793.11
514.664	12865.42
515.032	12878.31
515.4	12935.71
515.767	12911.75
516.135	12908.59
516.502	12793.79
516.869	13027.45
517.237	12944.74
517.604	12938.19
517.972	13102.03
518.339	13059.54
518.706	12982.94
519.073	13010.28
519.44	13131.86
519.808	13170.73
520.175	13124.4
520.542	13202.14
520.909	13250.05
521.276	13124.4
521.643	13261.12
522.009	13293.21
522.376	13348.58
522.743	13238.97
523.11	13334.11
523.477	13357.61
523.843	13423.6
524.21	13471.28
524.577	13519.64
524.943	13517.84
525.31	13474.45
525.676	13579.08
526.043	13563.03
526.409	13615.91
526.776	13671.96
527.142	13513.77
527.508	13580.66
527.874	13648.23
528.241	13648.23
528.607	13543.82
528.973	13694.78
529.339	13560.32
529.705	13702.01
530.071	13696.59
530.437	13685.52
530.803	13714.44
531.169	13713.76
531.535	13499.31
531.901	13489.14
532.267	13582.24
532.632	13540.21
532.998	13513.99
533.364	13619.53
533.73	13499.08
534.095	13519.64
534.461	13511.51
534.826	13512.19
535.192	13450.49
535.557	13463.15
535.923	13387.9
536.288	13429.93
536.653	13416.82
537.019	13265.19
537.384	13260.44
537.749	13275.58
538.114	13196.94
538.479	13144.97
538.845	13250.05
539.21	13119.66
539.575	13070.39
539.94	13035.36
540.305	13008.47
540.67	13021.35
541.034	12976.38
541.399	12925.54
541.764	12857.97
542.129	12847.35
542.494	12815.48
542.858	12788.36
543.223	12733.22
543.587	12727.35
543.952	12680.8
544.316	12636.28
544.681	12593.79
545.045	12624.07
545.41	12584.98
545.774	12493.91
546.138	12395.15
546.503	12436.06
546.867	12390.41
547.231	12335.49
547.595	12328.72
547.959	12336.85
548.324	12178.21
548.688	12173.92
549.052	12101.15
549.416	12050.98
549.779	12064.99
550.143	12040.59
550.507	12032.45
550.871	11998.33
551.235	11949.74
551.599	11925.56
551.962	11844.21
552.326	11771.67
552.689	11840.37
553.053	11718.79
553.417	11688.05
553.78	11765.11
554.143	11704.78
554.507	11699.81
554.87	11682.86
555.234	11640.82
555.597	11562.41
555.96	11589.98
556.323	11561.28
556.686	11573.71
557.05	11514.5
557.413	11505.46
557.776	11504.33
558.139	11550.88
558.502	11474.05
558.865	11437.21
559.228	11467.72
559.59	11407.38
559.953	11441.96
560.316	11526.93
560.679	11392.02
561.041	11438.57
561.404	11340.27
561.767	11477.89
562.129	11369.19
562.492	11435.63
562.854	11394.5
563.217	11378.46
563.579	11366.48
563.941	11421.39
564.304	11464.56
564.666	11469.98
565.028	11375.52
565.39	11406.48
565.753	11465.69
566.115	11443.09
566.477	11477.44
566.839	11455.74
567.201	11468.17
567.563	11512.69
567.925	11464.78
568.287	11430.66
568.648	11473.6
569.01	11448.51
569.372	11534.61
569.734	11509.3
570.095	11596.76
570.457	11561.73
570.819	11533.03
571.18	11539.81
571.542	11580.26
571.903	11554.72
572.265	11491.9
572.626	11565.35
572.987	11640.15
573.349	11567.83
573.71	11617.1
574.071	11549.3
574.432	11617.32
574.794	11702.74
575.155	11630.2
575.516	11636.3
575.877	11626.81
576.238	11671.11
576.599	11656.87
576.96	11666.59
577.32	11668.85
577.681	11701.84
578.042	11750.65
578.403	11709.52
578.763	11711.1
579.124	11681.5
579.485	11732.12
579.845	11692.8
580.206	11675.17
580.566	11758.79
580.927	11737.09
581.287	11695.51
581.648	11551.11
582.008	11733.48
582.368	11668.62
582.728	11711.1
583.089	11688.28
583.449	11720.82
583.809	11684.66
584.169	11624.78
584.529	11635.17
584.889	11699.13
585.249	11681.5
585.609	11648.73
585.969	11709.97
586.329	11575.74
586.688	11702.97
587.048	11707.26
587.408	11582.07
587.768	11602.18
588.127	11690.99
588.487	11654.83
588.846	11694.61
589.206	11576.64
589.565	11528.06
589.925	11628.17
590.284	11537.55
590.643	11593.37
591.003	11593.82
591.362	11561.96
591.721	11538.45
592.08	11508.17
592.44	11589.07
592.799	11565.8
593.158	11545.23
593.517	11581.16
593.876	11535.52
594.235	11552.24
594.593	11480.83
594.952	11516.53
595.311	11436.54
595.67	11443.77
596.029	11602.41
596.387	11571.67
596.746	11620.71
597.104	11527.38
597.463	11530.32
597.822	11556.76
598.18	11525.35
598.538	11445.8
598.897	11493.48
599.255	11367.84
599.613	11554.72
599.972	11477.89
600.33	11497.55
600.688	11500.04
601.046	11448.74
601.404	11485.12
601.762	11525.57
602.12	11600.37
602.478	11534.16
602.836	11491.68
603.194	11457.33
603.552	11456.42
603.91	11442.41
604.268	11462.75
604.625	11389.76
604.983	11485.35
605.341	11503.2
605.698	11458.91
606.056	11499.13
606.413	11481.73
606.771	11612.8
607.128	11396.54
607.485	11463.65
607.843	11499.58
608.2	11515.18
608.557	11599.69
608.914	11530.32
609.272	11483.77
609.629	11597.66
609.986	11582.75
610.343	11500.94
610.7	11644.44
611.057	11615.74
611.414	11644.44
611.771	11664.33
612.127	11685.12
612.484	11618
612.841	11677.43
613.198	11628.85
613.554	11662.97
613.911	11669.52
614.267	11632.91
614.624	11623.88
614.98	11651.67
615.337	11703.2
615.693	11727.38
616.05	11704.33
616.406	11790.88
616.762	11649.41
617.118	11782.52
617.475	11692.57
617.831	11728.05
618.187	11724.89
618.543	11764.89
618.899	11764.21
619.255	11738.67
619.611	11841.5
619.967	11884.66
620.323	11794.72
620.678	11839.24
621.034	11724.66
621.39	11714.27
621.746	11736.87
622.101	11819.8
622.457	11712.91
622.812	11801.95
623.168	11802.85
623.523	11789.97
623.879	11837.2
624.234	11792.68
624.589	11778.9
624.945	11809.41
625.3	11834.94
625.655	11714.49
626.01	11760.37
626.365	11820.25
626.72	11746.58
627.075	11686.25
627.43	11719.69
627.785	11586.81
628.14	11709.52
628.495	11703.65
628.85	11670.65
629.205	11669.75
629.559	11721.95
629.914	11622.07
630.269	11697.32
630.623	11642.63
630.978	11702.07
631.332	11687.15
631.687	11619.13
632.041	11599.47
632.396	11643.76
632.75	11582.29
633.104	11517.21
633.459	11538
633.813	11507.27
634.167	11465.69
634.521	11548.17
634.875	11463.2
635.229	11458.46
635.583	11432.24
635.937	11416.42
636.291	11389.76
636.645	11397.89
636.999	11350.21
637.352	11368.97
637.706	11272.25
638.06	11454.16
638.413	11442.19
638.767	11350.66
639.121	11296.65
639.474	11279.25
639.828	11239.03
640.181	11338.01
640.534	11293.04
640.888	11229.54
641.241	11239.48
641.594	11212.36
641.947	11251.68
642.301	11327.39
642.654	11196.77
643.007	11234.96
643.36	11227.5
643.713	11150.67
644.066	11266.6
644.419	11158.58
644.771	11090.1
645.124	10952.03
645.477	11056.43
645.83	10915.42
646.182	10801.52
646.535	10873.16
646.888	10857.34
647.24	10820.73
647.593	10864.8
647.945	10810.79
648.298	10740.73
648.65	10676.78
649.002	10701.64
649.355	10780.06
649.707	10785.25
650.059	10841.07
650.411	10919.26
650.763	10947.06
651.115	11129.65
651.467	11006.26
651.819	11046.49
652.171	10988.86
652.523	10957.45
652.875	10983.67
653.227	11018.02
653.578	11039.94
653.93	10895.53
654.282	10987.96
654.633	10912.48
654.985	10946.38
655.337	11031.35
655.688	11021.18
656.039	11082.65
656.391	11009.43
656.742	10904.8
657.094	11043.78
657.445	11049.65
657.796	11022.76
658.147	11023.44
658.498	10965.14
658.849	11045.36
659.2	11053.95
659.551	10962.88
659.902	10974.4
660.253	11029.77
660.604	10963.78
660.955	11008.3
661.306	11034.96
661.656	11003.55
662.007	11009.65
662.358	11000.84
662.708	11008.75
663.059	10977.34
663.409	10972.59
663.76	11031.35
664.11	10962.2
664.461	11085.58
664.811	11130.55
665.161	11053.27
665.511	10986.38
665.862	11015.76
666.212	11085.36
666.562	11017.56
666.912	11096.88
667.262	11053.27
667.612	11083.1
667.962	11042.65
668.312	11007.17
668.662	11079.93
669.011	11055.3
669.361	11041.52
669.711	11051.91
670.06	11012.37
670.41	10950.45
670.76	11006.94
671.109	11042.2
671.459	10993.16
671.808	10901.63
672.157	10967.85
672.507	10888.53
672.856	10960.84
673.205	10907.96
673.554	10948.41
673.904	10957.9
674.253	10987.73
674.602	10936.44
674.951	10764.01
675.3	10697.12
675.649	10869.32
675.998	10896.89
676.346	10831.35
676.695	10873.39
677.044	10856.21
677.393	10776.21
677.741	10865.25
678.09	10744.35
678.438	10731.24
678.787	10763.56
679.135	10752.03
679.484	10694.86
679.832	10676.56
680.181	10761.98
680.529	10728.76
680.877	10628.2
681.225	10692.83
681.573	10747.51
681.922	10639.04
682.27	10515.2
682.618	10563.34
682.966	10558.37
683.314	10600.17
683.661	10508.2
684.009	10459.84
684.357	10458.48
684.705	10414.19
685.053	10474.75
685.4	10453.06
685.748	10413.51
686.095	10348.43
686.443	10280.86
686.79	10306.17
687.138	10259.39
687.485	10332.61
687.832	10224.82
688.18	10284.93
688.527	10197.25
688.874	10203.57
689.221	10117.47
689.568	10111.82
689.915	10081.99
690.262	10103.01
690.609	10040.19
690.956	9979.85
691.303	9914.32
691.65	9911.15
691.997	9919.51
692.344	9806.3
692.69	9877.71
693.037	9856.01
693.383	9697.15
693.73	9732.4
694.077	9699.63
694.423	9632.52
694.769	9667.09
695.116	9591.84
695.462	9555.91
695.808	9561.1
696.155	9517.72
696.501	9470.94
696.847	9488.79
697.193	9380.54
697.539	9443.37
697.885	9343.48
698.231	9237.05
698.577	9339.42
698.923	9295.35
699.269	9217.61
699.614	9178.74
699.96	9098.07
700.306	9145.52
700.651	9068.91
700.997	9089.7
701.342	9040.89
701.688	8971.97
702.033	8899.2
702.379	8938.3
702.724	8882.25
703.069	8917.05
703.415	8893.55
703.76	8809.26
704.105	8830.05
704.45	8758.19
704.795	8748.47
705.14	8670.05
705.485	8631.41
705.83	8633.67
706.175	8669.15
706.52	8607.91
706.865	8559.32
707.209	8631.41
707.554	8513.9
707.899	8573.11
708.243	8523.17
708.588	8508.93
708.932	8428.93
709.277	8367.01
709.621	8442.94
709.966	8320.69
710.31	8365.2
710.654	8250.86
710.998	8300.8
711.342	8291.08
711.687	8240.01
712.031	8269.39
712.375	8141.93
712.719	8207.24
713.063	8159.11
713.407	8157.98
713.75	8188.26
714.094	8122.27
714.438	8117.98
714.782	8076.85
715.125	8051.77
715.469	8085.89
715.812	7994.14
716.156	8007.02
716.499	7981.71
716.843	8029.85
717.186	7982.16
717.53	7992.33
717.873	7925.67
718.216	7960.47
718.559	7855.61
718.902	7880.47
719.246	7863.3
719.589	7890.19
719.932	7823.52
720.275	7877.53
720.617	7880.92
720.96	7812
721.303	7834.37
721.646	7799.79
721.989	7814.71
722.331	7854.03
722.674	7774.71
723.016	7792.79
723.359	7748.95
723.701	7780.59
724.044	7689.97
724.386	7735.84
724.729	7737.2
725.071	7751.43
725.413	7678.67
725.755	7697.88
726.097	7703.53
726.439	7690.19
726.782	7653.13
727.124	7727.48
727.465	7678.89
727.807	7639.35
728.149	7631.21
728.491	7638.44
728.833	7689.52
729.175	7638.9
729.516	7664.43
729.858	7644.32
730.199	7613.13
730.541	7626.24
730.882	7609.07
731.224	7630.99
731.565	7551.67
731.906	7635.51
732.248	7644.54
732.589	7616.52
732.93	7590.53
733.271	7586.24
733.612	7579.91
733.953	7639.8
734.294	7602.96
734.635	7591.66
734.976	7615.62
735.317	7590.99
735.658	7557.77
735.999	7579.24
736.339	7620.14
736.68	7640.48
737.021	7606.35
737.361	7604.77
737.702	7621.49
738.042	7653.81
738.383	7661.27
738.723	7624.43
739.063	7640.48
739.404	7705.33
739.744	7621.49
740.084	7636.64
740.424	7663.75
740.764	7650.87
741.104	7724.54
741.444	7639.57
741.784	7685.67
742.124	7774.26
742.464	7792.56
742.804	7779
743.143	7729.06
743.483	7834.6
743.823	7762.73
744.162	7838.89
744.502	7899.45
744.841	7916.63
745.181	7923.41
745.52	7953.69
745.86	7998.89
746.199	8029.85
746.538	8024.87
746.877	8130.63
747.216	8155.49
747.556	8173.57
747.895	8281.82
748.234	8275.49
748.573	8335.37
748.911	8418.54
749.25	8421.02
749.589	8488.82
749.928	8577.63
750.267	8682.03
750.605	8691.75
750.944	8764.52
751.283	8807
751.621	8952.98
751.96	9009.25
752.298	9105.52
752.636	9220.55
752.975	9264.39
753.313	9353.88
753.651	9504.61
753.989	9550.26
754.327	9705.73
754.666	9741.21
755.004	9894.43
755.342	10127.87
755.679	10230.01
756.017	10369.44
756.355	10503.45
756.693	10609.44
757.031	10742.99
757.368	10910.9
757.706	11011.01
758.044	11133.27
758.381	11381.17
758.719	11599.02
759.056	11700.94
759.394	11868.84
759.731	11971.89
760.068	12173.24
760.405	12347.02
760.743	12444.19
761.08	12726.67
761.417	12820.68
761.754	13071.97
762.091	13308.8
762.428	13449.36
762.765	13553.54
763.102	13802.35
763.438	13964.83
763.775	14162.79
764.112	14303.58
764.449	14500.18
764.785	14650.69
765.122	14737.47
765.458	14968.42
765.795	15159.6
766.131	15341.97
766.467	15511.46
766.804	15597.78
767.14	15788.06
767.476	15972.91
767.812	16132.46
768.148	16301.04
768.485	16339.68
768.821	16494.03
769.157	16671.65
769.492	16834.81
769.828	17004.3
770.164	17029.83
770.5	17267.34
770.836	17294.69
771.171	17455.36
771.507	17604.06
771.842	17607.45
772.178	17757.5
772.513	17893.77
772.849	18019.41
773.184	18001.79
773.519	18240.2
773.855	18334.66
774.19	18368.56
774.525	18426.63
774.86	18502.11
775.195	18533.3
775.53	18628.66
775.865	18681.32
776.2	18625.05
776.535	18626.4
776.87	18781.2
777.205	18857.81
777.539	18924.93
777.874	18992.95
778.209	18888.77
778.543	19002.21
778.878	18996.11
779.212	19099.16
779.547	19083.11
779.881	19186.84
780.215	19079.95
780.55	19187.97
780.884	19249.89
781.218	19240.4
781.552	19342.99
781.886	19285.14
782.22	19244.01
782.554	19358.36
782.888	19208.08
783.222	19218.7
783.556	19168.76
783.889	19321.53
784.223	19176.44
784.557	19196.78
784.89	19208.76
785.224	19139.61
785.557	19121.53
785.891	19115.43
786.224	19130.34
786.558	19136.9
786.891	19062.55
787.224	18996.11
787.557	19106.16
787.891	19050.8
788.224	19093.51
788.557	19119.95
788.89	19094.64
789.223	19188.65
789.556	19011.93
789.888	19014.19
790.221	18860.3
790.554	18811.71
790.887	18855.32
791.219	18823.46
791.552	18832.73
791.884	18748.43
792.217	18678.6
792.549	18689.9
792.882	18600.41
793.214	18566.07
793.546	18663.69
793.879	18610.58
794.211	18448.78
794.543	18622.79
794.875	18442.45
795.207	18534.65
795.539	18421.89
795.871	18512.73
796.203	18286.07
796.535	18238.84
796.867	18218.73
797.198	18273.42
797.53	18231.16
797.862	18073.65
798.193	18153.87
798.525	17991.17
798.856	18064.38
799.188	17845.18
799.519	17879.08
799.85	17848.12
800.182	17840.21
800.513	17835.92
800.844	17768.12
801.175	17804.96
801.506	17811.74
801.837	17716.82
802.168	17734.22
802.499	17631.63
802.83	17547.34
803.161	17553.66
803.491	17575.58
803.822	17497.39
804.153	17536.04
804.483	17345.53
804.814	17244.74
805.145	17283.61
805.475	17318.19
805.805	17171.98
806.136	17242.71
806.466	17217.17
806.796	17194.58
807.126	17028.93
807.457	16951.42
807.787	17000.46
808.117	16940.57
808.447	16861.93
808.777	16927.69
809.107	16867.58
809.436	16837.3
809.766	16844.98
810.096	16767.02
810.426	16638.88
810.755	16659
811.085	16579.68
811.414	16659
811.744	16562.73
812.073	16499.45
812.403	16473.01
812.732	16385.78
813.061	16401.83
813.39	16282.74
813.719	16364.99
814.049	16348.5
814.378	16307.82
814.707	16237.77
815.036	16266.92
815.365	16156.19
815.693	16029.41
816.022	16124.32
816.351	16127.71
816.68	16022.4
817.008	16108.05
817.337	15941.95
817.665	15961.16
817.994	15945.12
818.322	15867.83
818.651	15789.19
818.979	15763.2
819.307	15782.41
819.636	15865.12
819.964	15740.83
820.292	15857.66
820.62	15901.05
820.948	15681.85
821.276	15774.95
821.604	15710.55
821.932	15739.02
822.259	15832.58
822.587	15723.2
822.915	15684.56
823.243	15712.36
823.57	15651.11
823.898	15685.24
824.225	15534.51
824.553	15605.47
824.88	15694.73
825.207	15729.98
825.535	15638.91
825.862	15695.63
826.189	15627.84
826.516	15746.93
826.843	15781.73
827.17	15787.83
827.497	15707.38
827.824	15789.19
828.151	15805.01
828.478	15764.56
828.805	15787.83
829.131	15734.95
829.458	15739.02
829.785	15618.57
830.111	15650.89
830.438	15842.3
830.764	15727.72
831.09	15786.93
831.417	15663.99
831.743	15783.54
832.069	15741.96
832.395	15645.01
832.722	15761.39
833.048	15662.87
833.374	15728.85
833.7	15626.26
834.026	15654.96
834.351	15614.5
834.677	15710.1
835.003	15676.2
835.329	15708.97
835.654	15627.39
835.98	15554.39
836.306	15604.56
836.631	15493.15
836.956	15522.53
837.282	15579.7
837.607	15468.75
837.932	15500.84
838.258	15494.73
838.583	15433.04
838.908	15339.48
839.233	15324.12
839.558	15290.9
839.883	15318.02
840.208	15235.31
840.533	15312.37
840.858	15294.06
841.182	15207.96
841.507	15201.41
841.832	15057.01
842.156	15124.57
842.481	15152.14
842.805	15032.37
843.13	15021.75
843.454	15020.17
843.778	14954.18
844.103	14944.47
844.427	14854.75
844.751	14847.07
845.075	14757.13
845.399	14752.61
845.723	14676.68
846.047	14730.46
846.371	14675.55
846.695	14642.55
847.019	14428.32
847.343	14452.28
847.666	14369.57
847.99	14322.34
848.313	14314.88
848.637	14170.7
848.96	14246.18
849.284	14172.51
849.607	13965.73
849.931	14010.71
850.254	13938.84
850.577	13851.84
850.9	13827.43
851.223	13691.84
851.546	13659.75
851.869	13612.3
852.192	13677.15
852.515	13563.03
852.838	13435.13
853.161	13523.71
853.483	13510.83
853.806	13420.89
854.129	13339.54
854.451	13308.58
854.774	13282.81
855.096	13140.67
855.419	13125.08
855.741	13145.87
856.063	13032.65
856.385	13051.86
856.708	12953.11
857.03	12879.66
857.352	12996.72
857.674	12864.29
857.996	12839.66
858.318	12749.72
858.64	12831.75
858.961	12718.76
859.283	12669.72
859.605	12700.68
859.926	12683.96
860.248	12638.99
860.57	12563.96
860.891	12616.84
861.212	12572.55
861.534	12518.31
861.855	12438.77
862.176	12387.02
862.498	12422.27
862.819	12421.82
863.14	12267.7
863.461	12298.43
863.782	12334.82
864.103	12262.05
864.424	12250.07
864.745	12274.25
865.065	12185.67
865.386	12167.59
865.707	12136.18
866.027	12155.39
866.348	12108.61
866.668	12123.97
866.989	12058.44
867.309	11968.05
867.63	12065.45
867.95	11961.04
868.27	11964.88
868.59	11910.2
868.91	11897.09
869.23	11956.97
869.55	11871.55
869.87	11952
870.19	11866.81
870.51	11893.47
870.83	11918.1
871.15	11871.55
871.469	11782.74
871.789	11864.09
872.109	11777.77
872.428	11730.99
872.748	11717.43
873.067	11705
873.386	11799.69
873.706	11705.91
874.025	11647.83
874.344	11638.11
874.663	11665.46
874.982	11566.48
875.301	11658
875.62	11587.72
875.939	11522.63
876.258	11578.23
876.577	11527.61
876.896	11556.98
877.214	11428.17
877.533	11466.59
877.852	11397.21
878.17	11386.14
878.489	11389.08
878.807	11380.72
879.125	11358.57
879.444	11359.48
879.762	11286.26
880.08	11238.12
880.398	11240.38
880.716	11333.26
881.034	11184.56
881.352	11192.7
881.67	11195.86
881.988	11098.01
882.306	11084.45
882.624	11146.83
882.941	10993.16
883.259	10998.35
883.577	10936.66
883.894	11052.36
884.212	10924.91
884.529	10895.53
884.846	10935.08
885.164	10924.91
885.481	10886.27
885.798	10830.22
886.115	10748.64
886.432	10810.79
886.75	10759.49
887.067	10765.14
887.383	10690.11
887.7	10720.62
888.017	10620.51
888.334	10667.97
888.651	10633.39
888.967	10560.4
889.284	10587.52
889.6	10508.88
889.917	10486.05
890.233	10445.15
890.55	10470.69
890.866	10397.01
891.182	10376.45
891.498	10345.49
891.815	10350.24
892.131	10270.92
892.447	10305.94
892.763	10218.94
893.079	10243.35
893.395	10183.24
893.71	10079.51
894.026	10141.43
894.342	10149.79
894.657	10039.51
894.973	10019.62
895.289	10038.15
895.604	9956.8
895.92	9940.08
896.235	9843.36
896.55	9848.55
896.865	9823.24
897.181	9843.36
897.496	9778.5
897.811	9760.65
898.126	9698.28
898.441	9647.66
898.756	9666.86
899.071	9594.1
899.386	9560.2
899.7	9503.7
900.015	9399.07
900.33	9424.16
900.644	9393.88
900.959	9441.33
901.273	9280.21
901.588	9242.92
901.902	9251.96
902.216	9239.53
902.531	9195.24
902.845	9182.13
903.159	9023.94
903.473	9043.6
903.787	9039.99
904.101	8975.13
904.415	8967.9
904.729	8934.23
905.042	8916.83
905.356	8835.25
905.67	8844.74
905.984	8804.51
906.297	8761.13
906.611	8718.87
906.924	8677.06
907.237	8684.07
907.551	8717.51
907.864	8548.7
908.177	8569.94
908.491	8568.36
908.804	8433.68
909.117	8442.26
909.43	8418.08
909.743	8395.03
910.056	8402.49
910.368	8290.18
910.681	8275.71
910.994	8267.81
911.307	8239.11
911.619	8199.56
911.932	8174.7
912.244	8135.15
912.557	8127.7
912.869	8001.82
913.181	8025.55
913.494	7991.43
913.806	7960.02
914.118	7941.26
914.43	7846.57
914.742	7786.91
915.054	7838.66
915.366	7775.16
915.678	7736.97
915.99	7787.59
916.302	7663.3
916.613	7670.98
916.925	7574.04
917.236	7621.04
917.548	7530.65
917.859	7571.78
918.171	7572.68
918.482	7488.84
918.794	7428.05
919.105	7442.52
919.416	7357.09
919.727	7332.91
920.038	7311.67
920.349	7297.66
920.66	7237.1
920.971	7267.83
921.282	7242.07
921.593	7181.28
921.903	7091.34
922.214	7131.11
922.525	7119.13
922.835	7076.88
923.146	7022.87
923.456	6987.39
923.767	6938.8
924.077	6903.55
924.387	6953.26
924.697	6838.69
925.008	6890.67
925.318	6816.77
925.628	6790.33
925.938	6752.36
926.248	6677.11
926.558	6709.2
926.867	6697
927.177	6691.12
927.487	6645.7
927.796	6576.55
928.106	6615.42
928.416	6583.1
928.725	6514.4
929.034	6476.89
929.344	6502.65
929.653	6487.97
929.962	6430.34
930.271	6345.82
930.581	6373.39
930.89	6359.61
931.199	6321.87
931.508	6337.23
931.817	6258.59
932.125	6229.89
932.434	6265.15
932.743	6187.86
933.051	6202.77
933.36	6141.08
933.669	6097.69
933.977	6072.16
934.286	6053.85
934.594	6064.7
934.902	5990.58
935.21	5970.24
935.519	5984.7
935.827	5944.93
936.135	5937.47
936.443	5872.61
936.751	5818.6
937.059	5880.98
937.367	5825.16
937.674	5779.96
937.982	5785.61
938.29	5760.75
938.597	5745.16
938.905	5679.17
939.213	5665.16
939.52	5624.03
939.827	5628.33
940.135	5634.88
940.442	5591.04
940.749	5513.53
941.056	5565.5
941.363	5488.67
941.67	5429.69
941.977	5452.96
942.284	5424.94
942.591	5408.67
942.898	5394.89
943.205	5403.7
943.511	5382.23
943.818	5352.18
944.125	5245.51
944.431	5246.19
944.738	5275.79
945.044	5227.66
945.35	5156.93
945.657	5159.41
945.963	5127.77
946.269	5138.85
946.575	5107.89
946.881	5109.92
947.187	5048
947.493	5025.86
947.799	5005.74
948.105	5012.52
948.41	4979.08
948.716	4963.49
949.022	4923.26
949.327	4895.46
949.633	4895.01
949.938	4921
950.244	4892.75
950.549	4879.19
950.854	4809.82
951.16	4797.61
951.465	4749.71
951.77	4727.79
952.075	4760.78
952.38	4683.04
952.685	4697.28
952.99	4619.54
953.294	4657.05
953.599	4625.19
953.904	4605.98
954.209	4558.3
954.513	4569.6
954.818	4571.41
955.122	4533.89
955.426	4504.06
955.731	4521.24
956.035	4454.12
956.339	4445.76
956.643	4472.2
956.948	4432.43
957.252	4394.91
957.556	4395.36
957.86	4358.08
958.163	4375.25
958.467	4260.9
958.771	4264.52
959.075	4258.65
959.378	4207.12
959.682	4297.06
959.985	4237.85
960.289	4201.7
960.592	4173
960.896	4170.51
961.199	4164.86
961.502	4104.07
961.805	4101.14
962.108	4092.55
962.411	4104.3
962.714	4010.97
963.017	4053.68
963.32	4036.73
963.623	4012.1
963.926	4006.45
964.228	4000.35
964.531	3918.32
964.833	3977.52
965.136	3916.51
965.438	3916.73
965.741	3869.73
966.043	3868.82
966.345	3856.17
966.648	3857.98
966.95	3831.31
967.252	3771.43
967.554	3771.2
967.856	3769.17
968.158	3753.35
968.46	3737.98
968.761	3776.17
969.063	3683.29
969.365	3700.92
969.666	3718.32
969.968	3657.53
970.269	3654.82
970.571	3574.37
970.872	3586.12
971.174	3614.14
971.475	3599
971.776	3560.36
972.077	3525.11
972.378	3533.24
972.679	3505.67
972.98	3519
973.281	3523.52
973.582	3497.76
973.883	3470.87
974.183	3419.57
974.484	3449.63
974.785	3409.63
975.085	3428.84
975.386	3389.52
975.686	3367.6
975.986	3403.3
976.287	3351.78
976.587	3305.22
976.887	3301.61
977.187	3331.66
977.487	3292.57
977.787	3297.99
978.087	3262.97
978.387	3241.04
978.687	3243.3
978.987	3238.56
979.286	3196.75
979.586	3151.33
979.885	3171.22
980.185	3148.17
980.484	3138.22
980.784	3140.71
981.083	3091.22
981.382	3055.96
981.682	3101.61
981.981	3071.11
982.28	3014.61
982.579	3038.34
982.878	3088.05
983.177	3010.54
983.475	3025.01
983.774	2997.21
984.073	2977.55
984.372	2933.26
984.67	2940.04
984.969	2930.54
985.267	2905.69
985.566	2912.47
985.864	2854.61
986.162	2891
986.461	2869.53
986.759	2832.69
987.057	2816.2
987.355	2793.37
987.653	2784.56
987.951	2807.16
988.249	2809.64
988.547	2768.97
988.844	2741.85
989.142	2776.88
989.44	2717.44
989.737	2701.4
990.035	2685.81
990.332	2704.56
990.63	2705.47
990.927	2665.69
991.224	2641.51
991.521	2644.45
991.819	2644.45
992.116	2619.14
992.413	2653.49
992.71	2590.44
993.006	2614.62
993.303	2558.35
993.6	2547.5
993.897	2546.15
994.193	2542.08
994.49	2504.79
994.787	2532.81
995.083	2535.3
995.379	2488.3
995.676	2436.32
995.972	2441.97
996.268	2449.88
996.565	2432.7
996.861	2409.2
997.157	2393.16
997.453	2410.11
997.749	2417.79
998.044	2366.94
998.34	2360.62
998.636	2351.8
998.932	2340.28
999.227	2314.29
999.523	2319.49
999.818	2332.37
1000.114	2272.93
1000.409	2273.16
1000.704	2244.91
1001	2255.08
1001.295	2245.14
1001.59	2235.87
1001.885	2240.17
1002.18	2200.85
1002.475	2213.5
1002.77	2199.26
1003.065	2148.64
1003.359	2144.8
1003.654	2171.02
1003.949	2112.03
1004.243	2140.51
1004.538	2099.83
1004.832	2125.82
1005.127	2097.57
1005.421	2103.9
1005.715	2064.35
1006.009	2083.34
1006.304	2047.63
1006.598	2004.24
1006.892	2017.35
1007.186	1995.65
1007.48	1999.72
1007.773	1994.52
1008.067	1978.71
1008.361	1971.47
1008.655	1927.63
1008.948	1938.71
1009.242	1930.12
1009.535	1917.46
1009.829	1904.13
1010.122	1869.56
1010.415	1850.35
1010.708	1856.9
1011.001	1861.87
1011.295	1811.7
1011.588	1842.21
1011.881	1806.05
1012.173	1817.35
1012.466	1801.31
1012.759	1792.27
1013.052	1780.29
1013.344	1798.37
1013.637	1771.25
1013.93	1749.11
1014.222	1735.32
1014.514	1722.21
1014.807	1726.73
1015.099	1702.55
1015.391	1700.97
1015.683	1691.03
1015.976	1664.36
1016.268	1660.3
1016.56	1665.04
1016.851	1624.14
1017.143	1651.71
1017.435	1622.56
1017.727	1630.47
1018.018	1627.3
1018.31	1610.13
1018.602	1595.21
1018.893	1573.97
1019.185	1580.3
1019.476	1559.73
1019.767	1538.72
1020.058	1551.37
1020.35	1514.54
1020.641	1521.54
1020.932	1501.2
1021.223	1498.49
1021.514	1479.51
1021.804	1477.93
1022.095	1494.2
1022.386	1450.58
1022.677	1449.91
1022.967	1399.51
1023.258	1401.55
1023.548	1420.53
1023.839	1433.18
1024.129	1447.19
1024.419	1388.89
1024.709	1389.57
1025	1374.88
1025.29	1363.58
1025.58	1342.34
1025.87	1358.38
1026.16	1345.95
1026.449	1329.23
1026.739	1308.89
1027.029	1317.03
1027.319	1284.94
1027.608	1295.56
1027.898	1301.21
1028.187	1265.28
1028.477	1288.78
1028.766	1262.34
1029.055	1231.15
1029.344	1246.75
1029.634	1258.05
1029.923	1240.65
1030.212	1256.69
1030.501	1200.42
1030.79	1185.05
1031.078	1195.22
1031.367	1195.45
1031.656	1195.45
1031.945	1182.57
1032.233	1165.85
1032.522	1194.54
1032.81	1160.2
1033.099	1139.63
1033.387	1110.03
1033.675	1124.94
1033.963	1116.58
1034.251	1124.49
1034.54	1100.76
1034.828	1087.43
1035.116	1104.6
1035.403	1090.37
1035.691	1069.35
1035.979	1081.33
1036.267	1060.31
1036.554	1049.01
1036.842	1078.16
1037.129	1059.41
1037.417	1020.09
1037.704	1031.39
1037.992	1013.31
1038.279	1018.73
1038.566	999.07
1038.853	999.07
1039.14	999.07
