Data from hue_340_FLMS001491_93.txt Node
Date: Mon Feb 06 15:43:53 GMT 2017
User: dcchb
Spectrometer: FLMS00149
Trigger mode: 0
Integration Time (sec): 2.000000E-2
Scans to average: 10
Electric dark correction enabled: true
Nonlinearity correction enabled: false
Boxcar width: 0
XAxis mode: Wavelengths
Number of Pixels in Spectrum: 2048
>>>>>Begin Spectral Data<<<<<
341.393	-15.13
341.776	-15.13
342.16	-15.13
342.543	-70.27
342.927	-72.98
343.31	-60.1
343.693	-72.07
344.077	-65.29
344.46	-54
344.843	-51.74
345.226	-39.31
345.61	-32.75
345.993	-14.22
346.376	0.47
346.759	15.38
347.142	18.54
347.525	49.96
347.908	68.94
348.291	69.16
348.674	86.34
349.057	80.69
349.44	120.01
349.823	151.42
350.206	184.42
350.588	198.43
350.971	210.86
351.354	208.14
351.737	251.31
352.119	247.01
352.502	260.57
352.884	279.78
353.267	257.41
353.65	318.2
354.032	313.45
354.414	298.54
354.797	320.23
355.179	306.45
355.562	314.13
355.944	322.72
356.326	331.76
356.709	336.5
357.091	338.54
357.473	344.64
357.855	329.95
358.238	339.67
358.62	333.56
359.002	331.3
359.384	343.06
359.766	349.38
360.148	334.69
360.53	353.23
360.912	323.4
361.294	323.85
361.676	333.34
362.057	341.7
362.439	330.4
362.821	320.68
363.203	338.08
363.584	305.09
363.966	320.91
364.348	316.39
364.729	303.96
365.111	305.54
365.493	312.55
365.874	314.13
366.256	314.13
366.637	333.11
367.019	313.23
367.4	332.89
367.781	318.2
368.163	321.59
368.544	298.76
368.925	299.67
369.306	315.94
369.688	310.29
370.069	293.11
370.45	304.64
370.831	308.71
371.212	286.33
371.593	302.15
371.974	323.85
372.355	316.39
372.736	323.4
373.117	303.28
373.498	322.94
373.879	302.83
374.26	315.94
374.641	309.38
375.021	314.13
375.402	323.85
375.783	315.94
376.163	319.78
376.544	318.2
376.925	315.49
377.305	325.2
377.686	321.36
378.066	302.83
378.447	307.35
378.827	312.1
379.208	343.96
379.588	326.56
379.968	310.97
380.349	334.02
380.729	332.66
381.109	335.15
381.489	315.03
381.87	344.86
382.25	323.17
382.63	330.63
383.01	311.64
383.39	336.05
383.77	344.86
384.15	340.34
384.53	343.06
384.91	321.36
385.29	334.69
385.67	352.77
386.049	356.84
386.429	331.08
386.809	338.54
387.189	329.95
387.568	339.21
387.948	348.48
388.328	356.16
388.707	346.9
389.087	340.34
389.466	357.07
389.846	340.12
390.225	328.37
390.605	370.63
390.984	360.23
391.363	358.87
391.743	361.59
392.122	351.64
392.501	357.52
392.881	357.07
393.26	338.76
393.639	327.24
394.018	348.48
394.397	370.17
394.776	350.51
395.155	360.23
395.534	360.23
395.913	351.42
396.292	394.35
396.671	364.52
397.05	374.92
397.429	377.63
397.808	374.02
398.186	374.92
398.565	387.35
398.944	351.42
399.323	385.99
399.701	378.76
400.08	373.56
400.458	373.11
400.837	391.64
401.215	398.42
401.594	381.92
401.972	398.87
402.351	381.25
402.729	393.22
403.107	390.96
403.486	385.31
403.864	383.05
404.242	396.16
404.62	396.39
404.999	381.92
405.377	400.23
405.755	393.9
406.133	378.08
406.511	404.3
406.889	393.22
407.267	401.13
407.645	406.33
408.023	406.11
408.401	428.7
408.779	428.93
409.156	437.06
409.534	412.88
409.912	418.99
410.29	439.1
410.667	448.14
411.045	424.64
411.422	432.55
411.8	452.21
412.178	469.15
412.555	461.92
412.933	445.2
413.31	464.18
413.687	478.42
414.065	453.34
414.442	475.03
414.819	489.27
415.197	476.39
415.574	492.43
415.951	488.59
416.328	490.85
416.705	495.14
417.082	513.67
417.46	504.41
417.837	505.99
418.214	512.77
418.591	503.5
418.967	505.09
419.344	517.97
419.721	533.33
420.098	520.45
420.475	517.51
420.852	565.2
421.228	546.89
421.605	536.27
421.982	539.21
422.358	557.51
422.735	566.55
423.111	565.2
423.488	564.75
423.864	544.63
424.241	552.77
424.617	558.87
424.994	576.5
425.37	587.57
425.746	573.78
426.123	561.13
426.499	572.43
426.875	570.62
427.251	609.49
427.627	608.81
428.003	622.14
428.379	601.81
428.756	619.88
429.132	602.03
429.507	633.22
429.883	635.93
430.259	652.2
430.635	639.55
431.011	633.9
431.387	674.8
431.763	679.54
432.138	661.24
432.514	675.25
432.89	680.9
433.265	690.17
433.641	700.33
434.016	712.99
434.392	719.77
434.767	716.83
435.143	718.41
435.518	721.13
435.894	724.97
436.269	737.85
436.644	759.99
437.02	750.28
437.395	763.38
437.77	761.12
438.145	773.33
438.52	745.53
438.895	764.97
439.271	779.2
439.646	779.88
440.021	779.65
440.395	779.65
440.77	785.76
441.145	804.29
441.52	817.85
441.895	818.07
442.27	815.13
442.645	818.07
443.019	848.35
443.394	822.82
443.769	844.06
444.143	846.32
444.518	834.57
444.892	836.38
445.267	857.62
445.641	854.68
446.016	869.14
446.39	851.29
446.764	846.09
447.139	829.37
447.513	869.37
447.887	869.37
448.262	850.61
448.636	859.43
449.01	890.16
449.384	871.4
449.758	876.83
450.132	895.81
450.506	890.61
450.88	903.95
451.254	901.01
451.628	894.23
452.002	886.32
452.376	909.37
452.75	931.74
453.123	914.11
453.497	926.77
453.871	909.82
454.244	948.24
454.618	950.27
454.992	955.7
455.365	955.24
455.739	967.45
456.112	988.01
456.486	990.5
456.859	1008.12
457.232	1009.48
457.606	1009.93
457.979	1025.07
458.352	1007.45
458.725	1023.26
459.099	1026.65
459.472	1046.31
459.845	1063.71
460.218	1069.59
460.591	1058.52
460.964	1055.13
461.337	1087.9
461.71	1083.83
462.083	1091.96
462.456	1132.64
462.829	1110.27
463.201	1140.32
463.574	1136.71
463.947	1118.85
464.32	1149.36
464.692	1163.6
465.065	1184.84
465.438	1213.99
465.81	1191.62
466.183	1222.13
466.555	1237.04
466.928	1223.48
467.3	1220.77
467.672	1237.27
468.045	1279.08
468.417	1249.47
468.789	1250.83
469.161	1277.49
469.534	1309.81
469.906	1301.45
470.278	1318.4
470.65	1299.64
471.022	1358.62
471.394	1369.7
471.766	1426.64
472.138	1410.37
472.51	1422.58
472.882	1435
473.253	1452.86
473.625	1479.52
473.997	1506.64
474.369	1510.48
474.74	1532.4
475.112	1544.38
475.484	1576.7
475.855	1602.68
476.227	1588.45
476.598	1631.61
476.97	1623.25
477.341	1660.99
477.713	1690.37
478.084	1711.38
478.455	1750.93
478.827	1762.68
479.198	1810.59
479.569	1795.67
479.94	1851.94
480.311	1855.78
480.682	1890.36
481.053	1905.95
481.424	1940.98
481.795	1973.97
482.166	2004.03
482.537	2023.01
482.908	2040.41
483.279	2038.83
483.65	2124.25
484.021	2141.88
484.391	2145.49
484.762	2148.66
485.133	2195.21
485.503	2218.26
485.874	2263.23
486.244	2281.76
486.615	2321.08
486.985	2338.71
487.356	2360.18
487.726	2419.61
488.097	2440.63
488.467	2425.49
488.837	2513.39
489.207	2509.33
489.578	2551.36
489.948	2552.94
490.318	2624.35
490.688	2613.28
491.058	2651.92
491.428	2657.8
491.798	2717
492.168	2773.27
492.538	2755.87
492.908	2793.39
493.278	2829.09
493.648	2864.8
494.017	2854.18
494.387	2912.03
494.757	2886.72
495.126	2918.58
495.496	2887.62
495.866	2964.23
496.235	2975.76
496.605	2998.81
496.974	3030.44
497.344	3033.38
497.713	3043.55
498.082	3078.35
498.452	3123.1
498.821	3133.72
499.19	3139.14
499.559	3149.54
499.928	3156.09
500.298	3197.67
500.667	3194.28
501.036	3220.95
501.405	3233.83
501.774	3264.34
502.143	3241.51
502.512	3287.61
502.88	3312.02
503.249	3314.73
503.618	3287.39
503.987	3385.69
504.356	3351.34
504.724	3385.01
505.093	3411.45
505.462	3390.66
505.83	3391.79
506.199	3438.79
506.567	3454.84
506.936	3448.96
507.304	3470.21
507.672	3522.63
508.041	3510.88
508.409	3548.85
508.777	3551.79
509.145	3563.31
509.514	3540.49
509.882	3536.87
510.25	3539.36
510.618	3596.98
510.986	3655.51
511.354	3656.19
511.722	3660.48
512.09	3694.61
512.458	3669.3
512.826	3655.29
513.193	3715.4
513.561	3709.07
513.929	3706.81
514.297	3729.63
514.664	3736.19
515.032	3743.19
515.4	3748.16
515.767	3769.18
516.135	3783.19
516.502	3785.9
516.869	3825.9
517.237	3830.2
517.604	3863.42
517.972	3847.82
518.339	3835.62
518.706	3837.88
519.073	3882.85
519.44	3864.32
519.808	3931.21
520.175	3913.58
520.542	3940.48
520.909	3979.12
521.276	3987.03
521.643	3960.36
522.009	4022.73
522.376	4046.46
522.743	4030.42
523.11	4048.27
523.477	4048.95
523.843	4027.25
524.21	4118.32
524.577	4121.04
524.943	4121.04
525.31	4104.54
525.676	4134.14
526.043	4237.19
526.409	4227.47
526.776	4247.13
527.142	4244.42
527.508	4194.71
527.874	4316.28
528.241	4328.71
528.607	4340.24
528.973	4369.84
529.339	4343.85
529.705	4375.27
530.071	4409.84
530.437	4463.63
530.803	4448.94
531.169	4469.95
531.535	4527.35
531.901	4493.68
532.267	4535.26
532.632	4533.68
532.998	4574.36
533.364	4549.5
533.73	4570.06
534.095	4586.79
534.461	4666.33
534.826	4629.27
535.192	4684.41
535.557	4689.16
535.923	4676.28
536.288	4751.08
536.653	4734.58
537.019	4742.49
537.384	4768.7
537.749	4800.34
538.114	4804.86
538.479	4833.56
538.845	4821.36
539.21	4841.69
539.575	4904.97
539.94	4932.54
540.305	4935.03
540.67	4948.81
541.034	4889.38
541.399	5000.56
541.764	5005.53
542.129	5048.02
542.494	5019.09
542.858	5064.51
543.223	5072.2
543.587	5104.96
543.952	5104.74
544.316	5131.18
544.681	5104.51
545.045	5126.66
545.41	5163.95
545.774	5191.74
546.138	5223.61
546.503	5209.82
546.867	5220.22
547.231	5285.75
547.595	5306.32
547.959	5314.45
548.324	5391.51
548.688	5326.65
549.052	5379.76
549.416	5379.53
549.779	5371.17
550.143	5417.95
550.507	5419.31
550.871	5435.8
551.235	5459.76
551.599	5488.91
551.962	5538.63
552.326	5551.96
552.689	5486.2
553.053	5546.08
553.417	5589.92
553.78	5639.41
554.143	5585.86
554.507	5650.04
554.87	5645.29
555.234	5715.12
555.597	5637.38
555.96	5690.26
556.323	5725.74
556.686	5681.45
557.05	5726.42
557.413	5800.99
557.776	5787.43
558.139	5785.62
558.502	5795.34
558.865	5790.82
559.228	5868.33
559.59	5871.27
559.953	5900.88
560.316	5911.95
560.679	5910.14
561.041	5969.57
561.404	5991.04
561.767	6011.38
562.129	5956.24
562.492	6066.52
562.854	6077.82
563.217	6064.26
563.579	6109.91
563.941	6133.64
564.304	6153.98
564.666	6125.5
565.028	6170.02
565.39	6187.87
565.753	6251.15
566.115	6270.81
566.477	6219.96
566.839	6259.74
567.201	6290.7
567.563	6282.11
567.925	6340.64
568.287	6371.37
568.648	6324.14
569.01	6418.15
569.372	6439.39
569.734	6421.77
570.095	6505.61
570.457	6463.8
570.819	6559.62
571.18	6552.38
571.542	6583.12
571.903	6620.86
572.265	6661.53
572.626	6704.92
572.987	6725.26
573.349	6809.1
573.71	6782.43
574.071	6833.96
574.432	6903.11
574.794	6985.82
575.155	6988.98
575.516	7009.55
575.877	7100.62
576.238	7088.19
576.599	7175.19
576.96	7197.11
577.32	7268.07
577.681	7322.53
578.042	7449.76
578.403	7496.99
578.763	7553.49
579.124	7703.77
579.485	7723.43
579.845	7852.01
580.206	7840.26
580.566	8018.79
580.927	8059.24
581.287	8224.43
581.648	8350.98
582.008	8415.16
582.368	8530.64
582.728	8696.51
583.089	8807.24
583.449	8953.9
583.809	9136.72
584.169	9246.78
584.529	9391.41
584.889	9594.79
585.249	9683.6
585.609	9899.19
585.969	10076.81
586.329	10230.71
586.688	10423.47
587.048	10615.1
587.408	10825.27
587.768	11025.26
588.127	11256.44
588.487	11354.74
588.846	11714.06
589.206	11845.8
589.565	12040.6
589.925	12360.37
590.284	12529.85
590.643	12844.42
591.003	13054.59
591.362	13258.87
591.721	13571.41
592.08	13780.89
592.44	14067.21
592.799	14409.13
593.158	14573.64
593.517	14848.89
593.876	15087.53
594.235	15337.46
594.593	15654.07
594.952	15966.37
595.311	16111.23
595.67	16498.56
596.029	16735.17
596.387	17148.49
596.746	17414.47
597.104	17603.39
597.463	17885.65
597.822	18192.76
598.18	18386.88
598.538	18659.41
598.897	19032.06
599.255	19180.75
599.613	19736.44
599.972	19887.63
600.33	20123.33
600.688	20351.57
601.046	20618.46
601.404	21030.87
601.762	21230.42
602.12	21538.66
602.478	21716.96
602.836	22061.35
603.194	22110.39
603.552	22267.9
603.91	22616.14
604.268	22963.25
604.625	23083.25
604.983	23365.5
605.341	23650.69
605.698	23905.6
606.056	24144.01
606.413	24346.27
606.771	24731.34
607.128	24916.87
607.485	24993.03
607.843	25264.66
608.2	25613.35
608.557	25876.62
608.914	25878.88
609.272	26169.95
609.629	26484.29
609.986	26834.79
610.343	26822.59
610.7	27237.26
611.057	27399.29
611.414	27496.92
611.771	27666.18
612.127	27984.14
612.484	28099.39
612.841	28347.97
613.198	28401.3
613.554	28520.39
613.911	28887.39
614.267	29039.02
614.624	29236.99
614.98	29199.47
615.337	29624.32
615.693	29693.47
616.05	29828.61
616.406	29985.89
616.762	30108.83
617.118	30224.3
617.475	30373
617.831	30605.09
618.187	30662.94
618.543	30902.48
618.899	31050.27
619.255	31046.2
619.611	31175.92
619.967	31415.01
620.323	31605.74
620.678	31501.11
621.034	31647.32
621.39	31757.37
621.746	31666.53
622.101	32384.93
622.457	32176.8
622.812	32170.92
623.168	32474.87
623.523	32533.17
623.879	32628.08
624.234	32527.29
624.589	32591.47
624.945	32827.63
625.3	32874.63
625.655	33032.14
626.01	33009.77
626.365	33123.21
626.72	33061.07
627.075	33298.35
627.43	33250.44
627.785	33298.35
628.14	33367.5
628.495	33520.94
628.85	33508.06
629.205	33456.76
629.559	33581.73
629.914	33550.09
630.269	33645.46
630.623	33655.4
630.978	33522.52
631.332	33843.64
631.687	33831.89
632.041	33615.63
632.396	33849.75
632.75	33790.31
633.104	33721.16
633.459	33738.11
633.813	33702.86
634.167	33748.96
634.521	33979.46
634.875	33929.97
635.229	33869.41
635.583	33882.74
635.937	33882.74
636.291	33840.03
636.645	33898.56
636.999	33730.2
637.352	33868.95
637.706	33867.82
638.06	33931.33
638.413	33681.16
638.767	33864.21
639.121	33897.43
639.474	33816.98
639.828	33834.83
640.181	33850.42
640.534	33861.04
640.888	33785.34
641.241	33791.44
641.594	33901.95
641.947	33949.86
642.301	33848.84
642.654	33866.69
643.007	33995.96
643.36	33861.5
643.713	33831.44
644.066	33980.82
644.419	33804.55
644.771	33586.48
645.124	33263.09
645.477	33307.84
645.83	33061.07
646.182	32828.08
646.535	32903.33
646.888	33008.64
647.24	32697.91
647.593	32798.93
647.945	32957.57
648.298	32731.81
648.65	32740.4
649.002	32606.16
649.355	32873.73
649.707	32751.92
650.059	32877.12
650.411	33301.06
650.763	33321.4
651.115	33561.84
651.467	33527.04
651.819	33584.22
652.171	33431.68
652.523	33520.71
652.875	33408.18
653.227	33340.38
653.578	33536.76
653.93	33435.07
654.282	33339.02
654.633	33274.39
654.985	33295.18
655.337	33410.89
655.688	33337.67
656.039	33460.6
656.391	33201.4
656.742	33220.84
657.094	33288.86
657.445	33359.14
657.796	33219.48
658.147	33077.11
658.498	33240.04
658.849	33280.72
659.2	33152.36
659.551	33106.94
659.902	33180.84
660.253	33174.51
660.604	33215.41
660.955	33078.69
661.306	33257.44
661.656	33080.27
662.007	33146.04
662.358	33221.74
662.708	33109.2
663.059	33144.68
663.409	33038.92
663.76	33254.51
664.11	33286.82
664.461	33256.54
664.811	33235.98
665.161	33244.11
665.511	33052.48
665.862	33166.15
666.212	33456.31
666.562	33252.47
666.912	33058.13
667.262	33013.38
667.612	33149.65
667.962	33042.99
668.312	33091.35
668.662	33160.95
669.011	33105.13
669.361	33045.25
669.711	32941.29
670.06	33005.93
670.41	32948.07
670.76	32950.33
671.109	33049.54
671.459	33106.49
671.808	32926.61
672.157	32975.42
672.507	32826.04
672.856	32880.05
673.205	32797.34
673.554	33045.02
673.904	32777.46
674.253	33007.96
674.602	32866.27
674.951	32426.05
675.3	32230.13
675.649	32909.43
675.998	32786.95
676.346	32738.81
676.695	32951.01
677.044	32696.33
677.393	32712.6
677.741	32673.05
678.09	32618.14
678.438	32641.19
678.787	32656.78
679.135	32620.63
679.484	32325.94
679.832	32558.93
680.181	32268.09
680.529	32593.73
680.877	32399.84
681.225	32405.94
681.573	32439.16
681.922	32258.37
682.27	32363
682.618	32297.47
682.966	32168.43
683.314	32239.62
683.661	32100.41
684.009	31949
684.357	31916.69
684.705	31900.64
685.053	31825.84
685.4	31885.96
685.748	31774.32
686.095	31807.77
686.443	31671.72
686.79	31625.85
687.138	31663.36
687.485	31669.24
687.832	31607.54
688.18	31715.79
688.527	31436.25
688.874	31465.18
689.221	31308.8
689.568	31268.57
689.915	31194.9
690.262	31156.71
690.609	30962.14
690.956	30934.57
691.303	30978.86
691.65	30706.55
691.997	30874.23
692.344	30644.41
692.69	30875.59
693.037	30644.86
693.383	30362.61
693.73	30605.09
694.077	30369.61
694.423	30368.03
694.769	30164.19
695.116	30089.62
695.462	30097.75
695.808	29954.71
696.155	30114.93
696.501	29802.39
696.847	29831.09
697.193	29677.2
697.539	29754.49
697.885	29507.49
698.231	29517.66
698.577	29443.99
698.923	29249.87
699.269	29183.88
699.614	29086.71
699.96	28957.67
700.306	29153.82
700.651	28961.96
700.997	28885.13
701.342	28781.63
701.688	28816.66
702.033	28801.74
702.379	28781.63
702.724	28648.75
703.069	28618.24
703.415	28322.43
703.76	28317.69
704.105	28415.99
704.45	28292.6
704.795	28097.35
705.14	27985.49
705.485	28036.11
705.83	27922.22
706.175	28018.03
706.52	27865.27
706.865	27793.18
707.209	27769.68
707.554	27726.29
707.899	27733.52
708.243	27582.79
708.588	27460.08
708.932	27404.49
709.277	27370.59
709.621	27396.81
709.966	27161.56
710.31	27251.27
710.654	27095.57
710.998	27047.66
711.342	27017.16
711.687	26949.81
712.031	26797.28
712.375	26797.05
712.719	26844.05
713.063	26792.98
713.407	26832.3
713.75	26623.72
714.094	26648.13
714.438	26440
714.782	26572.87
715.125	26360
715.469	26304.18
715.812	26140.34
716.156	26099.44
716.499	26204.3
716.843	26228.03
717.186	25997.75
717.53	26153.9
717.873	26055.6
718.216	26143.06
718.559	25850.41
718.902	25756.85
719.246	25778.77
719.589	25769.96
719.932	25633.46
720.275	25753.24
720.617	25545.11
720.96	25624.43
721.303	25547.36
721.646	25561.83
721.989	25438.22
722.331	25509.4
722.674	25375.17
723.016	25496.29
723.359	25319.8
723.701	25371.1
724.044	25175.62
724.386	25013.37
724.729	25214.04
725.071	25134.72
725.413	25153.7
725.755	25020.37
726.097	25033.93
726.439	24823.09
726.782	24888.17
727.124	24984.89
727.465	24811.34
727.807	24754.17
728.149	24802.53
728.491	24766.14
728.833	24816.08
729.175	24685.69
729.516	24592.14
729.858	24576.32
730.199	24622.42
730.541	24658.35
730.882	24518.24
731.224	24619.25
731.565	24398.02
731.906	24443.89
732.248	24515.08
732.589	24304.46
732.93	24151.24
733.271	24213.61
733.612	24252.71
733.953	24362.76
734.294	24161.64
734.635	24069.44
734.976	24167.74
735.317	24018.37
735.658	23956.45
735.999	24047.97
736.339	23937.24
736.68	23902.66
737.021	23907.41
737.361	23754.87
737.702	23945.37
738.042	23777.92
738.383	23763.46
738.723	23807.98
739.063	23623.12
739.404	23764.81
739.744	23717.36
740.084	23454.99
740.424	23616.12
740.764	23509.68
741.104	23615.66
741.444	23340.19
741.784	23279.18
742.124	23459.74
742.464	23406.86
742.804	23331.6
743.143	23319.4
743.483	23266.52
743.823	23272.17
744.162	23147.65
744.502	23107.43
744.841	23049.35
745.181	23224.26
745.52	23005.96
745.86	23018.39
746.199	23043.25
746.538	23164.15
746.877	23003.03
747.216	23057.49
747.556	22842.58
747.895	22903.59
748.234	22843.26
748.573	22856.36
748.911	22767.78
749.25	22840.32
749.589	22656.82
749.928	22686.42
750.267	22659.08
750.605	22540.44
750.944	22528.69
751.283	22518.74
751.621	22499.08
751.96	22410.95
752.298	22380.22
752.636	22349.71
752.975	22365.98
753.313	22166.21
753.651	22323.49
753.989	22246.89
754.327	22058.87
754.666	21985.88
755.004	22085.31
755.342	22081.47
755.679	21993.33
756.017	21915.82
756.355	21969.15
756.693	21734.13
757.031	21874.24
757.368	21685.09
757.706	21673.79
758.044	21570.52
758.381	21644.42
758.719	21600.8
759.056	21566.9
759.394	21454.37
759.731	21373.01
760.068	21391.54
760.405	21149.29
760.743	20988.39
761.08	21177.08
761.417	21114.04
761.754	21108.61
762.091	20980.93
762.428	20914.72
762.765	20743.2
763.102	20821.16
763.438	20688.96
763.775	20524.67
764.112	20672.92
764.449	20679.92
764.785	20574.39
765.122	20429.76
765.458	20336.88
765.795	20380.27
766.131	20339.37
766.467	20263.66
766.804	20088.98
767.14	20118.58
767.476	20116.32
767.812	20055.31
768.148	19968.98
768.485	19837.68
768.821	19730.79
769.157	19681.98
769.492	19651.7
769.828	19661.19
770.164	19466.62
770.5	19467.07
770.836	19349.11
771.171	19373.97
771.507	19333.97
771.842	19137.82
772.178	19182.56
772.513	19088.55
772.849	19024.82
773.184	18955.45
773.519	18966.97
773.855	18793.42
774.19	18717.71
774.525	18692.86
774.86	18732.4
775.195	18624.61
775.53	18435.01
775.865	18491.73
776.2	18246.09
776.535	18173.77
776.87	18204.28
777.205	18153.89
777.539	17982.37
777.874	18105.75
778.209	17878.41
778.543	17835.25
778.878	17806.55
779.212	17824.63
779.547	17663.73
779.881	17713.22
780.215	17539.21
780.55	17598.2
780.884	17478.2
781.218	17364.76
781.552	17416.28
781.886	17369.05
782.22	17272.55
782.554	17212.89
782.888	17057.19
783.222	17017.42
783.556	16916.63
783.889	16909.17
784.223	16740.14
784.557	16703.08
784.89	16734.04
785.224	16650.2
785.557	16538.79
785.891	16576.75
786.224	16428.73
786.558	16560.71
786.891	16327.72
787.224	16311.45
787.557	16264.9
787.891	16151.23
788.224	16216.31
788.557	16120.95
788.89	15970.22
789.223	16010.89
789.556	15931.12
789.888	15904
790.221	15908.52
790.554	15728.87
790.887	15739.71
791.219	15603.67
791.552	15613.61
791.884	15534.97
792.217	15459.49
792.549	15419.04
792.882	15290.01
793.214	15287.52
793.546	15300.63
793.879	15169.33
794.211	15175.43
794.543	15123.68
794.875	15044.14
795.207	15123.68
795.539	15010.69
795.871	15067.64
796.203	14819.06
796.535	14774.31
796.867	14781.77
797.198	14668.55
797.53	14786.07
797.862	14562.8
798.193	14604.83
798.525	14557.82
798.856	14434.66
799.188	14334.33
799.519	14318.06
799.85	14325.97
800.182	14289.58
800.513	14244.61
800.844	14159.42
801.175	14218.17
801.506	14120.55
801.837	14048.01
802.168	14023.37
802.499	14030.83
802.83	13957.39
803.161	13926.2
803.491	13932.98
803.822	13893.21
804.153	13828.35
804.483	13679.88
804.814	13695.7
805.145	13681.91
805.475	13640.56
805.805	13636.04
806.136	13601.46
806.466	13619.54
806.796	13498.87
807.126	13457.74
807.457	13328.25
807.787	13380
808.117	13345.65
808.447	13311.53
808.777	13295.03
809.107	13243.51
809.436	13200.35
809.766	13135.94
810.096	13150.4
810.426	13088.71
810.755	13122.83
811.085	13035.83
811.414	13019.78
811.744	12973.46
812.073	12897.08
812.403	12861.37
812.732	12808.94
813.061	12826.12
813.39	12654.82
813.719	12730.07
814.049	12773.01
814.378	12668.83
814.707	12687.59
815.036	12637.2
815.365	12566.24
815.693	12467.71
816.022	12520.59
816.351	12405.79
816.68	12345.68
817.008	12361.05
817.337	12288.28
817.665	12340.71
817.994	12278.79
818.322	12310.65
818.651	12241.95
818.979	12194.95
819.307	12231.33
819.636	12113.14
819.964	12055.06
820.292	12089.41
820.62	12072.69
820.948	12034.95
821.276	12085.57
821.604	12037.89
821.932	12009.87
822.259	12059.81
822.587	11953.37
822.915	11943.2
823.243	12006.7
823.57	11967.84
823.898	12003.99
824.225	11949.76
824.553	11923.09
824.88	11962.41
825.207	12005.8
825.535	11947.72
825.862	11996.99
826.189	11992.47
826.516	12035.86
826.843	11949.76
827.17	12006.93
827.497	11949.76
827.824	12024.56
828.151	12033.6
828.478	11997.44
828.805	12029.3
829.131	11987.04
829.458	11925.35
829.785	11899.59
830.111	11889.42
830.438	12000.15
830.764	11914.5
831.09	11895.29
831.417	11915.41
831.743	11972.81
832.069	11905.46
832.395	11858.91
832.722	11869.98
833.048	11836.09
833.374	11927.84
833.7	11777.56
834.026	11893.49
834.351	11874.73
834.677	11802.19
835.003	11898.01
835.329	11833.6
835.654	11809.87
835.98	11832.47
836.306	11726.94
836.631	11681.06
836.956	11731.46
837.282	11788.86
837.607	11670.22
837.932	11675.41
838.258	11632.93
838.583	11667.5
838.908	11579.6
839.233	11629.99
839.558	11585.02
839.883	11505.7
840.208	11559.94
840.533	11432.93
840.858	11455.53
841.182	11465.7
841.507	11463.67
841.832	11446.94
842.156	11469.32
842.481	11353.61
842.805	11306.16
843.13	11308.87
843.454	11332.82
843.778	11275.42
844.103	11270.23
844.427	11180.06
844.751	11198.59
845.075	11149.78
845.399	11078.37
845.723	11095.99
846.047	11041.76
846.371	10929.44
846.695	11036.56
847.019	10880.18
847.343	10895.32
847.666	10816.45
847.99	10746.62
848.313	10757.7
848.637	10681.99
848.96	10617.81
849.284	10711.82
849.607	10625.27
849.931	10576.46
850.254	10459.63
850.577	10380.08
850.9	10369.23
851.223	10329.69
851.546	10239.52
851.869	10233.64
852.192	10286.75
852.515	10150.03
852.838	10150.03
853.161	10125.17
853.483	10092.4
853.806	10068.9
854.129	10081.56
854.451	9952.29
854.774	9902.8
855.096	9912.52
855.419	9943.71
855.741	9828.91
856.063	9765.41
856.385	9849.25
856.708	9804.5
857.03	9685.64
857.352	9750.04
857.674	9659.42
857.996	9694.67
858.318	9618.29
858.64	9628.46
858.961	9590.04
859.283	9547.11
859.605	9416.94
859.926	9470.27
860.248	9526.09
860.57	9420.33
860.891	9430.73
861.212	9352.08
861.534	9432.31
861.855	9259.43
862.176	9318.87
862.498	9324.29
862.819	9331.75
863.14	9282.48
863.461	9298.07
863.782	9298.98
864.103	9196.16
864.424	9205.65
864.745	9233.44
865.065	9139.43
865.386	9137.85
865.707	9151.41
866.027	9097.63
866.348	9126.55
866.668	9093.33
866.989	8996.61
867.309	9002.72
867.63	9001.36
867.95	9054.24
868.27	8986.22
868.59	8961.59
868.91	8992.55
869.23	8929.95
869.55	8899.44
869.87	8929.27
870.19	8916.84
870.51	8881.36
870.83	8903.73
871.15	8817.64
871.469	8840.46
871.789	8906.67
872.109	8866.22
872.428	8751.65
872.748	8748.71
873.067	8789.39
873.386	8753.46
873.706	8762.72
874.025	8746.9
874.344	8681.14
874.663	8675.49
874.982	8682.72
875.301	8710.75
875.62	8696.51
875.939	8638.88
876.258	8692.67
876.577	8556.17
876.896	8601.6
877.214	8580.81
877.533	8618.77
877.852	8580.13
878.17	8580.58
878.489	8570.64
878.807	8495.61
879.125	8514.14
879.444	8553.46
879.762	8454.93
880.08	8468.72
880.398	8369.29
880.716	8400.02
881.034	8436.18
881.352	8422.17
881.67	8403.63
881.988	8415.39
882.306	8357.76
882.624	8368.61
882.941	8304.65
883.259	8290.19
883.577	8234.83
883.894	8257.88
884.212	8199.57
884.529	8178.33
884.846	8266.92
885.164	8176.97
885.481	8148.5
885.798	8178.1
886.115	8136.52
886.432	8082.29
886.75	8150.99
887.067	8118.22
887.383	8013.81
887.7	8045
888.017	8028.5
888.334	8066.92
888.651	8021.72
888.967	7976.98
889.284	7949.64
889.6	7894.95
889.917	7814.72
890.233	7852.91
890.55	7814.27
890.866	7864.67
891.182	7738.57
891.498	7772.69
891.815	7695.86
892.131	7747.38
892.447	7689.53
892.763	7699.7
893.079	7621.06
893.395	7630.55
893.71	7618.57
894.026	7577.22
894.342	7560.04
894.657	7491.34
894.973	7539.25
895.289	7531.57
895.604	7421.74
895.92	7406.15
896.235	7345.36
896.55	7389.2
896.865	7379.93
897.181	7280.95
897.496	7322.76
897.811	7304.68
898.126	7285.02
898.441	7271.01
898.756	7211.58
899.071	7176.32
899.386	7158.47
899.7	7111.69
900.015	7094.52
900.33	7066.49
900.644	7055.2
900.959	7049.55
901.273	7025.14
901.588	6949.89
901.902	6930.23
902.216	6899.49
902.531	6865.6
902.845	6870.79
903.159	6863.34
903.473	6832.6
903.787	6747.18
904.101	6764.58
904.415	6767.07
904.729	6744.24
905.042	6695.66
905.356	6697.24
905.67	6659.95
905.984	6669.67
906.297	6634.64
906.611	6576.79
906.924	6570.46
907.237	6595.55
907.551	6562.78
907.864	6530.92
908.177	6496.57
908.491	6498.6
908.804	6410.92
909.117	6385.16
909.43	6403.01
909.743	6293.18
910.056	6330.92
910.368	6308.32
910.681	6305.39
910.994	6274.65
911.307	6237.82
911.619	6193.75
911.932	6184.71
912.244	6144.94
912.557	6119.63
912.869	6075.79
913.181	6049.12
913.494	6047.09
913.806	6009.8
914.118	5998.5
914.43	6016.35
914.742	5955.56
915.054	5910.14
915.366	5922.34
915.678	5883.25
915.99	5857.94
916.302	5814.55
916.613	5828.11
916.925	5772.74
917.236	5745.85
917.548	5726.19
917.859	5744.95
918.171	5692.29
918.482	5619.08
918.794	5666.98
919.105	5633.31
919.416	5585.63
919.727	5554.44
920.038	5541.79
920.349	5535.69
920.66	5552.64
920.971	5485.29
921.282	5505.18
921.593	5421.11
921.903	5400.55
922.214	5378.63
922.525	5354.22
922.835	5339.53
923.146	5325.98
923.456	5309.93
923.767	5305.19
924.077	5276.03
924.387	5222.02
924.697	5217.96
925.008	5166.88
925.318	5196.04
925.628	5158.3
925.938	5151.07
926.248	5158.07
926.558	5096.6
926.867	5120.33
927.177	5031.29
927.487	5070.84
927.796	5013.89
928.106	4991.07
928.416	4955.59
928.725	4966.66
929.034	4958.75
929.344	4905.87
929.653	4889.6
929.962	4862.71
930.271	4837.63
930.581	4855.25
930.89	4773.67
931.199	4806.67
931.508	4755.82
931.817	4746.56
932.125	4724.41
932.434	4732.77
932.743	4688.03
933.051	4637.41
933.36	4674.24
933.669	4581.81
933.977	4581.59
934.286	4599.89
934.594	4582.04
934.902	4519.9
935.21	4509.05
935.519	4539.56
935.827	4493.46
936.135	4501.82
936.443	4423.4
936.751	4372.78
937.059	4402.84
937.367	4373.46
937.674	4374.81
937.982	4356.06
938.29	4322.39
938.597	4342.27
938.905	4313.8
939.213	4292.56
939.52	4248.94
939.827	4274.7
940.135	4209.62
940.442	4197.64
940.749	4267.02
941.056	4207.81
941.363	4163.97
941.67	4108.83
941.977	4146.12
942.284	4103.64
942.591	4086.23
942.898	4061.15
943.205	4080.58
943.511	4039
943.818	4031.32
944.125	4021.15
944.431	3984.54
944.738	3989.06
945.044	3974.82
945.35	3923.75
945.657	3911.78
945.963	3903.87
946.269	3885.11
946.575	3899.12
946.881	3883.75
947.187	3853.47
947.493	3838.78
947.799	3794.04
948.105	3796.07
948.41	3772.34
948.716	3748.16
949.022	3743.64
949.327	3756.98
949.633	3733.93
949.938	3728.5
950.244	3632.46
950.549	3628.62
950.854	3643.31
951.16	3667.26
951.465	3594.95
951.77	3645.12
952.075	3563.31
952.38	3543.2
952.685	3603.31
952.99	3499.13
953.294	3532.35
953.599	3478.79
953.904	3487.61
954.209	3462.07
954.513	3444.9
954.818	3450.09
955.122	3431.56
955.426	3453.48
955.731	3416.2
956.035	3405.35
956.339	3378.91
956.643	3365.8
956.948	3352.24
957.252	3313.15
957.556	3301.17
957.86	3300.94
958.163	3281.28
958.467	3290.55
958.771	3258.01
959.075	3236.09
959.378	3198.12
959.682	3226.82
959.985	3215.07
960.289	3182.76
960.592	3191.34
960.896	3155.64
961.199	3149.54
961.502	3158.12
961.805	3151.12
962.108	3140.04
962.411	3116.54
962.714	3100.27
963.017	3091.68
963.32	3111.34
963.623	3041.74
963.926	3039.93
964.228	3001.29
964.531	3024.57
964.833	3018.24
965.136	2975.76
965.438	2956.55
965.741	2950.67
966.043	2917.9
966.345	2895.98
966.648	2885.36
966.95	2917.23
967.252	2916.1
967.554	2865.48
967.856	2897.57
968.158	2859.15
968.46	2839.49
968.761	2839.94
969.063	2797.45
969.365	2813.95
969.666	2813.27
969.968	2760.17
970.269	2803.1
970.571	2789.55
970.872	2762.43
971.174	2749.55
971.475	2759.04
971.776	2710
972.077	2707.29
972.378	2688.31
972.679	2670.9
972.98	2695.31
973.281	2686.5
973.582	2649.44
973.883	2642.2
974.183	2613.5
974.484	2614.18
974.785	2588.19
975.085	2627.29
975.386	2594.75
975.686	2598.82
975.986	2563.56
976.287	2555.65
976.587	2547.29
976.887	2550.68
977.187	2545.48
977.487	2500.51
977.787	2489.89
978.087	2477.24
978.387	2454.86
978.687	2458.71
978.987	2454.64
979.286	2446.05
979.586	2445.6
979.885	2418.71
980.185	2421.65
980.484	2405.83
980.784	2424.81
981.083	2361.76
981.382	2371.93
981.682	2372.38
981.981	2355.88
982.28	2348.88
982.579	2340.52
982.878	2370.12
983.177	2326.96
983.475	2326.28
983.774	2301.87
984.073	2258.03
984.372	2243.57
984.67	2232.5
984.969	2232.05
985.267	2234.31
985.566	2226.62
985.864	2199.28
986.162	2254.64
986.461	2227.75
986.759	2195.44
987.057	2168.77
987.355	2191.14
987.653	2186.62
987.951	2187.3
988.249	2150.24
988.547	2156.12
988.844	2122.22
989.142	2125.16
989.44	2102.11
989.737	2105.27
990.035	2074.08
990.332	2047.19
990.63	2078.6
990.927	2077.47
991.224	2037.93
991.521	2046.97
991.819	2035.67
992.116	2036.34
992.413	2040.19
992.71	1988.89
993.006	2008.55
993.303	2023.01
993.6	1988.89
993.897	1980.3
994.193	1984.59
994.49	1961.32
994.787	1932.17
995.083	1952.51
995.379	1939.17
995.676	1912.28
995.972	1923.58
996.268	1897.37
996.565	1917.93
996.861	1869.8
997.157	1892.17
997.453	1852.62
997.749	1886.52
998.044	1860.08
998.34	1823.69
998.636	1846.29
998.932	1801.77
999.227	1826.41
999.523	1802
999.818	1795.45
1000.114	1776.92
1000.409	1776.69
1000.704	1748.89
1001	1785.96
1001.295	1765.39
1001.59	1743.02
1001.885	1724.04
1002.18	1733.98
1002.475	1739.4
1002.77	1716.58
1003.065	1670.48
1003.359	1705.96
1003.654	1666.41
1003.949	1683.13
1004.243	1666.19
1004.538	1663.93
1004.832	1653.08
1005.127	1653.53
1005.421	1614.66
1005.715	1619.18
1006.009	1647.2
1006.304	1598.39
1006.598	1595.9
1006.892	1584.83
1007.186	1592.51
1007.48	1564.94
1007.773	1562.68
1008.067	1572.63
1008.361	1540.09
1008.655	1535.34
1008.948	1514.78
1009.242	1515.91
1009.535	1514.1
1009.829	1529.69
1010.122	1492.63
1010.415	1476.36
1010.708	1456.92
1011.001	1486.08
1011.295	1453.99
1011.588	1433.42
1011.881	1445.63
1012.173	1445.63
1012.466	1419.86
1012.759	1389.58
1013.052	1417.83
1013.344	1413.08
1013.637	1426.19
1013.93	1370.83
1014.222	1383.25
1014.514	1389.13
1014.807	1397.27
1015.099	1358.62
1015.391	1330.83
1015.683	1347.78
1015.976	1333.09
1016.268	1343.03
1016.56	1316.14
1016.851	1330.15
1017.143	1298.74
1017.435	1270.94
1017.727	1295.8
1018.018	1306.87
1018.31	1265.97
1018.602	1285.86
1018.893	1244.05
1019.185	1265.29
1019.476	1254.67
1019.767	1231.85
1020.058	1234.11
1020.35	1212.41
1020.641	1247.21
1020.932	1226.42
1021.223	1181.45
1021.514	1199.98
1021.804	1200.21
1022.095	1192.75
1022.386	1169.25
1022.677	1149.59
1022.967	1172.19
1023.258	1166.09
1023.548	1174.45
1023.839	1147.78
1024.129	1155.01
1024.419	1166.76
1024.709	1102.58
1025	1094.45
1025.29	1076.82
1025.58	1096.48
1025.87	1075.01
1026.16	1064.17
1026.449	1069.14
1026.739	1070.72
1027.029	1095.35
1027.319	1077.73
1027.608	1037.73
1027.898	1091.96
1028.187	1046.99
1028.477	1031.17
1028.766	1009.48
1029.055	1026.65
1029.344	1030.95
1029.634	993.21
1029.923	998.63
1030.212	980.1
1030.501	992.53
1030.79	976.94
1031.078	988.69
1031.367	985.07
1031.656	949.82
1031.945	948.24
1032.233	940.33
1032.522	960.67
1032.81	953.66
1033.099	931.52
1033.387	942.59
1033.675	922.25
1033.963	931.74
1034.251	940.1
1034.54	913.66
1034.828	897.62
1035.116	893.55
1035.403	872.53
1035.691	884.51
1035.979	889.71
1036.267	872.08
1036.554	875.02
1036.842	881.35
1037.129	856.71
1037.417	844.06
1037.704	859.65
1037.992	810.61
1038.279	855.13
1038.566	865.3
1038.853	865.3
1039.14	865.3
