Data from hue_22_FLMS001491_00016.txt Node
Date: Tue Feb 07 17:09:41 GMT 2017
User: dcchb
Spectrometer: FLMS00149
Trigger mode: 0
Integration Time (sec): 2.000000E-2
Scans to average: 10
Electric dark correction enabled: true
Nonlinearity correction enabled: false
Boxcar width: 0
XAxis mode: Wavelengths
Number of Pixels in Spectrum: 2048
>>>>>Begin Spectral Data<<<<<
341.393	-11.77
341.776	-11.77
342.16	-11.77
342.543	-70.52
342.927	-61.93
343.31	-75.94
343.693	-75.49
344.077	-69.39
344.46	-56.74
344.843	-49.5
345.226	-54.02
345.61	-27.81
345.993	-28.04
346.376	8.12
346.759	17.84
347.142	17.16
347.525	56.03
347.908	56.48
348.291	80.44
348.674	96.25
349.057	104.62
349.44	145.29
349.823	146.42
350.206	164.28
350.588	217.83
350.971	215.12
351.354	240.21
351.737	243.82
352.119	252.63
352.502	284.5
352.884	264.61
353.267	295.35
353.65	288.34
354.032	296.48
354.414	316.14
354.797	312.07
355.179	326.76
355.562	334.89
355.944	318.17
356.326	350.03
356.709	338.06
357.091	355.68
357.473	340.09
357.855	346.42
358.238	362.01
358.62	362.46
359.002	353.65
359.384	353.87
359.766	341.67
360.148	346.87
360.53	348.9
360.912	348.9
361.294	334.89
361.676	345.97
362.057	345.97
362.439	334.21
362.821	330.37
363.203	334.67
363.584	344.38
363.966	330.6
364.348	331.05
364.729	351.39
365.111	316.36
365.493	320.43
365.874	319.07
366.256	335.57
366.637	317.27
367.019	328.79
367.4	313.65
367.781	306.42
368.163	313.65
368.544	323.59
368.925	330.37
369.306	347.1
369.688	335.12
370.069	324.72
370.45	315.23
370.831	326.53
371.212	312.97
371.593	324.95
371.974	329.24
372.355	328.34
372.736	345.74
373.117	328.79
373.498	336.02
373.879	340.09
374.26	326.98
374.641	330.6
375.021	309.13
375.402	321.11
375.783	326.98
376.163	338.96
376.544	336.93
376.925	348
377.305	325.4
377.686	318.62
378.066	357.72
378.447	340.99
378.827	316.14
379.208	343.48
379.588	326.76
379.968	357.72
380.349	348
380.729	354.33
381.109	338.06
381.489	351.16
381.87	345.29
382.25	337.38
382.63	345.74
383.01	353.42
383.39	358.17
383.77	372.41
384.15	353.42
384.53	367.43
384.91	369.69
385.29	358.17
385.67	370.6
386.049	353.65
386.429	355.46
386.809	359.07
387.189	357.26
387.568	375.34
387.948	355.91
388.328	361.56
388.707	381.44
389.087	367.43
389.466	388.45
389.846	373.31
390.225	379.64
390.605	389.35
390.984	385.06
391.363	371.5
391.743	372.86
392.122	383.25
392.501	381.9
392.881	389.35
393.26	364.72
393.639	381.67
394.018	386.87
394.397	396.59
394.776	390.94
395.155	414.66
395.534	403.14
395.913	415.79
396.292	406.3
396.671	415.57
397.05	393.42
397.429	401.11
397.808	394.33
398.186	395
398.565	405.4
398.944	398.17
399.323	400.88
399.701	409.47
400.08	412.4
400.458	423.93
400.837	419.86
401.215	420.99
401.594	425.29
401.972	435.45
402.351	421.44
402.729	451.27
403.107	434.1
403.486	433.65
403.864	435.91
404.242	448.79
404.62	438.17
404.999	427.32
405.377	452.63
405.755	446.3
406.133	440.65
406.511	459.86
406.889	464.38
407.267	442.23
407.645	464.15
408.023	456.47
408.401	463.48
408.779	455.12
409.156	457.37
409.534	466.41
409.912	456.92
410.29	489.24
410.667	497.6
411.045	469.35
411.422	474.55
411.8	470.03
412.178	482.23
412.555	504.61
412.933	501.67
413.31	512.97
413.687	493.76
414.065	522.46
414.442	506.87
414.819	505.74
415.197	517.49
415.574	499.63
415.951	513.19
416.328	524.94
416.705	525.17
417.082	538.73
417.46	532.85
417.837	538.95
418.214	540.99
418.591	524.94
418.967	562.23
419.344	551.61
419.721	540.31
420.098	577.15
420.475	542.57
420.852	547.09
421.228	551.84
421.605	570.82
421.982	575.34
422.358	573.98
422.735	551.16
423.111	565.62
423.488	562.68
423.864	587.54
424.241	605.39
424.617	595.9
424.994	595
425.37	635.68
425.746	610.37
426.123	606.75
426.499	593.87
426.875	585.96
427.251	609.46
427.627	621.21
428.003	622.79
428.379	620.53
428.756	641.32
429.132	631.83
429.507	645.39
429.883	632.06
430.259	666.41
430.635	663.92
431.011	666.86
431.387	664.6
431.763	699.18
432.138	684.04
432.514	677.48
432.89	687.65
433.265	693.53
433.641	713.19
434.016	729.46
434.392	714.09
434.767	706.63
435.143	726.75
435.518	729.91
435.894	738.72
436.269	749.57
436.644	756.8
437.02	790.25
437.395	776.46
437.77	794.54
438.145	766.29
438.52	778.04
438.895	799.51
439.271	786.86
439.646	783.69
440.021	818.95
440.395	803.58
440.77	829.57
441.145	811.94
441.52	834.77
441.895	804.94
442.27	844.48
442.645	843.13
443.019	866.18
443.394	851.94
443.769	847.42
444.143	838.83
444.518	837.25
444.892	874.31
445.267	876.8
445.641	870.25
446.016	883.8
446.39	880.41
446.764	889.23
447.139	901.66
447.513	910.02
447.887	921.32
448.262	893.07
448.636	915.22
449.01	921.77
449.384	910.92
449.758	930.58
450.132	967.42
450.506	945.95
450.88	939.85
451.254	952.96
451.628	962.45
452.002	982.78
452.376	980.07
452.75	976.46
453.123	974.2
453.497	991.15
453.871	987.98
454.244	1021.43
454.618	1050.35
454.992	1045.83
455.365	1046.51
455.739	1059.17
456.112	1102.33
456.486	1082.44
456.859	1092.61
457.232	1112.27
457.606	1085.83
457.979	1108.21
458.352	1135.32
458.725	1167.64
459.099	1145.49
459.472	1189.11
459.845	1172.16
460.218	1189.56
460.591	1192.72
460.964	1190.92
461.337	1222.1
461.71	1247.18
462.083	1254.42
462.456	1265.72
462.829	1279.05
463.201	1284.92
463.574	1302.78
463.947	1308.65
464.32	1329.67
464.692	1326.28
465.065	1336
465.438	1377.12
465.81	1421.19
466.183	1417.58
466.555	1463.9
466.928	1446.28
467.3	1442.43
467.672	1467.97
468.045	1477.01
468.417	1497.12
468.789	1514.52
469.161	1548.65
469.534	1549.32
469.906	1567.63
470.278	1652.6
470.65	1611.47
471.022	1667.96
471.394	1685.14
471.766	1670.45
472.138	1704.57
472.51	1770.33
472.882	1792.03
473.253	1782.31
473.625	1818.24
473.997	1846.72
474.369	1851.46
474.74	1881.52
475.112	1903.44
475.484	1942.99
475.855	1999.93
476.227	2035.19
476.598	2048.29
476.97	2063.66
477.341	2128.07
477.713	2179.59
478.084	2183.66
478.455	2230.44
478.827	2293.48
479.198	2316.31
479.569	2341.62
479.94	2401.5
480.311	2455.06
480.682	2509.98
481.053	2570.31
481.424	2565.34
481.795	2617.77
482.166	2649.41
482.537	2703.64
482.908	2756.52
483.279	2791.55
483.65	2834.04
484.021	2871.77
484.391	2935.73
484.762	2980.25
485.133	3011.88
485.503	3082.16
485.874	3139.56
486.244	3130.07
486.615	3248.04
486.985	3270.86
487.356	3350.18
487.726	3382.04
488.097	3458.43
488.467	3459.78
488.837	3564.41
489.207	3615.48
489.578	3652.77
489.948	3694.13
490.318	3724.18
490.688	3740
491.058	3800.56
491.428	3881.69
491.798	3933.67
492.168	3976.38
492.538	4082.14
492.908	4100.44
493.278	4101.12
493.648	4135.92
494.017	4228.35
494.387	4268.57
494.757	4300.44
495.126	4386.09
495.496	4388.57
495.866	4422.69
496.235	4489.36
496.605	4466.08
496.974	4533.88
497.344	4606.64
497.713	4630.82
498.082	4681.9
498.452	4701.11
498.821	4709.01
499.19	4791.95
499.559	4776.58
499.928	4816.36
500.298	4902.91
500.667	4906.75
501.036	4909.69
501.405	4949.91
501.774	4981.55
502.143	5006.41
502.512	5009.35
502.88	5057.48
503.249	5034.43
503.618	5112.85
503.987	5147.65
504.356	5161.21
504.724	5191.49
505.093	5266.74
505.462	5258.83
505.83	5285.95
506.199	5310.35
506.567	5391.93
506.936	5411.82
507.304	5448.2
507.672	5453.4
508.041	5490.69
508.409	5480.75
508.777	5540.18
509.145	5557.58
509.514	5592.61
509.882	5580.63
510.25	5639.61
510.618	5697.24
510.986	5707.41
511.354	5727.29
511.722	5805.03
512.09	5805.26
512.458	5837.35
512.826	5869.66
513.193	5859.49
513.561	5875.09
513.929	5885.48
514.297	5975.2
514.664	6008.64
515.032	6045.25
515.4	6114.63
515.767	6111.01
516.135	6108.53
516.502	6104.23
516.869	6223.55
517.237	6207.28
517.604	6181.29
517.972	6202.53
518.339	6212.03
518.706	6219.26
519.073	6282.98
519.44	6313.04
519.808	6360.27
520.175	6367.05
520.542	6447.95
520.909	6485.24
521.276	6520.49
521.643	6547.38
522.009	6554.84
522.376	6606.82
522.743	6594.84
523.11	6730.88
523.477	6735.85
523.843	6781.05
524.21	6790.77
524.577	6855.85
524.943	6874.38
525.31	6940.59
525.676	7031.89
526.043	7001.61
526.409	7025.56
526.776	7086.81
527.142	7169.51
527.508	7187.37
527.874	7262.17
528.241	7268.95
528.607	7247.93
528.973	7301.26
529.339	7317.53
529.705	7424.42
530.071	7461.48
530.437	7377.87
530.803	7468.72
531.169	7534.03
531.535	7557.53
531.901	7559.56
532.267	7652.44
532.632	7642.95
532.998	7730.63
533.364	7723.85
533.73	7739.67
534.095	7785.32
534.461	7845.2
534.826	7903.28
535.192	7887.91
535.557	7981.24
535.923	7961.81
536.288	8025.54
536.653	8015.14
537.019	8012.2
537.384	8137.4
537.749	8098.53
538.114	8162.71
538.479	8164.97
538.845	8231.18
539.21	8184.86
539.575	8211.52
539.94	8293.55
540.305	8343.72
540.67	8370.39
541.034	8419.43
541.399	8462.14
541.764	8478.86
542.129	8473.89
542.494	8544.62
542.858	8518.18
543.223	8539.42
543.587	8607.67
543.952	8602.92
544.316	8745.74
544.681	8668.23
545.045	8718.17
545.41	8787.78
545.774	8822.58
546.138	8874.33
546.503	8937.15
546.867	8923.82
547.231	8955.23
547.595	8963.37
547.959	9000.88
548.324	8967.66
548.688	9045.85
549.052	9082.91
549.416	9124.72
549.779	9195.68
550.143	9203.59
550.507	9172.4
550.871	9244.49
551.235	9214.21
551.599	9300.76
551.962	9350.02
552.326	9401.09
552.689	9384.6
553.053	9393.19
553.417	9409.91
553.78	9535.33
554.143	9520.41
554.507	9534.42
554.87	9620.98
555.234	9684.7
555.597	9660.75
555.96	9698.04
556.323	9780.75
556.686	9742.78
557.05	9794.76
557.413	9736.45
557.776	9852.61
558.139	9930.57
558.502	9943.91
558.865	9974.41
559.228	10059.16
559.59	10011.47
559.953	10066.84
560.316	10161.75
560.679	10130.57
561.041	10210.11
561.404	10225.03
561.767	10243.11
562.129	10349.32
562.492	10349.77
562.854	10338.02
563.217	10407.62
563.579	10479.94
563.941	10443.78
564.304	10525.58
564.666	10575.75
565.028	10648.29
565.39	10611.68
565.753	10740.49
566.115	10722.64
566.477	10738.69
566.839	10837.44
567.201	10912.92
567.563	10890.32
567.925	10982.52
568.287	10947.95
568.648	10971.67
569.01	10979.58
569.372	11150.88
569.734	11102.97
570.095	11145.91
570.457	11282.4
570.819	11230.43
571.18	11291.44
571.542	11368.73
571.903	11395.39
572.265	11492.57
572.626	11517.42
572.987	11515.84
573.349	11547.03
573.71	11683.07
574.071	11693.46
574.432	11742.95
574.794	11878.77
575.155	11866.79
575.516	11922.61
575.877	12006
576.238	12028.82
576.599	12152.89
576.96	12192.43
577.32	12276.27
577.681	12371.41
578.042	12483.73
578.403	12541.58
578.763	12605.3
579.124	12744.06
579.485	12799.2
579.845	12952.87
580.206	13064.95
580.566	13104.73
580.927	13260.88
581.287	13405.06
581.648	13484.15
582.008	13719.4
582.368	13804.59
582.728	13867.19
583.089	14024.25
583.449	14272.38
583.809	14399.38
584.169	14532.71
584.529	14611.81
584.889	14990.55
585.249	15071.91
585.609	15249.98
585.969	15583.53
586.329	15736.52
586.688	15964.99
587.048	16188.94
587.408	16396.39
587.768	16582.6
588.127	16912.08
588.487	17026.43
588.846	17437.49
589.206	17461.9
589.565	17712.74
589.925	18094.2
590.284	18309.11
590.643	18716.1
591.003	18940.28
591.362	19223.89
591.721	19466.82
592.08	19754.49
592.44	20099.8
592.799	20370.52
593.158	20713.57
593.517	20917.85
593.876	21304.74
594.235	21495.69
594.593	21993.53
594.952	22284.37
595.311	22517.81
595.67	22941.98
596.029	23308.75
596.387	23586.71
596.746	23863.54
597.104	24141.5
597.463	24512.11
597.822	24952.55
598.18	25094.24
598.538	25442.48
598.897	25858.74
599.255	26007.44
599.613	26581.43
599.972	26861.43
600.33	27234.98
600.688	27430.9
601.046	27877.67
601.404	28310.65
601.762	28396.98
602.12	28846.01
602.478	29163.06
602.836	29455.71
603.194	29537.06
603.552	29940.67
603.91	30081.68
604.268	30606.64
604.625	30794.2
604.983	31156.45
605.341	31293.85
605.698	31739.49
606.056	32055.19
606.413	32339.7
606.771	32652.23
607.128	32925.45
607.485	33003.86
607.843	33381.03
608.2	33759.55
608.557	34017.4
608.914	34195.47
609.272	34699.19
609.629	34814.66
609.986	35310.92
610.343	35227.99
610.7	35771.93
611.057	35983.67
611.414	36094.18
611.771	36302.31
612.127	36679.02
612.484	36802.86
612.841	37258.67
613.198	37260.25
613.554	37451.88
613.911	37756.06
614.267	37864.75
614.624	37955.82
614.98	38302.03
615.337	38679.87
615.693	38822.69
616.05	38919.87
616.406	39239.86
616.762	39292.06
617.118	39526.63
617.475	39590.81
617.831	39792.84
618.187	40087.97
618.543	40243.9
618.899	40470.56
619.255	40614.29
619.611	40701.06
619.967	40928.4
620.323	41084.56
620.678	41042.52
621.034	41207.49
621.39	41355.73
621.746	41350.54
622.101	41803.41
622.457	41658.55
622.812	41739.91
623.168	42025.32
623.523	42177.86
623.879	42388.48
624.234	42186
624.589	42408.59
624.945	42535.59
625.3	42594.35
625.655	42814.23
626.01	42811.97
626.365	43009.02
626.72	42861.01
627.075	42998.4
627.43	43068.91
627.785	43010.83
628.14	43076.14
628.495	43404.72
628.85	43243.82
629.205	43283.37
629.559	43600.87
629.914	43507.77
630.269	43564.04
630.623	43531.72
630.978	43478.62
631.332	43761.55
631.687	43780.53
632.041	43743.24
632.396	43755.45
632.75	43697.59
633.104	43929
633.459	43760.87
633.813	43731.94
634.167	43824.14
634.521	43910.92
634.875	43945.72
635.229	43892.39
635.583	43844.48
635.937	43776.01
636.291	43788.67
636.645	43900.07
636.999	43790.7
637.352	43866.86
637.706	43645.39
638.06	43914.31
638.413	43849.68
638.767	43666.86
639.121	43892.62
639.474	43638.84
639.828	43686.75
640.181	43869.79
640.534	43747.31
640.888	43664.83
641.241	43498.05
641.594	43773.3
641.947	43788.21
642.301	43703.7
642.654	43633.64
643.007	43772.85
643.36	43753.86
643.713	43811.49
644.066	43960.19
644.419	43473.65
644.771	43384.83
645.124	42998.18
645.477	43021
645.83	42627.79
646.182	42644.29
646.535	42604.29
646.888	42715.7
647.24	42339.89
647.593	42683.61
647.945	42621.92
648.298	42458.98
648.65	42353.45
649.002	42413.56
649.355	42588.47
649.707	42434.58
650.059	42648.81
650.411	42992.3
650.763	43165.4
651.115	43608.33
651.467	43392.07
651.819	43351.39
652.171	43304.16
652.523	43116.59
652.875	43221.22
653.227	43115.46
653.578	43390.94
653.93	43173.09
654.282	43078.63
654.633	43028.23
654.985	43235.23
655.337	43216.7
655.688	43221.67
656.039	43336.47
656.391	43040.89
656.742	43079.08
657.094	43057.61
657.445	43216.25
657.796	43053.09
658.147	43057.61
658.498	43079.98
658.849	43189.36
659.2	43131.73
659.551	42799.54
659.902	43005.41
660.253	42921.57
660.604	43018.97
660.955	42882.25
661.306	43024.39
661.656	43077.95
662.007	43165.63
662.358	43087.89
662.708	42937.84
663.059	43011.51
663.409	42717.05
663.76	43070.04
664.11	42995.92
664.461	42939.65
664.811	43070.49
665.161	42934.9
665.511	42894
665.862	42905.52
666.212	43033.2
666.562	42965.86
666.912	42827.79
667.262	42911.17
667.612	42805.19
667.962	42922.7
668.312	42844.74
668.662	43022.36
669.011	42891.74
669.361	42736.26
669.711	42661.01
670.06	42806.77
670.41	42600
670.76	42599.09
671.109	42884.96
671.459	42782.36
671.808	42731.29
672.157	42818.07
672.507	42382.6
672.856	42600.9
673.205	42530.39
673.554	42706.21
673.904	42538.3
674.253	42688.13
674.602	42630.73
674.951	42103.29
675.3	41844.99
675.649	42399.32
675.998	42464.86
676.346	42569.49
676.695	42536.49
677.044	42285.88
677.393	42435.25
677.741	42543.95
678.09	42478.64
678.438	42399.32
678.787	42381.7
679.135	42461.92
679.484	42296.5
679.832	42335.14
680.181	42042.04
680.529	42223.28
680.877	41988.71
681.225	41992.1
681.573	42169.5
681.922	41919.79
682.27	41840.24
682.618	41770.86
682.966	41720.7
683.314	41813.58
683.661	41696.52
684.009	41428.95
684.357	41327.03
684.705	41354.83
685.053	41392.34
685.4	41252.01
685.748	41138.11
686.095	41310.76
686.443	41101.28
686.79	41043.88
687.138	41239.81
687.485	41209.3
687.832	40981.06
688.18	41001.39
688.527	40877.33
688.874	40935.63
689.221	40671.46
689.568	40608.41
689.915	40532.71
690.262	40539.94
690.609	40342.2
690.956	40207.74
691.303	40327.74
691.65	40116.67
691.997	40011.82
692.344	39703.35
692.69	39803.23
693.037	39812.72
693.383	39499.29
693.73	39534.09
694.077	39327.09
694.423	39336.13
694.769	39323.7
695.116	39070.6
695.462	39157.83
695.808	39126.41
696.155	39085.29
696.501	38810.49
696.847	38747.89
697.193	38528.69
697.539	38730.04
697.885	38308.13
698.231	38390.84
698.577	38386.77
698.923	38231.52
699.269	38248.92
699.614	37892.1
699.96	37907.46
700.306	37811.2
700.651	37612.33
700.997	37716.28
701.342	37533.69
701.688	37522.84
702.033	37311.55
702.379	37460.92
702.724	37163.98
703.069	37277.42
703.415	37001.72
703.76	36919.47
704.105	36918.11
704.45	36831.33
704.795	36785.69
705.14	36535.52
705.485	36681.51
705.83	36336.21
706.175	36597.67
706.52	36418.24
706.865	36188.41
707.209	36110.9
707.554	36020.73
707.899	36140.28
708.243	36046.04
708.588	35938.02
708.932	35685.38
709.277	35485.15
709.621	35668.43
709.966	35474.76
710.31	35528.09
710.654	35304.59
710.998	35312.5
711.342	35242.45
711.687	35186.86
712.031	34989.8
712.375	34847.43
712.719	34966.07
713.063	34839.52
713.407	34983.25
713.75	34743.71
714.094	34693.08
714.438	34562.24
714.782	34580.32
715.125	34349.59
715.469	34581.45
715.812	34354.11
716.156	34241.35
716.499	34209.03
716.843	34296.03
717.186	33945.99
717.53	34169.03
717.873	33910.05
718.216	34089.03
718.559	33949.38
718.902	33692.66
719.246	33704.18
719.589	33702.15
719.932	33525.88
720.275	33565.43
720.617	33548.71
720.96	33584.87
721.303	33576.05
721.646	33432.33
721.989	33295.16
722.331	33448.82
722.674	33305.78
723.016	33322.27
723.359	33091.32
723.701	33183.07
724.044	32898.56
724.386	32791.21
724.729	33019
725.071	32880.25
725.413	32979.91
725.755	32822.4
726.097	32539.7
726.439	32532.01
726.782	32513.26
727.124	32662.18
727.465	32520.71
727.807	32356.65
728.149	32338.8
728.491	32293.15
728.833	32214.96
729.175	32233.94
729.516	32167.28
729.858	32121.4
730.199	32102.64
730.541	32222.42
730.882	31975.64
731.224	32062.19
731.565	31839.37
731.906	31816.1
732.248	31915.08
732.589	31715.08
732.93	31602.54
733.271	31685.48
733.612	31678.02
733.953	31729.32
734.294	31543.56
734.635	31472.6
734.976	31483.9
735.317	31322.33
735.658	31410.46
735.999	31353.06
736.339	31262.21
736.68	31375.43
737.021	31366.62
737.361	31086.63
737.702	31272.61
738.042	31111.03
738.383	31118.04
738.723	31181.31
739.063	30942.68
739.404	31067.19
739.744	30886.63
740.084	30796.46
740.424	30914.2
740.764	30753.53
741.104	30871.04
741.444	30726.64
741.784	30520.31
742.124	30721.21
742.464	30664.49
742.804	30558.5
743.143	30571.61
743.483	30505.62
743.823	30412.29
744.162	30384.95
744.502	30439.41
744.841	30228.57
745.181	30272.86
745.52	30210.94
745.86	30225.41
746.199	30203.03
746.538	30125.52
746.877	30199.19
747.216	30164.62
747.556	30055.47
747.895	30072.64
748.234	29961.46
748.573	29916.49
748.911	29827.45
749.25	29737.06
749.589	29665.42
749.928	29594.01
750.267	29681.24
750.605	29649.38
750.944	29605.76
751.283	29530.28
751.621	29685.98
751.96	29370.74
752.298	29513.56
752.636	29387.24
752.975	29227.47
753.313	29055.95
753.651	29232.89
753.989	29009.39
754.327	28994.03
754.666	28819.12
755.004	28979.11
755.342	28904.54
755.679	28883.97
756.017	28687.82
756.355	28734.37
756.693	28663.41
757.031	28620.93
757.368	28440.14
757.706	28521.5
758.044	28380.93
758.381	28320.15
758.719	28177.32
759.056	28303.42
759.394	28295.74
759.731	27974.39
760.068	28091.45
760.405	27857.78
760.743	27844.45
761.08	27834.06
761.417	27713.38
761.754	27690.11
762.091	27605.36
762.428	27548.64
762.765	27369.66
763.102	27370.79
763.438	27259.61
763.775	27247.86
764.112	27243.11
764.449	27134.19
764.785	27045.6
765.122	27057.81
765.458	26822.33
765.795	26801.32
766.131	26748.44
766.467	26712.28
766.804	26453.98
767.14	26526.75
767.476	26542.56
767.812	26278.16
768.148	26439.29
768.485	26230.93
768.821	25966.99
769.157	26008.57
769.492	25975.35
769.828	25870.27
770.164	25702.36
770.5	25660.78
770.836	25664.17
771.171	25412.88
771.507	25420.11
771.842	25246.55
772.178	25234.35
772.513	25155.48
772.849	25056.05
773.184	24912.1
773.519	24991.65
773.855	24816.73
774.19	24622.39
774.525	24624.65
774.86	24551.43
775.195	24481.15
775.53	24441.6
775.865	24231.89
776.2	24118
776.535	24060.82
776.87	24023.53
777.205	23891.79
777.539	23691.34
777.874	23847.49
778.209	23586.71
778.543	23604.11
778.878	23442.76
779.212	23476.43
779.547	23368.41
779.881	23289.99
780.215	23139.49
780.55	23213.39
780.884	23031.47
781.218	23061.75
781.552	23108.08
781.886	22866.28
782.22	22790.35
782.554	22655.89
782.888	22556.23
783.222	22429.68
783.556	22341.77
783.889	22315.56
784.223	22121.89
784.557	22063.81
784.89	22034.89
785.224	21955.79
785.557	21858.85
785.891	21716.93
786.224	21678.74
786.558	21697.49
786.891	21517.84
787.224	21416.82
787.557	21435.58
787.891	21293.44
788.224	21249.14
788.557	21255.92
788.89	21166.89
789.223	21245.3
789.556	20968.25
789.888	20974.58
790.221	20809.83
790.554	20670.63
790.887	20712.21
791.219	20738.2
791.552	20621.36
791.884	20528.26
792.217	20425.21
792.549	20296.18
792.882	20232.9
793.214	20203.07
793.546	20185.22
793.879	19933.93
794.211	19890.76
794.543	19978.44
794.875	19888.05
795.207	19899.35
795.539	19787.04
795.871	19867.71
796.203	19580.94
796.535	19576.19
796.867	19537.33
797.198	19314.51
797.53	19461.85
797.862	19222.31
798.193	19340.27
798.525	19106.6
798.856	19139.82
799.188	18986.61
799.519	18905.93
799.85	18944.8
800.182	18762.66
800.513	18881.07
800.844	18654.64
801.175	18805.14
801.506	18714.97
801.837	18625.71
802.168	18589.55
802.499	18469.56
802.83	18392.95
803.161	18310.92
803.491	18293.06
803.822	18286.28
804.153	18256.68
804.483	18070.25
804.814	18112.05
805.145	18046.97
805.475	17967.42
805.805	17877.03
806.136	17977.59
806.466	17827.54
806.796	17917.25
807.126	17704.15
807.457	17686.53
807.787	17659.18
808.117	17576.02
808.447	17508.68
808.777	17494.44
809.107	17491.96
809.436	17393.43
809.766	17296.71
810.096	17265.97
810.426	17296.48
810.755	17296.03
811.085	17171.96
811.414	17184.62
811.744	16944.17
812.073	16943.04
812.403	16931.07
812.732	16818.3
813.061	16877.28
813.39	16806.1
813.719	16695.82
814.049	16736.27
814.378	16693.78
814.707	16701.92
815.036	16645.42
815.365	16553.9
815.693	16396.62
816.022	16374.47
816.351	16391.42
816.68	16327.69
817.008	16374.47
817.337	16217.86
817.665	16197.75
817.994	16168.37
818.322	16186.68
818.651	16080.24
818.979	16141.71
819.307	16195.04
819.636	16053.8
819.964	15992.56
820.292	16048.15
820.62	15991.66
820.948	15926.8
821.276	15961.6
821.604	15864.65
821.932	15932.45
822.259	15846.35
822.587	15920.7
822.915	15858.78
823.243	15848.83
823.57	15828.5
823.898	15856.52
824.225	15879.34
824.553	15841.83
824.88	15826.69
825.207	15800.25
825.535	15859.46
825.862	15802.51
826.189	15794.82
826.516	15833.92
826.843	15842.51
827.17	15828.27
827.497	15871.66
827.824	15874.6
828.151	15840.25
828.478	15760.25
828.805	15830.53
829.131	15772.45
829.458	15808.38
829.785	15689.52
830.111	15811.55
830.438	15880.02
830.764	15705.34
831.09	15854.94
831.417	15665.34
831.743	15724.09
832.069	15716.63
832.395	15702.62
832.722	15704.88
833.048	15624.21
833.374	15661.95
833.7	15571.33
834.026	15694.71
834.351	15589.18
834.677	15640.93
835.003	15619.91
835.329	15602.97
835.654	15452.91
835.98	15554.61
836.306	15508.28
836.631	15495.85
836.956	15441.84
837.282	15574.94
837.607	15396.42
837.932	15473.93
838.258	15409.3
838.583	15341.05
838.908	15284.78
839.233	15304.44
839.558	15223.77
839.883	15199.81
840.208	15133.37
840.533	15148.51
840.858	15150.1
841.182	15157.1
841.507	15151.68
841.832	15045.47
842.156	15039.36
842.481	14942.64
842.805	15053.15
843.13	14949.88
843.454	14889.76
843.778	14834.85
844.103	14781.74
844.427	14801.63
844.751	14805.47
845.075	14753.5
845.399	14657
845.723	14510.11
846.047	14680.05
846.371	14414.97
846.695	14480.74
847.019	14420.85
847.343	14327.97
847.666	14173.85
847.99	14207.07
848.313	14159.84
848.637	14011.82
848.96	14144.02
849.284	14038.71
849.607	13881.43
849.931	13875.33
850.254	13715.33
850.577	13701.77
850.9	13603.7
851.223	13643.47
851.546	13480.31
851.869	13446.41
852.192	13500.42
852.515	13337.49
852.838	13377.49
853.161	13365.74
853.483	13357.15
853.806	13357.83
854.129	13255
854.451	13160.54
854.774	13102.01
855.096	13106.53
855.419	12978.63
855.741	13077.83
856.063	12989.25
856.385	12933.43
856.708	12910.15
857.03	12802.59
857.352	12881.68
857.674	12740.22
857.996	12787.9
858.318	12584.97
858.64	12620.22
858.961	12632.42
859.283	12531.41
859.605	12477.85
859.926	12490.28
860.248	12520.79
860.57	12410.28
860.891	12485.31
861.212	12377.06
861.534	12253.67
861.855	12335.48
862.176	12300
862.498	12221.36
862.819	12356.5
863.14	12206.44
863.461	12202.15
863.782	12161.93
864.103	12169.16
864.424	12129.61
864.745	12130.74
865.065	12060.91
865.386	11967.35
865.707	12053.68
866.027	12063.85
866.348	11936.62
866.668	11930.97
866.989	11957.41
867.309	11801.48
867.63	11933.91
867.95	11910.63
868.27	11741.6
868.59	11833.12
868.91	11711.09
869.23	11752.22
869.55	11736.85
869.87	11772.11
870.19	11740.24
870.51	11710.19
870.83	11750.86
871.15	11711.54
871.469	11650.98
871.789	11670.19
872.109	11647.82
872.428	11507.48
872.748	11618.89
873.067	11544.32
873.386	11571.21
873.706	11469.29
874.025	11431.78
874.344	11363.75
874.663	11431.78
874.982	11474.26
875.301	11437.65
875.62	11455.5
875.939	11352.68
876.258	11392.45
876.577	11323.98
876.896	11352.91
877.214	11266.36
877.533	11325.34
877.852	11170.77
878.17	11244.66
878.489	11252.12
878.807	11307.03
879.125	11261.16
879.444	11172.35
879.762	11128.96
880.08	11142.74
880.398	11112.91
880.716	11147.72
881.034	11050.09
881.352	11069.07
881.67	10984.56
881.988	11014.39
882.306	10925.57
882.624	10992.92
882.941	10886.03
883.259	10893.71
883.577	10866.14
883.894	10825.24
884.212	10897.78
884.529	10826.82
884.846	10727.84
885.164	10786.14
885.481	10749.99
885.798	10791.34
886.115	10633.6
886.432	10645.81
886.75	10585.92
887.067	10604.45
887.383	10564
887.7	10612.81
888.017	10511.35
888.334	10569.65
888.651	10527.62
888.967	10495.53
889.284	10418.02
889.6	10340.28
889.917	10373.95
890.233	10356.55
890.55	10252.6
890.866	10225.93
891.182	10199.04
891.498	10185.93
891.815	10209.66
892.131	10161.07
892.447	10091.47
892.763	10050.12
893.079	10048.76
893.395	10020.29
893.71	9979.61
894.026	9972.83
894.342	10019.61
894.657	9947.07
894.973	9847.86
895.289	9827.75
895.604	9848.99
895.92	9764.7
896.235	9723.35
896.55	9787.53
896.865	9735.78
897.181	9716.79
897.496	9594.31
897.811	9642.44
898.126	9472.96
898.441	9535.78
898.756	9518.83
899.071	9460.98
899.386	9405.84
899.7	9376.01
900.015	9407.87
900.33	9247.88
900.644	9248.56
900.959	9245.39
901.273	9210.37
901.588	9250.36
901.902	9146.64
902.216	9142.12
902.531	9086.75
902.845	9059.63
903.159	9034.32
903.473	9008.11
903.787	8994.1
904.101	8936.93
904.415	8905.29
904.729	8827.1
905.042	8831.17
905.356	8874.55
905.67	8805.4
905.984	8822.58
906.297	8712.75
906.611	8670.94
906.924	8647.67
907.237	8600.21
907.551	8594.11
907.864	8539.65
908.177	8555.24
908.491	8462.14
908.804	8434.79
909.117	8416.04
909.43	8340.11
909.743	8281.58
910.056	8313.21
910.368	8247.9
910.681	8189.6
910.994	8232.76
911.307	8205.65
911.619	8137.85
911.932	8098.76
912.244	8013.79
912.557	8005.65
912.869	7988.02
913.181	7973.11
913.494	7960.68
913.806	7856.5
914.118	7913.45
914.43	7875.03
914.742	7826.22
915.054	7773.11
915.366	7818.09
915.678	7706.45
915.99	7718.2
916.302	7639.56
916.613	7579
916.925	7571.54
917.236	7562.72
917.548	7510.52
917.859	7461.48
918.171	7532.67
918.482	7457.19
918.794	7411.99
919.105	7338.78
919.416	7301.26
919.727	7325.44
920.038	7292.9
920.349	7257.87
920.66	7236.86
920.971	7121.15
921.282	7194.15
921.593	7126.58
921.903	7059.01
922.214	7062.85
922.525	7054.26
922.835	6999.35
923.146	6978.79
923.456	7002.29
923.767	6887.71
924.077	6851.33
924.387	6871.9
924.697	6786.02
925.008	6802.74
925.318	6766.36
925.628	6723.65
925.938	6734.27
926.248	6658.34
926.558	6641.85
926.867	6602.98
927.177	6587.84
927.487	6539.47
927.796	6518.68
928.106	6516.88
928.416	6513.26
928.725	6444.79
929.034	6419.03
929.344	6402.98
929.653	6378.58
929.962	6357.33
930.271	6336.09
930.581	6339.71
930.89	6227.17
931.199	6285.7
931.508	6235.75
931.817	6161.41
932.125	6161.41
932.434	6134.06
932.743	6049.32
933.051	6048.64
933.36	6020.62
933.669	6034.86
933.977	5971.35
934.286	5995.08
934.594	5999.15
934.902	5918.47
935.21	5880.06
935.519	5854.52
935.827	5827.86
936.135	5840.74
936.443	5785.82
936.751	5772.26
937.059	5785.6
937.367	5715.09
937.674	5694.3
937.982	5707.18
938.29	5666.73
938.597	5633.51
938.905	5607.97
939.213	5591.25
939.52	5530.24
939.827	5533.63
940.135	5489.11
940.442	5482.78
940.749	5486.85
941.056	5443.23
941.363	5375.66
941.67	5388.32
941.977	5346.96
942.284	5331.82
942.591	5290.02
942.898	5266.74
943.205	5280.75
943.511	5249.11
943.818	5243.24
944.125	5169.34
944.431	5158.95
944.738	5150.36
945.044	5153.3
945.35	5065.84
945.657	5027.88
945.963	5013.19
946.269	5030.59
946.575	5042.79
946.881	5023.13
947.187	4948.1
947.493	4916.24
947.799	4900.87
948.105	4906.98
948.41	4844.6
948.716	4866.75
949.022	4845.96
949.327	4859.29
949.633	4772.06
949.938	4797.6
950.244	4777.94
950.549	4724.38
950.854	4707.88
951.16	4698.39
951.465	4728.22
951.77	4668.11
952.075	4670.15
952.38	4612.75
952.685	4578.4
952.99	4565.74
953.294	4549.02
953.599	4483.48
953.904	4509.47
954.209	4467.67
954.513	4489.13
954.818	4495.69
955.122	4458.85
955.426	4399.19
955.731	4403.94
956.035	4377.95
956.339	4365.75
956.643	4352.87
956.948	4307.22
957.252	4339.08
957.556	4250.95
957.86	4255.69
958.163	4273.09
958.467	4234
958.771	4230.61
959.075	4226.09
959.378	4175.02
959.682	4136.83
959.985	4146.77
960.289	4131.85
960.592	4088.69
960.896	4103.38
961.199	4092.31
961.502	4061.57
961.805	4025.87
962.108	3998.07
962.411	4007.56
962.714	3957.4
963.017	3983.16
963.32	3971.41
963.623	3945.87
963.926	3903.16
964.228	3923.72
964.531	3918.53
964.833	3834.46
965.136	3849.6
965.438	3812.99
965.741	3783.39
966.043	3790.85
966.345	3808.02
966.648	3744.75
966.95	3786.33
967.252	3765.08
967.554	3731.41
967.856	3687.8
968.158	3694.8
968.46	3688.25
968.761	3665.2
969.063	3654.81
969.365	3607.35
969.666	3573.23
969.968	3581.36
970.269	3573.45
970.571	3590.4
970.872	3550.85
971.174	3497.07
971.475	3471.53
971.776	3483.28
972.077	3496.17
972.378	3481.48
972.679	3481.93
972.98	3471.08
973.281	3385.89
973.582	3383.85
973.883	3399.67
974.183	3411.65
974.484	3404.19
974.785	3346.56
975.085	3381.37
975.386	3305.21
975.686	3280.13
975.986	3296.17
976.287	3266.11
976.587	3237.64
976.887	3259.56
977.187	3256.85
977.487	3204.65
977.787	3178.66
978.087	3191.77
978.387	3200.13
978.687	3205.33
978.987	3147.02
979.286	3128.04
979.586	3131.88
979.885	3094.82
980.185	3095.5
980.484	3108.6
980.784	3026.35
981.083	3013.69
981.382	3052.33
981.682	3035.39
981.981	2989.29
982.28	2979.79
982.579	2988.61
982.878	2982.73
983.177	2991.09
983.475	2942.73
983.774	2952.45
984.073	2890.31
984.372	2906.12
984.67	2895.28
984.969	2864.09
985.267	2883.07
985.566	2853.24
985.864	2845.79
986.162	2830.42
986.461	2806.01
986.759	2813.02
987.057	2805.56
987.355	2764.43
987.653	2802.62
987.951	2738.67
988.249	2749.29
988.547	2724.43
988.844	2699.35
989.142	2716.07
989.44	2663.19
989.737	2672.91
990.035	2643.76
990.332	2659.8
990.63	2630.43
990.927	2629.97
991.224	2623.87
991.521	2582.06
991.819	2578.9
992.116	2572.12
992.413	2557.43
992.71	2538
993.006	2554.72
993.303	2529.41
993.6	2488.06
993.897	2499.36
994.193	2482.63
994.49	2441.5
994.787	2453.48
995.083	2449.64
995.379	2415.29
995.676	2409.64
995.972	2404.22
996.268	2390.66
996.565	2383.65
996.861	2376.65
997.157	2366.48
997.453	2366.7
997.749	2332.81
998.044	2319.47
998.34	2349.3
998.636	2315.18
998.932	2284.9
999.227	2279.93
999.523	2245.12
999.818	2259.81
1000.114	2284.45
1000.409	2258.68
1000.704	2228.4
1001	2218.68
1001.295	2219.81
1001.59	2207.39
1001.885	2182.53
1002.18	2160.83
1002.475	2156.54
1002.77	2148.4
1003.065	2135.3
1003.359	2160.83
1003.654	2106.82
1003.949	2106.82
1004.243	2091.23
1004.538	2098.01
1004.832	2078.8
1005.127	2058.24
1005.421	2066.6
1005.715	2030.44
1006.009	2063.66
1006.304	2039.03
1006.598	2000.84
1006.892	2008.97
1007.186	1969.88
1007.48	1990.22
1007.773	1971.46
1008.067	1944.12
1008.361	1933.95
1008.655	1906.15
1008.948	1908.86
1009.242	1890.78
1009.535	1882.65
1009.829	1880.84
1010.122	1871.12
1010.415	1872.48
1010.708	1814.63
1011.001	1877.68
1011.295	1812.82
1011.588	1811.46
1011.881	1787.74
1012.173	1786.61
1012.466	1803.78
1012.759	1812.82
1013.052	1778.7
1013.344	1772.59
1013.637	1748.64
1013.93	1733.05
1014.222	1721.07
1014.514	1721.97
1014.807	1680.62
1015.099	1713.16
1015.391	1661.86
1015.683	1670.22
1015.976	1672.71
1016.268	1669.55
1016.56	1636.33
1016.851	1629.55
1017.143	1613.73
1017.435	1617.8
1017.727	1604.92
1018.018	1605.82
1018.31	1590.9
1018.602	1595.88
1018.893	1551.13
1019.185	1547.29
1019.476	1544.13
1019.767	1525.37
1020.058	1524.92
1020.35	1520.4
1020.641	1490.57
1020.932	1480.17
1021.223	1464.81
1021.514	1498.93
1021.804	1462.09
1022.095	1445.37
1022.386	1437.91
1022.677	1462.09
1022.967	1417.35
1023.258	1446.05
1023.548	1406.73
1023.839	1410.12
1024.129	1377.35
1024.419	1378.25
1024.709	1360.18
1025	1361.31
1025.29	1347.75
1025.58	1349.78
1025.87	1338.48
1026.16	1328.76
1026.449	1336.22
1026.739	1321.76
1027.029	1317.92
1027.319	1314.3
1027.608	1299.39
1027.898	1288.77
1028.187	1253.29
1028.477	1274.53
1028.766	1246.05
1029.055	1235.66
1029.344	1225.26
1029.634	1243.34
1029.923	1208.77
1030.212	1211.71
1030.501	1201.76
1030.79	1197.24
1031.078	1170.8
1031.367	1190.69
1031.656	1149.11
1031.945	1167.41
1032.233	1166.73
1032.522	1142.55
1032.81	1153.85
1033.099	1143.91
1033.387	1123.12
1033.675	1099.84
1033.963	1128.32
1034.251	1092.61
1034.54	1107.3
1034.828	1102.33
1035.116	1080.86
1035.403	1101.88
1035.691	1061.65
1035.979	1071.6
1036.267	1070.92
1036.554	1041.31
1036.842	1051.71
1037.129	1029.34
1037.417	1051.03
1037.704	1054.2
1037.992	1025.27
1038.279	1018.94
1038.566	993.86
1038.853	993.86
1039.14	993.86
