Data from hue_38_FLMS001491_00087.txt Node
Date: Tue Feb 07 17:32:06 GMT 2017
User: dcchb
Spectrometer: FLMS00149
Trigger mode: 0
Integration Time (sec): 2.000000E-2
Scans to average: 10
Electric dark correction enabled: true
Nonlinearity correction enabled: false
Boxcar width: 0
XAxis mode: Wavelengths
Number of Pixels in Spectrum: 2048
>>>>>Begin Spectral Data<<<<<
341.393	3.52
341.776	3.52
342.16	3.52
342.543	-53.66
342.927	-62.47
343.31	-67.67
343.693	-67.22
344.077	-53.66
344.46	-68.35
344.843	-68.57
345.226	-35.13
345.61	-42.81
345.993	-27.89
346.376	7.13
346.759	16.85
347.142	27.47
347.525	28.15
347.908	71.76
348.291	74.25
348.674	96.4
349.057	109.28
349.44	131.2
349.823	130.97
350.206	165.09
350.588	213.45
350.971	213.91
351.354	209.39
351.737	232.89
352.119	263.85
352.502	269.95
352.884	277.63
353.267	275.15
353.65	281.02
354.032	281.25
354.414	323.51
354.797	321.93
355.179	325.32
355.562	317.41
355.944	337.29
356.326	331.42
356.709	343.17
357.091	360.57
357.473	354.69
357.855	345.2
358.238	337.29
358.62	353.56
359.002	337.97
359.384	367.58
359.766	345.65
360.148	346.56
360.53	334.13
360.912	359.21
361.294	334.81
361.676	321.25
362.057	333.23
362.439	330.74
362.821	331.19
363.203	333.23
363.584	333.23
363.966	325.99
364.348	324.41
364.729	327.35
365.111	323.96
365.493	318.76
365.874	316.95
366.256	305.2
366.637	319.21
367.019	344.98
367.4	318.99
367.781	316.73
368.163	310.63
368.544	316.28
368.925	314.92
369.306	315.37
369.688	310.85
370.069	316.5
370.45	308.82
370.831	342.49
371.212	314.92
371.593	324.41
371.974	327.35
372.355	316.05
372.736	332.77
373.117	319.44
373.498	321.02
373.879	332.77
374.26	342.49
374.641	325.09
375.021	317.18
375.402	313.57
375.783	324.64
376.163	333.23
376.544	330.29
376.925	346.11
377.305	335.71
377.686	337.75
378.066	356.05
378.447	340.01
378.827	330.06
379.208	353.79
379.588	341.36
379.968	338.65
380.349	335.49
380.729	334.58
381.109	349.04
381.489	357.18
381.87	346.11
382.25	324.41
382.63	364.19
383.01	361.93
383.39	366.22
383.77	342.94
384.15	347.91
384.53	370.74
384.91	328.03
385.29	354.47
385.67	330.06
386.049	358.99
386.429	362.38
386.809	358.08
387.189	360.57
387.568	361.02
387.948	361.93
388.328	360.57
388.707	363.96
389.087	359.21
389.466	375.94
389.846	375.94
390.225	376.61
390.605	352.66
390.984	375.71
391.363	366.9
391.743	350.85
392.122	364.19
392.501	382.26
392.881	381.36
393.26	366.9
393.639	378.42
394.018	390.4
394.397	403.73
394.776	386.56
395.155	379.1
395.534	415.03
395.913	375.94
396.292	389.27
396.671	389.5
397.05	378.87
397.429	390.85
397.808	389.5
398.186	405.09
398.565	415.94
398.944	422.26
399.323	399.21
399.701	411.42
400.08	402.6
400.458	410.51
400.837	428.36
401.215	416.84
401.594	408.93
401.972	409.16
402.351	425.65
402.729	420.91
403.107	430.17
403.486	421.13
403.864	405.77
404.242	423.62
404.62	407.8
404.999	427.23
405.377	420.91
405.755	415.03
406.133	413.45
406.511	430.62
406.889	445.77
407.267	438.08
407.645	464.07
408.023	438.31
408.401	429.95
408.779	440.57
409.156	470.62
409.534	430.4
409.912	464.3
410.29	444.41
410.667	457.97
411.045	457.97
411.422	479.21
411.8	475.82
412.178	486.89
412.555	453.45
412.933	472.88
413.31	479.66
413.687	474.01
414.065	491.19
414.442	483.73
414.819	483.28
415.197	493.45
415.574	511.3
415.951	540.9
416.328	499.55
416.705	508.36
417.082	507.91
417.46	517.18
417.837	499.32
418.214	527.57
418.591	523.73
418.967	516.5
419.344	546.78
419.721	543.62
420.098	531.19
420.475	551.3
420.852	525.09
421.228	540.23
421.605	526.89
421.982	551.98
422.358	558.3
422.735	550.4
423.111	554.24
423.488	549.04
423.864	550.4
424.241	557.85
424.617	573.67
424.994	559.66
425.37	599.66
425.746	554.01
426.123	572.99
426.499	589.04
426.875	578.64
427.251	592.43
427.627	604.86
428.003	619.09
428.379	600.79
428.756	618.19
429.132	612.31
429.507	640.34
429.883	624.52
430.259	641.92
430.635	630.39
431.011	652.09
431.387	660.22
431.763	645.99
432.138	661.13
432.514	665.65
432.89	663.16
433.265	674.46
433.641	704.29
434.016	661.8
434.392	657.28
434.767	701.58
435.143	688.02
435.518	717.17
435.894	703.61
436.269	707.45
436.644	738.19
437.02	748.13
437.395	738.41
437.77	724.18
438.145	742.93
438.52	753.55
438.895	761.01
439.271	755.59
439.646	766.21
440.021	750.39
440.395	753.33
440.77	767.34
441.145	775.02
441.52	779.77
441.895	782.48
442.27	769.6
442.645	769.6
443.019	790.84
443.394	819.31
443.769	825.87
444.143	800.11
444.518	806.21
444.892	825.42
445.267	841.23
445.641	811.86
446.016	831.52
446.39	881.91
446.764	858.86
447.139	845.75
447.513	849.14
447.887	835.13
448.262	872.87
448.636	847.34
449.01	859.77
449.384	876.49
449.758	892.76
450.132	896.37
450.506	880.33
450.88	895.92
451.254	898.63
451.628	926.88
452.002	914.45
452.376	930.72
452.75	935.47
453.123	956.71
453.497	920.55
453.871	972.76
454.244	990.38
454.618	984.28
454.992	976.6
455.365	1007.56
455.739	999.87
456.112	1006.65
456.486	1019.08
456.859	1048.91
457.232	1050.04
457.606	1043.94
457.979	1051.4
458.352	1095.01
458.725	1102.02
459.099	1078.74
459.472	1119.42
459.845	1135.24
460.218	1125.3
460.591	1156.93
460.964	1158.74
461.337	1177.95
461.71	1175.24
462.083	1227.21
462.456	1205.52
462.829	1212.52
463.201	1251.17
463.574	1226.54
463.947	1257.95
464.32	1299.98
464.692	1322.13
465.065	1284.16
465.438	1328.68
465.81	1339.53
466.183	1366.87
466.555	1393.99
466.928	1416.59
467.3	1391.28
467.672	1450.71
468.045	1466.76
468.417	1453.87
468.789	1493.65
469.161	1518.96
469.534	1547.66
469.906	1565.74
470.278	1583.36
470.65	1607.09
471.022	1657.94
471.394	1670.37
471.766	1680.99
472.138	1718.95
472.51	1757.14
472.882	1791.27
473.253	1812.28
473.625	1823.81
473.997	1904.26
474.369	1938.83
474.74	1957.59
475.112	2012.28
475.484	2035.55
475.855	2075.1
476.227	2127.75
476.598	2224.25
476.97	2219.96
477.341	2276.23
477.713	2320.07
478.084	2393.28
478.455	2420.85
478.827	2493.62
479.198	2583.34
479.569	2568.2
479.94	2694.75
480.311	2732.03
480.682	2845.93
481.053	2911.01
481.424	2972.7
481.795	3013.83
482.166	3102.19
482.537	3212.02
482.908	3274.39
483.279	3311.9
483.65	3435.29
484.021	3542.86
484.391	3553.03
484.762	3680.93
485.133	3752.8
485.503	3827.82
485.874	3953.24
486.244	4024.43
486.615	4130.41
486.985	4244.76
487.356	4352.1
487.726	4421.93
488.097	4536.28
488.467	4621.7
488.837	4788.7
489.207	4834.35
489.578	4927
489.948	5080.67
490.318	5189.82
490.688	5264.17
491.058	5355.01
491.428	5412.19
491.798	5577.61
492.168	5697.83
492.538	5787.09
492.908	5866.19
493.278	6014.88
493.648	6091.94
494.017	6218.27
494.387	6349.11
494.757	6427.53
495.126	6499.17
495.496	6569.22
495.866	6730.12
496.235	6824.58
496.605	6890.34
496.974	7003.78
497.344	7053.05
497.713	7182.31
498.082	7292.82
498.452	7383.89
498.821	7462.3
499.19	7538.23
499.559	7616.88
499.928	7775.74
500.298	7881.95
500.667	7976.41
501.036	8055.96
501.405	8110.2
501.774	8134.15
502.143	8242.4
502.512	8331.21
502.88	8461.83
503.249	8484.88
503.618	8569.62
503.987	8690.97
504.356	8775.72
504.724	8760.57
505.093	8853.68
505.462	8980.23
505.83	9054.58
506.199	9135.71
506.567	9272.43
506.936	9292.99
507.304	9416.15
507.672	9472.87
508.041	9582.7
508.409	9626.09
508.777	9688.01
509.145	9808.46
509.514	9842.35
509.882	9965.74
510.25	9970.03
510.618	9981.56
510.986	10071.05
511.354	10210.93
511.722	10278.73
512.09	10372.51
512.458	10348.33
512.826	10535.9
513.193	10563.24
513.561	10614.09
513.929	10686.85
514.297	10817.7
514.664	10882.1
515.032	10933.62
515.4	11002.32
515.767	11081.87
516.135	11138.14
516.502	11099.04
516.869	11254.75
517.237	11270.34
517.604	11323.67
517.972	11488.19
518.339	11569.99
518.706	11566.6
519.073	11566.6
519.44	11709.88
519.808	11818.57
520.175	11808.86
520.542	11993.71
520.909	12056.99
521.276	12068.28
521.643	12221.05
522.009	12281.16
522.376	12344.44
522.743	12357.99
523.11	12493.58
523.477	12605.9
523.843	12673.47
524.21	12742.84
524.577	12791.43
524.943	12903.74
525.31	12980.12
525.676	13153
526.043	13187.58
526.409	13282.26
526.776	13318.2
527.142	13427.57
527.508	13491.75
527.874	13615.59
528.241	13591.86
528.607	13692.65
528.973	13815.36
529.339	13856.71
529.705	13999.08
530.071	14072.3
530.437	14152.75
530.803	14261.67
531.169	14345.29
531.535	14247.89
531.901	14379.64
532.267	14451.27
532.632	14525.85
532.998	14579.63
533.364	14771.49
533.73	14746.63
534.095	14874.54
534.461	14864.37
534.826	14995.44
535.192	15090.13
535.557	15120.63
535.923	15098.26
536.288	15209.22
536.653	15244.92
537.019	15131.71
537.384	15260.97
537.749	15355.43
538.114	15378.25
538.479	15531.24
538.845	15583.67
539.21	15552.49
539.575	15644.91
539.94	15755.42
540.305	15825.7
540.67	15806.94
541.034	15938.24
541.399	16057.56
541.764	16089.65
542.129	16040.84
542.494	16213.03
542.858	16223.43
543.223	16245.35
543.587	16306.82
543.952	16462.97
544.316	16452.12
544.681	16422.07
545.045	16601.5
545.41	16644.66
545.774	16682.17
546.138	16704.77
546.503	16756.97
546.867	16772.79
547.231	17023.41
547.595	16973.24
547.959	17081.49
548.324	17001.26
548.688	17178.43
549.052	17208.71
549.416	17237.41
549.779	17325.77
550.143	17407.35
550.507	17416.84
550.871	17515.82
551.235	17539.1
551.599	17626.78
551.962	17644.18
552.326	17762.37
552.689	17838.08
553.053	17768.25
553.417	17857.06
553.78	18073.32
554.143	17956.72
554.507	18090.5
554.87	18206.2
555.234	18273.32
555.597	18273.54
555.96	18302.24
556.323	18400.32
556.686	18425.18
557.05	18548.34
557.413	18598.96
557.776	18615
558.139	18714.66
558.502	18807.99
558.865	18830.82
559.228	18925.28
559.59	19107.87
559.953	19044.37
560.316	19238.27
560.679	19219.51
561.041	19253.86
561.404	19431.93
561.767	19528.65
562.129	19386.51
562.492	19633.51
562.854	19694.3
563.217	19649.78
563.579	19712.83
563.941	19911.92
564.304	19936.55
564.666	20008.19
565.028	20180.39
565.39	20127.06
565.753	20284.57
566.115	20354.17
566.477	20380.61
566.839	20453.83
567.201	20500.61
567.563	20612.01
567.925	20741.28
568.287	20615.63
568.648	20795.74
569.01	20866.92
569.372	21030.99
569.734	21038.44
570.095	21226.24
570.457	21275.73
570.819	21242.05
571.18	21400.69
571.542	21551.2
571.903	21639.33
572.265	21702.16
572.626	21699.9
572.987	21817.63
573.349	21918.65
573.71	22129.26
574.071	22103.5
574.432	22208.58
574.794	22399.99
575.155	22484.73
575.516	22423.27
575.877	22550.72
576.238	22741.22
576.599	22795.91
576.96	22943.03
577.32	23008.11
577.681	23146.41
578.042	23383.24
578.403	23408.78
578.763	23611.71
579.124	23730.8
579.485	23866.62
579.845	24054.86
580.206	24201.75
580.566	24222.99
580.927	24398.13
581.287	24660.95
581.648	24611.23
582.008	24949.53
582.368	25061.62
582.728	25144.55
583.089	25363.53
583.449	25525.11
583.809	25621.6
584.169	25920.35
584.529	26050.97
584.889	26377.96
585.249	26489.37
585.609	26498.41
585.969	26860.66
586.329	26947.67
586.688	27246.42
587.048	27351.5
587.408	27545.84
587.768	27708.78
588.127	27966.62
588.487	28121.42
588.846	28537.68
589.206	28492.71
589.565	28728.19
589.925	28962.76
590.284	29140.6
590.643	29312.12
591.003	29754.6
591.362	29980.36
591.721	29988.04
592.08	30382.38
592.44	30590.06
592.799	30724.29
593.158	30951.86
593.517	30970.39
593.876	31391.62
594.235	31568.79
594.593	31670.93
594.952	31875.67
595.311	32091.03
595.67	32371.93
596.029	32585.26
596.387	32851.69
596.746	33082.42
597.104	33128.97
597.463	33227.28
597.822	33676.08
598.18	33620.03
598.538	33757.66
598.897	34116.52
599.255	34189.28
599.613	34814.58
599.972	34577.07
600.33	34962.15
600.688	34915.59
601.046	35241.46
601.404	35497.5
601.762	35532.3
602.12	35872.86
602.478	35948.33
602.836	36149.01
603.194	36061.55
603.552	36286.86
603.91	36384.93
604.268	36693.17
604.625	36674.19
604.983	36890.23
605.341	36862.21
605.698	37278.69
606.056	37433.72
606.413	37585.58
606.771	37667.84
607.128	37742.86
607.485	37858.57
607.843	37821.28
608.2	38244.32
608.557	38485.44
608.914	38526.35
609.272	38775.6
609.629	38821.25
609.986	39128.36
610.343	38968.14
610.7	39358.64
611.057	39295.82
611.414	39442.03
611.771	39611.97
612.127	39891.06
612.484	39875.01
612.841	40119.07
613.198	40044.05
613.554	40162.69
613.911	40403.58
614.267	40537.82
614.624	40401.55
614.98	40627.53
615.337	40764.03
615.693	40733.97
616.05	40707.76
616.406	41286.5
616.762	41132.83
617.118	41142.1
617.475	41228.2
617.831	41386.38
618.187	41567.17
618.543	41579.82
618.899	41939.36
619.255	41810.1
619.611	41881.96
619.967	42065.24
620.323	42094.61
620.678	41961.74
621.034	42159.02
621.39	42099.36
621.746	42112.47
622.101	42675.16
622.457	42198.79
622.812	42557.65
623.168	42685.11
623.523	42537.31
623.879	42787.7
624.234	42706.57
624.589	42685.11
624.945	42735.95
625.3	42867.47
625.655	42825.44
626.01	42914.25
626.365	42943.86
626.72	42916.06
627.075	42921.48
627.43	43043.06
627.785	42988.83
628.14	43092.33
628.495	43116.28
628.85	43163.29
629.205	42943.63
629.559	43241.48
629.914	43036.06
630.269	43042.39
630.623	43148.15
630.978	43097.07
631.332	43264.3
631.687	43337.07
632.041	43100.91
632.396	43246.67
632.75	43128.03
633.104	43184.3
633.459	43064.31
633.813	43081.03
634.167	43189.73
634.521	43038.09
634.875	43144.08
635.229	43172.33
635.583	42995.38
635.937	43100.69
636.291	43016.62
636.645	43053.23
636.999	43033.8
637.352	43208.71
637.706	42828.83
638.06	43086
638.413	43029.05
638.767	42853.92
639.121	42974.14
639.474	42710.19
639.828	42897.98
640.181	42901.37
640.534	42883.97
640.888	42825.22
641.241	42612.79
641.594	42697.54
641.947	42867.02
642.301	42783.86
642.654	42673.36
643.007	42687.82
643.36	42687.37
643.713	42513.13
644.066	42719.46
644.419	42538.44
644.771	42246.47
645.124	41918.35
645.477	41971.45
645.83	41619.82
646.182	41459.83
646.535	41542.99
646.888	41565.59
647.24	41332.37
647.593	41453.95
647.945	41458.25
648.298	41185.03
648.65	41282.88
649.002	41072.49
649.355	41392.49
649.707	41246.05
650.059	41518.58
650.411	41947.05
650.763	41938.91
651.115	42374.15
651.467	42125.12
651.819	42021.85
652.171	41930.78
652.523	41979.81
652.875	41996.76
653.227	41959.7
653.578	42243.99
653.93	42204.22
654.282	41880.83
654.633	41886.71
654.985	41909.76
655.337	42017.78
655.688	42008.97
656.039	42057.55
656.391	41749.09
656.742	41952.02
657.094	41840.61
657.445	42079.02
657.796	41803.55
658.147	41831.57
658.498	41878.12
658.849	41814.39
659.2	41812.59
659.551	41590.9
659.902	41710.44
660.253	41796.99
660.604	41859.82
660.955	41685.13
661.306	41684.45
661.656	41537.34
662.007	41655.53
662.358	41528.98
662.708	41651.91
663.059	41701.86
663.409	41445.82
663.76	41691.01
664.11	41646.04
664.461	41738.01
664.811	41658.47
665.161	41750.67
665.511	41506.83
665.862	41469.09
666.212	41702.53
666.562	41678.81
666.912	41673.83
667.262	41498.7
667.612	41465.48
667.962	41577.79
668.312	41470.9
668.662	41729.43
669.011	41561.75
669.361	41472.93
669.711	41444.46
670.06	41413.05
670.41	41346.38
670.76	41397.46
671.109	41479.04
671.459	41384.8
671.808	41413.73
672.157	41451.69
672.507	41087.18
672.856	41249.21
673.205	41222.09
673.554	41365.59
673.904	41157.91
674.253	41469.77
674.602	41385.03
674.951	40718.83
675.3	40614.43
675.649	41304.8
675.998	41199.5
676.346	41052.83
676.695	41233.85
677.044	41020.52
677.393	41048.99
677.741	41098.93
678.09	41151.36
678.438	41041.08
678.787	41089.89
679.135	41000.86
679.484	40703.46
679.832	40987.98
680.181	40665.27
680.529	40865.72
680.877	40643.35
681.225	40674.09
681.573	40894.65
681.922	40574.2
682.27	40514.09
682.618	40453.3
682.966	40460.53
683.314	40520.64
683.661	40433.87
684.009	40067.1
684.357	40155.68
684.705	40079.75
685.053	40092.63
685.4	40039.75
685.748	39869.81
686.095	39936.7
686.443	39712.76
686.79	39810.83
687.138	39679.76
687.485	39616.71
687.832	39632.98
688.18	39756.14
688.527	39353.22
688.874	39397.51
689.221	39394.12
689.568	39250.85
689.915	39154.58
690.262	39111.87
690.609	39064.86
690.956	38988.93
691.303	38900.12
691.65	38788.71
691.997	38719.56
692.344	38661.26
692.69	38472.34
693.037	38596.17
693.383	38332.68
693.73	38277.31
694.077	38116.64
694.423	38035.29
694.769	37979.24
695.116	37901.5
695.462	37901.96
695.808	37749.87
696.155	37725.01
696.501	37558.69
696.847	37579.93
697.193	37138.59
697.539	37450.44
697.885	37279.6
698.231	37060.85
698.577	37077.12
698.923	37044.12
699.269	36852.72
699.614	36677.81
699.96	36647.3
700.306	36719.84
700.651	36556.68
700.997	36354.2
701.342	36367.08
701.688	36401.2
702.033	36143.58
702.379	36160.53
702.724	36038.28
703.069	36103.36
703.415	35643.03
703.76	35722.13
704.105	35821.11
704.45	35659.08
704.795	35441.91
705.14	35429.7
705.485	35222.7
705.83	35131.18
706.175	35310.61
706.52	35138.41
706.865	34990.85
707.209	35005.31
707.554	34911.98
707.899	35001.01
708.243	34632.21
708.588	34598.54
708.932	34469.28
709.277	34481.71
709.621	34397.64
709.966	34227.25
710.31	34210.53
710.654	33907.26
710.998	34044.66
711.342	34017.31
711.687	34071.55
712.031	33741.61
712.375	33680.37
712.719	33766.7
713.063	33652.12
713.407	33845.56
713.75	33581.62
714.094	33520.15
714.438	33430.66
714.782	33395.41
715.125	33375.29
715.469	33485.35
715.812	33230.89
716.156	33056.43
716.499	33030.22
716.843	33188.63
717.186	32851.24
717.53	32881.52
717.873	32986.6
718.216	32796.78
718.559	32752.94
718.902	32496
719.246	32575.99
719.589	32502.32
719.932	32336
720.275	32309.33
720.617	32331.71
720.96	32217.13
721.303	32082.9
721.646	32293.29
721.989	32072.28
722.331	32190.24
722.674	31993.86
723.016	32112.96
723.359	31911.38
723.701	31962.22
724.044	31858.05
724.386	31711.84
724.729	31823.25
725.071	31554.78
725.413	31798.39
725.755	31627.32
726.097	31483.14
726.439	31464.61
726.782	31343.03
727.124	31490.82
727.465	31341
727.807	31384.39
728.149	31171.28
728.491	31217.16
728.833	31204.96
729.175	31137.61
729.516	31008.58
729.858	31079.99
730.199	31043.83
730.541	30917.96
730.882	30883.61
731.224	30972.19
731.565	30707.34
731.906	30816.04
732.248	30811.52
732.589	30481.81
732.93	30523.62
733.271	30505.54
733.612	30495.6
733.953	30490.17
734.294	30538.76
734.635	30425.32
734.976	30340.57
735.317	30252.44
735.658	30220.58
735.999	30207.02
736.339	30257.64
736.68	30355.49
737.021	30153.46
737.361	30086.12
737.702	30124.08
738.042	30012.9
738.383	29908.04
738.723	30006.12
739.063	29989.62
739.404	29945.55
739.744	29946.01
740.084	29742.4
740.424	29812.45
740.764	29742.4
741.104	29813.13
741.444	29566.58
741.784	29517.54
742.124	29747.59
742.464	29632.57
742.804	29610.2
743.143	29459.92
743.483	29509.41
743.823	29287.04
744.162	29289.75
744.502	29310.09
744.841	29183.09
745.181	29369.52
745.52	29185.57
745.86	29223.99
746.199	29089.76
746.538	29020.38
746.877	29036.88
747.216	28932.02
747.556	28879.14
747.895	29002.75
748.234	28749.65
748.573	28926.82
748.911	28669.88
749.25	28637.57
749.589	28517.12
749.928	28579.49
750.267	28619.26
750.605	28559.83
750.944	28437.35
751.283	28290.23
751.621	28432.83
751.96	28232.38
752.298	28209.33
752.636	28224.92
752.975	28086.17
753.313	27901.31
753.651	28139.27
753.989	27974.53
754.327	27859.06
754.666	27725.27
755.004	27967.3
755.342	27927.98
755.679	27827.19
756.017	27578.61
756.355	27782.45
756.693	27579.74
757.031	27570.48
757.368	27566.18
757.706	27498.61
758.044	27438.05
758.381	27386.98
758.719	27310.37
759.056	27298.62
759.394	27124.84
759.731	27012.07
760.068	27017.95
760.405	26884.39
760.743	26664.74
761.08	26835.58
761.417	26629.71
761.754	26619.09
762.091	26621.12
762.428	26542.03
762.765	26346.55
763.102	26402.14
763.438	26269.94
763.775	26228.36
764.112	26259.78
764.449	26185.88
764.785	26065.43
765.122	25871.99
765.458	25827.47
765.795	25697.08
766.131	25605.33
766.467	25608.49
766.804	25461.83
767.14	25408.5
767.476	25471.77
767.812	25241.72
768.148	25345
768.485	25068.85
768.821	24908.85
769.157	24915.86
769.492	24899.81
769.828	24825.46
770.164	24609.88
770.5	24568.52
770.836	24584.11
771.171	24435.64
771.507	24231.13
771.842	24215.76
772.178	24231.81
772.513	24048.53
772.849	24083.34
773.184	23934.19
773.519	23868.65
773.855	23755.89
774.19	23665.95
774.525	23701.2
774.86	23594.08
775.195	23455.56
775.53	23382.11
775.865	23304.83
776.2	23193.19
776.535	23119.52
776.87	23012.63
777.205	22944.16
777.539	22812.86
777.874	22892.41
778.209	22556.14
778.543	22652.19
778.878	22521.57
779.212	22548.46
779.547	22350.5
779.881	22470.72
780.215	22107.34
780.55	22315.02
780.884	22172.88
781.218	21955.71
781.552	21956.61
781.886	21849.95
782.22	21759.33
782.554	21719.78
782.888	21581.71
783.222	21486.34
783.556	21399.79
783.889	21293.8
784.223	21101.95
784.557	21169.51
784.89	21157.99
785.224	21021.27
785.557	20899.92
785.891	20793.7
786.224	20879.13
786.558	20755.97
786.891	20636.87
787.224	20522.98
787.557	20528.63
787.891	20511.68
788.224	20380.38
788.557	20409.53
788.89	20430.1
789.223	20300.61
789.556	20103.1
789.888	20141.29
790.221	19976.1
790.554	19915.76
790.887	19981.3
791.219	19815.43
791.552	19836.89
791.884	19673.73
792.217	19680.06
792.549	19538.6
792.882	19397.58
793.214	19373.85
793.546	19365.95
793.879	19209.57
794.211	19047.54
794.543	19070.13
794.875	19110.81
795.207	19170.92
795.539	18946.52
795.871	18884.15
796.203	18781.55
796.535	18732.74
796.867	18629.02
797.198	18585.63
797.53	18559.87
797.862	18459.75
798.193	18580.2
798.525	18388.34
798.856	18439.87
799.188	18199.42
799.519	18167.33
799.85	18018.86
800.182	18155.81
800.513	18114
800.844	17911.75
801.175	17946.55
801.506	17994
801.837	17934.57
802.168	17798.98
802.499	17777.51
802.83	17723.5
803.161	17610.06
803.491	17614.13
803.822	17538.87
804.153	17484.87
804.483	17304.53
804.814	17260.69
805.145	17276.06
805.475	17401.03
805.805	17229.96
806.136	17162.39
806.466	17157.64
806.796	17096.4
807.126	17054.14
807.457	16986.35
807.787	16941.83
808.117	16855.96
808.447	16799.46
808.777	16927.14
809.107	16767.14
809.436	16604.89
809.766	16648.95
810.096	16669.29
810.426	16450.54
810.755	16579.58
811.085	16534.38
811.414	16468.62
811.744	16264.78
812.073	16315.63
812.403	16303.2
812.732	16209.87
813.061	16228.63
813.39	16151.57
813.719	16055.75
814.049	16281.28
814.378	16130.32
814.707	16032.47
815.036	16023.89
815.365	15842.42
815.693	15713.61
816.022	15801.75
816.351	15678.36
816.68	15612.37
817.008	15714.06
817.337	15550.9
817.665	15572.15
817.994	15460.51
818.322	15585.25
818.651	15418.7
818.979	15370.12
819.307	15363.56
819.636	15331.48
819.964	15283.79
820.292	15322.21
820.62	15311.36
820.948	15210.8
821.276	15379.61
821.604	15296.67
821.932	15319.5
822.259	15279.73
822.587	15265.49
822.915	15208.77
823.243	15280.63
823.57	15227.07
823.898	15102.78
824.225	15116.79
824.553	15195.43
824.88	15220.74
825.207	15188.65
825.535	15163.8
825.862	15242.66
826.189	15188.2
826.516	15263.45
826.843	15205.83
827.17	15256.45
827.497	15290.57
827.824	15228.2
828.151	15269.78
828.478	15300.74
828.805	15267.52
829.131	15130.12
829.458	15129.45
829.785	15102.33
830.111	15145.72
830.438	15171.93
830.764	15123.12
831.09	15141.88
831.417	15023.46
831.743	15067.53
832.069	15135.32
832.395	15091.93
832.722	15108.66
833.048	15075.89
833.374	15185.94
833.7	14993.18
834.026	14991.37
834.351	14959.06
834.677	15012.84
835.003	14953.41
835.329	14971.03
835.654	14996.79
835.98	14831.15
836.306	14998.38
836.631	14795.44
836.956	14882.9
837.282	14862.56
837.607	14701.89
837.932	14752.96
838.258	14802
838.583	14731.94
838.908	14663.02
839.233	14652.4
839.558	14642.91
839.883	14590.25
840.208	14602.68
840.533	14419.41
840.858	14499.18
841.182	14550.03
841.507	14433.42
841.832	14429.13
842.156	14438.84
842.481	14378.96
842.805	14345.51
843.13	14374.44
843.454	14275.01
843.778	14224.39
844.103	14193.2
844.427	14098.74
844.751	14230.49
845.075	14043.6
845.399	14076.82
845.723	14035.46
846.047	13971.51
846.371	13949.36
846.695	13957.05
847.019	13889.25
847.343	13821.01
847.666	13719.09
847.99	13642.71
848.313	13550.51
848.637	13455.37
848.96	13483.84
849.284	13459.43
849.607	13319.1
849.931	13327.46
850.254	13211.98
850.577	13242.04
850.9	13140.8
851.223	13138.09
851.546	13049.5
851.869	12891.99
852.192	13049.5
852.515	12838.66
852.838	12798.43
853.161	12830.52
853.483	12752.11
853.806	12689.96
854.129	12717.76
854.451	12695.16
854.774	12520.02
855.096	12525.9
855.419	12508.72
855.741	12515.96
856.063	12362.74
856.385	12428.27
856.708	12312.12
857.03	12307.83
857.352	12317.09
857.674	12214.95
857.996	12154.61
858.318	12084.78
858.64	12044.78
858.961	12088.85
859.283	12033.93
859.605	12021.05
859.926	11958.46
860.248	11964.11
860.57	11946.03
860.891	11913.71
861.212	11767.05
861.534	11772.7
861.855	11752.81
862.176	11783.77
862.498	11729.54
862.819	11741.06
863.14	11760.04
863.461	11669.2
863.782	11684.57
864.103	11722.3
864.424	11605.92
864.745	11606.38
865.065	11567.05
865.386	11562.99
865.707	11537.45
866.027	11457.45
866.348	11450.67
866.668	11458.81
866.989	11407.74
867.309	11416.32
867.63	11442.31
867.95	11398.92
868.27	11309.89
868.59	11320.96
868.91	11279.6
869.23	11397.12
869.55	11255.42
869.87	11275.08
870.19	11264.46
870.51	11299.72
870.83	11209.1
871.15	11159.61
871.469	11198.7
871.789	11190.12
872.109	11205.26
872.428	11082.1
872.748	11147.4
873.067	11057.01
873.386	11188.08
873.706	11049.55
874.025	11023.79
874.344	10993.06
874.663	11007.3
874.982	11031.7
875.301	10990.12
875.62	10950.35
875.939	10878.71
876.258	10885.94
876.577	10863.8
876.896	10863.8
877.214	10846.4
877.533	10876
877.852	10840.75
878.17	10793.74
878.489	10886.62
878.807	10730.01
879.125	10749.45
879.444	10780.63
879.762	10701.77
880.08	10758.94
880.398	10637.59
880.716	10700.86
881.034	10618.6
881.352	10587.42
881.67	10594.65
881.988	10548.1
882.306	10519.17
882.624	10550.58
882.941	10391.72
883.259	10441.43
883.577	10348.33
883.894	10373.87
884.212	10342.91
884.529	10367.54
884.846	10299.29
885.164	10356.46
885.481	10274.66
885.798	10302.91
886.115	10285.73
886.432	10230.37
886.75	10243.47
887.067	10185.4
887.383	10084.38
887.7	10206.64
888.017	10103.82
888.334	10123.93
888.651	10099.52
888.967	10024.04
889.284	9922.8
889.6	9947.89
889.917	9899.75
890.233	9916.48
890.55	9875.12
890.866	9899.08
891.182	9821.56
891.498	9793.77
891.815	9733.88
892.131	9755.58
892.447	9817.72
892.763	9688.69
893.079	9661.34
893.395	9672.42
893.71	9641
894.026	9615.92
894.342	9560.78
894.657	9463.38
894.973	9495.47
895.289	9470.61
895.604	9465.87
895.92	9357.62
896.235	9384.97
896.55	9343.16
896.865	9259.77
897.181	9325.31
897.496	9310.39
897.811	9201.69
898.126	9152.65
898.441	9133.22
898.756	9095.48
899.071	9074.01
899.386	9096.16
899.7	9011.19
900.015	8991.53
900.33	8897.97
900.644	8907.92
900.959	8935.94
901.273	8889.61
901.588	8857.52
901.902	8747.47
902.216	8772.33
902.531	8709.5
902.845	8666.79
903.159	8589.28
903.473	8580.24
903.787	8601.03
904.101	8549.28
904.415	8547.25
904.729	8509.73
905.042	8425.44
905.356	8452.11
905.67	8385.67
905.984	8380.7
906.297	8350.87
906.611	8368.72
906.924	8307.71
907.237	8231.32
907.551	8229.97
907.864	8251.44
908.177	8140.93
908.491	8182.96
908.804	8093.7
909.117	8052.34
909.43	8048.28
909.743	7967.83
910.056	7974.38
910.368	7949.97
910.681	7900.94
910.994	7871.11
911.307	7823.42
911.619	7836.08
911.932	7799.92
912.244	7739.58
912.557	7740.49
912.869	7693.26
913.181	7634.95
913.494	7613.49
913.806	7610.77
914.118	7547.95
914.43	7488.07
914.742	7513.15
915.054	7438.8
915.366	7467.28
915.678	7377.79
915.99	7396.77
916.302	7361.06
916.613	7305.25
916.925	7229.32
917.236	7222.99
917.548	7187.06
917.859	7219.82
918.171	7192.93
918.482	7138.02
918.794	7072.03
919.105	7079.71
919.416	7011.92
919.727	7029.77
920.038	6973.5
920.349	6893.73
920.66	6907.06
920.971	6913.84
921.282	6857.35
921.593	6787.97
921.903	6791.81
922.214	6801.08
922.525	6745.26
922.835	6712.04
923.146	6670.91
923.456	6672.04
923.767	6619.61
924.077	6627.3
924.387	6528.32
924.697	6552.95
925.008	6497.13
925.318	6481.31
925.628	6433.18
925.938	6472.73
926.248	6366.74
926.558	6376
926.867	6348.66
927.177	6314.54
927.487	6283.35
927.796	6242.45
928.106	6222.79
928.416	6193.86
928.725	6291.71
929.034	6145.05
929.344	6225.05
929.653	6116.12
929.962	6087.42
930.271	6051.72
930.581	6042.91
930.89	6030.7
931.199	5991.61
931.508	5944.83
931.817	5936.02
932.125	5905.28
932.434	5910.25
932.743	5782.35
933.051	5825.06
933.36	5766.76
933.669	5739.64
933.977	5766.3
934.286	5710.94
934.594	5653.99
934.902	5648.11
935.21	5616.48
935.519	5658.96
935.827	5685.63
936.135	5585.74
936.443	5542.58
936.751	5557.5
937.059	5559.75
937.367	5527.44
937.674	5467.1
937.982	5423.04
938.29	5447.89
938.597	5427.78
938.905	5313.21
939.213	5340.1
939.52	5311.85
939.827	5320.67
940.135	5270.5
940.442	5265.98
940.749	5196.15
941.056	5253.32
941.363	5196.83
941.67	5181.46
941.977	5158.18
942.284	5039.77
942.591	5096.26
942.898	5057.85
943.205	5055.36
943.511	5039.54
943.818	5012.88
944.125	4968.13
944.431	4921.35
944.738	4938.3
945.044	4922.71
945.35	4906.44
945.657	4858.08
945.963	4881.81
946.269	4831.19
946.575	4795.03
946.881	4805.65
947.187	4781.02
947.493	4737.18
947.799	4745.09
948.105	4739.21
948.41	4662.6
948.716	4668.93
949.022	4666.67
949.327	4665.32
949.633	4614.02
949.938	4631.42
950.244	4585.32
950.549	4548.71
950.854	4498.31
951.16	4518.88
951.465	4515.49
951.77	4484.08
952.075	4481.59
952.38	4420.8
952.685	4403.63
952.99	4375.61
953.294	4373.8
953.599	4348.94
953.904	4337.41
954.209	4303.52
954.513	4308.04
954.818	4304.65
955.122	4278.21
955.426	4259
955.731	4249.96
956.035	4215.84
956.339	4192.11
956.643	4158.89
956.948	4159.34
957.252	4124.76
957.556	4121.6
957.86	4094.26
958.163	4097.65
958.467	4091.77
958.771	4073.24
959.075	4099.91
959.378	4010.19
959.682	4013.58
959.985	3996.18
960.289	3946.92
960.592	3976.07
960.896	3925.9
961.199	3906.47
961.502	3903.75
961.805	3899.01
962.108	3829.18
962.411	3885
962.714	3838.44
963.017	3822.17
963.32	3801.16
963.623	3793.25
963.926	3770.65
964.228	3728.39
964.531	3741.27
964.833	3682.97
965.136	3687.49
965.438	3680.48
965.741	3638.22
966.043	3626.25
966.345	3620.14
966.648	3597.77
966.95	3619.69
967.252	3574.95
967.554	3606.36
967.856	3588.28
968.158	3548.28
968.46	3531.33
968.761	3569.98
969.063	3525.91
969.365	3468.28
969.666	3506.93
969.968	3431
970.269	3403.65
970.571	3393.26
970.872	3427.61
971.174	3351.23
971.475	3388.29
971.776	3398.91
972.077	3337.44
972.378	3348.97
972.679	3329.76
972.98	3294.05
973.281	3287.72
973.582	3292.7
973.883	3285.69
974.183	3266.71
974.484	3228.06
974.785	3210.66
975.085	3229.19
975.386	3192.81
975.686	3114.17
975.986	3178.8
976.287	3174.73
976.587	3111.23
976.887	3105.36
977.187	3106.94
977.487	3071.68
977.787	3102.64
978.087	3087.73
978.387	3036.88
978.687	3081.18
978.987	3026.71
979.286	3021.29
979.586	2949.43
979.885	2960.5
980.185	2981.07
980.484	2960.05
980.784	2957.34
981.083	2922.76
981.382	2897.45
981.682	2912.82
981.981	2878.47
982.28	2916.21
982.579	2885.47
982.878	2881.18
983.177	2845.25
983.475	2801.86
983.774	2810.67
984.073	2788.3
984.372	2790.79
984.67	2762.54
984.969	2793.5
985.267	2776.1
985.566	2737.46
985.864	2726.38
986.162	2706.95
986.461	2707.85
986.759	2666.95
987.057	2707.85
987.355	2694.52
987.653	2614.07
987.951	2679.38
988.249	2654.07
988.547	2629.44
988.844	2644.13
989.142	2576.78
989.44	2575.65
989.737	2574.75
990.035	2574.3
990.332	2528.2
990.63	2549.44
990.927	2560.06
991.224	2522.55
991.521	2506.28
991.819	2515.77
992.116	2518.03
992.413	2457.01
992.71	2457.24
993.006	2430.8
993.303	2475.09
993.6	2455.43
993.897	2398.26
994.193	2411.14
994.49	2398.03
994.787	2353.51
995.083	2337.47
995.379	2362.78
995.676	2391.25
995.972	2331.59
996.268	2315.55
996.565	2315.55
996.861	2304.02
997.157	2273.29
997.453	2277.13
997.749	2247.75
998.044	2270.8
998.34	2235.32
998.636	2244.81
998.932	2195.55
999.227	2226.96
999.523	2212.27
999.818	2194.65
1000.114	2187.41
1000.409	2188.32
1000.704	2134.31
1001	2156.68
1001.295	2150.35
1001.59	2134.53
1001.885	2114.65
1002.18	2071.94
1002.475	2084.37
1002.77	2089.56
1003.065	2016.35
1003.359	2051.37
1003.654	2021.32
1003.949	2018.38
1004.243	2039.85
1004.538	1981.54
1004.832	2010.02
1005.127	2019.06
1005.421	1953.07
1005.715	1934.99
1006.009	1941.09
1006.304	1951.49
1006.598	1916.91
1006.892	1944.71
1007.186	1901.09
1007.48	1922.56
1007.773	1895.44
1008.067	1874.43
1008.361	1853.41
1008.655	1861.32
1008.948	1858.38
1009.242	1825.62
1009.535	1826.75
1009.829	1820.87
1010.122	1825.84
1010.415	1784.94
1010.708	1793.98
1011.001	1789.68
1011.295	1747.88
1011.588	1755.34
1011.881	1757.14
1012.173	1711.49
1012.466	1734.77
1012.759	1703.13
1013.052	1718.73
1013.344	1664.04
1013.637	1708.56
1013.93	1688.67
1014.222	1664.94
1014.514	1654.09
1014.807	1642.34
1015.099	1626.75
1015.391	1638.05
1015.683	1614.55
1015.976	1614.1
1016.268	1564.15
1016.56	1586.98
1016.851	1546.75
1017.143	1565.28
1017.435	1564.15
1017.727	1542.46
1018.018	1555.34
1018.31	1523.93
1018.602	1533.65
1018.893	1517.38
1019.185	1478.96
1019.476	1471.95
1019.767	1490.71
1020.058	1460.65
1020.35	1449.13
1020.641	1436.25
1020.932	1454.1
1021.223	1417.94
1021.514	1425.63
1021.804	1409.36
1022.095	1389.02
1022.386	1368
1022.677	1380.43
1022.967	1396.93
1023.258	1345.4
1023.548	1346.08
1023.839	1342.01
1024.129	1357.83
1024.419	1331.84
1024.709	1316.48
1025	1331.62
1025.29	1318.28
1025.58	1296.36
1025.87	1281
1026.16	1289.81
1026.449	1271.05
1026.739	1263.37
1027.029	1257.04
1027.319	1233.09
1027.608	1252.75
1027.898	1229.47
1028.187	1245.52
1028.477	1208.46
1028.766	1226.76
1029.055	1193.09
1029.344	1196.93
1029.634	1217.04
1029.923	1181.79
1030.212	1172.53
1030.501	1168.01
1030.79	1181.56
1031.078	1130.04
1031.367	1133.43
1031.656	1148.8
1031.945	1123.26
1032.233	1133.43
1032.522	1132.53
1032.81	1109.48
1033.099	1100.44
1033.387	1128.23
1033.675	1099.99
1033.963	1085.3
1034.251	1065.18
1034.54	1050.49
1034.828	1058.86
1035.116	1042.13
1035.403	1048.91
1035.691	1049.59
1035.979	1064.96
1036.267	1014.56
1036.554	1010.04
1036.842	1017.95
1037.129	1008.46
1037.417	972.98
1037.704	998.52
1037.992	995.81
1038.279	976.15
1038.566	961.68
1038.853	961.68
1039.14	961.68
