Data from hue_200_FLMS001491_00099.txt Node
Date: Tue Feb 07 16:44:13 GMT 2017
User: dcchb
Spectrometer: FLMS00149
Trigger mode: 0
Integration Time (sec): 2.000000E-2
Scans to average: 10
Electric dark correction enabled: true
Nonlinearity correction enabled: false
Boxcar width: 0
XAxis mode: Wavelengths
Number of Pixels in Spectrum: 2048
>>>>>Begin Spectral Data<<<<<
341.393	-22.89
341.776	-22.89
342.16	-22.89
342.543	-50.69
342.927	-71.93
343.31	-53.18
343.693	-80.75
344.077	-51.37
344.46	-60.86
344.843	-44.36
345.226	-42.78
345.61	-11.6
345.993	-35.32
346.376	-14.99
346.759	19.36
347.142	25.47
347.525	38.12
347.908	59.14
348.291	59.59
348.674	88.06
349.057	105.46
349.44	128.74
349.823	161.06
350.206	166.48
350.588	174.61
350.971	202.86
351.354	224.78
351.737	242.41
352.119	252.58
352.502	248.96
352.884	280.37
353.267	289.64
353.65	288.51
354.032	295.74
354.414	284.89
354.797	299.58
355.179	330.32
355.562	310.88
355.944	333.93
356.326	310.2
356.709	317.66
357.091	347.49
357.473	323.08
357.855	337.32
358.238	323.54
358.62	317.44
359.002	342.97
359.384	355.63
359.766	337.77
360.148	341.39
360.53	338.68
360.912	320.82
361.294	333.71
361.676	320.6
362.057	350.65
362.439	322.41
362.821	349.75
363.203	331.67
363.584	342.07
363.966	325.34
364.348	326.47
364.729	325.34
365.111	321.5
365.493	318.34
365.874	321.73
366.256	297.77
366.637	310.66
367.019	313.59
367.4	313.14
367.781	310.66
368.163	312.01
368.544	302.75
368.925	308.62
369.306	311.33
369.688	300.26
370.069	326.02
370.45	308.4
370.831	316.08
371.212	302.29
371.593	298.9
371.974	305.91
372.355	326.93
372.736	322.63
373.117	309.75
373.498	305.01
373.879	331.9
374.26	302.52
374.641	309.07
375.021	312.01
375.402	313.37
375.783	318.34
376.163	328.73
376.544	323.54
376.925	325.12
377.305	322.18
377.686	311.33
378.066	324.89
378.447	315.85
378.827	319.47
379.208	331.45
379.588	304.55
379.968	313.37
380.349	342.52
380.729	319.47
381.109	324.89
381.489	342.97
381.87	330.32
382.25	321.73
382.63	334.16
383.01	360.82
383.39	345.46
383.77	323.31
384.15	343.88
384.53	342.75
384.91	352.46
385.29	341.39
385.67	335.74
386.049	345.46
386.429	356.08
386.809	340.94
387.189	353.14
387.568	359.69
387.948	345.91
388.328	357.89
388.707	366.02
389.087	361.28
389.466	352.46
389.846	369.86
390.225	360.37
390.605	366.7
390.984	356.98
391.363	372.35
391.743	353.37
392.122	352.69
392.501	361.05
392.881	381.61
393.26	365.57
393.639	374.16
394.018	352.01
394.397	374.16
394.776	381.84
395.155	375.51
395.534	368.06
395.913	368.51
396.292	383.42
396.671	381.84
397.05	387.49
397.429	392.01
397.808	386.13
398.186	401.73
398.565	423.65
398.944	381.84
399.323	413.93
399.701	390.88
400.08	396.76
400.458	405.79
400.837	396.53
401.215	428.39
401.594	418
401.972	448.96
402.351	410.77
402.729	450.31
403.107	435.4
403.486	410.54
403.864	429.3
404.242	432.91
404.62	430.2
404.999	429.75
405.377	443.53
405.755	433.14
406.133	457.32
406.511	457.77
406.889	475.62
407.267	465.45
407.645	477.43
408.023	483.53
408.401	524.89
408.779	499.13
409.156	507.49
409.534	519.01
409.912	515.85
410.29	530.76
410.667	519.01
411.045	539.58
411.422	549.29
411.8	560.37
412.178	551.33
412.555	554.94
412.933	580.71
413.31	582.74
413.687	593.81
414.065	603.76
414.442	608.5
414.819	618.67
415.197	651.89
415.574	639.23
415.951	671.55
416.328	661.61
416.705	657.99
417.082	679.01
417.46	681.72
417.837	680.36
418.214	682.62
418.591	706.8
418.967	718.78
419.344	739.34
419.721	754.49
420.098	744.32
420.475	789.29
420.852	756.07
421.228	784.32
421.605	791.32
421.982	801.04
422.358	825.44
422.735	852.56
423.111	868.38
423.488	869.96
423.864	911.32
424.241	924.42
424.617	911.54
424.994	930.07
425.37	953.12
425.746	962.16
426.123	963.07
426.499	979.56
426.875	987.47
427.251	1008.04
427.627	1015.04
428.003	1034.93
428.379	1040.35
428.756	1075.16
429.132	1073.35
429.507	1113.12
429.883	1100.01
430.259	1141.59
430.635	1133.23
431.011	1147.02
431.387	1172.55
431.763	1229.28
432.138	1202.38
432.514	1233.12
432.89	1235.83
433.265	1264.53
433.641	1300.23
434.016	1315.38
434.392	1361.02
434.767	1369.84
435.143	1398.54
435.518	1395.6
435.894	1425.88
436.269	1464.52
436.644	1501.36
437.02	1509.27
437.395	1508.82
437.77	1587.46
438.145	1603.73
438.52	1610.96
438.895	1636.04
439.271	1635.82
439.646	1693.44
440.021	1723.27
440.395	1747.23
440.77	1760.11
441.145	1770.73
441.52	1801.92
441.895	1829.03
442.27	1868.13
442.645	1879.2
443.019	1914.68
443.394	1892.53
443.769	1913.1
444.143	1924.62
444.518	1986.09
444.892	1967.56
445.267	1969.6
445.641	2010.05
446.016	2013.89
446.39	2038.97
446.764	2068.35
447.139	2069.93
447.513	2132.98
447.887	2102.92
448.262	2131.17
448.636	2172.08
449.01	2206.43
449.384	2188.57
449.758	2211.62
450.132	2240.32
450.506	2248.46
450.88	2268.57
451.254	2260.66
451.628	2314.22
452.002	2345.86
452.376	2332.3
452.75	2382.47
453.123	2393.99
453.497	2437.83
453.871	2466.08
454.244	2505.17
454.618	2501.56
454.992	2540.2
455.365	2551.95
455.739	2598.51
456.112	2637.6
456.486	2690.03
456.859	2710.82
457.232	2724.15
457.606	2724.6
457.979	2779.97
458.352	2799.63
458.725	2871.72
459.099	2857.48
459.472	2915.33
459.845	2919.63
460.218	2949.68
460.591	2999.17
460.964	2996.69
461.337	3101.77
461.71	3136.12
462.083	3155.33
462.456	3196
462.829	3210.01
463.201	3249.34
463.574	3270.8
463.947	3311.03
464.32	3382.89
464.692	3396.45
465.065	3417.24
465.438	3494.53
465.81	3521.19
466.183	3567.97
466.555	3607.74
466.928	3653.62
467.3	3667.63
467.672	3703.56
468.045	3766.38
468.417	3825.14
468.789	3851.58
469.161	3859.26
469.534	3937
469.906	4033.04
470.278	4020.84
470.65	4069.43
471.022	4185.58
471.394	4210.21
471.766	4224.45
472.138	4297.67
472.51	4374.96
472.882	4430.77
473.253	4500.83
473.625	4538.34
473.997	4637.77
474.369	4627.15
474.74	4752.35
475.112	4775.17
475.484	4873.02
475.855	4958.67
476.227	4975.17
476.598	5069.17
476.97	5120.25
477.341	5242.28
477.713	5321.37
478.084	5294.25
478.455	5452.44
478.827	5524.08
479.198	5661.7
479.569	5646.11
479.94	5774.92
480.311	5837.29
480.682	5973.11
481.053	6048.58
481.424	6185.98
481.795	6163.38
482.166	6245.41
482.537	6382.59
482.908	6455.35
483.279	6555.46
483.65	6596.14
484.021	6726.53
484.391	6824.16
484.762	6919.3
485.133	6893.31
485.503	6984.83
485.874	7081.1
486.244	7161.55
486.615	7301.66
486.985	7382.33
487.356	7468.89
487.726	7557.24
488.097	7677.24
488.467	7703.23
488.837	7853.73
489.207	7958.59
489.578	8023.67
489.948	8088.98
490.318	8201.75
490.688	8120.62
491.058	8335.76
491.428	8387.28
491.798	8438.13
492.168	8578.46
492.538	8603.09
492.908	8730.32
493.278	8796.31
493.648	8799.25
494.017	8960.82
494.387	8980.03
494.757	9017.77
495.126	9060.48
495.496	9058.9
495.866	9222.29
496.235	9179.8
496.605	9298.67
496.974	9341.83
497.344	9463.64
497.713	9371.21
498.082	9478.1
498.452	9502.28
498.821	9613.24
499.19	9537.08
499.559	9679.67
499.928	9675.16
500.298	9681.26
500.667	9803.51
501.036	9728.49
501.405	9844.42
501.774	9885.09
502.143	9876.05
502.512	9941.36
502.88	10011.42
503.249	9961.7
503.618	9970.74
503.987	10057.52
504.356	10113.79
504.724	10104.07
505.093	10184.52
505.462	10147.69
505.83	10094.58
506.199	10260
506.567	10347.23
506.936	10281.24
507.304	10358.08
507.672	10389.26
508.041	10380.9
508.409	10397.17
508.777	10459.54
509.145	10548.13
509.514	10556.71
509.882	10529.82
510.25	10486.43
510.618	10517.62
510.986	10585.87
511.354	10594.45
511.722	10654.79
512.09	10667.45
512.458	10626.09
512.826	10680.1
513.193	10710.83
513.561	10727.56
513.929	10742.02
514.297	10792.64
514.664	10817.27
515.032	10824.28
515.4	10877.16
515.767	10847.78
516.135	10898.63
516.502	10738.18
516.869	10862.47
517.237	10941.34
517.604	10784.5
517.972	10865.63
518.339	10963.26
518.706	10910.83
519.073	10888.46
519.44	10943.14
519.808	10968.68
520.175	10952.86
520.542	10986.53
520.909	10992.41
521.276	10897.95
521.643	11051.39
522.009	11036.7
522.376	11083.71
522.743	11011.62
523.11	11086.87
523.477	11109.47
523.843	11158.05
524.21	11207.32
524.577	11140.88
524.943	11145.85
525.31	11123.7
525.676	11194.66
526.043	11175
526.409	11216.36
526.776	11252.51
527.142	11204.61
527.508	11144.5
527.874	11240.54
528.241	11180.65
528.607	11177.26
528.973	11157.6
529.339	11194.21
529.705	11149.01
530.071	11235.11
530.437	11189.47
530.803	11188.56
531.169	11194.44
531.535	11108.11
531.901	11093.65
532.267	11013.88
532.632	11100.65
532.998	11066.08
533.364	10970.26
533.73	10975.23
534.095	10979.98
534.461	10938.17
534.826	11018.62
535.192	10876.03
535.557	10887.1
535.923	10827.22
536.288	10858.17
536.653	10750.83
537.019	10749.48
537.384	10650.27
537.749	10691.17
538.114	10651.85
538.479	10618.86
538.845	10570.5
539.21	10499.31
539.575	10463.61
539.94	10483.04
540.305	10448.02
540.67	10353.1
541.034	10296.83
541.399	10341.35
541.764	10240.56
542.129	10252.32
542.494	10186.1
542.858	10183.39
543.223	10030.63
543.587	10059.55
543.952	9984.3
544.316	10024.52
544.681	9868.6
545.045	9897.75
545.41	9873.79
545.774	9848.48
546.138	9877.86
546.503	9796.28
546.867	9721.48
547.231	9744.31
547.595	9652.56
547.959	9615.95
548.324	9587.93
548.688	9582.5
549.052	9525.78
549.416	9498.66
549.779	9379.8
550.143	9355.62
550.507	9407.14
550.871	9380.93
551.235	9330.76
551.599	9215.73
551.962	9230.42
552.326	9156.3
552.689	9122.85
553.053	9098.9
553.417	9088.96
553.78	9046.92
554.143	9015.51
554.507	9050.54
554.87	8959.02
555.234	8984.1
555.597	8907.04
555.96	8878.79
556.323	8879.02
556.686	8741.17
557.05	8826.36
557.413	8770.77
557.776	8754.5
558.139	8750.43
558.502	8691.68
558.865	8666.37
559.228	8763.77
559.59	8726.48
559.953	8642.19
560.316	8702.3
560.679	8655.97
561.041	8592.92
561.404	8693.71
561.767	8639.93
562.129	8561.06
562.492	8662.53
562.854	8568.29
563.217	8560.61
563.579	8524.9
563.941	8610.78
564.304	8602.19
564.666	8625.47
565.028	8562.64
565.39	8533.49
565.753	8541.63
566.115	8572.59
566.477	8633.6
566.839	8593.38
567.201	8576.43
567.563	8534.17
567.925	8607.61
568.287	8595.18
568.648	8600.61
569.01	8549.54
569.372	8616.43
569.734	8563.77
570.095	8555.18
570.457	8546.37
570.819	8596.77
571.18	8583.43
571.542	8563.77
571.903	8579.82
572.265	8554.05
572.626	8547.95
572.987	8585.92
573.349	8609.19
573.71	8642.41
574.071	8641.28
574.432	8588.63
574.794	8653.26
575.155	8646.93
575.516	8570.33
575.877	8548.86
576.238	8633.37
576.599	8614.62
576.96	8589.99
577.32	8530.55
577.681	8636.09
578.042	8613.49
578.403	8557.22
578.763	8603.77
579.124	8536.65
579.485	8533.94
579.845	8648.74
580.206	8603.32
580.566	8554.51
580.927	8586.82
581.287	8667.95
581.648	8625.01
582.008	8628.86
582.368	8610.32
582.728	8631.34
583.089	8566.03
583.449	8618.91
583.809	8576.2
584.169	8695.52
584.529	8560.83
584.889	8642.19
585.249	8647.84
585.609	8519.48
585.969	8601.51
586.329	8523.32
586.688	8568.74
587.048	8542.76
587.408	8462.98
587.768	8507.73
588.127	8536.2
588.487	8520.84
588.846	8578.91
589.206	8453.72
589.565	8494.4
589.925	8535.52
590.284	8492.81
590.643	8475.86
591.003	8484.45
591.362	8507.5
591.721	8497.56
592.08	8452.59
592.44	8485.58
592.799	8464.57
593.158	8509.99
593.517	8436.32
593.876	8385.92
594.235	8447.62
594.593	8446.49
594.952	8470.89
595.311	8412.36
595.67	8416.21
596.029	8435.41
596.387	8491.23
596.746	8458.01
597.104	8410.56
597.463	8397
597.822	8471.8
598.18	8439.03
598.538	8326.72
598.897	8422.53
599.255	8359.94
599.613	8425.7
599.972	8368.97
600.33	8418.69
600.688	8280.16
601.046	8319.48
601.404	8450.1
601.762	8362.87
602.12	8427.5
602.478	8395.19
602.836	8355.64
603.194	8348.41
603.552	8359.71
603.91	8350.9
604.268	8337.34
604.625	8321.52
604.983	8400.84
605.341	8284.91
605.698	8350.9
606.056	8358.35
606.413	8334.17
606.771	8370.56
607.128	8434.74
607.485	8335.76
607.843	8357.68
608.2	8391.8
608.557	8381.4
608.914	8346.38
609.272	8401.52
609.629	8426.15
609.986	8416.21
610.343	8453.94
610.7	8427.96
611.057	8427.5
611.414	8382.08
611.771	8411.91
612.127	8512.7
612.484	8458.46
612.841	8461.63
613.198	8390.9
613.554	8402.65
613.911	8539.59
614.267	8498.46
614.624	8440.84
614.98	8453.27
615.337	8509.08
615.693	8446.26
616.05	8460.05
616.406	8480.38
616.762	8455.98
617.118	8465.24
617.475	8479.93
617.831	8537.56
618.187	8501.17
618.543	8528.29
618.899	8534.62
619.255	8562.19
619.611	8524
619.967	8565.58
620.323	8588.86
620.678	8499.82
621.034	8503.21
621.39	8506.82
621.746	8551.57
622.101	8567.16
622.457	8503.21
622.812	8526.03
623.168	8502.3
623.523	8512.02
623.879	8562.64
624.234	8455.75
624.589	8485.58
624.945	8531.23
625.3	8484.45
625.655	8490.55
626.01	8553.83
626.365	8552.7
626.72	8486.94
627.075	8510.67
627.43	8462.53
627.785	8449.42
628.14	8483.1
628.495	8508.63
628.85	8502.08
629.205	8481.97
629.559	8473.83
629.914	8409.65
630.269	8520.16
630.623	8473.83
630.978	8498.69
631.332	8469.31
631.687	8451.01
632.041	8438.8
632.396	8407.84
632.75	8405.58
633.104	8361.29
633.459	8359.71
633.813	8329.43
634.167	8328.98
634.521	8344.34
634.875	8372.14
635.229	8329.2
635.583	8266.6
635.937	8309.99
636.291	8258.02
636.645	8235.19
636.999	8309.32
637.352	8277.45
637.706	8216.66
638.06	8260.96
638.413	8154.07
638.767	8201.52
639.121	8237.9
639.474	8194.06
639.828	8220.28
640.181	8200.17
640.534	8180.96
640.888	8125.82
641.241	8145.25
641.594	8203.1
641.947	8128.98
642.301	8086.72
642.654	8169.66
643.007	8154.29
643.36	8090.79
643.713	8084.24
644.066	8179.6
644.419	8120.39
644.771	8047.18
645.124	7990
645.477	7974.18
645.83	7964.69
646.182	7855.32
646.535	7853.28
646.888	7819.61
647.24	7817.12
647.593	7844.69
647.945	7869.55
648.298	7818.25
648.65	7859.84
649.002	7825.26
649.355	7838.59
649.707	7871.13
650.059	7872.26
650.411	7956.56
650.763	7960.17
651.115	8006.27
651.467	8016.67
651.819	8029.77
652.171	8022.32
652.523	7971.02
652.875	8003.33
653.227	7956.33
653.578	8046.27
653.93	8080.85
654.282	7986.61
654.633	8008.08
654.985	8006.05
655.337	8000.85
655.688	8040.4
656.039	8085.14
656.391	7996.56
656.742	8048.76
657.094	8057.34
657.445	8019.83
657.796	8051.02
658.147	8015.76
658.498	8030.23
658.849	8095.99
659.2	8003.56
659.551	8068.64
659.902	8060.28
660.253	8036.55
660.604	8058.93
660.955	8084.01
661.306	8028.19
661.656	8036.78
662.007	8093.5
662.358	8033.62
662.708	7996.1
663.059	8040.85
663.409	8071.13
663.76	8076.78
664.11	8121.3
664.461	8076.55
664.811	8121.3
665.161	8109.55
665.511	8140.05
665.862	8058.7
666.212	8179.83
666.562	8194.52
666.912	8085.37
667.262	8129.21
667.612	8076.78
667.962	8148.19
668.312	8064.35
668.662	8176.89
669.011	8156.1
669.361	8100.73
669.711	8157.68
670.06	8114.29
670.41	8086.27
670.76	8027.74
671.109	8079.94
671.459	8070.68
671.808	8045.14
672.157	8104.8
672.507	8053.95
672.856	8050.57
673.205	8004.69
673.554	8084.69
673.904	8046.27
674.253	8059.38
674.602	8058.25
674.951	7990.91
675.3	7878.59
675.649	8037.46
675.998	8000.17
676.346	8011.02
676.695	7973.96
677.044	7940.51
677.393	7970.34
677.741	7967.18
678.09	7958.36
678.438	7953.17
678.787	7945.71
679.135	7898.93
679.484	7873.17
679.832	7853.51
680.181	7824.58
680.529	7869.78
680.877	7837.46
681.225	7829.55
681.573	7894.86
681.922	7817.8
682.27	7785.49
682.618	7761.08
682.966	7796.11
683.314	7744.13
683.661	7721.31
684.009	7677.24
684.357	7623.68
684.705	7611.71
685.053	7634.3
685.4	7639.73
685.748	7646.28
686.095	7590.92
686.443	7556.34
686.79	7626.4
687.138	7553.4
687.485	7548.88
687.832	7544.59
688.18	7518.83
688.527	7498.49
688.874	7411.03
689.221	7442.9
689.568	7414.42
689.915	7372.84
690.262	7361.32
690.609	7338.72
690.956	7321.77
691.303	7341.88
691.65	7310.25
691.997	7266.18
692.344	7215.11
692.69	7232.06
693.037	7246.74
693.383	7112.06
693.73	7148.44
694.077	7112.96
694.423	7074.32
694.769	7129.91
695.116	7028.45
695.462	7016.02
695.808	7020.76
696.155	7020.31
696.501	6990.03
696.847	6939.63
697.193	6857.38
697.539	6937.15
697.885	6821.9
698.231	6796.59
698.577	6840.2
698.923	6755.23
699.269	6786.87
699.614	6684.73
699.96	6678.17
700.306	6665.29
700.651	6632.75
700.997	6623.26
701.342	6626.87
701.688	6592.07
702.033	6582.36
702.379	6566.31
702.724	6539.64
703.069	6534.22
703.415	6478.4
703.76	6456.03
704.105	6428.23
704.45	6414.68
704.795	6414.22
705.14	6354.79
705.485	6368.12
705.83	6330.61
706.175	6285.41
706.52	6315.7
706.865	6206.77
707.209	6274.79
707.554	6209.94
707.899	6215.59
708.243	6160.9
708.588	6190.05
708.932	6125.64
709.277	6100.33
709.621	6093.78
709.966	6123.38
710.31	6037.06
710.654	6059.43
710.998	6068.47
711.342	6061.46
711.687	6019.66
712.031	6026.66
712.375	5960
712.719	5964.52
713.063	5950.73
713.407	5952.09
713.75	5970.39
714.094	5925.88
714.438	5928.14
714.782	5844.75
715.125	5906.89
715.469	5916.61
715.812	5879.32
716.156	5877.97
716.499	5875.71
716.843	5863.96
717.186	5828.7
717.53	5853.11
717.873	5826.89
718.216	5870.74
718.559	5851.07
718.902	5777.63
719.246	5773.56
719.589	5762.04
719.932	5758.42
720.275	5731.53
720.617	5790.29
720.96	5717.29
721.303	5715.26
721.646	5745.09
721.989	5720.68
722.331	5756.39
722.674	5748.7
723.016	5701.47
723.359	5696.5
723.701	5708.03
724.044	5690.18
724.386	5611.31
724.729	5718.88
725.071	5682.72
725.413	5678.65
725.755	5677.29
726.097	5634.13
726.439	5609.95
726.782	5672.32
727.124	5635.71
727.465	5641.36
727.807	5646.11
728.149	5635.49
728.491	5646.56
728.833	5608.14
729.175	5639.78
729.516	5649.95
729.858	5627.13
730.199	5667.35
730.541	5588.03
730.882	5622.83
731.224	5615.83
731.565	5593.23
731.906	5641.81
732.248	5637.07
732.589	5599.33
732.93	5603.62
733.271	5666
733.612	5675.26
733.953	5624.41
734.294	5604.98
734.635	5673.9
734.976	5647.24
735.317	5634.36
735.658	5607.92
735.999	5662.15
736.339	5643.4
736.68	5670.29
737.021	5685.66
737.361	5666.45
737.702	5678.2
738.042	5689.5
738.383	5673
738.723	5700.8
739.063	5688.82
739.404	5755.03
739.744	5733.79
740.084	5760.68
740.424	5717.75
740.764	5784.41
741.104	5790.29
741.444	5766.33
741.784	5778.53
742.124	5836.84
742.464	5865.09
742.804	5886.55
743.143	5880.23
743.483	5876.16
743.823	5926.33
744.162	5919.55
744.502	5914.58
744.841	5912.32
745.181	6006.1
745.52	6083.84
745.86	6072.99
746.199	6110.73
746.538	6122.25
746.877	6209.03
747.216	6214.23
747.556	6206.09
747.895	6332.87
748.234	6314.57
748.573	6366.32
748.911	6457.61
749.25	6524.28
749.589	6548.23
749.928	6618.96
750.267	6711.39
750.605	6716.36
750.944	6808.34
751.283	6797.26
751.621	6961.78
751.96	7052.17
752.298	7095.11
752.636	7201.1
752.975	7234.09
753.313	7372.84
753.651	7512.5
753.989	7565.15
754.327	7690.35
754.666	7759.5
755.004	7917.01
755.342	8077.23
755.679	8211.01
756.017	8236.55
756.355	8434.74
756.693	8535.98
757.031	8738.68
757.368	8755.18
757.706	9009.64
758.044	9085.11
758.381	9272.68
758.719	9448.95
759.056	9589.96
759.394	9723.06
759.731	9862.49
760.068	10064.3
760.405	10193.11
760.743	10279.89
761.08	10554.91
761.417	10673.55
761.754	10932.98
762.091	11015.23
762.428	11219.07
762.765	11340.87
763.102	11533.41
763.438	11650.47
763.775	11847.53
764.112	11981.31
764.449	12244.81
764.785	12314.41
765.122	12450.9
765.458	12591.24
765.795	12811.57
766.131	12962.98
766.467	13171.33
766.804	13265.12
767.14	13466.02
767.476	13578.33
767.812	13679.34
768.148	13912.33
768.485	14019
768.821	14124.98
769.157	14247.46
769.492	14390.96
769.828	14570.62
770.164	14672.99
770.5	14754.34
770.836	14951.85
771.171	14903.72
771.507	15101.68
771.842	15122.02
772.178	15194.78
772.513	15323.14
772.849	15481.1
773.184	15511.16
773.519	15585.73
773.855	15694.88
774.19	15755
774.525	15834.77
774.86	16016.23
775.195	16020.3
775.53	16053.29
775.865	16062.56
776.2	16105.49
776.535	16057.36
776.87	16217.58
777.205	16232.5
777.539	16376.45
777.874	16454.41
778.209	16363.34
778.543	16402.21
778.878	16383.68
779.212	16456.9
779.547	16563.79
779.881	16641.07
780.215	16600.62
780.55	16657.34
780.884	16711.58
781.218	16685.37
781.552	16748.87
781.886	16674.97
782.22	16736.89
782.554	16664.58
782.888	16670.23
783.222	16648.08
783.556	16604.69
783.889	16685.82
784.223	16552.49
784.557	16661.41
784.89	16700.28
785.224	16580.06
785.557	16587.97
785.891	16646.95
786.224	16658.02
786.558	16659.15
786.891	16448.76
787.224	16543.68
787.557	16571.47
787.891	16583.67
788.224	16596.78
788.557	16574.41
788.89	16581.64
789.223	16590.45
789.556	16584.58
789.888	16605.14
790.221	16561.3
790.554	16461.87
790.887	16326.28
791.219	16364.7
791.552	16267.98
791.884	16313.62
792.217	16357.24
792.549	16288.54
792.882	16199.28
793.214	16183.23
793.546	16289.22
793.879	16153.63
794.211	16065.5
794.543	16120.41
794.875	16108.21
795.207	16150.47
795.539	16019.4
795.871	16123.8
796.203	16006.29
796.535	15909.79
796.867	15863.92
797.198	15834.32
797.53	15846.29
797.862	15747.31
798.193	15770.14
798.525	15697.37
798.856	15773.3
799.188	15666.64
799.519	15583.25
799.85	15515.91
800.182	15572.18
800.513	15477.71
800.844	15411.5
801.175	15468.68
801.506	15512.29
801.837	15402.01
802.168	15370.82
802.499	15367.89
802.83	15275.91
803.161	15337.38
803.491	15321.33
803.822	15367.66
804.153	15217.83
804.483	15112.75
804.814	15028.23
805.145	15035.69
805.475	15006.77
805.805	14990.72
806.136	14987.56
806.466	14977.84
806.796	15038.18
807.126	14860.1
807.457	14870.72
807.787	14777.85
808.117	14867.11
808.447	14769.48
808.777	14868.69
809.107	14753.67
809.436	14798.18
809.766	14768.81
810.096	14661.92
810.426	14573.33
810.755	14664.63
811.085	14587.34
811.414	14569.49
811.744	14405.88
812.073	14416.05
812.403	14403.39
812.732	14395.94
813.061	14432.77
813.39	14297.41
813.719	14308.93
814.049	14337.41
814.378	14352.32
814.707	14228.48
815.036	14232.55
815.365	14162.72
815.693	14113.23
816.022	14068.03
816.351	14045.89
816.68	13997.3
817.008	13986.23
817.337	13941.94
817.665	13904.2
817.994	13935.83
818.322	13908.49
818.651	13860.81
818.979	13863.52
819.307	13904.87
819.636	13810.64
819.964	13804.99
820.292	13838.44
820.62	13772.22
820.948	13777.19
821.276	13733.58
821.604	13695.84
821.932	13826.23
822.259	13800.47
822.587	13843.63
822.915	13678.44
823.243	13824.88
823.57	13661.49
823.898	13731.55
824.225	13773.35
824.553	13733.58
824.88	13631.44
825.207	13735.16
825.535	13659.91
825.862	13776.06
826.189	13773.8
826.516	13750.75
826.843	13794.59
827.17	13871.2
827.497	13811.32
827.824	13752.11
828.151	13868.04
828.478	13811.32
828.805	13863.29
829.131	13825.55
829.458	13772.9
829.785	13661.72
830.111	13779.23
830.438	13843.86
830.764	13819
831.09	13855.84
831.417	13733.58
831.743	13761.83
832.069	13798.44
832.395	13738.78
832.722	13784.2
833.048	13698.33
833.374	13697.65
833.7	13636.86
834.026	13663.52
834.351	13769.96
834.677	13665.78
835.003	13711.89
835.329	13717.76
835.654	13636.41
835.98	13663.98
836.306	13632.34
836.631	13555.51
836.956	13629.63
837.282	13612.68
837.607	13513.02
837.932	13477.77
838.258	13519.57
838.583	13516.18
838.908	13437.77
839.233	13455.62
839.558	13398.45
839.883	13454.04
840.208	13390.76
840.533	13362.06
840.858	13397.77
841.182	13338.11
841.507	13331.33
841.832	13216.53
842.156	13221.05
842.481	13217.21
842.805	13221.05
843.13	13128.85
843.454	13094.05
843.778	13036.65
844.103	13006.82
844.427	12959.59
844.751	13043.88
845.075	12957.55
845.399	13007.27
845.723	12852.25
846.047	12911.68
846.371	12798.24
846.695	12779.71
847.019	12726.6
847.343	12631.46
847.666	12620.61
847.99	12473.27
848.313	12607.51
848.637	12450.9
848.96	12483.89
849.284	12360.51
849.607	12323.67
849.931	12315.31
850.254	12272.83
850.577	12123.9
850.9	12139.05
851.223	12142.66
851.546	12070.57
851.869	11941.54
852.192	11979.95
852.515	11848.66
852.838	11867.87
853.161	11863.12
853.483	11763.69
853.806	11687.76
854.129	11601.88
854.451	11626.52
854.774	11584.03
855.096	11530.93
855.419	11513.07
855.741	11502.45
856.063	11455.9
856.385	11392.62
856.708	11408.89
857.03	11382
857.352	11269.92
857.674	11253.19
857.996	11297.03
858.318	11174.55
858.64	11270.82
858.961	11118.06
859.283	11096.81
859.605	11070.6
859.926	11128.9
860.248	11014.33
860.57	11002.35
860.891	10974.56
861.212	10952.64
861.534	10930.26
861.855	10904.95
862.176	10903.37
862.498	10924.16
862.819	10905.41
863.14	10875.35
863.461	10768.01
863.782	10778.18
864.103	10877.38
864.424	10739.08
864.745	10794.67
865.065	10653.43
865.386	10623.6
865.707	10695.47
866.027	10682.36
866.348	10639.42
866.668	10647.56
866.989	10607.79
867.309	10592.65
867.63	10573.44
867.95	10559.2
868.27	10468.81
868.59	10514
868.91	10543.15
869.23	10514.68
869.55	10459.77
869.87	10533.66
870.19	10389.94
870.51	10506.32
870.83	10461.58
871.15	10380.22
871.469	10484.4
871.789	10429.94
872.109	10402.82
872.428	10270.85
872.748	10334.57
873.067	10287.79
873.386	10281.01
873.706	10264.29
874.025	10212.32
874.344	10151.07
874.663	10245.76
874.982	10139.78
875.301	10201.02
875.62	10137.97
875.939	10096.39
876.258	10167.8
876.577	10113.34
876.896	10035.6
877.214	10054.13
877.533	10035.15
877.852	10024.52
878.17	9955.83
878.489	10031.76
878.807	9942.04
879.125	9982.27
879.444	9943.17
879.762	9951.53
880.08	9963.06
880.398	9884.42
880.716	9873.57
881.034	9864.3
881.352	9849.61
881.67	9771.65
881.988	9831.54
882.306	9808.03
882.624	9784.98
882.941	9689.84
883.259	9653.01
883.577	9642.16
883.894	9594.25
884.212	9648.94
884.529	9651.88
884.846	9594.71
885.164	9652.56
885.481	9553.58
885.798	9574.37
886.115	9482.62
886.432	9485.56
886.75	9476.52
887.067	9518.78
887.383	9419.57
887.7	9455.05
888.017	9454.6
888.334	9436.29
888.651	9367.82
888.967	9329.85
889.284	9273.58
889.6	9253.92
889.917	9229.07
890.233	9217.99
890.55	9153.81
890.866	9153.14
891.182	9163.76
891.498	9100.71
891.815	9116.75
892.131	9054.38
892.447	9028.39
892.763	8938.23
893.079	8959.47
893.395	8868.4
893.71	8872.46
894.026	8847.83
894.342	8885.35
894.657	8766.7
894.973	8790.43
895.289	8779.13
895.604	8779.59
895.92	8679.25
896.235	8632.7
896.55	8659.81
896.865	8615.52
897.181	8633.15
897.496	8579.14
897.811	8526.94
898.126	8564.9
898.441	8510.44
898.756	8438.58
899.071	8424.34
899.386	8326.26
899.7	8328.07
900.015	8311.8
900.33	8256.66
900.644	8303.44
900.959	8276.1
901.273	8181.41
901.588	8114.74
901.902	8135.08
902.216	8125.14
902.531	8093.73
902.845	8097.12
903.159	8042.88
903.473	7933.96
903.787	7933.05
904.101	7961.53
904.415	7868.2
904.729	7838.14
905.042	7840.4
905.356	7854.86
905.67	7776
905.984	7732.38
906.297	7710.46
906.611	7618.26
906.924	7664.13
907.237	7686.73
907.551	7648.09
907.864	7589.11
908.177	7573.97
908.491	7559.05
908.804	7467.53
909.117	7485.38
909.43	7422.56
909.743	7355.89
910.056	7387.98
910.368	7333.52
910.681	7247.87
910.994	7291.26
911.307	7289.23
911.619	7185.05
911.932	7166.52
912.244	7166.29
912.557	7165.84
912.869	7054.43
913.181	7093.08
913.494	7000.65
913.806	6981.21
914.118	6963.36
914.43	6870.48
914.742	6878.62
915.054	6900.09
915.366	6927.43
915.678	6837.49
915.99	6774.67
916.302	6719.98
916.613	6689.25
916.925	6715.23
917.236	6699.64
917.548	6635.91
917.859	6629.59
918.171	6585.29
918.482	6482.24
918.794	6594.33
919.105	6542.81
919.416	6504.62
919.727	6466.88
920.038	6470.49
920.349	6443.15
920.66	6385.52
920.971	6395.02
921.282	6348.91
921.593	6334
921.903	6292.87
922.214	6274.79
922.525	6240.9
922.835	6266.88
923.146	6197.51
923.456	6150.95
923.767	6160.22
924.077	6137.4
924.387	6121.58
924.697	6030.96
925.008	6058.75
925.318	6055.59
925.628	6040.67
925.938	6017.62
926.248	5960.9
926.558	5951.19
926.867	5938.98
927.177	5897.85
927.487	5855.82
927.796	5828.7
928.106	5839.78
928.416	5769.5
928.725	5778.53
929.034	5750.06
929.344	5745.99
929.653	5713.68
929.962	5664.64
930.271	5663.28
930.581	5638.43
930.89	5615.83
931.199	5547.58
931.508	5610.4
931.817	5528.6
932.125	5532.67
932.434	5561.37
932.743	5465.77
933.051	5427.13
933.36	5358.21
933.669	5388.94
933.977	5389.17
934.286	5355.95
934.594	5340.13
934.902	5332.67
935.21	5276.85
935.519	5303.52
935.827	5244.09
936.135	5211.32
936.443	5197.08
936.751	5199.57
937.059	5195.95
937.367	5208.38
937.674	5104.65
937.982	5111.89
938.29	5072.11
938.597	5045.9
938.905	5031.89
939.213	5005
939.52	4961.38
939.827	4998.22
940.135	4981.04
940.442	4930.2
940.749	4903.53
941.056	4914.83
941.363	4797.32
941.67	4796.87
941.977	4840.71
942.284	4805.45
942.591	4803.64
942.898	4772.01
943.205	4778.11
943.511	4713.48
943.818	4685.23
944.125	4710.99
944.431	4665.8
944.738	4647.72
945.044	4665.12
945.35	4621.05
945.657	4565.01
945.963	4573.37
946.269	4486.37
946.575	4493.82
946.881	4485.01
947.187	4478.23
947.493	4478.46
947.799	4450.89
948.105	4434.39
948.41	4417.21
948.716	4415.86
949.022	4418.12
949.327	4391
949.633	4323.66
949.938	4331.11
950.244	4338.8
950.549	4260.38
950.854	4225.36
951.16	4252.02
951.465	4212.02
951.77	4253.83
952.075	4140.61
952.38	4153.72
952.685	4130.67
952.99	4141.52
953.294	4111.46
953.599	4149.42
953.904	4063.33
954.209	4058.35
954.513	4082.99
954.818	4071.46
955.122	3998.47
955.426	4001.18
955.731	4001.41
956.035	3947.62
956.339	3965.25
956.643	4000.28
956.948	3890.9
957.252	3883.44
957.556	3862.65
957.86	3887.51
958.163	3859.94
958.467	3832.82
958.771	3808.19
959.075	3806.61
959.378	3780.62
959.682	3775.88
959.985	3765.25
960.289	3766.61
960.592	3745.59
960.896	3715.09
961.199	3694.07
961.502	3689.1
961.805	3678.02
962.108	3609.1
962.411	3643.45
962.714	3621.98
963.017	3585.37
963.32	3585.82
963.623	3598.93
963.926	3549.44
964.228	3517.58
964.531	3503.57
964.833	3517.35
965.136	3435.55
965.438	3440.29
965.741	3435.09
966.043	3445.71
966.345	3402.78
966.648	3414.08
966.95	3454.08
967.252	3379.95
967.554	3360.52
967.856	3376.56
968.158	3320.75
968.46	3309.9
968.761	3323.01
969.063	3299.5
969.365	3280.07
969.666	3270.8
969.968	3240.97
970.269	3274.65
970.571	3236
970.872	3212.73
971.174	3185.61
971.475	3164.37
971.776	3167.3
972.077	3164.82
972.378	3177.02
972.679	3121.2
972.98	3103.8
973.281	3113.97
973.582	3104.93
973.883	3071.94
974.183	3071.94
974.484	3052.05
974.785	2984.03
975.085	3045.95
975.386	3026.74
975.686	3008.89
975.986	2971.38
976.287	2991.04
976.587	2942.22
976.887	2946.52
977.187	2930.25
977.487	2906.97
977.787	2904.94
978.087	2878.05
978.387	2897.93
978.687	2884.15
978.987	2878.27
979.286	2836.24
979.586	2827.2
979.885	2793.98
980.185	2769.35
980.484	2788.56
980.784	2799.63
981.083	2771.16
981.382	2778.16
981.682	2732.06
981.981	2734.55
982.28	2734.55
982.579	2729.58
982.878	2675.34
983.177	2682.34
983.475	2683.02
983.774	2664.72
984.073	2649.58
984.372	2647.32
984.67	2617.71
984.969	2609.8
985.267	2609.35
985.566	2617.26
985.864	2572.97
986.162	2578.17
986.461	2539.52
986.759	2517.15
987.057	2508.79
987.355	2535.46
987.653	2490.03
987.951	2508.56
988.249	2527.32
988.547	2509.02
988.844	2446.87
989.142	2455.46
989.44	2435.8
989.737	2463.59
990.035	2414.1
990.332	2437.38
990.63	2404.84
990.927	2386.08
991.224	2382.92
991.521	2377.95
991.819	2347.21
992.116	2330.04
992.413	2307.67
992.71	2297.04
993.006	2307.89
993.303	2298.17
993.6	2298.17
993.897	2255.46
994.193	2280.32
994.49	2246.2
994.787	2220.21
995.083	2217.05
995.379	2226.76
995.676	2165.97
995.972	2212.07
996.268	2203.04
996.565	2171.62
996.861	2174.34
997.157	2170.04
997.453	2149.7
997.749	2127.33
998.044	2102.92
998.34	2145.64
998.636	2125.75
998.932	2122.81
999.227	2042.59
999.523	2081.91
999.818	2043.49
1000.114	2087.56
1000.409	2034.9
1000.704	2038.75
1001	2009.59
1001.295	2002.81
1001.59	2029.48
1001.885	1977.96
1002.18	1960.78
1002.475	1950.39
1002.77	1938.41
1003.065	1905.87
1003.359	1914.46
1003.654	1958.97
1003.949	1917.62
1004.243	1900.22
1004.538	1884.63
1004.832	1894.34
1005.127	1863.38
1005.421	1850.05
1005.715	1823.38
1006.009	1833.78
1006.304	1842.59
1006.598	1825.42
1006.892	1831.07
1007.186	1795.59
1007.48	1782.93
1007.773	1802.14
1008.067	1782.93
1008.361	1767.79
1008.655	1761.01
1008.948	1714.91
1009.242	1740
1009.535	1736.83
1009.829	1685.76
1010.122	1706.1
1010.415	1674.24
1010.708	1687.57
1011.001	1676.27
1011.295	1664.07
1011.588	1681.24
1011.881	1611.19
1012.173	1625.42
1012.466	1631.07
1012.759	1624.75
1013.052	1616.16
1013.344	1602.83
1013.637	1597.4
1013.93	1585.2
1014.222	1585.2
1014.514	1586.55
1014.807	1560.11
1015.099	1531.41
1015.391	1515.82
1015.683	1531.19
1015.976	1533
1016.268	1514.92
1016.56	1500.68
1016.851	1477.4
1017.143	1473.56
1017.435	1477.18
1017.727	1459.78
1018.018	1443.73
1018.31	1462.72
1018.602	1438.99
1018.893	1435.6
1019.185	1431.53
1019.476	1425.88
1019.767	1422.72
1020.058	1393.79
1020.35	1387.92
1020.641	1347.01
1020.932	1356.5
1021.223	1346.79
1021.514	1356.5
1021.804	1312.44
1022.095	1341.59
1022.386	1324.64
1022.677	1308.6
1022.967	1306.11
1023.258	1319.44
1023.548	1299.78
1023.839	1296.39
1024.129	1259.33
1024.419	1245.32
1024.709	1248.94
1025	1224.53
1025.29	1239.9
1025.58	1238.99
1025.87	1248.03
1026.16	1208.94
1026.449	1225.21
1026.739	1201.48
1027.029	1180.46
1027.319	1165.1
1027.608	1184.76
1027.898	1197.41
1028.187	1172.33
1028.477	1147.02
1028.766	1153.35
1029.055	1140.69
1029.344	1141.59
1029.634	1131.2
1029.923	1136.62
1030.212	1109.05
1030.501	1090.75
1030.79	1091.88
1031.078	1102.5
1031.367	1088.94
1031.656	1062.73
1031.945	1081.26
1032.233	1090.75
1032.522	1075.61
1032.81	1079.22
1033.099	1054.14
1033.387	1018.43
1033.675	1025.67
1033.963	1008.04
1034.251	1030.86
1034.54	1007.13
1034.828	1016.4
1035.116	1012.33
1035.403	991.77
1035.691	989.96
1035.979	987.25
1036.267	988.6
1036.554	954.25
1036.842	967.59
1037.129	966.46
1037.417	938.66
1037.704	944.31
1037.992	926.01
1038.279	925.33
1038.566	927.59
1038.853	927.59
1039.14	927.59
