Data from hue_330_FLMS001491_30.txt Node
Date: Mon Feb 06 15:45:11 GMT 2017
User: dcchb
Spectrometer: FLMS00149
Trigger mode: 0
Integration Time (sec): 2.000000E-2
Scans to average: 10
Electric dark correction enabled: true
Nonlinearity correction enabled: false
Boxcar width: 0
XAxis mode: Wavelengths
Number of Pixels in Spectrum: 2048
>>>>>Begin Spectral Data<<<<<
341.393	-4.19
341.776	-4.19
342.16	-4.19
342.543	-65.66
342.927	-83.06
343.31	-73.12
343.693	-64.98
344.077	-76.74
344.46	-63.63
344.843	-46.91
345.226	-23.4
345.61	-18.66
345.993	-32.22
346.376	2.13
346.759	8.01
347.142	31.28
347.525	30.38
347.908	58.4
348.291	65.41
348.674	86.65
349.057	117.38
349.44	125.97
349.823	135.24
350.206	163.71
350.588	204.61
350.971	213.65
351.354	230.83
351.737	215.91
352.119	228.79
352.502	255.23
352.884	272.41
353.267	270.6
353.65	266.98
354.032	293.42
354.414	299.75
354.797	305.63
355.179	321.22
355.562	306.08
355.944	330.94
356.326	322.35
356.709	312.41
357.091	336.81
357.473	340.43
357.855	321.22
358.238	324.61
358.62	353.08
359.002	344.72
359.384	340.88
359.766	338.17
360.148	331.62
360.53	339.52
360.912	342.91
361.294	323.48
361.676	317.38
362.057	337.49
362.439	312.41
362.821	311.05
363.203	336.36
363.584	322.35
363.966	315.34
364.348	324.38
364.729	336.81
365.111	305.4
365.493	317.15
365.874	321.67
366.256	310.6
366.637	308.11
367.019	306.76
367.4	303.14
367.781	315.34
368.163	297.72
368.544	303.14
368.925	306.31
369.306	318.28
369.688	317.15
370.069	304.5
370.45	283.26
370.831	299.3
371.212	319.86
371.593	302.92
371.974	309.47
372.355	316.93
372.736	309.24
373.117	309.92
373.498	293.65
373.879	304.05
374.26	314.21
374.641	295.68
375.021	307.21
375.402	302.24
375.783	320.99
376.163	313.54
376.544	323.03
376.925	334.78
377.305	315.34
377.686	306.08
378.066	305.4
378.447	323.03
378.827	303.37
379.208	332.29
379.588	309.92
379.968	334.55
380.349	304.27
380.729	339.07
381.109	313.54
381.489	346.08
381.87	330.49
382.25	327.32
382.63	317.83
383.01	324.61
383.39	319.86
383.77	321.45
384.15	321.67
384.53	326.64
384.91	359.19
385.29	331.84
385.67	332.52
386.049	362.12
386.429	342.46
386.809	337.94
387.189	330.71
387.568	345.85
387.948	340.65
388.328	366.42
388.707	337.04
389.087	341.33
389.466	344.5
389.846	372.52
390.225	342.01
390.605	368
390.984	329.13
391.363	351.5
391.743	360.77
392.122	364.16
392.501	344.5
392.881	366.87
393.26	353.08
393.639	351.28
394.018	363.71
394.397	362.12
394.776	360.32
395.155	356.93
395.534	367.55
395.913	373.87
396.292	365.06
396.671	377.26
397.05	377.94
397.429	378.39
397.808	372.97
398.186	371.16
398.565	380.2
398.944	376.81
399.323	377.26
399.701	383.59
400.08	368.22
400.458	383.82
400.837	398.28
401.215	413.2
401.594	399.64
401.972	393.99
402.351	424.72
402.729	404.83
403.107	393.08
403.486	412.97
403.864	417.49
404.242	396.7
404.62	428.79
404.999	416.81
405.377	403.93
405.755	419.52
406.133	414.55
406.511	432.4
406.889	428.79
407.267	429.01
407.645	433.53
408.023	434.44
408.401	437.83
408.779	442.12
409.156	461.56
409.534	442.57
409.912	461.78
410.29	471.5
410.667	468.79
411.045	466.08
411.422	453.65
411.8	448.22
412.178	488
412.555	500.2
412.933	495.23
413.31	485.51
413.687	492.06
414.065	523.47
414.442	519.63
414.819	517.37
415.197	523.02
415.574	527.77
415.951	516.7
416.328	539.29
416.705	546.53
417.082	539.52
417.46	553.98
417.837	558.28
418.214	555.11
418.591	586.07
418.967	596.47
419.344	578.16
419.721	609.35
420.098	606.64
420.475	590.37
420.852	610.48
421.228	630.82
421.605	628.78
421.982	613.19
422.358	650.48
422.735	648.67
423.111	636.24
423.488	629.01
423.864	666.07
424.241	672.62
424.617	658.84
424.994	666.3
425.37	676.24
425.746	694.32
426.123	700.42
426.499	695.67
426.875	714.88
427.251	721.44
427.627	714.43
428.003	704.71
428.379	753.98
428.756	734.77
429.132	755.33
429.507	764.82
429.883	753.3
430.259	753.3
430.635	781.1
431.011	788.55
431.387	779.51
431.763	801.43
432.138	813.64
432.514	802.79
432.89	798.5
433.265	825.39
433.641	841.88
434.016	847.08
434.392	851.6
434.767	884.37
435.143	860.19
435.518	892.73
435.894	907.19
436.269	899.51
436.644	880.3
437.02	911.49
437.395	925.95
437.77	927.76
438.145	931.37
438.52	944.25
438.895	928.21
439.271	954.42
439.646	949.45
440.021	980.64
440.395	984.03
440.77	978.15
441.145	1003.01
441.52	1014.54
441.895	999.39
442.27	991.71
442.645	997.81
443.019	1019.96
443.394	1034.42
443.769	1034.42
444.143	1034.65
444.518	1049.79
444.892	1030.13
445.267	1048.66
445.641	1064.03
446.016	1075.1
446.39	1038.49
446.764	1054.53
447.139	1058.38
447.513	1053.86
447.887	1069.9
448.262	1080.52
448.636	1120.07
449.01	1104.7
449.384	1093.86
449.758	1119.62
450.132	1085.04
450.506	1109
450.88	1122.56
451.254	1094.31
451.628	1125.94
452.002	1142.89
452.376	1148.09
452.75	1164.59
453.123	1153.51
453.497	1156.9
453.871	1173.85
454.244	1209.56
454.618	1185.6
454.992	1200.75
455.365	1191.25
455.739	1206.62
456.112	1259.5
456.486	1262.66
456.859	1229.9
457.232	1285.26
457.606	1249.78
457.979	1283.91
458.352	1286.84
458.725	1286.39
459.099	1300.4
459.472	1334.3
459.845	1308.09
460.218	1337.24
460.591	1336.33
460.964	1351.93
461.337	1378.14
461.71	1391.7
462.083	1385.83
462.456	1394.64
462.829	1372.72
463.201	1430.57
463.574	1403
463.947	1431.93
464.32	1459.27
464.692	1451.13
465.065	1476.22
465.438	1512.6
465.81	1501.08
466.183	1506.5
466.555	1560.28
466.928	1536.1
467.3	1535.43
467.672	1548.76
468.045	1618.36
468.417	1558.48
468.789	1606.84
469.161	1609.77
469.534	1644.8
469.906	1680.96
470.278	1680.28
470.65	1700.85
471.022	1753.5
471.394	1745.82
471.766	1745.14
472.138	1752.14
472.51	1797.57
472.882	1798.47
473.253	1809.99
473.625	1836.21
473.997	1852.71
474.369	1871.46
474.74	1897.45
475.112	1923.21
475.484	1944.68
475.855	1967.96
476.227	1977.67
476.598	2013.83
476.97	2037.11
477.341	2125.47
477.713	2118.24
478.084	2129.99
478.455	2167.5
478.827	2200.04
479.198	2251.34
479.569	2249.76
479.94	2266.93
480.311	2298.57
480.682	2311.9
481.053	2388.06
481.424	2439.13
481.795	2432.58
482.166	2490.65
482.537	2492.01
482.908	2492.24
483.279	2567.49
483.65	2572.01
484.021	2588.73
484.391	2623.76
484.762	2663.31
485.133	2665.11
485.503	2702.63
485.874	2753.25
486.244	2804.54
486.615	2849.97
486.985	2843.19
487.356	2867.37
487.726	2898.78
488.097	2954.37
488.467	2941.04
488.837	3048.15
489.207	3051.09
489.578	3099.9
489.948	3130.64
490.318	3146
490.688	3101.26
491.058	3231.88
491.428	3238.66
491.798	3252.67
492.168	3313.01
492.538	3308.03
492.908	3370.18
493.278	3375.15
493.648	3418.31
494.017	3465.54
494.387	3439.56
494.757	3451.08
495.126	3512.55
495.496	3511.64
495.866	3563.62
496.235	3611.53
496.605	3593.9
496.974	3587.8
497.344	3642.26
497.713	3650.17
498.082	3696.27
498.452	3696.05
498.821	3699.66
499.19	3686.1
499.559	3721.36
499.928	3806.78
500.298	3756.84
500.667	3797.97
501.036	3825.31
501.405	3847.23
501.774	3842.94
502.143	3830.73
502.512	3848.59
502.88	3895.14
503.249	3941.46
503.618	3938.98
503.987	3931.07
504.356	3975.81
504.724	3994.34
505.093	4004.51
505.462	4002.03
505.83	4000.9
506.199	4036.38
506.567	4100.1
506.936	4113.44
507.304	4118.86
507.672	4142.59
508.041	4160.67
508.409	4150.05
508.777	4129.71
509.145	4190.05
509.514	4216.71
509.882	4257.61
510.25	4192.31
510.618	4239.31
510.986	4225.07
511.354	4284.05
511.722	4300.32
512.09	4312.75
512.458	4326.54
512.826	4392.3
513.193	4361.57
513.561	4346.43
513.929	4332.64
514.297	4387.78
514.664	4373.09
515.032	4433.2
515.4	4458.29
515.767	4498.74
516.135	4456.93
516.502	4467.55
516.869	4517.04
517.237	4525.86
517.604	4482.69
517.972	4538.51
518.339	4552.97
518.706	4578.28
519.073	4613.08
519.44	4549.81
519.808	4643.82
520.175	4564.27
520.542	4648.34
520.909	4663.03
521.276	4684.5
521.643	4757.71
522.009	4681.78
522.376	4736.92
522.743	4726.08
523.11	4785.06
523.477	4839.97
523.843	4846.75
524.21	4810.82
524.577	4889.01
524.943	4911.61
525.31	4904.38
525.676	5005.62
526.043	4963.58
526.409	4986.41
526.776	5012.85
527.142	5026.18
527.508	5019.4
527.874	5098.95
528.241	5109.34
528.607	5122.9
528.973	5198.61
529.339	5211.49
529.705	5182.11
530.071	5204.03
530.437	5236.8
530.803	5286.97
531.169	5309.79
531.535	5296
531.901	5304.14
532.267	5340.3
532.632	5367.64
532.998	5348.21
533.364	5439.73
533.73	5487.64
534.095	5486.28
534.461	5487.86
534.826	5579.39
535.192	5548.88
535.557	5603.79
535.923	5594.08
536.288	5600.18
536.653	5679.72
537.019	5587.75
537.384	5681.53
537.749	5641.31
538.114	5714.07
538.479	5715.43
538.845	5743.45
539.21	5736.22
539.575	5795.88
539.94	5809.89
540.305	5798.82
540.67	5859.38
541.034	5858.02
541.399	5898.47
541.764	5853.05
542.129	5982.31
542.494	5937.57
542.858	5974.41
543.223	5944.35
543.587	6067.28
543.952	6025.25
544.316	6107.06
544.681	6106.83
545.045	6182.31
545.41	6175.98
545.774	6159.71
546.138	6154.97
546.503	6202.2
546.867	6266.83
547.231	6300.27
547.595	6315.64
547.959	6286.26
548.324	6284.68
548.688	6366.03
549.052	6348.86
549.416	6353.38
549.779	6413.72
550.143	6421.85
550.507	6452.81
550.871	6513.37
551.235	6460.72
551.599	6580.49
551.962	6520.61
552.326	6566.93
552.689	6651.68
553.053	6572.58
553.417	6562.19
553.78	6650.55
554.143	6679.7
554.507	6663.65
554.87	6702.07
555.234	6763.76
555.597	6707.95
555.96	6768.96
556.323	6810.77
556.686	6768.73
557.05	6842.86
557.413	6792.01
557.776	6807.15
558.139	6877.21
558.502	6867.04
558.865	6917.88
559.228	6921.72
559.59	6988.84
559.953	7012.57
560.316	7017.54
560.679	7004.66
561.041	7117.88
561.404	7110.42
561.767	7097.77
562.129	7108.39
562.492	7133.92
562.854	7152.23
563.217	7178.89
563.579	7177.54
563.941	7230.42
564.304	7273.81
564.666	7323.75
565.028	7325.56
565.39	7353.58
565.753	7353.35
566.115	7323.07
566.477	7375.5
566.839	7420.69
567.201	7468.83
567.563	7460.24
567.925	7440.81
568.287	7513.8
568.648	7623.18
569.01	7590.18
569.372	7625.21
569.734	7576.62
570.095	7694.13
570.457	7723.06
570.819	7801.93
571.18	7777.3
571.542	7820.91
571.903	7884.41
572.265	7863.17
572.626	7975.48
572.987	8000.79
573.349	8003.05
573.71	8065.88
574.071	8133.22
574.432	8139.55
574.794	8268.58
575.155	8328.02
575.516	8309.03
575.877	8359.2
576.238	8480.33
576.599	8523.26
576.96	8555.81
577.32	8678.29
577.681	8754.44
578.042	8809.13
578.403	8895.68
578.763	8956.25
579.124	9074.44
579.485	9187.2
579.845	9295.67
580.206	9357.37
580.566	9401.66
580.927	9606.17
581.287	9760.29
581.648	9817.02
582.008	9920.52
582.368	10151.47
582.728	10291.35
583.089	10439.37
583.449	10602.98
583.809	10762.3
584.169	10858.34
584.529	11054.95
584.889	11302.63
585.249	11414.71
585.609	11565.9
585.969	11804.08
586.329	11991.42
586.688	12210.4
587.048	12462.37
587.408	12654
587.768	12865.98
588.127	13052.64
588.487	13277.94
588.846	13613.53
589.206	13756.12
589.565	14007.64
589.925	14337.35
590.284	14486.5
590.643	14811.01
591.003	15003.77
591.362	15266.82
591.721	15462.07
592.08	15850.76
592.44	16121.48
592.799	16354.02
593.158	16685.54
593.517	16907.68
593.876	17233.09
594.235	17469.7
594.593	17818.61
594.952	18149.23
595.311	18246.62
595.67	18599.84
596.029	19046.6
596.387	19452.69
596.746	19674.38
597.104	19786.7
597.463	20043.41
597.822	20441.14
598.18	20723.85
598.538	20865.09
598.897	21372.64
599.255	21382.59
599.613	22034.77
599.972	22173.75
600.33	22564.7
600.688	22744.36
601.046	23049.66
601.404	23391.12
601.762	23502.08
602.12	24081.05
602.478	24145.9
602.836	24385.22
603.194	24599
603.552	24883.96
603.91	25022.27
604.268	25475.14
604.625	25555.13
604.983	25996.7
605.341	25992.41
605.698	26484.83
606.056	26715.33
606.413	26834.42
606.771	27167.97
607.128	27529.77
607.485	27438.25
607.843	27709.2
608.2	28105.57
608.557	28462.4
608.914	28447.03
609.272	28748.72
609.629	29063.74
609.986	29309.38
610.343	29330.63
610.7	29772.2
611.057	29857.62
611.414	29938.52
611.771	30266.87
612.127	30587.32
612.484	30700.08
612.841	30799.06
613.198	31002.22
613.554	31166.06
613.911	31431.81
614.267	31533.51
614.624	31764.69
614.98	31843.56
615.337	32188.41
615.693	32237.9
616.05	32366.48
616.406	32600.6
616.762	32674.04
617.118	32831.1
617.475	32953.36
617.831	33237.87
618.187	33341.14
618.543	33462.27
618.899	33739.1
619.255	33690.29
619.611	33794.92
619.967	34005.08
620.323	34233.1
620.678	34168.69
621.034	34183.83
621.39	34348.35
621.746	34196.49
622.101	34802.35
622.457	34710.15
622.812	34690.49
623.168	35038.05
623.523	35019.07
623.879	35248.21
624.234	35037.6
624.589	35320.07
624.945	35392.84
625.3	35553.51
625.655	35506.06
626.01	35626.73
626.365	35810
626.72	35823.11
627.075	35819.27
627.43	35861.53
627.785	35877.12
628.14	36016.55
628.495	36039.6
628.85	36140.62
629.205	36056.78
629.559	36431.68
629.914	36186.27
630.269	36312.82
630.623	36259.26
630.978	36264.46
631.332	36489.08
631.687	36487.05
632.041	36507.39
632.396	36630.32
632.75	36369.54
633.104	36551
633.459	36474.62
633.813	36518.01
634.167	36598.46
634.521	36405.92
634.875	36688.63
635.229	36601.4
635.583	36457.45
635.937	36505.35
636.291	36551.23
636.645	36682.3
636.999	36506.48
637.352	36671.23
637.706	36633.94
638.06	36728.17
638.413	36591.23
638.767	36488.4
639.121	36658.8
639.474	36433.27
639.828	36504.45
640.181	36633.26
640.534	36558.91
640.888	36513.49
641.241	36383.77
641.594	36516.65
641.947	36512.36
642.301	36574.73
642.654	36546.93
643.007	36486.37
643.36	36435.98
643.713	36412.25
644.066	36545.8
644.419	36432.59
644.771	36154.18
645.124	35823.34
645.477	35632.38
645.83	35657.01
646.182	35512.61
646.535	35447.08
646.888	35571.59
647.24	35262.9
647.593	35527.75
647.945	35412.95
648.298	35224.71
648.65	35241.43
649.002	35278.95
649.355	35370.02
649.707	35270.13
650.059	35466.28
650.411	35807.29
650.763	35928.65
651.115	36322.99
651.467	36160.28
651.819	36161.41
652.171	36037.12
652.523	35920.74
652.875	36051.13
653.227	35943.56
653.578	36187.85
653.93	36107.17
654.282	35959.61
654.633	35857.91
654.985	35990.56
655.337	35983.79
655.688	35946.95
656.039	36032.15
656.391	35770.01
656.742	35868.53
657.094	35931.81
657.445	35970.23
657.796	35845.48
658.147	35771.36
658.498	35842.55
658.849	35718.93
659.2	35844.81
659.551	35667.64
659.902	35854.07
660.253	35669.9
660.604	35819.04
660.955	35621.08
661.306	35829.89
661.656	35599.84
662.007	35868.53
662.358	35566.85
662.708	35735.43
663.059	35627.18
663.409	35454.76
663.76	35764.81
664.11	35643.68
664.461	35864.92
664.811	35776.11
665.161	35683.45
665.511	35486.85
665.862	35581.76
666.212	35654.75
666.562	35778.82
666.912	35687.75
667.262	35659.95
667.612	35678.48
667.962	35683
668.312	35648.65
668.662	35762.32
669.011	35743.57
669.361	35510.35
669.711	35549.9
670.06	35453.86
670.41	35483.69
670.76	35400.07
671.109	35631.03
671.459	35438.49
671.808	35407.53
672.157	35518.26
672.507	35283.46
672.856	35462.44
673.205	35344.25
673.554	35456.12
673.904	35450.01
674.253	35580.86
674.602	35483.91
674.951	34928.9
675.3	34767.32
675.649	35333.86
675.998	35241.88
676.346	35290.47
676.695	35512.16
677.044	35155.56
677.393	35278.95
677.741	35305.61
678.09	35177.25
678.438	35036.01
678.787	35093.19
679.135	35209.34
679.484	34868.33
679.832	35109.23
680.181	34977.03
680.529	34943.81
680.877	34821.56
681.225	34846.41
681.573	35211.38
681.922	34830.37
682.27	34743.14
682.618	34687.32
682.966	34740.2
683.314	34764.61
683.661	34651.39
684.009	34551.96
684.357	34422.7
684.705	34298.18
685.053	34324.17
685.4	34408.46
685.748	34213.21
686.095	34228.35
686.443	34193.78
686.79	34093.44
687.138	34190.16
687.485	34188.13
687.832	34002.59
688.18	33973.22
688.527	33754.24
688.874	33706.56
689.221	33804.63
689.568	33551.76
689.915	33498.88
690.262	33615.49
690.609	33479.9
690.956	33467.69
691.303	33365.55
691.65	33286.91
691.997	33291.88
692.344	33138.21
692.69	33066.57
693.037	32968.27
693.383	32788.16
693.73	32928.27
694.077	32653.03
694.423	32747.49
694.769	32576.87
695.116	32497.32
695.462	32458.68
695.808	32301.85
696.155	32365.58
696.501	32234.05
696.847	32125.58
697.193	32030.22
697.539	32140.27
697.885	31830.22
698.231	31708.42
698.577	31847.62
698.923	31707.51
699.269	31618.02
699.614	31434.98
699.96	31336
700.306	31443.79
700.651	31209.9
700.997	31122.44
701.342	31176.91
701.688	31092.16
702.033	30950.92
702.379	31010.81
702.724	30801.55
703.069	30936.91
703.415	30575.57
703.76	30560.65
704.105	30639.97
704.45	30552.29
704.795	30346.19
705.14	30206.76
705.485	30194.56
705.83	30175.8
706.175	30199.08
706.52	30084.28
706.865	29937.62
707.209	29878.41
707.554	29933.1
707.899	29879.99
708.243	29690.84
708.588	29666.21
708.932	29414.01
709.277	29614.24
709.621	29467.8
709.966	29291.53
710.31	29339.67
710.654	29058.09
710.998	29257.86
711.342	29148.03
711.687	29157.07
712.031	29001.37
712.375	28932.67
712.719	28924.99
713.063	28869.4
713.407	28961.82
713.75	28706.01
714.094	28586.69
714.438	28612.91
714.782	28670.08
715.125	28503.3
715.469	28548.95
715.812	28273.03
716.156	28204.56
716.499	28240.94
716.843	28258.34
717.186	28090.43
717.53	28268.96
717.873	28233.03
718.216	28147.61
718.559	27970.89
718.902	27882.98
719.246	27929.08
719.589	27785.13
719.932	27661.29
720.275	27594.4
720.617	27635.3
720.96	27547.4
721.303	27649.99
721.646	27608.41
721.989	27388.98
722.331	27506.27
722.674	27465.59
723.016	27535.19
723.359	27404.58
723.701	27469.43
724.044	27235.09
724.386	27217.91
724.729	27146.05
725.071	27163.45
725.413	27127.75
725.755	27083.68
726.097	27026.28
726.439	26841.43
726.782	26843.69
727.124	27031.93
727.465	26774.99
727.807	26798.94
728.149	26749.23
728.491	26738.6
728.833	26772.95
729.175	26696.35
729.516	26476.69
729.858	26620.64
730.199	26582.22
730.541	26488.89
730.882	26446.18
731.224	26549.91
731.565	26372.96
731.906	26301.55
732.248	26280.99
732.589	26137.72
732.93	26146.3
733.271	26156.02
733.612	26110.6
733.953	26205.51
734.294	25968.91
734.635	25878.29
734.976	26026.31
735.317	25831.51
735.658	25813.21
735.999	25952.41
736.339	25788.8
736.68	25840.55
737.021	25785.18
737.361	25648.92
737.702	25862.47
738.042	25696.37
738.383	25672.87
738.723	25657.73
739.063	25491.41
739.404	25527.79
739.744	25551.29
740.084	25414.57
740.424	25471.07
740.764	25409.6
741.104	25412.54
741.444	25219.55
741.784	25185.65
742.124	25251.64
742.464	25297.06
742.804	25101.59
743.143	25103.85
743.483	25124.86
743.823	24996.05
744.162	24966.67
744.502	25042.83
744.841	24928.71
745.181	25048.03
745.52	24862.72
745.86	25033.79
746.199	24868.82
746.538	24751.54
746.877	24791.54
747.216	24705.44
747.556	24672.22
747.895	24554.93
748.234	24563.52
748.573	24526.01
748.911	24421.6
749.25	24446.91
749.589	24357.65
749.928	24424.77
750.267	24476.07
750.605	24224.77
750.944	24290.76
751.283	24121.5
751.621	24148.16
751.96	24112.46
752.298	24110.43
752.636	24064.32
752.975	23953.37
753.313	23908.17
753.651	24053.25
753.989	23786.82
754.327	23746.59
754.666	23708.85
755.004	23776.2
755.342	23813.26
755.679	23620.95
756.017	23507.73
756.355	23644.45
756.693	23402.65
757.031	23450.33
757.368	23413.95
757.706	23285.81
758.044	23281.07
758.381	23158.36
758.719	23142.54
759.056	23141.64
759.394	23067.97
759.731	22933.73
760.068	22879.05
760.405	22782.1
760.743	22710.46
761.08	22849.22
761.417	22660.29
761.754	22616.91
762.091	22570.13
762.428	22512.05
762.765	22385.05
763.102	22528.32
763.438	22242.9
763.775	22165.39
764.112	22172.85
764.449	22167.43
764.785	22051.72
765.122	21849.92
765.458	21859.41
765.795	21891.95
766.131	21759.75
766.467	21566.99
766.804	21635.91
767.14	21500.78
767.476	21550.04
767.812	21382.14
768.148	21324.06
768.485	21270.27
768.821	21134.91
769.157	21049.26
769.492	20993.45
769.828	21035.25
770.164	20849.95
770.5	20785.54
770.836	20827.57
771.171	20695.37
771.507	20639.56
771.842	20441.37
772.178	20453.8
772.513	20383.29
772.849	20363.86
773.184	20246.35
773.519	20240.02
773.855	20182.85
774.19	20012.23
774.525	20129.97
774.86	19965.22
775.195	19922.74
775.53	19871.89
775.865	19723.2
776.2	19739.01
776.535	19535.18
776.87	19449.98
777.205	19479.81
777.539	19261.74
777.874	19309.2
778.209	19243.89
778.543	19133.83
778.878	19022.65
779.212	19058.58
779.547	18871.92
779.881	18936.78
780.215	18823.11
780.55	18780.85
780.884	18581.98
781.218	18615.65
781.552	18627.63
781.886	18523
782.22	18361.2
782.554	18329.33
782.888	18253.4
783.222	18179.06
783.556	18130.7
783.889	18019.29
784.223	17931.38
784.557	17930.47
784.89	17943.81
785.224	17812.96
785.557	17667.2
785.891	17666.3
786.224	17633.76
786.558	17611.16
786.891	17387.21
787.224	17365.29
787.557	17386.53
787.891	17207.33
788.224	17205.3
788.557	17307.89
788.89	17172.3
789.223	17142.25
789.556	17048.01
789.888	16975.7
790.221	16840.79
790.554	16795.36
790.887	16851.63
791.219	16671.07
791.552	16672.43
791.884	16651.19
792.217	16629.49
792.549	16469.04
792.882	16423.62
793.214	16335.71
793.546	16291.2
793.879	16287.81
794.211	16143.86
794.543	16222.27
794.875	16082.16
795.207	16129.17
795.539	15989.06
795.871	15970.53
796.203	15895.73
796.535	15801.27
796.867	15784.32
797.198	15697.09
797.53	15704.77
797.862	15637.88
798.193	15702.28
798.525	15543.64
798.856	15466.58
799.188	15336.19
799.519	15341.84
799.85	15311.56
800.182	15219.59
800.513	15303.88
800.844	15102.07
801.175	15199.7
801.506	15159.47
801.837	14985.92
802.168	14984.34
802.499	15069.53
802.83	14918.35
803.161	14853.72
803.491	14877
803.822	14813.27
804.153	14663.44
804.483	14684.91
804.814	14587.29
805.145	14572.15
805.475	14534.41
805.805	14546.16
806.136	14553.16
806.466	14409.89
806.796	14508.19
807.126	14399.04
807.457	14325.82
807.787	14305.49
808.117	14204.47
808.447	14219.61
808.777	14170.57
809.107	14186.62
809.436	13973.06
809.766	14155.43
810.096	14027.75
810.426	13971.48
810.755	14015.32
811.085	13866.4
811.414	13858.94
811.744	13794.76
812.073	13747.31
812.403	13783.92
812.732	13665.5
813.061	13684.03
813.39	13519.97
813.719	13520.2
814.049	13602.68
814.378	13542.12
814.707	13536.69
815.036	13463.25
815.365	13388.67
815.693	13319.3
816.022	13385.51
816.351	13262.58
816.68	13185.29
817.008	13271.16
817.337	13164.95
817.665	13091.73
817.994	13102.81
818.322	13095.57
818.651	13038.63
818.979	12998.4
819.307	13083.6
819.636	12962.24
819.964	12921.12
820.292	12971.28
820.62	12936.48
820.948	12885.64
821.276	12886.31
821.604	12922.92
821.932	12891.51
822.259	12880.21
822.587	12853.55
822.915	12744.4
823.243	12838.86
823.57	12913.88
823.898	12795.69
824.225	12736.71
824.553	12790.5
824.88	12795.47
825.207	12847.22
825.535	12813.77
825.862	12797.5
826.189	12750.27
826.516	12934
826.843	12892.64
827.17	12856.48
827.497	12881.12
827.824	12837.05
828.151	12883.38
828.478	12849.25
828.805	12874.11
829.131	12774.68
829.458	12739.2
829.785	12676.83
830.111	12786.2
830.438	12818.74
830.764	12745.53
831.09	12826.88
831.417	12680.22
831.743	12806.32
832.069	12825.07
832.395	12754.11
832.722	12783.49
833.048	12623.5
833.374	12758.18
833.7	12641.8
834.026	12702.59
834.351	12713.21
834.677	12623.27
835.003	12649.03
835.329	12724.74
835.654	12635.7
835.98	12652.65
836.306	12626.21
836.631	12488.36
836.956	12521.35
837.282	12621.24
837.607	12582.14
837.932	12448.36
838.258	12522.03
838.583	12465.76
838.908	12373.11
839.233	12437.96
839.558	12361.81
839.883	12344.18
840.208	12327.23
840.533	12277.52
840.858	12323.84
841.182	12254.01
841.507	12211.3
841.832	12187.12
842.156	12129.05
842.481	12199.55
842.805	12077.97
843.13	12094.92
843.454	12102.61
843.778	12002.72
844.103	11959.56
844.427	11934.93
844.751	11969.95
845.075	11936.51
845.399	11909.84
845.723	11856.51
846.047	11829.39
846.371	11791.65
846.695	11703.97
847.019	11633.92
847.343	11560.25
847.666	11548.72
847.99	11491.55
848.313	11495.62
848.637	11344.89
848.96	11454.26
849.284	11381.95
849.607	11247.49
849.931	11208.39
850.254	11169.52
850.577	11131.11
850.9	11070.09
851.223	11051.11
851.546	11038.68
851.869	10959.81
852.192	10982.18
852.515	10877.1
852.838	10807.72
853.161	10822.64
853.483	10737.9
853.806	10744.68
854.129	10664.68
854.451	10701.51
854.774	10624.45
855.096	10612.02
855.419	10521.18
855.741	10467.39
856.063	10539.48
856.385	10469.88
856.708	10431.01
857.03	10365.7
857.352	10472.37
857.674	10385.81
857.996	10409.54
858.318	10240.96
858.64	10350.56
858.961	10243.67
859.283	10241.19
859.605	10123.22
859.926	10137.69
860.248	10073.28
860.57	10120.28
860.891	10080.29
861.212	10011.14
861.534	9982.21
861.855	9978.82
862.176	9988.54
862.498	9940.85
862.819	9980.85
863.14	9880.97
863.461	9880.52
863.782	9822.67
864.103	9838.48
864.424	9859.73
864.745	9799.39
865.065	9775.89
865.386	9739.73
865.707	9731.59
866.027	9777.24
866.348	9743.57
866.668	9684.59
866.989	9692.5
867.309	9668.09
867.63	9629.68
867.95	9703.57
868.27	9551.03
868.59	9612.95
868.91	9615.21
869.23	9542.22
869.55	9498.61
869.87	9542.9
870.19	9489.79
870.51	9545.61
870.83	9579.28
871.15	9468.1
871.469	9464.03
871.789	9508.55
872.109	9457.93
872.428	9391.94
872.748	9393.98
873.067	9440.08
873.386	9396.91
873.706	9367.31
874.025	9318.72
874.344	9285.5
874.663	9372.06
874.982	9296.58
875.301	9290.48
875.62	9243.02
875.939	9189.46
876.258	9242.79
876.577	9129.12
876.896	9145.85
877.214	9150.37
877.533	9170.25
877.852	9165.96
878.17	9216.81
878.489	9131.61
878.807	9112.18
879.125	9103.14
879.444	9082.8
879.762	8991.95
880.08	9030.37
880.398	9001.22
880.716	9009.81
881.034	9012.29
881.352	8968
881.67	8943.14
881.988	8965.51
882.306	8886.87
882.624	8863.14
882.941	8891.84
883.259	8840.09
883.577	8853.43
883.894	8769.13
884.212	8843.71
884.529	8773.43
884.846	8773.65
885.164	8725.52
885.481	8704.95
885.798	8677.61
886.115	8657.05
886.432	8675.8
886.75	8619.31
887.067	8612.98
887.383	8610.49
887.7	8569.37
888.017	8512.64
888.334	8523.26
888.651	8481.68
888.967	8493.89
889.284	8469.93
889.6	8423.61
889.917	8311.07
890.233	8382.7
890.55	8342.03
890.866	8374.12
891.182	8303.84
891.498	8283.04
891.815	8242.82
892.131	8208.7
892.447	8228.58
892.763	8153.1
893.079	8197.4
893.395	8115.59
893.71	8146.55
894.026	8122.82
894.342	8151.75
894.657	8038.31
894.973	8059.32
895.289	8003.28
895.604	7983.84
895.92	7958.76
896.235	7911.98
896.55	7898.2
896.865	7877.41
897.181	7822.04
897.496	7822.27
897.811	7814.13
898.126	7732.78
898.441	7717.86
898.756	7704.3
899.071	7662.27
899.386	7660.01
899.7	7650.97
900.015	7597.87
900.33	7553.57
900.644	7516.74
900.959	7557.64
901.273	7467.7
901.588	7436.29
901.902	7442.62
902.216	7382.05
902.531	7357.19
902.845	7400.58
903.159	7321.26
903.473	7252.79
903.787	7221.38
904.101	7245.33
904.415	7190.64
904.729	7212.79
905.042	7128.05
905.356	7148.61
905.67	7118.78
905.984	7056.86
906.297	7065.45
906.611	7061.83
906.924	7032.23
907.237	6929.18
907.551	6970.99
907.864	6980.93
908.177	6917.21
908.491	6949.29
908.804	6869.52
909.117	6828.85
909.43	6760.83
909.743	6741.39
910.056	6840.15
910.368	6728.28
910.681	6682.86
910.994	6653.26
911.307	6653.48
911.619	6577.78
911.932	6593.37
912.244	6509.53
912.557	6518.57
912.869	6469.08
913.181	6446.71
913.494	6491.45
913.806	6481.28
914.118	6418.91
914.43	6354.06
914.742	6356.99
915.054	6324
915.366	6289.88
915.678	6236.32
915.99	6287.84
916.302	6202.2
916.613	6158.13
916.925	6161.07
917.236	6171.46
917.548	6032.48
917.859	6132.82
918.171	6059.6
918.482	6082.65
918.794	6038.81
919.105	6015.76
919.416	5973.05
919.727	5912.94
920.038	5980.28
920.349	5837.01
920.66	5814.86
920.971	5843.11
921.282	5848.76
921.593	5800.85
921.903	5748.87
922.214	5803.11
922.525	5729.44
922.835	5684.7
923.146	5644.02
923.456	5648.99
923.767	5561.99
924.077	5600.18
924.387	5623.23
924.697	5567.86
925.008	5519.95
925.318	5473.63
925.628	5470.01
925.938	5495.77
926.248	5436.79
926.558	5438.15
926.867	5349.56
927.177	5380.97
927.487	5329
927.796	5317.47
928.106	5347.53
928.416	5269.79
928.725	5285.38
929.034	5164.48
929.344	5243.58
929.653	5214.65
929.962	5143.69
930.271	5134.2
930.581	5126.29
930.89	5113.86
931.199	5059.63
931.508	5054.66
931.817	5032.73
932.125	4997.26
932.434	5015.56
932.743	4988.44
933.051	4985.73
933.36	4915.68
933.669	4890.82
933.977	4840.2
934.286	4843.36
934.594	4807.88
934.902	4853.08
935.21	4806.98
935.519	4815.11
935.827	4770.82
936.135	4798.39
936.443	4717.26
936.751	4694.89
937.059	4706.19
937.367	4690.6
937.674	4656.93
937.982	4687.21
938.29	4595.68
938.597	4584.84
938.905	4584.61
939.213	4527.89
939.52	4477.04
939.827	4506.65
940.135	4521.79
940.442	4501.9
940.749	4435.91
941.056	4485.63
941.363	4414.45
941.67	4404.5
941.977	4393.66
942.284	4342.36
942.591	4368.57
942.898	4341.91
943.205	4334
943.511	4296.71
943.818	4269.14
944.125	4213.1
944.431	4260.55
944.738	4192.31
945.044	4170.16
945.35	4207.45
945.657	4170.61
945.963	4154.34
946.269	4101.69
946.575	4142.81
946.881	4112.08
947.187	4092.87
947.493	4056.49
947.799	4050.84
948.105	4056.04
948.41	4020.78
948.716	4009.03
949.022	3957.96
949.327	3996.38
949.633	3947.57
949.938	3947.11
950.244	3935.14
950.549	3912.54
950.854	3908.24
951.16	3895.36
951.465	3852.43
951.77	3845.65
952.075	3815.59
952.38	3814.91
952.685	3781.02
952.99	3754.35
953.294	3814.69
953.599	3765.88
953.904	3748.7
954.209	3688.36
954.513	3670.51
954.818	3682.71
955.122	3646.33
955.426	3616.27
955.731	3633.22
956.035	3625.99
956.339	3613.34
956.643	3585.32
956.948	3554.36
957.252	3585.99
957.556	3555.03
957.86	3511.64
958.163	3498.54
958.467	3444.53
958.771	3475.26
959.075	3449.73
959.378	3445.66
959.682	3442.27
959.985	3404.3
960.289	3400.24
960.592	3388.03
960.896	3364.53
961.199	3351.65
961.502	3363.85
961.805	3299.22
962.108	3302.84
962.411	3330.63
962.714	3300.58
963.017	3249.28
963.32	3253.12
963.623	3236.62
963.926	3230.75
964.228	3197.53
964.531	3204.99
964.833	3184.2
965.136	3154.82
965.438	3161.15
965.741	3122.05
966.043	3124.99
966.345	3140.13
966.648	3133.12
966.95	3084.31
967.252	3061.49
967.554	3039.34
967.856	3066.23
968.158	3072.56
968.46	3024.65
968.761	3001.83
969.063	3004.31
969.365	2953.02
969.666	2944.2
969.968	2959.57
970.269	2930.19
970.571	2957.99
970.872	2909.17
971.174	2912.79
971.475	2926.35
971.776	2904.88
972.077	2889.74
972.378	2858.33
972.679	2848.16
972.98	2843.87
973.281	2800.48
973.582	2752.79
973.883	2761.83
974.183	2757.09
974.484	2793.92
974.785	2802.29
975.085	2774.26
975.386	2750.31
975.686	2750.54
975.986	2706.02
976.287	2698.78
976.587	2677.77
976.887	2687.94
977.187	2676.19
977.487	2663.08
977.787	2688.84
978.087	2622.18
978.387	2600.71
978.687	2597.77
978.987	2580.37
979.286	2574.04
979.586	2572.23
979.885	2578.34
980.185	2533.14
980.484	2529.3
980.784	2520.48
981.083	2499.69
981.382	2540.6
981.682	2489.3
981.981	2490.88
982.28	2480.03
982.579	2432.8
982.878	2440.94
983.177	2435.97
983.475	2470.77
983.774	2436.87
984.073	2413.59
984.372	2404.33
984.67	2393.71
984.969	2332.01
985.267	2362.52
985.566	2342.18
985.864	2349.64
986.162	2347.16
986.461	2357.55
986.759	2307.83
987.057	2318
987.355	2322.52
987.653	2272.81
987.951	2287.72
988.249	2299.47
988.547	2274.39
988.844	2264.22
989.142	2254.28
989.44	2202.98
989.737	2196.65
990.035	2217.22
990.332	2184.67
990.63	2212.47
990.927	2169.76
991.224	2151.91
991.521	2157.33
991.819	2134.28
992.116	2145.81
992.413	2148.52
992.71	2096.09
993.006	2095.64
993.303	2099.03
993.6	2096.77
993.897	2071
994.193	2073.26
994.49	2056.32
994.787	2045.47
995.083	2058.35
995.379	2030.55
995.676	2036.43
995.972	2010.22
996.268	2038.92
996.565	1982.19
996.861	1977.9
997.157	1972.25
997.453	1964.12
997.749	1968.41
998.044	1944.68
998.34	1984.23
998.636	1945.81
998.932	1897.9
999.227	1952.14
999.523	1930.22
999.818	1886.6
1000.114	1866.72
1000.409	1878.02
1000.704	1865.13
1001	1837.34
1001.295	1867.62
1001.59	1833.5
1001.885	1803.67
1002.18	1803.22
1002.475	1794.85
1002.77	1811.58
1003.065	1800.5
1003.359	1748.75
1003.654	1767.28
1003.949	1764.35
1004.243	1715.99
1004.538	1743.1
1004.832	1741.07
1005.127	1724.57
1005.421	1716.21
1005.715	1708.3
1006.009	1680.51
1006.304	1701.98
1006.598	1688.42
1006.892	1666.04
1007.186	1673.73
1007.48	1646.38
1007.773	1642.32
1008.067	1624.24
1008.361	1605.03
1008.655	1602.77
1008.948	1588.76
1009.242	1593.73
1009.535	1591.24
1009.829	1565.93
1010.122	1581.3
1010.415	1544.24
1010.708	1563.9
1011.001	1551.7
1011.295	1539.04
1011.588	1543.34
1011.881	1522.32
1012.173	1521.87
1012.466	1490.23
1012.759	1485.71
1013.052	1473.28
1013.344	1493.17
1013.637	1466.28
1013.93	1474.64
1014.222	1454.98
1014.514	1446.39
1014.807	1439.16
1015.099	1435.54
1015.391	1421.08
1015.683	1396.45
1015.976	1389.89
1016.268	1377.69
1016.56	1396.22
1016.851	1405.03
1017.143	1374.98
1017.435	1380.85
1017.727	1320.29
1018.018	1318.03
1018.31	1322.32
1018.602	1347.18
1018.893	1318.93
1019.185	1313.74
1019.476	1314.41
1019.767	1313.06
1020.058	1278.94
1020.35	1277.13
1020.641	1247.52
1020.932	1262.66
1021.223	1260.63
1021.514	1264.02
1021.804	1226.96
1022.095	1245.26
1022.386	1219.28
1022.677	1220.63
1022.967	1179.73
1023.258	1188.32
1023.548	1201.2
1023.839	1201.65
1024.129	1189.67
1024.419	1167.75
1024.709	1168.43
1025	1155.32
1025.29	1164.59
1025.58	1137.47
1025.87	1139.96
1026.16	1138.37
1026.449	1143.8
1026.739	1097.92
1027.029	1113.06
1027.319	1111.71
1027.608	1091.6
1027.898	1088.43
1028.187	1085.95
1028.477	1066.51
1028.766	1080.97
1029.055	1052.95
1029.344	1071.03
1029.634	1049.56
1029.923	1049.34
1030.212	1064.03
1030.501	1038.04
1030.79	1014.54
1031.078	1017.47
1031.367	1001.88
1031.656	1010.02
1031.945	988.55
1032.233	994.2
1032.522	987.87
1032.81	987.42
1033.099	966.18
1033.387	982.9
1033.675	973.86
1033.963	947.64
1034.251	957.81
1034.54	930.02
1034.828	940.64
1035.116	941.09
1035.403	936.35
1035.691	927.31
1035.979	917.59
1036.267	908.78
1036.554	894.99
1036.842	917.14
1037.129	871.26
1037.417	883.47
1037.704	866.29
1037.992	886.63
1038.279	890.24
1038.566	864.03
1038.853	864.03
1039.14	864.03
