Data from hue_26_FLMS001491_00039.txt Node
Date: Tue Feb 07 17:13:55 GMT 2017
User: dcchb
Spectrometer: FLMS00149
Trigger mode: 0
Integration Time (sec): 2.000000E-2
Scans to average: 10
Electric dark correction enabled: true
Nonlinearity correction enabled: false
Boxcar width: 0
XAxis mode: Wavelengths
Number of Pixels in Spectrum: 2048
>>>>>Begin Spectral Data<<<<<
341.393	-1.06
341.776	-1.06
342.16	-1.06
342.543	-81.96
342.927	-60.72
343.31	-63.66
343.693	-77.67
344.077	-54.39
344.46	-57.55
344.843	-55.75
345.226	-53.71
345.61	-19.36
345.993	-6.26
346.376	-0.16
346.759	2.33
347.142	0.52
347.525	54.08
347.908	47.53
348.291	82.55
348.674	96.34
349.057	105.15
349.44	146.73
349.823	131.37
350.206	149.45
350.588	191.7
350.971	203.23
351.354	232.61
351.737	254.75
352.119	252.72
352.502	285.94
352.884	275.77
353.267	286.62
353.65	290.68
354.032	315.99
354.414	326.84
354.797	314.19
355.179	331.59
355.562	323
355.944	326.16
356.326	322.1
356.709	335.88
357.091	350.34
357.473	346.28
357.855	327.07
358.238	341.76
358.62	341.98
359.002	346.28
359.384	350.57
359.766	358.25
360.148	342.21
360.53	351.25
360.912	343.79
361.294	320.06
361.676	317.58
362.057	357.58
362.439	338.82
362.821	336.11
363.203	315.77
363.584	320.97
363.966	313.28
364.348	326.84
364.729	315.77
365.111	319.16
365.493	306.96
365.874	310.57
366.256	324.13
366.637	314.41
367.019	302.89
367.4	321.42
367.781	310.12
368.163	295.43
368.544	298.14
368.925	330.91
369.306	312.6
369.688	313.06
370.069	322.77
370.45	306.5
370.831	320.06
371.212	327.07
371.593	330.01
371.974	308.31
372.355	324.13
372.736	314.64
373.117	334.53
373.498	329.78
373.879	329.33
374.26	325.94
374.641	310.8
375.021	317.35
375.402	323.45
375.783	308.99
376.163	321.87
376.544	320.97
376.925	331.36
377.305	331.14
377.686	354.64
378.066	312.6
378.447	357.35
378.827	322.32
379.208	311.93
379.588	323.68
379.968	328.88
380.349	329.78
380.729	329.55
381.109	340.17
381.489	330.23
381.87	346.73
382.25	331.81
382.63	336.56
383.01	352.83
383.39	356.67
383.77	339.95
384.15	362.32
384.53	363.68
384.91	348.08
385.29	353.06
385.67	352.15
386.049	336.33
386.429	354.86
386.809	372.72
387.189	373.39
387.568	386.05
387.948	372.04
388.328	371.13
388.707	368.87
389.087	352.38
389.466	379.04
389.846	339.72
390.225	352.38
390.605	372.49
390.984	357.8
391.363	354.41
391.743	370.46
392.122	371.13
392.501	359.61
392.881	356.67
393.26	370.91
393.639	388.31
394.018	392.83
394.397	385.82
394.776	370.46
395.155	394.18
395.534	382.21
395.913	389.44
396.292	374.3
396.671	388.99
397.05	398.48
397.429	395.99
397.808	382.43
398.186	401.42
398.565	404.81
398.944	394.64
399.323	408.42
399.701	420.4
400.08	408.2
400.458	404.58
400.837	399.61
401.215	406.84
401.594	419.95
401.972	399.16
402.351	398.03
402.729	414.3
403.107	411.81
403.486	401.19
403.864	403.9
404.242	414.3
404.62	432.38
404.999	414.75
405.377	439.61
405.755	414.75
406.133	440.74
406.511	444.35
406.889	435.77
407.267	416.1
407.645	431.7
408.023	433.05
408.401	431.47
408.779	433.96
409.156	438.7
409.534	444.58
409.912	450.91
410.29	473.5
410.667	430.34
411.045	474.18
411.422	457.69
411.8	473.96
412.178	471.7
412.555	476.44
412.933	482.09
413.31	487.06
413.687	483.9
414.065	478.93
414.442	480.51
414.819	499.04
415.197	482.77
415.574	504.01
415.951	477.12
416.328	483
416.705	492.94
417.082	505.59
417.46	510.34
417.837	494.29
418.214	500.85
418.591	510.57
418.967	514.86
419.344	538.81
419.721	518.25
420.098	507.63
420.475	528.42
420.852	531.58
421.228	522.77
421.605	529.1
421.982	548.76
422.358	550.79
422.735	536.55
423.111	527.97
423.488	553.28
423.864	567.97
424.241	577.23
424.617	570.9
424.994	567.29
425.37	562.09
425.746	587.17
426.123	578.81
426.499	555.54
426.875	566.38
427.251	573.16
427.627	572.48
428.003	598.7
428.379	602.31
428.756	600.96
429.132	613.39
429.507	622.43
429.883	592.15
430.259	628.08
430.635	623.11
431.011	640.51
431.387	637.12
431.763	667.17
432.138	664.01
432.514	664.69
432.89	652.03
433.265	685.25
433.641	652.71
434.016	658.36
434.392	670.79
434.767	698.36
435.143	696.78
435.518	680.28
435.894	700.62
436.269	709.2
436.644	716.44
437.02	706.72
437.395	701.07
437.77	726.38
438.145	736.77
438.52	719.6
438.895	738.13
439.271	756.89
439.646	765.93
440.021	748.53
440.395	752.82
440.77	755.53
441.145	736.77
441.52	767.28
441.895	781.52
442.27	779.03
442.645	779.03
443.019	770.45
443.394	771.8
443.769	806.15
444.143	777.68
444.518	816.77
444.892	803.44
445.267	802.76
445.641	820.16
446.016	823.33
446.39	830.33
446.764	814.29
447.139	837.79
447.513	836.21
447.887	840.27
448.262	835.08
448.636	843.21
449.01	859.94
449.384	863.1
449.758	873.04
450.132	889.99
450.506	889.54
450.88	900.61
451.254	872.36
451.628	902.42
452.002	881.63
452.376	923.21
452.75	899.48
453.123	912.36
453.497	915.3
453.871	920.27
454.244	967.05
454.618	948.97
454.992	986.94
455.365	958.46
455.739	976.54
456.112	985.36
456.486	1013.6
456.859	1019.25
457.232	1043.21
457.606	1034.39
457.979	1030.78
458.352	1049.53
458.725	1055.41
459.099	1082.3
459.472	1075.07
459.845	1101.06
460.218	1119.36
460.591	1106.48
460.964	1136.31
461.337	1148.74
461.71	1154.84
462.083	1158.23
462.456	1151.9
462.829	1191
463.201	1191.9
463.574	1175.86
463.947	1215.18
464.32	1215.41
464.692	1231
465.065	1251.56
465.438	1278.91
465.81	1270.77
466.183	1300.83
466.555	1316.42
466.928	1319.36
467.3	1345.35
467.672	1367.27
468.045	1382.86
468.417	1399.58
468.789	1434.16
469.161	1399.58
469.534	1457.89
469.906	1458.34
470.278	1479.35
470.65	1518
471.022	1528.39
471.394	1536.3
471.766	1588.5
472.138	1572.01
472.51	1626.47
472.882	1631.44
473.253	1643.42
473.625	1676.41
473.997	1733.58
474.369	1737.65
474.74	1766.58
475.112	1796.63
475.484	1810.19
475.855	1862.62
476.227	1872.11
476.598	1925.67
476.97	1936.97
477.341	1974.48
477.713	2043.18
478.084	2055.16
478.455	2094.93
478.827	2085.21
479.198	2155.72
479.569	2201.37
479.94	2250.18
480.311	2292.44
480.682	2322.27
481.053	2397.52
481.424	2458.54
481.795	2477.75
482.166	2518.2
482.537	2532.43
482.908	2626.44
483.279	2633.22
483.65	2711.86
484.021	2766.55
484.391	2813.33
484.762	2847.91
485.133	2911.18
485.503	2898.98
485.874	2985.08
486.244	3038.63
486.615	3117.28
486.985	3110.27
487.356	3165.19
487.726	3248.35
488.097	3301
488.467	3325.18
488.837	3414.67
489.207	3467.78
489.578	3501
489.948	3607.43
490.318	3598.39
490.688	3663.25
491.058	3686.08
491.428	3769.91
491.798	3840.2
492.168	3896.24
492.538	3921.32
492.908	3985.73
493.278	4029.57
493.648	4048.33
494.017	4070.02
494.387	4154.76
494.757	4231.15
495.126	4289
495.496	4262.78
495.866	4308.88
496.235	4407.41
496.605	4396.57
496.974	4465.72
497.344	4526.28
497.713	4524.47
498.082	4576.22
498.452	4638.37
498.821	4650.12
499.19	4695.31
499.559	4752.94
499.928	4724.47
500.298	4785.26
500.667	4821.41
501.036	4844.46
501.405	4904.12
501.774	4946.16
502.143	4933.73
502.512	4970.56
502.88	5018.7
503.249	4998.36
503.618	5098.92
503.987	5073.61
504.356	5123.33
504.724	5134.17
505.093	5190.22
505.462	5236.77
505.83	5282.42
506.199	5303.89
506.567	5362.87
506.936	5363.32
507.304	5424.56
507.672	5410.1
508.041	5476.99
508.409	5494.39
508.777	5467.95
509.145	5539.36
509.514	5533.71
509.882	5565.35
510.25	5582.3
510.618	5674.72
510.986	5694.38
511.354	5692.35
511.722	5741.16
512.09	5789.75
512.458	5782.97
512.826	5856.87
513.193	5877.66
513.561	5834.72
513.929	5938.22
514.297	5975.05
514.664	5969.41
515.032	5982.96
515.4	6029.97
515.767	6005.34
516.135	6109.29
516.502	6085.33
516.869	6093.7
517.237	6162.85
517.604	6170.98
517.972	6208.27
518.339	6251.88
518.706	6266.35
519.073	6286.46
519.44	6303.18
519.808	6327.81
520.175	6354.93
520.542	6422.5
520.909	6458.43
521.276	6428.38
521.643	6491.2
522.009	6501.37
522.376	6551.31
522.743	6603.06
523.11	6622.04
523.477	6719.44
523.843	6726.67
524.21	6762.38
524.577	6787.69
524.943	6867.23
525.31	6875.37
525.676	6927.8
526.043	6977.51
526.409	7005.76
526.776	7032.88
527.142	6989.94
527.508	7073.78
527.874	7162.59
528.241	7183.16
528.607	7183.38
528.973	7253.44
529.339	7252.31
529.705	7274.68
530.071	7380.89
530.437	7372.31
530.803	7401.91
531.169	7497.95
531.535	7480.78
531.901	7508.12
532.267	7546.99
532.632	7535.47
532.998	7566.2
533.364	7653.43
533.73	7646.65
534.095	7773.65
534.461	7734.1
534.826	7771.62
535.192	7799.64
535.557	7861.11
535.923	7920.09
536.288	7951.05
536.653	8056.36
537.019	7847.32
537.384	7953.99
537.749	8009.13
538.114	7991.5
538.479	8034.21
538.845	8134.09
539.21	8120.31
539.575	8160.99
539.94	8197.14
540.305	8216.35
540.67	8293.41
541.034	8313.98
541.399	8318.5
541.764	8391.94
542.129	8410.02
542.494	8391.26
542.858	8523.69
543.223	8476.68
543.587	8579.05
543.952	8560.75
544.316	8605.72
544.681	8524.37
545.045	8635.1
545.41	8707.19
545.774	8709.45
546.138	8708.77
546.503	8790.8
546.867	8760.97
547.231	8862.89
547.595	8915.54
547.959	8886.62
548.324	8937.24
548.688	8930.68
549.052	9049.32
549.416	9024.69
549.779	9072.6
550.143	9072.83
550.507	9153.95
550.871	9182.2
551.235	9142.88
551.599	9216.55
551.962	9181.98
552.326	9248.64
552.689	9316.66
553.053	9273.05
553.417	9377.9
553.78	9437.56
554.143	9378.58
554.507	9455.87
554.87	9515.98
555.234	9530.89
555.597	9530.44
555.96	9566.15
556.323	9579.03
556.686	9625.58
557.05	9689.53
557.413	9691.57
557.776	9714.39
558.139	9769.08
558.502	9817.44
558.865	9866.03
559.228	9904.67
559.59	9866.03
559.953	9909.41
560.316	10004.55
560.679	9989.86
561.041	10063.08
561.404	10069.18
561.767	10127.71
562.129	10089.75
562.492	10168.39
562.854	10201.38
563.217	10204.77
563.579	10252.23
563.941	10322.29
564.304	10358.22
564.666	10438.67
565.028	10529.29
565.39	10487.25
565.753	10559.34
566.115	10488.61
566.477	10622.16
566.839	10634.82
567.201	10641.37
567.563	10658.32
567.925	10736.29
568.287	10742.61
568.648	10724.08
569.01	10777.41
569.372	10905.32
569.734	10883.17
570.095	11001.59
570.457	11047.92
570.819	11058.54
571.18	11035.71
571.542	11169.49
571.903	11246.33
572.265	11247.23
572.626	11314.12
572.987	11375.82
573.349	11444.74
573.71	11537.17
574.071	11564.74
574.432	11548.69
574.794	11712.98
575.155	11634.79
575.516	11739.2
575.877	11827.1
576.238	11878.4
576.599	11950.49
576.96	12031.17
577.32	12113.42
577.681	12240.88
578.042	12293.76
578.403	12456.69
578.763	12514.32
579.124	12625.73
579.485	12717.25
579.845	12800.64
580.206	12890.35
580.566	13022.33
580.927	13129.22
581.287	13335.09
581.648	13318.14
582.008	13591.8
582.368	13695.3
582.728	13864.79
583.089	13965.58
583.449	14108.63
583.809	14338.68
584.169	14531.89
584.529	14694.37
584.889	14961.03
585.249	15100.46
585.609	15240.8
585.969	15479.21
586.329	15650.73
586.688	15951.97
587.048	16131.17
587.408	16272.19
587.768	16503.14
588.127	16654.55
588.487	16963.01
588.846	17326.85
589.206	17485.94
589.565	17804.8
589.925	18051.12
590.284	18348.29
590.643	18507.15
591.003	18800.71
591.362	19311.2
591.721	19403.4
592.08	19693.34
592.44	20035.02
592.799	20259.65
593.158	20443.6
593.517	20788.45
593.876	21187.76
594.235	21335.55
594.593	21598.15
594.952	22045.59
595.311	22220.28
595.67	22567.16
596.029	23055.06
596.387	23376.63
596.746	23724.64
597.104	23689.84
597.463	24135.48
597.822	24465.87
598.18	24729.59
598.538	25010.71
598.897	25448.44
599.255	25484.15
599.613	26130.23
599.972	26292.49
600.33	26590.11
600.688	26818.8
601.046	27175.18
601.404	27529.06
601.762	27752.11
602.12	28149.39
602.478	28390.74
602.836	28592.09
603.194	28712.99
603.552	29062.13
603.91	29237.72
604.268	29762.45
604.625	29904.6
604.983	30210.35
605.341	30345.71
605.698	30764.23
606.056	31115.18
606.413	31249.87
606.771	31575.96
607.128	31848.72
607.485	32024.77
607.843	32138.89
608.2	32562.15
608.557	32818.19
608.914	33033.55
609.272	33272.42
609.629	33626.08
609.986	33953.53
610.343	33864.04
610.7	34257.7
611.057	34327.53
611.414	34603.91
611.771	34766.61
612.127	35113.5
612.484	35230.56
612.841	35593.03
613.198	35579.7
613.554	35851.56
613.911	36175.16
614.267	36281.15
614.624	36425.1
614.98	36632.55
615.337	36883.17
615.693	37019.66
616.05	37159.77
616.406	37567.9
616.762	37460.33
617.118	37652.87
617.475	37639.76
617.831	37997.26
618.187	38154.77
618.543	38304.6
618.899	38579.85
619.255	38628.43
619.611	38594.54
619.967	39043.34
620.323	39150.23
620.678	38983.45
621.034	39055.31
621.39	39127.4
621.746	39216.44
622.101	39799.93
622.457	39542.76
622.812	39699.59
623.168	39904.78
623.523	40056.87
623.879	40119.24
624.234	40081.05
624.589	40282.18
624.945	40326.92
625.3	40553.81
625.655	40424.54
626.01	40626.8
626.365	40748.6
626.72	40802.84
627.075	40793.8
627.43	40730.3
627.785	40764.2
628.14	40974.36
628.495	41174.58
628.85	41009.61
629.205	40987.47
629.559	41302.04
629.914	41106.79
630.269	41287.35
630.623	41168.48
630.978	41191.53
631.332	41456.16
631.687	41476.04
632.041	41431.07
632.396	41410.51
632.75	41486.44
633.104	41584.29
633.459	41375.93
633.813	41381.58
634.167	41503.39
634.521	41420.68
634.875	41530.28
635.229	41463.84
635.583	41513.56
635.937	41427.68
636.291	41396.72
636.645	41432.43
636.999	41393.11
637.352	41560.33
637.706	41245.77
638.06	41482.82
638.413	41487.34
638.767	41404.63
639.121	41475.59
639.474	41274.47
639.828	41419.77
640.181	41449.6
640.534	41365.99
640.888	41329.38
641.241	41198.08
641.594	41342.94
641.947	41458.19
642.301	41381.81
642.654	41364.18
643.007	41375.71
643.36	41423.16
643.713	41142.27
644.066	41340.9
644.419	41157.41
644.771	40956.73
645.124	40653.69
645.477	40598.55
645.83	40307.71
646.182	40174.38
646.535	40098.9
646.888	40170.54
647.24	39966.7
647.593	40274.27
647.945	40091.22
648.298	39982.75
648.65	39856.88
649.002	39900.49
649.355	40024.1
649.707	39951.34
650.059	40171.22
650.411	40476.07
650.763	40730.75
651.115	41003.29
651.467	40862.05
651.819	40989.95
652.171	40831.31
652.523	40773.69
652.875	40861.82
653.227	40716.29
653.578	41039.67
653.93	40769.17
654.282	40685.55
654.633	40642.17
654.985	40748.83
655.337	40741.37
655.688	40713.58
656.039	40920.12
656.391	40459.12
656.742	40655.95
657.094	40663.41
657.445	40882.84
657.796	40621.15
658.147	40574.6
658.498	40595.16
658.849	40668.61
659.2	40486.46
659.551	40380.48
659.902	40672
660.253	40540.93
660.604	40594.71
660.955	40369.63
661.306	40606.91
661.656	40370.31
662.007	40494.15
662.358	40493.02
662.708	40575.5
663.059	40447.37
663.409	40273.14
663.76	40579.57
664.11	40436.97
664.461	40412.57
664.811	40515.39
665.161	40526.01
665.511	40395.62
665.862	40542.28
666.212	40580.7
666.562	40589.51
666.912	40510.87
667.262	40514.94
667.612	40561.26
667.962	40520.59
668.312	40288.95
668.662	40584.54
669.011	40352.23
669.361	40461.38
669.711	40326.69
670.06	40370.31
670.41	40268.16
670.76	40234.04
671.109	40378.22
671.459	40205.34
671.808	40318.33
672.157	40342.51
672.507	39968.06
672.856	40015.97
673.205	40129.18
673.554	40174.83
673.904	40208.5
674.253	40294.83
674.602	40094.84
674.951	39591.35
675.3	39543.44
675.649	40229.52
675.998	39937.33
676.346	40053.25
676.695	40103.42
677.044	39895.52
677.393	40118.34
677.741	40025.01
678.09	39875.18
678.438	39766.48
678.787	39941.62
679.135	39693.72
679.484	39586.83
679.832	39790.89
680.181	39509.77
680.529	39675.64
680.877	39413.5
681.225	39582.31
681.573	39653.04
681.922	39509.54
682.27	39257.12
682.618	39405.14
682.966	39230.23
683.314	39261.64
683.661	39163.79
684.009	39088.08
684.357	39050.57
684.705	39045.37
685.053	38990.91
685.4	39031.36
685.748	38768.99
686.095	38749.79
686.443	38817.13
686.79	38568.1
687.138	38705.49
687.485	38724.48
687.832	38556.57
688.18	38514.31
688.527	38331.04
688.874	38425.27
689.221	38213.08
689.568	38092.18
689.915	38124.27
690.262	38183.93
690.609	37977.6
690.956	37823.03
691.303	37760.21
691.65	37630.72
691.997	37697.38
692.344	37373.33
692.69	37494.45
693.037	37385.75
693.383	37090.17
693.73	37232.09
694.077	37084.97
694.423	36959.55
694.769	36918.65
695.116	36871.19
695.462	36905.77
695.808	36668.71
696.155	36778.76
696.501	36489.05
696.847	36483.63
697.193	36210.64
697.539	36372.22
697.885	36097.2
698.231	36066.47
698.577	36116.64
698.923	36035.28
699.269	35816.08
699.614	35689.3
699.96	35633.26
700.306	35548.06
700.651	35337.9
700.997	35346.49
701.342	35250.67
701.688	35269.2
702.033	35106.72
702.379	35071.69
702.724	34994.18
703.069	35156.89
703.415	34726.16
703.76	34732.26
704.105	34687.29
704.45	34537.47
704.795	34402.56
705.14	34359.39
705.485	34368.21
705.83	34257.02
706.175	34258.6
706.52	34095.67
706.865	34073.98
707.209	33996.01
707.554	33960.31
707.899	33870.14
708.243	33713.08
708.588	33615.46
708.932	33532.97
709.277	33557.38
709.621	33537.72
709.966	33274.45
710.31	33309.48
710.654	33030.84
710.998	33096.15
711.342	33199.65
711.687	32991.97
712.031	32860.22
712.375	32751.3
712.719	32751.3
713.063	32717.85
713.407	32897.51
713.75	32581.13
714.094	32690.96
714.438	32493.91
714.782	32613.22
715.125	32321.93
715.469	32436.05
715.812	32101.15
716.156	32177.08
716.499	32177.98
716.843	32164.65
717.186	32003.07
717.53	32080.36
717.873	32007.82
718.216	32014.14
718.559	31924.65
718.902	31609.86
719.246	31707.94
719.589	31658.22
719.932	31482.86
720.275	31461.84
720.617	31495.06
720.96	31382.75
721.303	31425.68
721.646	31333.94
721.989	31211.23
722.331	31281.28
722.674	31089.42
723.016	31280.38
723.359	31025.02
723.701	31196.99
724.044	30894.85
724.386	30811.46
724.729	31021.4
725.071	31016.88
725.413	30799.49
725.755	30803.78
726.097	30587.29
726.439	30577.8
726.782	30547.06
727.124	30653.28
727.465	30449.21
727.807	30404.69
728.149	30363.79
728.491	30263.23
728.833	30389.1
729.175	30176.45
729.516	30121.76
729.858	30143.91
730.199	30077.25
730.541	30176.23
730.882	29998.15
731.224	30023.91
731.565	29891.04
731.906	29886.29
732.248	29860.08
732.589	29876.12
732.93	29779.17
733.271	29616.02
733.612	29811.72
733.953	29973.97
734.294	29533.98
734.635	29660.53
734.976	29622.79
735.317	29519.07
735.658	29404.95
735.999	29480.43
736.339	29362.46
736.68	29453.76
737.021	29428.68
737.361	29208.79
737.702	29388.68
738.042	29159.53
738.383	29225.52
738.723	29310.71
739.063	29084.28
739.404	29048.8
739.744	29054.67
740.084	29014.67
740.424	29004.73
740.764	28861.46
741.104	28866.66
741.444	28807.22
741.784	28725.64
742.124	28805.19
742.464	28743.5
742.804	28730.39
743.143	28541.69
743.483	28575.36
743.823	28426.89
744.162	28338.08
744.502	28451.75
744.841	28223.28
745.181	28458.31
745.52	28289.04
745.86	28377.4
746.199	28289.04
746.538	28297.63
746.877	28312.32
747.216	28280
747.556	28274.36
747.895	28241.14
748.234	28155.71
748.573	28117.75
748.911	28052.89
749.25	27951.43
749.589	27941.71
749.928	27968.83
750.267	27846.57
750.605	27756.4
750.944	27736.97
751.283	27604.32
751.621	27767.02
751.96	27611.55
752.298	27527.93
752.636	27547.59
752.975	27490.2
753.313	27417.88
753.651	27445.68
753.989	27288.17
754.327	27334.72
754.666	27088.85
755.004	27207.04
755.342	27135.63
755.679	27198.68
756.017	26926.82
756.355	27105.8
756.693	26891.34
757.031	27037.1
757.368	26722.31
757.706	26786.48
758.044	26624.23
758.381	26678.92
758.719	26668.07
759.056	26594.17
759.394	26543.1
759.731	26344.01
760.068	26211.81
760.405	26250.68
760.743	26129.55
761.08	26175.2
761.417	26028.54
761.754	25984.25
762.091	26053.17
762.428	25919.39
762.765	25708.32
763.102	25802.56
763.438	25593.3
763.775	25440.53
764.112	25459.97
764.449	25528.21
764.785	25377.03
765.122	25196.92
765.458	25129.35
765.795	25173.42
766.131	25162.57
766.467	25050.26
766.804	24905.63
767.14	24785.63
767.476	24771.17
767.812	24545.19
768.148	24636.26
768.485	24500.44
768.821	24412.08
769.157	24376.83
769.492	24300.67
769.828	24321.69
770.164	24105.65
770.5	23968.25
770.836	23907.24
771.171	23872.44
771.507	23855.94
771.842	23645.78
772.178	23639.68
772.513	23553.58
772.849	23479.23
773.184	23478.78
773.519	23311.77
773.855	23253.47
774.19	23174.15
774.525	23088.96
774.86	23029.07
775.195	23133.93
775.53	22970.77
775.865	22707.95
776.2	22571.68
776.535	22534.39
776.87	22495.07
777.205	22492.81
777.539	22223.89
777.874	22358.35
778.209	22183.67
778.543	22124.46
778.878	21908.2
779.212	22029.32
779.547	21910.68
779.881	21760.18
780.215	21728.76
780.55	21711.36
780.884	21507.53
781.218	21540.3
781.552	21519.28
781.886	21354.76
782.22	21202.22
782.554	21192.96
782.888	20975.34
783.222	20968.11
783.556	20933.08
783.889	20817.15
784.223	20662.35
784.557	20622.81
784.89	20726.08
785.224	20598.85
785.557	20623.03
785.891	20369.93
786.224	20319.31
786.558	20372.42
786.891	20163.38
787.224	20040.22
787.557	20052.2
787.891	19961.35
788.224	19929.72
788.557	19845.2
788.89	19824.86
789.223	19932.88
789.556	19710.06
789.888	19635.94
790.221	19537.64
790.554	19339
790.887	19390.07
791.219	19405.89
791.552	19284.99
791.884	19154.82
792.217	19218.1
792.549	19176.06
792.882	18922.51
793.214	18882.96
793.546	18950.53
793.879	18812.23
794.211	18736.98
794.543	18693.36
794.875	18647.26
795.207	18641.61
795.539	18617.89
795.871	18510.54
796.203	18289.99
796.535	18308.06
796.867	18198.69
797.198	18086.6
797.53	18247.73
797.862	18042.31
798.193	18104.68
798.525	17901.07
798.856	17995.98
799.188	17868.08
799.519	17727.51
799.85	17657.23
800.182	17664.46
800.513	17705.37
800.844	17521.19
801.175	17674.41
801.506	17585.37
801.837	17472.38
802.168	17308.32
802.499	17335.43
802.83	17254.08
803.161	17160.3
803.491	17269.9
803.822	17204.59
804.153	17151.03
804.483	16870.81
804.814	16903.58
805.145	16808.89
805.475	16852.28
805.805	16727.99
806.136	16777.48
806.466	16701.55
806.796	16649.35
807.126	16587.66
807.457	16482.35
807.787	16512.86
808.117	16387.66
808.447	16370.04
808.777	16429.02
809.107	16315.8
809.436	16238.97
809.766	16323.94
810.096	16178.4
810.426	16191.74
810.755	16144.5
811.085	16141.57
811.414	16065.64
811.744	15906.77
812.073	15905.87
812.403	15852.54
812.732	15882.36
813.061	15841.91
813.39	15719.43
813.719	15675.14
814.049	15732.76
814.378	15663.61
814.707	15510.85
815.036	15581.81
815.365	15444.64
815.693	15327.58
816.022	15392.21
816.351	15385.65
816.68	15268.6
817.008	15307.69
817.337	15106.34
817.665	15114.7
817.994	15192.21
818.322	15163.51
818.651	15028.6
818.979	15007.36
819.307	15130.52
819.636	14989.51
819.964	14908.83
820.292	14999.9
820.62	14960.13
820.948	14885.1
821.276	14948.38
821.604	14858.44
821.932	14850.75
822.259	14914.71
822.587	14862.5
822.915	14835.39
823.243	14843.97
823.57	14884.2
823.898	14889.17
824.225	14826.57
824.553	14830.19
824.88	14862.96
825.207	14819.57
825.535	14758.55
825.862	14875.16
826.189	14787.7
826.516	14866.8
826.843	14852.56
827.17	14814.37
827.497	14828.38
827.824	14847.82
828.151	14926.23
828.478	14766.91
828.805	14821.6
829.131	14724.43
829.458	14788.38
829.785	14775.95
830.111	14805.78
830.438	14842.62
830.764	14821.15
831.09	14735.28
831.417	14661.83
831.743	14795.61
832.069	14779.57
832.395	14685.79
832.722	14722.4
833.048	14660.25
833.374	14681.27
833.7	14569.18
834.026	14614.6
834.351	14628.61
834.677	14594.72
835.003	14608.95
835.329	14578.22
835.654	14608.73
835.98	14562.17
836.306	14534.38
836.631	14520.82
836.956	14578.44
837.282	14573.92
837.607	14407.15
837.932	14403.99
838.258	14428.39
838.583	14374.61
838.908	14311.56
839.233	14432.46
839.558	14286.47
839.883	14191.56
840.208	14266.59
840.533	14249.87
840.858	14201.51
841.182	14196.53
841.507	14187.27
841.832	14112.24
842.156	14031.79
842.481	14071.57
842.805	14024.79
843.13	14060.27
843.454	14001.74
843.778	13983.43
844.103	13923.09
844.427	13807.62
844.751	13879.03
845.075	13803.78
845.399	13717.45
845.723	13655.08
846.047	13732.59
846.371	13603.1
846.695	13670.45
847.019	13499.38
847.343	13392.03
847.666	13267.29
847.99	13219.84
848.313	13283.56
848.637	13096.22
848.96	13213.28
849.284	13175.32
849.607	13014.64
849.931	13012.16
850.254	12900.75
850.577	12922.67
850.9	12768.55
851.223	12793.86
851.546	12713.86
851.869	12612.39
852.192	12696.01
852.515	12554.77
852.838	12428.67
853.161	12580.08
853.483	12405.85
853.806	12475
854.129	12380.54
854.451	12268.9
854.774	12204.72
855.096	12284.95
855.419	12217.38
855.741	12188.68
856.063	12096.93
856.385	12082.92
856.708	11991.62
857.03	12037.49
857.352	11986.2
857.674	11979.42
857.996	11915.46
858.318	11890.38
858.64	11833.21
858.961	11798.63
859.283	11804.05
859.605	11750.5
859.926	11689.71
860.248	11687.9
860.57	11654
860.891	11636.37
861.212	11610.16
861.534	11599.09
861.855	11445.87
862.176	11504.4
862.498	11506.43
862.819	11544.63
863.14	11509.6
863.461	11462.82
863.782	11481.58
864.103	11404.06
864.424	11338.76
864.745	11320.68
865.065	11322.03
865.386	11193.67
865.707	11193
866.027	11232.32
866.348	11194.58
866.668	11233
866.989	11236.61
867.309	11086.11
867.63	11206.56
867.95	11141.7
868.27	11022.83
868.59	11119.78
868.91	11006.79
869.23	11039.55
869.55	11002.95
869.87	11019.44
870.19	10998.65
870.51	10974.7
870.83	10965.21
871.15	10945.32
871.469	10932.66
871.789	10933.79
872.109	10870.75
872.428	10851.08
872.748	10860.8
873.067	10885.21
873.386	10898.99
873.706	10780.35
874.025	10802.05
874.344	10733.57
874.663	10692.67
874.982	10729.51
875.301	10739.45
875.62	10591.2
875.939	10673.69
876.258	10602.05
876.577	10630.3
876.896	10591.2
877.214	10608.61
877.533	10635.27
877.852	10606.57
878.17	10568.15
878.489	10584.88
878.807	10558.44
879.125	10484.09
879.444	10545.78
879.762	10385.33
880.08	10463.75
880.398	10373.81
880.716	10453.36
881.034	10407.71
881.352	10403.64
881.67	10322.74
881.988	10302.62
882.306	10292.91
882.624	10276.41
882.941	10265.11
883.259	10211.55
883.577	10222.63
883.894	10131.78
884.212	10190.99
884.529	10114.38
884.846	10047.94
885.164	10012.01
885.481	9980.37
885.798	10069.86
886.115	9913.71
886.432	10052.24
886.75	9927.72
887.067	9916.42
887.383	9848.4
887.7	9930.66
888.017	9854.5
888.334	9863.54
888.651	9812.47
888.967	9805.91
889.284	9786.25
889.6	9742.19
889.917	9689.53
890.233	9717.56
890.55	9652.47
890.866	9694.05
891.182	9642.75
891.498	9553.72
891.815	9632.36
892.131	9470.33
892.447	9469.65
892.763	9479.6
893.079	9487.73
893.395	9433.27
893.71	9378.36
894.026	9453.16
894.342	9364.57
894.657	9314.18
894.973	9257
895.289	9301.52
895.604	9245.93
895.92	9141.53
896.235	9137.68
896.55	9163.22
896.865	9138.36
897.181	9078.48
897.496	8994.18
897.811	9024.24
898.126	8918.71
898.441	8948.99
898.756	8920.97
899.071	8894.75
899.386	8870.57
899.7	8764.36
900.015	8764.59
900.33	8744.7
900.644	8674.87
900.959	8734.3
901.273	8718.26
901.588	8663.57
901.902	8591.71
902.216	8543.57
902.531	8541.09
902.845	8540.41
903.159	8475.33
903.473	8494.99
903.787	8420.87
904.101	8370.7
904.415	8346.74
904.729	8258.38
905.042	8304.03
905.356	8222
905.67	8240.31
905.984	8224.26
906.297	8167.99
906.611	8111.04
906.924	8116.24
907.237	8107.43
907.551	8072.4
907.864	8082.8
908.177	7979.07
908.491	7989.24
908.804	7963.25
909.117	7894.55
909.43	7906.08
909.743	7788.79
910.056	7798.96
910.368	7720.32
910.681	7656.37
910.994	7697.04
911.307	7666.99
911.619	7603.49
911.932	7671.73
912.244	7593.32
912.557	7554
912.869	7497.27
913.181	7475.58
913.494	7495.69
913.806	7380.89
914.118	7327.56
914.43	7308.8
914.742	7337.05
915.054	7292.31
915.366	7233.1
915.678	7273.1
915.99	7222.25
916.302	7166.66
916.613	7099.32
916.925	7116.27
917.236	7076.27
917.548	7046.89
917.859	7068.81
918.171	6991.3
918.482	6998.53
918.794	6962.83
919.105	6883.28
919.416	6885.77
919.727	6869.72
920.038	6823.39
920.349	6778.42
920.66	6757.41
920.971	6738.42
921.282	6684.64
921.593	6713.34
921.903	6618.88
922.214	6621.37
922.525	6615.94
922.835	6527.13
923.146	6529.84
923.456	6572.55
923.767	6487.13
924.077	6464.76
924.387	6389.73
924.697	6408.26
925.008	6388.83
925.318	6314.71
925.628	6324.42
925.938	6299.34
926.248	6276.52
926.558	6237.87
926.867	6249.4
927.177	6204.65
927.487	6173.47
927.796	6092.34
928.106	6073.13
928.416	6059.12
928.725	6036.97
929.034	6034.94
929.344	6039.23
929.653	5996.07
929.962	5957.88
930.271	5911.1
930.581	5966.92
930.89	5894.38
931.199	5847.6
931.508	5789.3
931.817	5815.28
932.125	5799.92
932.434	5769.41
932.743	5678.34
933.051	5688.96
933.36	5684.89
933.669	5651
933.977	5631.33
934.286	5606.7
934.594	5594.5
934.902	5518.34
935.21	5588.4
935.519	5505.01
935.827	5480.15
936.135	5460.94
936.443	5435.86
936.751	5415.52
937.059	5388.4
937.367	5371.23
937.674	5369.87
937.982	5312.93
938.29	5342.08
938.597	5302.76
938.905	5252.81
939.213	5243.55
939.52	5200.61
939.827	5239.71
940.135	5197.45
940.442	5139.37
940.749	5134.4
941.056	5125.59
941.363	5082.2
941.67	5051.01
941.977	5017.34
942.284	5009.88
942.591	4939.6
942.898	5002.65
943.205	4933.5
943.511	4937.57
943.818	4935.99
944.125	4861.64
944.431	4855.31
944.738	4862.99
945.044	4855.54
945.35	4790
945.657	4761.3
945.963	4759.04
946.269	4738.7
946.575	4732.38
946.881	4730.12
947.187	4724.01
947.493	4632.04
947.799	4637.46
948.105	4645.82
948.41	4547.75
948.716	4579.84
949.022	4548.43
949.327	4534.64
949.633	4486.73
949.938	4482.89
950.244	4492.16
950.549	4457.81
950.854	4446.73
951.16	4386.17
951.465	4375.1
951.77	4369.67
952.075	4328.09
952.38	4353.18
952.685	4342.1
952.99	4294.65
953.294	4287.64
953.599	4256.46
953.904	4216.46
954.209	4179.17
954.513	4240.19
954.818	4209
955.122	4202.45
955.426	4162.67
955.731	4118.83
956.035	4147.53
956.339	4098.72
956.643	4129
956.948	4085.61
957.252	4124.03
957.556	4068.44
957.86	4008.1
958.163	4039.06
958.467	3986.41
958.771	3985.5
959.075	3974.2
959.378	3897.14
959.682	3967.65
959.985	3880.87
960.289	3948.89
960.592	3863.25
960.896	3829.35
961.199	3834.77
961.502	3833.64
961.805	3803.81
962.108	3796.13
962.411	3772.17
962.714	3734.21
963.017	3739.18
963.32	3725.62
963.623	3739.86
963.926	3727.2
964.228	3647.66
964.531	3666.87
964.833	3616.47
965.136	3611.73
965.438	3590.26
965.741	3618.05
966.043	3591.39
966.345	3565.63
966.648	3575.12
966.95	3548.45
967.252	3492.18
967.554	3477.72
967.856	3493.31
968.158	3450.83
968.46	3423.71
968.761	3449.92
969.063	3447.89
969.365	3395.46
969.666	3396.82
969.968	3350.27
970.269	3355.91
970.571	3353.65
970.872	3360.89
971.174	3296.71
971.475	3316.37
971.776	3297.16
972.077	3250.15
972.378	3273.66
972.679	3229.14
972.98	3272.3
973.281	3255.35
973.582	3226.88
973.883	3218.07
974.183	3217.61
974.484	3164.51
974.785	3121.8
975.085	3141.23
975.386	3122.93
975.686	3066.2
975.986	3091.51
976.287	3084.74
976.587	3073.21
976.887	3046.77
977.187	3021.91
977.487	3025.53
977.787	2998.18
978.087	2976.72
978.387	2986.43
978.687	2977.39
978.987	2955.93
979.286	2946.43
979.586	2943.95
979.885	2882.25
980.185	2931.29
980.484	2911.86
980.784	2877.28
981.083	2896.94
981.382	2857.17
981.682	2841.35
981.981	2802.48
982.28	2841.35
982.579	2811.52
982.878	2794.57
983.177	2796.38
983.475	2806.55
983.774	2754.12
984.073	2746.67
984.372	2735.37
984.67	2761.35
984.969	2726.78
985.267	2700.34
985.566	2708.93
985.864	2677.06
986.162	2680.45
986.461	2600.45
986.759	2650.85
987.057	2628.02
987.355	2619.44
987.653	2592.32
987.951	2595.48
988.249	2568.14
988.547	2562.49
988.844	2558.42
989.142	2549.83
989.44	2536.95
989.737	2549.61
990.035	2494.24
990.332	2538.31
990.63	2483.85
990.927	2456.05
991.224	2498.31
991.521	2467.12
991.819	2425.32
992.116	2417.86
992.413	2416.5
992.71	2386.67
993.006	2394.36
993.303	2409.72
993.6	2401.59
993.897	2355.94
994.193	2358.43
994.49	2386.22
994.787	2364.3
995.083	2338.77
995.379	2301.25
995.676	2314.59
995.972	2284.3
996.268	2311.87
996.565	2259.67
996.861	2286.79
997.157	2273.46
997.453	2211.09
997.749	2216.96
998.044	2190.52
998.34	2222.61
998.636	2186.91
998.932	2161.6
999.227	2149.17
999.523	2171.99
999.818	2143.52
1000.114	2134.03
1000.409	2131.77
1000.704	2084.54
1001	2117.3
1001.295	2088.6
1001.59	2075.04
1001.885	2075.27
1002.18	2036.4
1002.475	2057.42
1002.77	2032.56
1003.065	2019.45
1003.359	1997.31
1003.654	1983.52
1003.949	1998.66
1004.243	1984.65
1004.538	1957.08
1004.832	1947.14
1005.127	1975.61
1005.421	1945.56
1005.715	1889.74
1006.009	1939.68
1006.304	1905.33
1006.598	1894.71
1006.892	1894.03
1007.186	1858.1
1007.48	1857.87
1007.773	1845.45
1008.067	1867.37
1008.361	1822.17
1008.655	1803.86
1008.948	1818.55
1009.242	1791.21
1009.535	1793.92
1009.829	1767.03
1010.122	1760.48
1010.415	1758.89
1010.708	1742.62
1011.001	1740.59
1011.295	1719.12
1011.588	1739.01
1011.881	1716.64
1012.173	1693.36
1012.466	1715.28
1012.759	1712.79
1013.052	1706.01
1013.344	1668.95
1013.637	1638.9
1013.93	1638.45
1014.222	1622.17
1014.514	1642.06
1014.807	1590.76
1015.099	1620.14
1015.391	1605.23
1015.683	1587.37
1015.976	1579.92
1016.268	1603.42
1016.56	1527.94
1016.851	1543.98
1017.143	1559.13
1017.435	1557.32
1017.727	1521.16
1018.018	1509.86
1018.31	1508.05
1018.602	1505.34
1018.893	1464.89
1019.185	1491.1
1019.476	1474.61
1019.767	1454.5
1020.058	1440.48
1020.35	1430.09
1020.641	1421.05
1020.932	1426.25
1021.223	1407.49
1021.514	1405.23
1021.804	1387.6
1022.095	1391.67
1022.386	1383.31
1022.677	1351.22
1022.967	1375.85
1023.258	1352.8
1023.548	1327.27
1023.839	1333.14
1024.129	1334.27
1024.419	1327.27
1024.709	1293.37
1025	1300.6
1025.29	1270.09
1025.58	1266.93
1025.87	1278.91
1026.16	1231.45
1026.449	1259.47
1026.739	1258.34
1027.029	1260.83
1027.319	1229.42
1027.608	1196.2
1027.898	1198.46
1028.187	1193.26
1028.477	1195.75
1028.766	1176.54
1029.055	1169.31
1029.344	1149.19
1029.634	1170.21
1029.923	1165.01
1030.212	1154.84
1030.501	1148.29
1030.79	1139.7
1031.078	1130.21
1031.367	1111.45
1031.656	1137.22
1031.945	1125.46
1032.233	1088.18
1032.522	1090.66
1032.81	1071.23
1033.099	1068.52
1033.387	1080.95
1033.675	1054.51
1033.963	1047.27
1034.251	1036.2
1034.54	1052.02
1034.828	1025.35
1035.116	1038.69
1035.403	1007.28
1035.691	1034.39
1035.979	1027.16
1036.267	1026.94
1036.554	999.82
1036.842	1000.72
1037.129	980.16
1037.417	966.37
1037.704	971.34
1037.992	963.66
1038.279	962.31
1038.566	958.69
1038.853	958.69
1039.14	958.69
