Data from hue_200_FLMS001491_00071.txt Node
Date: Tue Feb 07 16:43:54 GMT 2017
User: dcchb
Spectrometer: FLMS00149
Trigger mode: 0
Integration Time (sec): 2.000000E-2
Scans to average: 10
Electric dark correction enabled: true
Nonlinearity correction enabled: false
Boxcar width: 0
XAxis mode: Wavelengths
Number of Pixels in Spectrum: 2048
>>>>>Begin Spectral Data<<<<<
341.393	-23.62
341.776	-23.62
342.16	-23.62
342.543	-62.26
342.927	-79.88
343.31	-62.48
343.693	-72.2
344.077	-51.19
344.46	-43.5
344.843	-51.86
345.226	-35.59
345.61	-27.23
345.993	-39.43
346.376	-1.47
346.759	7.12
347.142	8.25
347.525	45.08
347.908	37.63
348.291	87.79
348.674	92.99
349.057	106.1
349.44	132.99
349.823	157.17
350.206	184.74
350.588	191.29
350.971	212.31
351.354	218.86
351.737	231.75
352.119	245.08
352.502	270.16
352.884	284.85
353.267	263.16
353.65	298.18
354.032	288.92
354.414	286.43
354.797	301.8
355.179	300.22
355.562	322.59
355.944	298.86
356.326	311.29
356.709	307.45
357.091	328.24
357.473	341.12
357.855	335.47
358.238	335.47
358.62	328.69
359.002	333.21
359.384	330.05
359.766	332.53
360.148	317.62
360.53	320.33
360.912	335.25
361.294	310.39
361.676	344.51
362.057	329.14
362.439	309.71
362.821	317.62
363.203	325.08
363.584	323.72
363.966	326.88
364.348	315.36
364.729	298.18
365.111	322.14
365.493	289.37
365.874	325.08
366.256	318.3
366.637	292.99
367.019	319.88
367.4	314.23
367.781	327.79
368.163	302.7
368.544	288.24
368.925	305.42
369.306	303.38
369.688	295.25
370.069	310.84
370.45	304.51
370.831	297.28
371.212	297.73
371.593	298.41
371.974	304.29
372.355	321.23
372.736	318.07
373.117	318.52
373.498	317.62
373.879	285.08
374.26	285.98
374.641	304.96
375.021	292.99
375.402	317.62
375.783	311.52
376.163	296.6
376.544	331.4
376.925	300.44
377.305	331.63
377.686	314.91
378.066	314
378.447	325.08
378.827	328.92
379.208	324.4
379.588	319.65
379.968	333.89
380.349	346.09
380.729	297.51
381.109	320.78
381.489	330.73
381.87	337.73
382.25	323.27
382.63	334.12
383.01	337.28
383.39	345.19
383.77	330.5
384.15	337.96
384.53	324.17
384.91	317.62
385.29	319.43
385.67	329.37
386.049	343.38
386.429	351.74
386.809	341.12
387.189	352.65
387.568	344.06
387.948	335.02
388.328	358.52
388.707	359.43
389.087	341.8
389.466	367.11
389.846	346.32
390.225	368.92
390.605	359.65
390.984	365.08
391.363	365.75
391.743	375.02
392.122	369.37
392.501	353.32
392.881	383.61
393.26	387.67
393.639	380.22
394.018	374.11
394.397	382.02
394.776	385.87
395.155	377.05
395.534	392.19
395.913	388.8
396.292	402.14
396.671	378.86
397.05	401.91
397.429	406.43
397.808	399.65
398.186	362.59
398.565	393.32
398.944	403.04
399.323	387.22
399.701	415.47
400.08	419.99
400.458	398.52
400.837	422.93
401.215	419.09
401.594	426.09
401.972	403.49
402.351	414.11
402.729	422.93
403.107	424.28
403.486	417.96
403.864	445.98
404.242	434.68
404.62	439.65
404.999	431.51
405.377	437.16
405.755	450.04
406.133	454.79
406.511	464.28
406.889	473.32
407.267	467.22
407.645	488.46
408.023	487.78
408.401	493.43
408.779	504.51
409.156	493.89
409.534	515.81
409.912	511.29
410.29	534.34
410.667	535.69
411.045	541.57
411.422	533.88
411.8	552.64
412.178	568.23
412.555	551.06
412.933	602.58
413.31	589.93
413.687	609.59
414.065	589.48
414.442	642.13
414.819	636.03
415.197	652.53
415.574	665.63
415.951	657.5
416.328	681.68
416.705	669.93
417.082	697.27
417.46	700.89
417.837	701.79
418.214	710.15
418.591	736.59
418.967	721.45
419.344	727.33
419.721	736.36
420.098	776.82
420.475	775.23
420.852	790.6
421.228	786.31
421.605	808.68
421.982	803.48
422.358	847.1
422.735	839.64
423.111	850.49
423.488	902.91
423.864	896.36
424.241	921.44
424.617	946.75
424.994	943.59
425.37	976.81
425.746	1000.09
426.123	987.88
426.499	1027.2
426.875	1020.2
427.251	1036.24
427.627	1040.99
428.003	1073.31
428.379	1094.55
428.756	1106.52
429.132	1123.25
429.507	1131.38
429.883	1147.65
430.259	1159.63
430.635	1163.25
431.011	1185.39
431.387	1213.64
431.763	1226.07
432.138	1226.52
432.514	1262.45
432.89	1286.86
433.265	1288.44
433.641	1320.98
434.016	1322.11
434.392	1384.94
434.767	1392.39
435.143	1423.58
435.518	1443.69
435.894	1474.65
436.269	1520.75
436.644	1526.4
437.02	1583.35
437.395	1577.25
437.77	1587.64
438.145	1666.06
438.52	1649.56
438.895	1680.75
439.271	1690.24
439.646	1745.38
440.021	1766.39
440.395	1803.91
440.77	1814.75
441.145	1833.96
441.52	1911.93
441.895	1888.2
442.27	1904.7
442.645	1909.89
443.019	1975.2
443.394	1943.79
443.769	1989.21
444.143	1971.13
444.518	2036.22
444.892	2047.52
445.267	2087.52
445.641	2055.2
446.016	2120.06
446.39	2138.36
446.764	2153.28
447.139	2152.82
447.513	2143.56
447.887	2170.45
448.262	2208.64
448.636	2198.7
449.01	2280.96
449.384	2236.21
449.758	2287.51
450.132	2340.16
450.506	2337.9
450.88	2361.86
451.254	2412.03
451.628	2378.58
452.002	2423.78
452.376	2431.24
452.75	2458.13
453.123	2480.95
453.497	2544
453.871	2527.05
454.244	2588.29
454.618	2595.52
454.992	2616.99
455.365	2635.75
455.739	2721.17
456.112	2745.8
456.486	2724.79
456.859	2787.38
457.232	2840.04
457.606	2838.46
457.979	2853.15
458.352	2903.54
458.725	2973.14
459.099	2971.56
459.472	3035.06
459.845	3007.04
460.218	3120.48
460.591	3090.88
460.964	3112.35
461.337	3209.75
461.71	3230.54
462.083	3283.42
462.456	3280.25
462.829	3281.83
463.201	3336.52
463.574	3386.24
463.947	3423.3
464.32	3513.24
464.692	3496.97
465.065	3573.58
465.438	3648.15
465.81	3658.1
466.183	3707.81
466.555	3771.54
466.928	3795.72
467.3	3801.59
467.672	3849.96
468.045	3924.53
468.417	3934.25
468.789	3997.52
469.161	4026.67
469.534	4125.43
469.906	4155.03
470.278	4209.95
470.65	4265.31
471.022	4319.32
471.394	4396.61
471.766	4469.83
472.138	4473.22
472.51	4583.04
472.882	4632.31
473.253	4667.33
473.625	4744.62
473.997	4862.13
474.369	4883.6
474.74	4911.62
475.112	4958.4
475.484	5089.02
475.855	5170.82
476.227	5162.01
476.598	5328.11
476.97	5339.86
477.341	5439.52
477.713	5533.98
478.084	5555.45
478.455	5679.29
478.827	5776.46
479.198	5921.54
479.569	5913.63
479.94	6038.15
480.311	6098.71
480.682	6185.49
481.053	6390.68
481.424	6473.84
481.795	6495.54
482.166	6569.21
482.537	6631.58
482.908	6773.95
483.279	6821.18
483.65	6919.93
484.021	7072.24
484.391	7151.34
484.762	7220.26
485.133	7293.93
485.503	7317.89
485.874	7502.97
486.244	7504.55
486.615	7718.55
486.985	7776.41
487.356	7849.85
487.726	7954.93
488.097	8097.53
488.467	8081.26
488.837	8268.14
489.207	8219.11
489.578	8391.76
489.948	8476.73
490.318	8577.06
490.688	8596.95
491.058	8686.44
491.428	8787.9
491.798	8834.23
492.168	9050.72
492.538	9008.92
492.908	9151.28
493.278	9283.26
493.648	9219.53
494.017	9357.38
494.387	9359.41
494.757	9436.93
495.126	9544.72
495.496	9551.95
495.866	9596.24
496.235	9674.21
496.605	9756.69
496.974	9794.66
497.344	9927.08
497.713	9851.15
498.082	9929.12
498.452	10085.72
498.821	10012.05
499.19	10049.11
499.559	10127.98
499.928	10132.73
500.298	10211.82
500.667	10262.89
501.036	10267.64
501.405	10334.08
501.774	10391.25
502.143	10419.27
502.512	10374.76
502.88	10492.04
503.249	10519.84
503.618	10515.54
503.987	10531.14
504.356	10575.43
504.724	10595.54
505.093	10651.58
505.462	10617.01
505.83	10724.8
506.199	10737.68
506.567	10840.05
506.936	10776.33
507.304	10847.06
507.672	10967.73
508.041	10904.23
508.409	10977.45
508.777	11016.55
509.145	11090.67
509.514	11051.8
509.882	11007.73
510.25	11020.16
510.618	11051.57
510.986	11118.01
511.354	11175.64
511.722	11202.3
512.09	11248.86
512.458	11250.89
512.826	11295.18
513.193	11247.05
513.561	11230.1
513.929	11278.46
514.297	11328.4
514.664	11409.76
515.032	11352.13
515.4	11443.88
515.767	11427.38
516.135	11406.37
516.502	11354.16
516.869	11514.84
517.237	11471.68
517.604	11366.37
517.972	11469.42
518.339	11506.25
518.706	11394.84
519.073	11417.67
519.44	11501.28
519.808	11542.18
520.175	11515.97
520.542	11517.32
520.909	11535.4
521.276	11512.13
521.643	11607.94
522.009	11685.23
522.376	11601.62
522.743	11599.58
523.11	11715.96
523.477	11689.98
523.843	11674.83
524.21	11757.09
524.577	11759.58
524.943	11750.54
525.31	11788.96
525.676	11830.31
526.043	11801.16
526.409	11795.28
526.776	11827.15
527.142	11771.78
527.508	11772.46
527.874	11895.85
528.241	11779.46
528.607	11728.84
528.973	11796.86
529.339	11721.16
529.705	11758.22
530.071	11820.14
530.437	11678.45
530.803	11711.67
531.169	11691.11
531.535	11658.79
531.901	11622.63
532.267	11536.08
532.632	11561.39
532.998	11613.59
533.364	11635.29
533.73	11540.83
534.095	11560.94
534.461	11538.79
534.826	11525.69
535.192	11456.53
535.557	11532.69
535.923	11470.09
536.288	11392.36
536.653	11312.13
537.019	11253.15
537.384	11269.42
537.749	11285.69
538.114	11183.77
538.479	11165.24
538.845	11089.99
539.21	11018.81
539.575	10987.62
539.94	10991.46
540.305	10974.74
540.67	10953.27
541.034	10883.89
541.399	10812.71
541.764	10819.04
542.129	10758.93
542.494	10690.68
542.858	10660.4
543.223	10611.81
543.587	10605.26
543.952	10475.32
544.316	10493.85
544.681	10384.02
545.045	10433.74
545.41	10404.36
545.774	10403.68
546.138	10259.96
546.503	10301.99
546.867	10204.59
547.231	10206.85
547.595	10139.06
547.959	10170.24
548.324	10010.02
548.688	9993.07
549.052	9983.13
549.416	9897.93
549.779	9897.25
550.143	9809.8
550.507	9786.07
550.871	9778.84
551.235	9719.41
551.599	9725.96
551.962	9687.32
552.326	9608
552.689	9562.57
553.053	9466.53
553.417	9461.56
553.78	9471.73
554.143	9389.47
554.507	9393.99
554.87	9367.78
555.234	9430.15
555.597	9320.77
555.96	9291.62
556.323	9290.04
556.686	9222.02
557.05	9236.93
557.413	9121.68
557.776	9165.52
558.139	9167.1
558.502	9175.24
558.865	9139.31
559.228	9098.18
559.59	9005.98
559.953	9070.83
560.316	9095.24
560.679	9017.95
561.041	8951.97
561.404	8982.48
561.767	9045.3
562.129	9018.41
562.492	8954.23
562.854	8957.17
563.217	8951.29
563.579	8963.49
563.941	8857.06
564.304	8958.97
564.666	8976.83
565.028	8911.97
565.39	8880.11
565.753	8893.89
566.115	8876.49
566.477	8907.68
566.839	8894.34
567.201	8981.35
567.563	8887.79
567.925	8957.39
568.287	8916.26
568.648	8872.87
569.01	8875.81
569.372	8896.83
569.734	8849.82
570.095	8959.88
570.457	8933.44
570.819	8900.67
571.18	8939.76
571.542	8914
571.903	8992.64
572.265	8900.22
572.626	8988.58
572.987	8944.74
573.349	8942.02
573.71	8944.28
574.071	8929.37
574.432	8919.65
574.794	8995.13
575.155	8948.13
575.516	8894.34
575.877	8983.61
576.238	8917.39
576.599	8947.22
576.96	8872.42
577.32	8951.74
577.681	8845.98
578.042	8907.9
578.403	8918.3
578.763	8890.95
579.124	8967.33
579.485	8987.9
579.845	8937.51
580.206	8917.62
580.566	8908.81
580.927	8963.95
581.287	8901.8
581.648	8893.44
582.008	8877.62
582.368	8938.86
582.728	8881.91
583.089	8895.02
583.449	8891.18
583.809	8838.98
584.169	8914.68
584.529	8843.72
584.889	8862.25
585.249	8830.16
585.609	8831.52
585.969	8838.98
586.329	8793.1
586.688	8816.83
587.048	8825.87
587.408	8858.19
587.768	8809.37
588.127	8802.14
588.487	8826.55
588.846	8790.62
589.206	8787.23
589.565	8743.84
589.925	8828.81
590.284	8778.64
590.643	8763.05
591.003	8797.4
591.362	8813.21
591.721	8747
592.08	8791.07
592.44	8752.43
592.799	8707.91
593.158	8722.6
593.517	8814.8
593.876	8760.79
594.235	8688.7
594.593	8659.09
594.952	8700.9
595.311	8752.43
595.67	8668.13
596.029	8712.88
596.387	8711.75
596.746	8729.6
597.104	8643.05
597.463	8620.45
597.822	8735.93
598.18	8679.66
598.538	8650.06
598.897	8656.83
599.255	8648.25
599.613	8660
599.972	8605.08
600.33	8663.16
600.688	8621.13
601.046	8593.11
601.404	8619.55
601.762	8624.52
602.12	8683.73
602.478	8664.52
602.836	8674.46
603.194	8652.99
603.552	8577.51
603.91	8601.24
604.268	8624.97
604.625	8564.86
604.983	8527.12
605.341	8545.43
605.698	8573.45
606.056	8549.94
606.413	8643.28
606.771	8612.77
607.128	8645.08
607.485	8553.11
607.843	8638.76
608.2	8638.08
608.557	8610.96
608.914	8588.59
609.272	8675.82
609.629	8665.42
609.986	8663.16
610.343	8618.42
610.7	8640.11
611.057	8654.35
611.414	8641.47
611.771	8617.29
612.127	8637.63
612.484	8694.57
612.841	8675.14
613.198	8675.59
613.554	8659.32
613.911	8735.02
614.267	8660
614.624	8657.51
614.98	8644.63
615.337	8731.41
615.693	8680.79
616.05	8666.78
616.406	8754.23
616.762	8731.18
617.118	8654.12
617.475	8727.34
617.831	8771.86
618.187	8750.62
618.543	8747.91
618.899	8803.72
619.255	8803.95
619.611	8711.97
619.967	8816.6
620.323	8810.05
620.678	8739.77
621.034	8745.65
621.39	8783.16
621.746	8722.82
622.101	8800.56
622.457	8796.72
622.812	8735.7
623.168	8799.88
623.523	8815.02
623.879	8823.38
624.234	8770.28
624.589	8773.44
624.945	8794.01
625.3	8747.68
625.655	8756.49
626.01	8801.01
626.365	8752.65
626.72	8761.24
627.075	8743.39
627.43	8766.66
627.785	8731.86
628.14	8676.27
628.495	8755.36
628.85	8718.98
629.205	8657.29
629.559	8747.68
629.914	8664.07
630.269	8620.45
630.623	8669.49
630.978	8724.18
631.332	8674.01
631.687	8662.48
632.041	8697.06
632.396	8644.41
632.75	8625.42
633.104	8620.9
633.459	8610.28
633.813	8557.4
634.167	8593.79
634.521	8566.89
634.875	8586.33
635.229	8573.45
635.583	8502.49
635.937	8510.85
636.291	8519.66
636.645	8545.65
636.999	8518.31
637.352	8525.09
637.706	8500
638.06	8533.9
638.413	8474.92
638.767	8423.39
639.121	8510.4
639.474	8426.33
639.828	8391.3
640.181	8437.63
640.534	8467.23
640.888	8381.59
641.241	8391.98
641.594	8405.54
641.947	8389.04
642.301	8324.41
642.654	8404.41
643.007	8394.92
643.36	8383.4
643.713	8331.19
644.066	8336.62
644.419	8381.59
644.771	8266.34
645.124	8198.32
645.477	8183.85
645.83	8129.39
646.182	8168.49
646.535	8157.86
646.888	8079
647.24	8104.08
647.593	8013.91
647.945	8051.88
648.298	8038.55
648.65	8007.36
649.002	8032.9
649.355	8100.01
649.707	8034.03
650.059	8048.49
650.411	8188.6
650.763	8149.5
651.115	8236.05
651.467	8210.52
651.819	8267.47
652.171	8262.49
652.523	8184.98
652.875	8193.8
653.227	8189.05
653.578	8250.74
653.93	8191.08
654.282	8227.47
654.633	8220.24
654.985	8216.62
655.337	8173.23
655.688	8250.29
656.039	8265.66
656.391	8182.72
656.742	8177.53
657.094	8268.37
657.445	8235.83
657.796	8288.93
658.147	8256.17
658.498	8220.24
658.849	8266.11
659.2	8222.04
659.551	8206.9
659.902	8324.19
660.253	8259.1
660.604	8304.08
660.955	8209.84
661.306	8289.39
661.656	8275.15
662.007	8307.69
662.358	8339.1
662.708	8308.82
663.059	8277.86
663.409	8303.85
663.76	8335.49
664.11	8281.48
664.461	8293.23
664.811	8332.55
665.161	8377.52
665.511	8319.22
665.862	8360.12
666.212	8306.56
666.562	8361.25
666.912	8344.07
667.262	8373
667.612	8336.84
667.962	8364.19
668.312	8280.57
668.662	8287.8
669.011	8348.82
669.361	8306.79
669.711	8297.52
670.06	8296.39
670.41	8277.64
670.76	8270.63
671.109	8341.59
671.459	8296.84
671.808	8260.23
672.157	8293.45
672.507	8262.27
672.856	8257.3
673.205	8265.88
673.554	8230.86
673.904	8211.87
674.253	8283.74
674.602	8224.3
674.951	8190.63
675.3	8088.04
675.649	8182.27
675.998	8227.02
676.346	8218.43
676.695	8115.61
677.044	8190.63
677.393	8230.63
677.741	8187.47
678.09	8190.86
678.438	8137.98
678.787	8198.77
679.135	8166.9
679.484	8032.44
679.832	8153.34
680.181	8112.22
680.529	8118.54
680.877	8040.13
681.225	8042.61
681.573	8075.61
681.922	8035.83
682.27	7997.42
682.618	8013.01
682.966	7984.54
683.314	7924.88
683.661	7994.71
684.009	7846.46
684.357	7885.33
684.705	7883.97
685.053	7925.78
685.4	7820.02
685.748	7826.12
686.095	7865.67
686.443	7732.34
686.79	7726.92
687.138	7754.26
687.485	7754.71
687.832	7695.73
688.18	7756.52
688.527	7630.42
688.874	7683.53
689.221	7643.75
689.568	7558.56
689.915	7642.85
690.262	7581.16
690.609	7525.56
690.956	7543.19
691.303	7497.54
691.65	7416.19
691.997	7462.29
692.344	7411.9
692.69	7433.36
693.037	7393.14
693.383	7318.79
693.73	7307.49
694.077	7301.62
694.423	7274.27
694.769	7226.82
695.116	7203.77
695.462	7196.76
695.808	7171.45
696.155	7162.86
696.501	7151.56
696.847	7133.26
697.193	7106.82
697.539	7097.33
697.885	7044.22
698.231	7003.32
698.577	7067.27
698.923	6959.03
699.269	6939.14
699.614	6879.93
699.96	6812.82
700.306	6867.73
700.651	6860.95
700.997	6782.31
701.342	6784.79
701.688	6757.68
702.033	6740.95
702.379	6718.81
702.724	6664.57
703.069	6691.24
703.415	6587.74
703.76	6611.69
704.105	6568.08
704.45	6558.81
704.795	6543.67
705.14	6525.59
705.485	6529.21
705.83	6481.75
706.175	6434.52
706.52	6470.68
706.865	6427.97
707.209	6410.57
707.554	6341.87
707.899	6374.63
708.243	6307.74
708.588	6327.86
708.932	6215.77
709.277	6238.37
709.621	6235.2
709.966	6243.56
710.31	6268.42
710.654	6224.13
710.998	6222.32
711.342	6140.97
711.687	6141.65
712.031	6119.73
712.375	6100.07
712.719	6136.9
713.063	6145.71
713.407	6166.73
713.75	6081.08
714.094	6076.11
714.438	6068.65
714.782	5998.6
715.125	6037.47
715.469	6019.84
715.812	5979.39
716.156	5996.79
716.499	5966.74
716.843	5969
717.186	5924.03
717.53	5912.95
717.873	5931.48
718.216	5921.99
718.559	5957.02
718.902	5924.03
719.246	5913.4
719.589	5890.13
719.932	5864.59
720.275	5887.64
720.617	5852.39
720.96	5872.73
721.303	5849.22
721.646	5844.03
721.989	5834.08
722.331	5871.82
722.674	5876.79
723.016	5816.01
723.359	5782.79
723.701	5813.75
724.044	5788.21
724.386	5778.04
724.729	5881.54
725.071	5777.14
725.413	5836.34
725.755	5756.57
726.097	5786.85
726.439	5726.29
726.782	5752.28
727.124	5804.71
727.465	5764.26
727.807	5769.45
728.149	5790.92
728.491	5757.7
728.833	5769.45
729.175	5695.56
729.516	5794.08
729.858	5743.69
730.199	5780.53
730.541	5758.15
730.882	5751.83
731.224	5785.05
731.565	5740.3
731.906	5757.02
732.248	5798.83
732.589	5775.55
732.93	5692.62
733.271	5711.83
733.612	5714.54
733.953	5765.16
734.294	5754.31
734.635	5799.06
734.976	5776.68
735.317	5792.05
735.658	5763.8
735.999	5813.07
736.339	5753.18
736.68	5812.84
737.021	5804.93
737.361	5787.98
737.702	5818.72
738.042	5875.89
738.383	5783.46
738.723	5854.42
739.063	5823.91
739.404	5856
739.744	5875.44
740.084	5881.99
740.424	5874.99
740.764	5898.49
741.104	5950.24
741.444	5878.6
741.784	5948.88
742.124	5984.59
742.464	5948.21
742.804	5946.85
743.143	5996.34
743.483	5960.86
743.823	6035.21
744.162	6091.48
744.502	6122.44
744.841	6107.07
745.181	6137.35
745.52	6128.31
745.86	6219.16
746.199	6222.32
746.538	6297.8
746.877	6350.91
747.216	6380.74
747.556	6399.72
747.895	6429.77
748.234	6489.89
748.573	6569.88
748.911	6617.79
749.25	6655.08
749.589	6691.01
749.928	6838.8
750.267	6834.06
750.605	6955.86
750.944	6973.94
751.283	7120.6
751.621	7238.57
751.96	7229.08
752.298	7388.39
752.636	7450.99
752.975	7585.9
753.313	7603.98
753.651	7734.6
753.989	7849.85
754.327	7939.11
754.666	8014.14
755.004	8191.76
755.342	8355.83
755.679	8471.53
756.017	8551.98
756.355	8766.89
756.693	8876.94
757.031	9072.87
757.368	9175.01
757.706	9327.78
758.044	9496.81
758.381	9640.54
758.719	9741.33
759.056	9922.79
759.394	10130.24
759.731	10226.51
760.068	10449.56
760.405	10567.29
760.743	10793.05
761.08	10976.32
761.417	11150.1
761.754	11349.19
762.091	11497.89
762.428	11625.8
762.765	11826.69
763.102	12069.4
763.438	12113.24
763.775	12369.73
764.112	12533.57
764.449	12705.54
764.785	12906.89
765.122	13047.23
765.458	13154.57
765.795	13339.88
766.131	13546.88
766.467	13757.72
766.804	13860.31
767.14	13952.06
767.476	14153.19
767.812	14332.84
768.148	14442.9
768.485	14640.86
768.821	14707.75
769.157	14888.54
769.492	15019.38
769.828	15157
770.164	15180.96
770.5	15349.99
770.836	15424.57
771.171	15598.57
771.507	15723.99
771.842	15732.35
772.178	15876.98
772.513	15891.45
772.849	16121.5
773.184	16106.36
773.519	16290.08
773.855	16355.16
774.19	16400.81
774.525	16472.67
774.86	16614.37
775.195	16695.95
775.53	16654.59
775.865	16754.47
776.2	16762.38
776.535	16811.42
776.87	16940.46
777.205	16965.54
777.539	16896.39
777.874	17071.53
778.209	17012.55
778.543	17072.21
778.878	17059.33
779.212	17175.25
779.547	17238.08
779.881	17217.97
780.215	17271.07
780.55	17438.98
780.884	17286.89
781.218	17361.92
781.552	17424.51
781.886	17358.3
782.22	17335.48
782.554	17303.16
782.888	17270.85
783.222	17333.44
783.556	17291.86
783.889	17276.04
784.223	17188.14
784.557	17316.04
784.89	17441.01
785.224	17315.36
785.557	17304.97
785.891	17374.57
786.224	17312.2
786.558	17370.5
786.891	17268.36
787.224	17140.45
787.557	17262.48
787.891	17185.42
788.224	17227.91
788.557	17180.68
788.89	17220.45
789.223	17346.1
789.556	17214.35
789.888	17223.39
790.221	17114.92
790.554	17036.28
790.887	17045.99
791.219	17101.81
791.552	17024.07
791.884	17031.3
792.217	16971.42
792.549	16956.28
792.882	16794.93
793.214	16757.19
793.546	16846.22
793.879	16800.12
794.211	16733.68
794.543	16790.18
794.875	16774.81
795.207	16722.16
795.539	16713.57
795.871	16675.83
796.203	16539.57
796.535	16544.99
796.867	16441.49
797.198	16502.05
797.53	16407.14
797.862	16322.85
798.193	16310.87
798.525	16244.66
798.856	16377.54
799.188	16240.82
799.519	16089.86
799.85	16029.52
800.182	16130.76
800.513	16113.59
800.844	16041.5
801.175	16027.49
801.506	16120.82
801.837	16067.94
802.168	15970.31
802.499	15992.23
802.83	15841.28
803.161	15823.43
803.491	15815.74
803.822	15940.48
804.153	15730.09
804.483	15771.9
804.814	15631.79
805.145	15672.7
805.475	15619.59
805.805	15547.05
806.136	15549.99
806.466	15628.63
806.796	15487.39
807.126	15502.53
807.457	15418.69
807.787	15418.24
808.117	15344.12
808.447	15303.44
808.777	15255.31
809.107	15231.12
809.436	15207.17
809.766	15223.44
810.096	15139.38
810.426	15089.43
810.755	15074.74
811.085	15183.22
811.414	14960.85
811.744	14947.52
812.073	15006.27
812.403	15065.48
812.732	14902.32
813.061	14931.02
813.39	14827.52
813.719	14768.09
814.049	14815.99
814.378	14856.67
814.707	14777.8
815.036	14779.39
815.365	14612.84
815.693	14539.84
816.022	14521.54
816.351	14555.21
816.68	14506.85
817.008	14551.37
817.337	14415.1
817.665	14425.27
817.994	14478.38
818.322	14378.94
818.651	14297.82
818.979	14252.62
819.307	14460.07
819.636	14366.06
819.964	14172.4
820.292	14355.22
820.62	14242.68
820.948	14231.15
821.276	14246.74
821.604	14169.91
821.932	14328.1
822.259	14346.4
822.587	14282.9
822.915	14303.24
823.243	14251.26
823.57	14250.81
823.898	14192.28
824.225	14232.96
824.553	14199.51
824.88	14199.29
825.207	14257.59
825.535	14135.79
825.862	14323.8
826.189	14202.45
826.516	14239.06
826.843	14246.07
827.17	14352.5
827.497	14243.81
827.824	14302.56
828.151	14362.22
828.478	14279.51
828.805	14317.02
829.131	14362
829.458	14353.41
829.785	14206.75
830.111	14246.97
830.438	14368.77
830.764	14280.42
831.09	14334.88
831.417	14226.86
831.743	14315.44
832.069	14251.72
832.395	14258.5
832.722	14300.75
833.048	14190.25
833.374	14214.43
833.7	14135.56
834.026	14226.63
834.351	14168.78
834.677	14171.72
835.003	14219.4
835.329	14141.89
835.654	14114.54
835.98	14139.4
836.306	14084.49
836.631	14051.49
836.956	14114.09
837.282	14032.51
837.607	14043.13
837.932	13994.77
838.258	13981.44
838.583	14002.91
838.908	13963.36
839.233	13960.42
839.558	13879.97
839.883	13829.58
840.208	13868.22
840.533	13830.94
840.858	13842.69
841.182	13832.74
841.507	13860.54
841.832	13679.3
842.156	13666.19
842.481	13664.16
842.805	13722.46
843.13	13674.78
843.454	13591.62
843.778	13591.85
844.103	13508.91
844.427	13440.21
844.751	13535.35
845.075	13548.23
845.399	13347.56
845.723	13349.37
846.047	13403.38
846.371	13306.2
846.695	13337.62
847.019	13218.75
847.343	13088.13
847.666	13070.28
847.99	13018.53
848.313	13020.56
848.637	12929.72
848.96	12846.1
849.284	12910.28
849.607	12761.13
849.931	12703.28
850.254	12615.37
850.577	12567.24
850.9	12473.01
851.223	12458.54
851.546	12450.41
851.869	12342.39
852.192	12436.4
852.515	12327.02
852.838	12261.71
853.161	12335.83
853.483	12197.98
853.806	12131.77
854.129	12109.85
854.451	12035.28
854.774	11974.26
855.096	11980.81
855.419	11910.08
855.741	11910.76
856.063	11877.54
856.385	11786.02
856.708	11746.24
857.03	11758.45
857.352	11707.6
857.674	11710.54
857.996	11616.3
858.318	11527.49
858.64	11613.14
858.961	11568.62
859.283	11508.96
859.605	11517.1
859.926	11538.11
860.248	11376.31
860.57	11416.99
860.891	11402.07
861.212	11353.03
861.534	11249.99
861.855	11239.37
862.176	11291.79
862.498	11259.48
862.819	11236.2
863.14	11195.07
863.461	11163.89
863.782	11223.77
864.103	11252.02
864.424	11189.65
864.745	11172.25
865.065	11073.04
865.386	11027.85
865.707	11160.72
866.027	11034.63
866.348	11093.15
866.668	10986.72
866.989	10965.93
867.309	10905.81
867.63	10975.87
867.95	10930
868.27	10889.54
868.59	10889.54
868.91	10860.39
869.23	10904.01
869.55	10778.59
869.87	10819.72
870.19	10808.42
870.51	10870.56
870.83	10859.26
871.15	10736.55
871.469	10713.5
871.789	10716.67
872.109	10666.05
872.428	10657.01
872.748	10722.32
873.067	10668.76
873.386	10638.25
873.706	10623.11
874.025	10610.91
874.344	10542.89
874.663	10605.03
874.982	10537.92
875.301	10540.85
875.62	10553.06
875.939	10499.27
876.258	10540.85
876.577	10533.4
876.896	10430.57
877.214	10464.7
877.533	10397.81
877.852	10418.14
878.17	10405.26
878.489	10321.88
878.807	10347.19
879.125	10346.51
879.444	10316.68
879.762	10250.92
880.08	10241.2
880.398	10163.69
880.716	10224.7
881.034	10260.63
881.352	10217.7
881.67	10206.4
881.988	10196.68
882.306	10092.73
882.624	10090.24
882.941	10053.41
883.259	9987.2
883.577	10045.27
883.894	10039.62
884.212	10004.6
884.529	10019.28
884.846	9982.9
885.164	9905.16
885.481	9907.2
885.798	9889.57
886.115	9840.31
886.432	9769.12
886.75	9805.5
887.067	9787.88
887.383	9721.67
887.7	9819.97
888.017	9727.31
888.334	9703.13
888.651	9707.2
888.967	9597.83
889.284	9594.66
889.6	9540.65
889.917	9560.99
890.233	9520.54
890.55	9470.82
890.866	9431.5
891.182	9497.94
891.498	9312.18
891.815	9397.15
892.131	9328.68
892.447	9301.11
892.763	9318.06
893.079	9280.55
893.395	9258.85
893.71	9158.29
894.026	9217.95
894.342	9186.76
894.657	9140.21
894.973	9059.31
895.289	9053.89
895.604	9056.82
895.92	9007.56
896.235	8947.22
896.55	8965.08
896.865	8943.83
897.181	8905.19
897.496	8931.18
897.811	8918.97
898.126	8804.4
898.441	8788.13
898.756	8709.49
899.071	8718.75
899.386	8686.66
899.7	8564.41
900.015	8599.89
900.33	8557.4
900.644	8494.58
900.959	8499.55
901.273	8505.88
901.588	8445.09
901.902	8407.58
902.216	8372.32
902.531	8442.6
902.845	8347.69
903.159	8286
903.473	8273.34
903.787	8128.71
904.101	8197.41
904.415	8178.43
904.729	8145.89
905.042	8070.86
905.356	8087.81
905.67	8050.3
905.984	8088.26
906.297	7986.57
906.611	7936.63
906.924	8024.76
907.237	7886.46
907.551	7869.96
907.864	7786.57
908.177	7867.48
908.491	7780.02
908.804	7741.6
909.117	7629.06
909.43	7654.83
909.743	7606.01
910.056	7608.5
910.368	7504.32
910.681	7506.58
910.994	7520.82
911.307	7501.38
911.619	7404.66
911.932	7429.52
912.244	7384.55
912.557	7402.63
912.869	7318.11
913.181	7280.37
913.494	7297.32
913.806	7272.92
914.118	7239.02
914.43	7126.48
914.742	7158.34
915.054	7114.5
915.366	7097.33
915.678	7030.21
915.99	7039.7
916.302	6986.14
916.613	6966.71
916.925	6916.77
917.236	6914.28
917.548	6874.51
917.859	6854.62
918.171	6837.22
918.482	6792.02
918.794	6782.76
919.105	6793.38
919.416	6710.22
919.727	6724.23
920.038	6670.9
920.349	6656.21
920.66	6564.46
920.971	6589.09
921.282	6555.42
921.593	6572.37
921.903	6500.96
922.214	6490.11
922.525	6456.21
922.835	6444.46
923.146	6409.44
923.456	6364.92
923.767	6357.46
924.077	6343.9
924.387	6340.74
924.697	6240.17
925.008	6237.46
925.318	6237.46
925.628	6162.66
925.938	6199.72
926.248	6131.03
926.558	6063.46
926.867	6120.63
927.177	6100.97
927.487	6058.03
927.796	5976.45
928.106	6003.12
928.416	5904.36
928.725	5963.35
929.034	5926.96
929.344	5943.46
929.653	5907.3
929.962	5811.26
930.271	5851.26
930.581	5812.16
930.89	5735.1
931.199	5769.68
931.508	5759.74
931.817	5768.32
932.125	5676.57
932.434	5669.79
932.743	5650.81
933.051	5612.85
933.36	5593.41
933.669	5556.58
933.977	5559.51
934.286	5530.82
934.594	5540.76
934.902	5485.84
935.21	5496.92
935.519	5388.45
935.827	5408.56
936.135	5404.04
936.443	5370.82
936.751	5355.9
937.059	5355
937.367	5312.29
937.674	5294.21
937.982	5302.8
938.29	5218.96
938.597	5244.04
938.905	5184.61
939.213	5199.98
939.52	5128.11
939.827	5138.96
940.135	5112.75
940.442	5109.81
940.749	5035.46
941.056	5089.92
941.363	4980.77
941.67	4993.88
941.977	4931.06
942.284	4932.41
942.591	4939.64
942.898	4930.38
943.205	4942.81
943.511	4877.5
943.818	4849.48
944.125	4811.96
944.431	4756.37
944.738	4789.82
945.044	4709.37
945.35	4717.28
945.657	4723.83
945.963	4669.37
946.269	4717.96
946.575	4699.65
946.881	4642.25
947.187	4626.21
947.493	4581.69
947.799	4584.63
948.105	4567.45
948.41	4500.79
948.716	4544.4
949.022	4456.94
949.327	4527.9
949.633	4434.12
949.938	4492.2
950.244	4430.05
950.549	4424.4
950.854	4397.96
951.16	4414.01
951.465	4358.42
951.77	4364.29
952.075	4296.27
952.38	4294.69
952.685	4303.05
952.99	4252.88
953.294	4223.05
953.599	4251.75
953.904	4201.58
954.209	4157.29
954.513	4186.9
954.818	4160.91
955.122	4149.61
955.426	4134.69
955.731	4091.98
956.035	4089.95
956.339	4073.68
956.643	4038.42
956.948	4003.4
957.252	4058.99
957.556	4007.47
957.86	3938.31
958.163	4004.08
958.467	3956.85
958.771	3921.59
959.075	3927.69
959.378	3905.77
959.682	3887.02
959.985	3834.81
960.289	3871.88
960.592	3866.9
960.896	3825.32
961.199	3814.93
961.502	3784.42
961.805	3738.32
962.108	3748.94
962.411	3725.89
962.714	3709.39
963.017	3682.73
963.32	3685.67
963.623	3655.84
963.926	3699.22
964.228	3607.48
964.531	3668.27
964.833	3574.93
965.136	3572
965.438	3568.83
965.741	3578.78
966.043	3509.63
966.345	3569.06
966.648	3493.58
966.95	3533.58
967.252	3460.14
967.554	3484.77
967.856	3435.05
968.158	3423.53
968.46	3438.44
968.761	3414.71
969.063	3393.7
969.365	3389.4
969.666	3353.47
969.968	3329.29
970.269	3319.57
970.571	3313.25
970.872	3295.39
971.174	3303.3
971.475	3268.73
971.776	3254.94
972.077	3234.38
972.378	3238.22
972.679	3205.9
972.98	3227.37
973.281	3177.66
973.582	3199.12
973.883	3161.16
974.183	3153.7
974.484	3176.98
974.785	3157.54
975.085	3165.45
975.386	3113.25
975.686	3068.96
975.986	3042.52
976.287	3080.48
976.587	3059.24
976.887	3020.82
977.187	3026.93
977.487	3032.8
977.787	2999.36
978.087	2967.94
978.387	2950.77
978.687	2932.24
978.987	2895.63
979.286	2934.5
979.586	2929.53
979.885	2899.02
980.185	2886.82
980.484	2895.63
980.784	2849.3
981.083	2853.37
981.382	2854.28
981.682	2822.64
981.981	2860.6
982.28	2791
982.579	2752.58
982.878	2779.93
983.177	2765.92
983.475	2761.62
983.774	2736.09
984.073	2708.52
984.372	2720.27
984.67	2709.42
984.969	2724.34
985.267	2660.16
985.566	2679.82
985.864	2645.02
986.162	2633.26
986.461	2648.86
986.759	2626.71
987.057	2575.41
987.355	2585.81
987.653	2584.9
987.951	2583.77
988.249	2570.44
988.547	2562.76
988.844	2532.93
989.142	2554.62
989.44	2516.43
989.737	2502.87
990.035	2494.96
990.332	2486.38
990.63	2451.57
990.927	2451.35
991.224	2422.65
991.521	2438.01
991.819	2419.94
992.116	2407.51
992.413	2417
992.71	2391.69
993.006	2378.58
993.303	2338.36
993.6	2367.96
993.897	2353.27
994.193	2354.63
994.49	2295.87
994.787	2292.93
995.083	2292.48
995.379	2299.04
995.676	2255.42
995.972	2260.62
996.268	2255.65
996.565	2245.93
996.861	2243.44
997.157	2243.44
997.453	2214.97
997.749	2191.69
998.044	2159.6
998.34	2181.52
998.636	2185.14
998.932	2162.99
999.227	2133.62
999.523	2152.37
999.818	2118.02
1000.114	2125.03
1000.409	2117.57
1000.704	2075.09
1001	2096.56
1001.295	2052.71
1001.59	2050.45
1001.885	2069.66
1002.18	2015.43
1002.475	2054.97
1002.77	2014.98
1003.065	1998.25
1003.359	2001.87
1003.654	1994.18
1003.949	1979.95
1004.243	1941.08
1004.538	1947.41
1004.832	1968.42
1005.127	1921.19
1005.421	1931.14
1005.715	1885.71
1006.009	1881.87
1006.304	1888.2
1006.598	1904.7
1006.892	1852.72
1007.186	1847.75
1007.48	1863.11
1007.773	1843
1008.067	1809.1
1008.361	1787.86
1008.655	1811.82
1008.948	1783.12
1009.242	1774.08
1009.535	1762.78
1009.829	1745.83
1010.122	1731.59
1010.415	1756.23
1010.708	1739.5
1011.001	1737.24
1011.295	1703.8
1011.588	1687.75
1011.881	1696.79
1012.173	1681.88
1012.466	1664.25
1012.759	1660.63
1013.052	1641.2
1013.344	1623.35
1013.637	1647.3
1013.93	1621.31
1014.222	1615.21
1014.514	1617.47
1014.807	1584.48
1015.099	1576.12
1015.391	1571.82
1015.683	1528.43
1015.976	1569.11
1016.268	1545.61
1016.56	1538.15
1016.851	1523.01
1017.143	1515.1
1017.435	1505.84
1017.727	1482.56
1018.018	1501.32
1018.31	1490.92
1018.602	1486.85
1018.893	1483.46
1019.185	1451.37
1019.476	1461.32
1019.767	1438.49
1020.058	1410.92
1020.35	1406.63
1020.641	1383.13
1020.932	1395.33
1021.223	1387.87
1021.514	1362.11
1021.804	1340.64
1022.095	1379.06
1022.386	1348.1
1022.677	1344.26
1022.967	1310.14
1023.258	1328.44
1023.548	1310.59
1023.839	1299.29
1024.129	1293.86
1024.419	1310.59
1024.709	1285.95
1025	1285.73
1025.29	1255.45
1025.58	1248.22
1025.87	1231.04
1026.16	1244.6
1026.449	1213.41
1026.739	1224.49
1027.029	1209.35
1027.319	1211.61
1027.608	1192.62
1027.898	1214.32
1028.187	1186.07
1028.477	1189.91
1028.766	1154.43
1029.055	1166.64
1029.344	1151.04
1029.634	1162.34
1029.923	1141.1
1030.212	1113.76
1030.501	1142.91
1030.79	1116.47
1031.078	1108.56
1031.367	1114.66
1031.656	1091.61
1031.945	1093.19
1032.233	1081.21
1032.522	1055.45
1032.81	1078.5
1033.099	1069.24
1033.387	1055.45
1033.675	1059.07
1033.963	1066.98
1034.251	1045.96
1034.54	1012.74
1034.828	1025.62
1035.116	1032.18
1035.403	1018.39
1035.691	1008
1035.979	998.73
1036.267	991.95
1036.554	984.72
1036.842	958.73
1037.129	942.69
1037.417	959.86
1037.704	958.51
1037.992	959.18
1038.279	960.54
1038.566	919.41
1038.853	919.41
1039.14	919.41
