Data from hue_340_FLMS001491_84.txt Node
Date: Mon Feb 06 15:43:44 GMT 2017
User: dcchb
Spectrometer: FLMS00149
Trigger mode: 0
Integration Time (sec): 2.000000E-2
Scans to average: 10
Electric dark correction enabled: true
Nonlinearity correction enabled: false
Boxcar width: 0
XAxis mode: Wavelengths
Number of Pixels in Spectrum: 2048
>>>>>Begin Spectral Data<<<<<
341.393	-4.84
341.776	-4.84
342.16	-4.84
342.543	-51.17
342.927	-73.09
343.31	-69.25
343.693	-66.99
344.077	-78.74
344.46	-62.92
344.843	-53.66
345.226	-40.78
345.61	-37.39
345.993	-25.86
346.376	-17.05
346.759	22.95
347.142	15.04
347.525	55.94
347.908	61.37
348.291	84.19
348.674	102.95
349.057	110.18
349.44	132.33
349.823	162.83
350.206	156.06
350.588	197.64
350.971	220.46
351.354	224.3
351.737	241.02
352.119	257.3
352.502	247.58
352.884	256.39
353.267	278.31
353.65	278.99
354.032	290.51
354.414	311.76
354.797	318.08
355.179	298.2
355.562	310.85
355.944	328.48
356.326	306.11
356.709	316.5
357.091	348.14
357.473	333.68
357.855	324.41
358.238	340.23
358.62	347.01
359.002	361.02
359.384	347.46
359.766	328.71
360.148	347.69
360.53	330.29
360.912	337.07
361.294	338.65
361.676	339.33
362.057	333.9
362.439	313.11
362.821	322.83
363.203	308.59
363.584	337.75
363.966	323.73
364.348	325.99
364.729	340.68
365.111	316.28
365.493	320.8
365.874	321.47
366.256	315.37
366.637	296.39
367.019	306.33
367.4	311.98
367.781	307.46
368.163	324.41
368.544	320.8
368.925	301.59
369.306	329.84
369.688	303.4
370.069	316.05
370.45	301.59
370.831	324.86
371.212	293.68
371.593	314.7
371.974	306.33
372.355	317.86
372.736	317.18
373.117	310.4
373.498	299.1
373.879	321.25
374.26	312.21
374.641	305.66
375.021	321.93
375.402	333.45
375.783	318.99
376.163	312.21
376.544	320.12
376.925	342.04
377.305	326.45
377.686	325.09
378.066	317.18
378.447	325.54
378.827	307.69
379.208	324.41
379.588	337.07
379.968	323.28
380.349	309.72
380.729	356.5
381.109	334.36
381.489	341.36
381.87	348.82
382.25	341.36
382.63	323.28
383.01	332.1
383.39	350.63
383.77	328.25
384.15	326.22
384.53	334.36
384.91	341.59
385.29	326.45
385.67	339.33
386.049	349.95
386.429	325.09
386.809	348.59
387.189	359.21
387.568	346.33
387.948	338.42
388.328	357.41
388.707	351.53
389.087	342.72
389.466	344.75
389.846	369.83
390.225	330.97
390.605	365.54
390.984	352.66
391.363	373.9
391.743	351.08
392.122	370.74
392.501	332.77
392.881	367.58
393.26	375.94
393.639	361.93
394.018	362.15
394.397	348.82
394.776	351.76
395.155	370.06
395.534	379.55
395.913	356.28
396.292	377.74
396.671	363.06
397.05	374.58
397.429	372.77
397.808	384.3
398.186	372.32
398.565	386.11
398.944	380.23
399.323	365.32
399.701	376.16
400.08	377.97
400.458	401.02
400.837	390.17
401.215	390.4
401.594	387.69
401.972	389.95
402.351	405.99
402.729	418.2
403.107	409.38
403.486	387.69
403.864	415.03
404.242	388.82
404.62	401.02
404.999	413.45
405.377	408.03
405.755	398.31
406.133	387.01
406.511	424.07
406.889	424.75
407.267	424.97
407.645	427.91
408.023	412.32
408.401	428.14
408.779	411.42
409.156	434.47
409.534	455.03
409.912	429.27
410.29	447.35
410.667	437.4
411.045	444.18
411.422	440.79
411.8	447.8
412.178	454.35
412.555	464.52
412.933	477.63
413.31	478.98
413.687	500.68
414.065	492.77
414.442	490.28
414.819	484.41
415.197	507.46
415.574	500.9
415.951	511.07
416.328	508.36
416.705	496.39
417.082	509.27
417.46	524.86
417.837	520.57
418.214	531.41
418.591	524.63
418.967	539.32
419.344	536.16
419.721	520.11
420.098	545.2
420.475	538.19
420.852	572.09
421.228	556.95
421.605	554.01
421.982	566.89
422.358	565.31
422.735	582.26
423.111	570.06
423.488	594.69
423.864	585.65
424.241	589.94
424.617	596.72
424.994	617.06
425.37	594.01
425.746	616.38
426.123	612.77
426.499	614.35
426.875	623.61
427.251	617.74
427.627	645.76
428.003	631.07
428.379	619.32
428.756	623.16
429.132	628.81
429.507	638.75
429.883	661.8
430.259	652.09
430.635	671.52
431.011	663.84
431.387	703.39
431.763	688.47
432.138	688.24
432.514	699.77
432.89	705.42
433.265	716.72
433.641	724.63
434.016	728.02
434.392	736.6
434.767	735.02
435.143	715.59
435.518	744.06
435.894	738.41
436.269	752.88
436.644	775.02
437.02	763.5
437.395	796.94
437.77	779.32
438.145	812.08
438.52	801.24
438.895	796.72
439.271	792.2
439.646	827.45
440.021	836.04
440.395	830.39
440.77	814.12
441.145	837.85
441.52	846.21
441.895	849.37
442.27	840.78
442.645	842.59
443.019	871.97
443.394	868.58
443.769	884.4
444.143	882.59
444.518	863.16
444.892	880.78
445.267	863.16
445.641	902.02
446.016	923.27
446.39	905.19
446.764	902.48
447.139	911.52
447.513	910.39
447.887	926.66
448.262	893.66
448.636	927.79
449.01	922.36
449.384	926.66
449.758	937.5
450.132	954.68
450.506	935.92
450.88	975.47
451.254	935.7
451.628	967.11
452.002	950.38
452.376	956.26
452.75	956.03
453.123	999.87
453.497	987.22
453.871	980.44
454.244	1010.27
454.618	983.15
454.992	1018.41
455.365	1003.49
455.739	1034
456.112	1038.52
456.486	1060.66
456.859	1052.98
457.232	1065.18
457.606	1093.88
457.979	1079.65
458.352	1109.02
458.725	1101.34
459.099	1104.28
459.472	1129.14
459.845	1135.01
460.218	1131.62
460.591	1123.04
460.964	1165.52
461.337	1146.54
461.71	1159.64
462.083	1197.38
462.456	1212.3
462.829	1201.9
463.201	1191.51
463.574	1197.38
463.947	1238.74
464.32	1237.83
464.692	1267.21
465.065	1255.24
465.438	1295.01
465.81	1290.26
466.183	1309.02
466.555	1327.1
466.928	1313.76
467.3	1325.52
467.672	1340.88
468.045	1378.85
468.417	1365.74
468.789	1372.97
469.161	1411.84
469.534	1416.14
469.906	1440.54
470.278	1446.64
470.65	1475.57
471.022	1461.56
471.394	1516.02
471.766	1511.05
472.138	1528.45
472.51	1548.33
472.882	1584.94
473.253	1586.3
473.625	1597.15
473.997	1633.53
474.369	1660.2
474.74	1662.46
475.112	1693.64
475.484	1746.75
475.855	1718.27
476.227	1769.57
476.598	1801.21
476.97	1798.5
477.341	1826.07
477.713	1870.59
478.084	1872.39
478.455	1941.32
478.827	1944.26
479.198	1982.22
479.569	1983.13
479.94	2034.65
480.311	2059.28
480.682	2101.09
481.053	2109.22
481.424	2176.79
481.795	2170.47
482.166	2216.79
482.537	2236.68
482.908	2264.25
483.279	2302.44
483.65	2361.87
484.021	2368.65
484.391	2383.79
484.762	2421.08
485.133	2436.45
485.503	2497.69
485.874	2504.24
486.244	2548.99
486.615	2646.39
486.985	2632.37
487.356	2679.83
487.726	2667.85
488.097	2747.63
488.467	2752.37
488.837	2796.89
489.207	2799.6
489.578	2863.33
489.948	2887.51
490.318	2911.69
490.688	2928.19
491.058	2992.82
491.428	3019.03
491.798	3032.36
492.168	3094.74
492.538	3084.34
492.908	3137.22
493.278	3170.21
493.648	3184.68
494.017	3209.53
494.387	3259.25
494.757	3240.27
495.126	3301.96
495.496	3296.54
495.866	3336.76
496.235	3358.23
496.605	3391
496.974	3405.01
497.344	3453.14
497.713	3469.19
498.082	3485.01
498.452	3520.49
498.821	3522.52
499.19	3554.84
499.559	3591.22
499.928	3574.04
500.298	3608.85
500.667	3607.94
501.036	3596.42
501.405	3663.76
501.774	3710.31
502.143	3666.92
502.512	3736.07
502.88	3748.73
503.249	3768.84
503.618	3753.02
503.987	3783.3
504.356	3798.22
504.724	3814.72
505.093	3844.55
505.462	3837.77
505.83	3862.17
506.199	3919.57
506.567	3915.5
506.936	3934.03
507.304	3926.13
507.672	3935.16
508.041	3951.21
508.409	3990.3
508.777	4004.09
509.145	4058.55
509.514	3996.18
509.882	4061.26
510.25	4066.01
510.618	4067.82
510.986	4109.4
511.354	4152.56
511.722	4140.81
512.09	4205.44
512.458	4168.61
512.826	4196.4
513.193	4235.27
513.561	4189.17
513.929	4260.35
514.297	4271.65
514.664	4293.35
515.032	4299.22
515.4	4295.38
515.767	4323.86
516.135	4376.96
516.502	4317.3
516.869	4401.59
517.237	4379
517.604	4345.78
517.972	4397.98
518.339	4441.37
518.706	4414.25
519.073	4450.41
519.44	4464.42
519.808	4468.48
520.175	4492.44
520.542	4486.11
520.909	4541.93
521.276	4556.84
521.643	4547.58
522.009	4606.79
522.376	4606.33
522.743	4610.85
523.11	4643.17
523.477	4625.32
523.843	4699.89
524.21	4720
524.577	4765.88
524.943	4800.45
525.31	4780.34
525.676	4824.86
526.043	4849.27
526.409	4843.39
526.776	4879.32
527.142	4909.38
527.508	4955.03
527.874	4956.83
528.241	4965.87
528.607	4970.84
528.973	5085.42
529.339	5061.01
529.705	5043.61
530.071	5113.44
530.437	5144.17
530.803	5141.23
531.169	5158.18
531.535	5180.56
531.901	5148.47
532.267	5242.02
532.632	5251.51
532.998	5249.03
533.364	5305.07
533.73	5266.2
534.095	5383.49
534.461	5363.38
534.826	5377.84
535.192	5416.93
535.557	5435.46
535.923	5476.37
536.288	5458.97
536.653	5451.28
537.019	5476.82
537.384	5458.29
537.749	5547.55
538.114	5538.06
538.479	5579.19
538.845	5603.6
539.21	5623.93
539.575	5661.22
539.94	5629.81
540.305	5658.51
540.67	5718.85
541.034	5738.06
541.399	5737.6
541.764	5793.65
542.129	5813.08
542.494	5816.02
542.858	5887.43
543.223	5874.32
543.587	5885.4
543.952	5919.07
544.316	5885.17
544.681	5947.54
545.045	5964.26
545.41	6013.3
545.774	6002.23
546.138	6073.41
546.503	6071.15
546.867	6085.39
547.231	6100.76
547.595	6152.96
547.959	6158.16
548.324	6162.9
548.688	6158.84
549.052	6252.39
549.416	6212.39
549.779	6265.05
550.143	6284.71
550.507	6333.29
550.871	6267.76
551.235	6263.69
551.599	6363.58
551.962	6400.86
552.326	6355.21
552.689	6407.42
553.053	6468.66
553.417	6401.99
553.78	6550.01
554.143	6504.59
554.507	6517.47
554.87	6524.25
555.234	6609.44
555.597	6556.34
555.96	6577.13
556.323	6587.75
556.686	6607.41
557.05	6658.71
557.413	6704.36
557.776	6686.96
558.139	6664.13
558.502	6793.85
558.865	6743
559.228	6768.54
559.59	6760.18
559.953	6795.2
560.316	6846.73
560.679	6885.37
561.041	6884.47
561.404	6927.63
561.767	6960.17
562.129	6910
562.492	6976.89
562.854	7034.52
563.217	7001.07
563.579	7029.55
563.941	7062.09
564.304	7079.26
564.666	7073.39
565.028	7154.06
565.39	7142.09
565.753	7220.28
566.115	7174.18
566.477	7231.58
566.839	7262.76
567.201	7330.1
567.563	7312.25
567.925	7356.09
568.287	7344.11
568.648	7383.89
569.01	7435.64
569.372	7475.64
569.734	7432.02
570.095	7516.09
570.457	7570.1
570.819	7581.17
571.18	7588.85
571.542	7647.16
571.903	7682.64
572.265	7671.34
572.626	7720.6
572.987	7766.48
573.349	7822.29
573.71	7861.62
574.071	7908.85
574.432	7965.57
574.794	8060.48
575.155	8036.07
575.516	8039.92
575.877	8194.94
576.238	8279.23
576.599	8342.73
576.96	8371.43
577.32	8414.37
577.681	8431.32
578.042	8597.87
578.403	8673.35
578.763	8726.23
579.124	8769.61
579.485	8909.05
579.845	9002.15
580.206	9054.58
580.566	9189.72
580.927	9304.06
581.287	9464.74
581.648	9459.31
582.008	9635.58
582.368	9753.09
582.728	9901.34
583.089	10038.06
583.449	10210.25
583.809	10295.68
584.169	10475.78
584.529	10665.61
584.889	10939.27
585.249	10930.46
585.609	11050.68
585.969	11395.99
586.329	11433.5
586.688	11732.93
587.048	11857.89
587.408	12037.1
587.768	12411.78
588.127	12445.22
588.487	12715.27
588.846	12956.62
589.206	13188.25
589.565	13341.47
589.925	13674.12
590.284	13826.66
590.643	14117.27
591.003	14452.4
591.362	14680.19
591.721	14871.83
592.08	15258.71
592.44	15485.6
592.799	15743.44
593.158	15949.99
593.517	16100.49
593.876	16539.13
594.235	16727.37
594.593	17066.12
594.952	17402.16
595.311	17540.68
595.67	17860.45
596.029	18171.17
596.387	18519.19
596.746	18889.35
597.104	19067.65
597.463	19287.98
597.822	19692.94
598.18	19924.8
598.538	20138.58
598.897	20481.85
599.255	20566.59
599.613	21102.17
599.972	21256.52
600.33	21593.68
600.688	21800.46
601.046	22167.91
601.404	22525.86
601.762	22747.33
602.12	23049.92
602.478	23311.83
602.836	23540.98
603.194	23627.75
603.552	23938.25
603.91	24082.88
604.268	24424.34
604.625	24602.64
604.983	25066.81
605.341	25043.54
605.698	25485.11
606.056	25727.59
606.413	25815.95
606.771	26207.57
607.128	26482.59
607.485	26543.61
607.843	26840.55
608.2	27035.57
608.557	27399.63
608.914	27612.28
609.272	27866.74
609.629	27990.8
609.986	28312.38
610.343	28326.61
610.7	28763.66
611.057	28917.11
611.414	29116.65
611.771	29212.01
612.127	29434.16
612.484	29644.09
612.841	29940.58
613.198	29934.71
613.554	30190.75
613.911	30495.14
614.267	30614.46
614.624	30624.63
614.98	30891.29
615.337	31224.16
615.693	31189.14
616.05	31362.69
616.406	31733.53
616.762	31665.51
617.118	31821.21
617.475	32053.97
617.831	32302.1
618.187	32419.39
618.543	32560.17
618.899	32767.63
619.255	32845.82
619.611	32901.86
619.967	32955.64
620.323	33116.54
620.678	33288.29
621.034	33303.88
621.39	33415.97
621.746	33445.12
622.101	33877.65
622.457	33684.21
622.812	33791.1
623.168	33945.45
623.523	33974.38
623.879	34385.66
624.234	34079.23
624.589	34311.09
624.945	34473.12
625.3	34515.38
625.655	34492.55
626.01	34720.34
626.365	34780.23
626.72	34766.22
627.075	34823.84
627.43	34863.39
627.785	34880.11
628.14	34988.59
628.495	35098.87
628.85	35132.54
629.205	35147.45
629.559	35299.09
629.914	35183.61
630.269	35326.88
630.623	35220.67
630.978	35185.64
631.332	35516.03
631.687	35546.09
632.041	35334.79
632.396	35347.45
632.75	35417.73
633.104	35503.37
633.459	35399.2
633.813	35434.22
634.167	35490.27
634.521	35550.6
634.875	35611.39
635.229	35590.6
635.583	35401.23
635.937	35412.76
636.291	35411.63
636.645	35523.03
636.999	35553.77
637.352	35650.26
637.706	35429.25
638.06	35600.1
638.413	35607.1
638.767	35419.99
639.121	35448.01
639.474	35411.17
639.828	35381.8
640.181	35404.85
640.534	35479.87
640.888	35363.72
641.241	35310.61
641.594	35382.93
641.947	35522.81
642.301	35464.05
642.654	35663.82
643.007	35374.11
643.36	35518.52
643.713	35305.64
644.066	35609.13
644.419	35265.41
644.771	35037.4
645.124	34842.6
645.477	34722.15
645.83	34499.78
646.182	34318.09
646.535	34373.69
646.888	34507.92
647.24	34233.13
647.593	34442.39
647.945	34471.31
648.298	34201.71
648.65	34216.63
649.002	34220.47
649.355	34328.49
649.707	34187.7
650.059	34319.9
650.411	34731.19
650.763	34725.54
651.115	35147.9
651.467	35270.39
651.819	35050.05
652.171	34913.11
652.523	34954.91
652.875	34991.75
653.227	34771.64
653.578	35113.1
653.93	34916.5
654.282	34877.85
654.633	34738.2
654.985	34877.85
655.337	34864.75
655.688	34848.02
656.039	35006.44
656.391	34648.93
656.742	34808.7
657.094	34629.05
657.445	34824.52
657.796	34696.16
658.147	34754.02
658.498	34753.56
658.849	34744.07
659.2	34789.27
659.551	34615.26
659.902	34855.03
660.253	34759.44
660.604	34737.74
660.955	34523.97
661.306	34711.53
661.656	34520.12
662.007	34753.11
662.358	34583.4
662.708	34630.4
663.059	34588.14
663.409	34510.41
663.76	34650.74
664.11	34600.12
664.461	34608.93
664.811	34592.66
665.161	34530.52
665.511	34444.42
665.862	34622.72
666.212	34701.59
666.562	34653.68
666.912	34621.59
667.262	34493.23
667.612	34620.01
667.962	34538.43
668.312	34499.56
668.662	34724.86
669.011	34535.72
669.361	34519.22
669.711	34445.32
670.06	34586.56
670.41	34300.24
670.76	34345.89
671.109	34499.78
671.459	34295.27
671.808	34291.88
672.157	34483.29
672.507	34230.87
672.856	34159.68
673.205	34258.66
673.554	34397.19
673.904	34160.81
674.253	34532.55
674.602	34450.07
674.951	33831.1
675.3	33698
675.649	34277.64
675.998	34211.2
676.346	34203.52
676.695	34341.82
677.044	34055.95
677.393	34087.59
677.741	34233.13
678.09	34107.03
678.438	34000.59
678.787	34030.42
679.135	34058.89
679.484	33889.63
679.832	33891.89
680.181	33837.66
680.529	33958.78
680.877	33813.93
681.225	33775.96
681.573	34036.07
681.922	33689.64
682.27	33592.92
682.618	33770.31
682.966	33532.58
683.314	33604.44
683.661	33501.17
684.009	33469.76
684.357	33290.1
684.705	33315.18
685.053	33286.71
685.4	33271.79
685.748	33185.7
686.095	33071.12
686.443	32999.71
686.79	32836.55
687.138	33013.72
687.485	33020.05
687.832	32889.43
688.18	32797.46
688.527	32713.62
688.874	32744.8
689.221	32787.06
689.568	32575.09
689.915	32498.26
690.262	32510.01
690.609	32301.88
690.956	32336.68
691.303	32272.05
691.65	32000.19
691.997	32083.13
692.344	31952.51
692.69	31861.89
693.037	31999.96
693.383	31688.11
693.73	31831.61
694.077	31522.01
694.423	31615.79
694.769	31481.79
695.116	31385.06
695.462	31440.2
695.808	31337.38
696.155	31310.94
696.501	31099.87
696.847	31114.79
697.193	30913.44
697.539	31095.58
697.885	30779.88
698.231	30669.38
698.577	30751.63
698.923	30769.71
699.269	30602.94
699.614	30402.49
699.96	30348.26
700.306	30390.29
700.651	30201.82
700.997	30161.14
701.342	30013.35
701.688	30038.89
702.033	29960.92
702.379	30010.19
702.724	29866.01
703.069	29782.62
703.415	29590.08
703.76	29632.79
704.105	29724.54
704.45	29579.24
704.795	29307.61
705.14	29377.66
705.485	29264.44
705.83	28986.48
706.175	29136.99
706.52	29070.32
706.865	29044.34
707.209	28933.38
707.554	28771.57
707.899	28911.68
708.243	28760.05
708.588	28694.06
708.932	28577.91
709.277	28521.64
709.621	28494.75
709.966	28396.67
710.31	28420.85
710.654	28174.98
710.998	28282.1
711.342	28279.61
711.687	28174.08
712.031	28015.66
712.375	27933.18
712.719	27979.28
713.063	27920.52
713.407	28009.11
713.75	27901.09
714.094	27751.04
714.438	27677.14
714.782	27686.86
715.125	27488.22
715.469	27580.19
715.812	27465.39
716.156	27383.14
716.499	27302.69
716.843	27351.95
717.186	27130.71
717.53	27239.18
717.873	27265.4
718.216	27177.04
718.559	27068.12
718.902	26884.17
719.246	26959.42
719.589	26940.66
719.932	26726.43
720.275	26855.01
720.617	26793.77
720.96	26740.67
721.303	26722.59
721.646	26734.34
721.989	26547.45
722.331	26688.24
722.674	26620.22
723.016	26543.38
723.359	26505.19
723.701	26449.38
724.044	26262.49
724.386	26136.84
724.729	26363.95
725.071	26173.68
725.413	26164.64
725.755	26155.15
726.097	26075.6
726.439	26006
726.782	25969.84
727.124	26069.05
727.465	25917.19
727.807	25820.01
728.149	25830.41
728.491	25824.76
728.833	25891.88
729.175	25760.13
729.516	25639.45
729.858	25697.53
730.199	25601.94
730.541	25654.59
730.882	25604.88
731.224	25696.17
731.565	25466.35
731.906	25408.72
732.248	25492.79
732.589	25269.75
732.93	25207.37
733.271	25284.43
733.612	25378.89
733.953	25281.27
734.294	25177.32
734.635	25041.95
734.976	25285.11
735.317	24915.4
735.658	25027.72
735.999	24993.59
736.339	24973.03
736.68	25082.63
737.021	24897.55
737.361	24754.28
737.702	24941.39
738.042	24839.47
738.383	24716.31
738.723	24800.15
739.063	24693.04
739.404	24779.14
739.744	24699.14
740.084	24511.12
740.424	24575.53
740.764	24515.64
741.104	24688.07
741.444	24490.1
741.784	24467.73
742.124	24401.07
742.464	24409.65
742.804	24352.71
743.143	24230.22
743.483	24413.04
743.823	24193.62
744.162	24171.47
744.502	24263.67
744.841	24215.99
745.181	24205.82
745.52	24127.18
745.86	24134.18
746.199	23969.44
746.538	23881.53
746.877	24003.11
747.216	23972.6
747.556	23921.53
747.895	23930.57
748.234	23673.18
748.573	23738.94
748.911	23705.72
749.25	23791.14
749.589	23524.03
749.928	23684.02
750.267	23705.94
750.605	23553.41
750.944	23508.44
751.283	23435.9
751.621	23477.93
751.96	23296.46
752.298	23267.09
752.636	23404.26
752.975	23215.34
753.313	23160.2
753.651	23193.64
753.989	23127.88
754.327	23050.82
754.666	23018.28
755.004	23026.19
755.342	23009.92
755.679	22920.43
756.017	22686.99
756.355	22910.94
756.693	22735.8
757.031	22688.12
757.368	22650.38
757.706	22608.12
758.044	22480.89
758.381	22502.81
758.719	22438.18
759.056	22408.58
759.394	22407.22
759.731	22228.47
760.068	22141.47
760.405	22106.89
760.743	22094.69
761.08	22150.96
761.417	22017.4
761.754	21889.72
762.091	21924.52
762.428	21852.66
762.765	21674.36
763.102	21790.51
763.438	21693.34
763.775	21493.35
764.112	21588.94
764.449	21460.13
764.785	21299.68
765.122	21358.89
765.458	21094.49
765.795	21060.14
766.131	21085.67
766.467	21144.43
766.804	20983.3
767.14	20859.69
767.476	20839.35
767.812	20781.28
768.148	20778.79
768.485	20714.61
768.821	20534.73
769.157	20398.46
769.492	20468.74
769.828	20427.39
770.164	20218.58
770.5	20141.29
770.836	20196.88
771.171	20003.44
771.507	20098.58
771.842	19888.87
772.178	19903.11
772.513	19729.78
772.849	19806.16
773.184	19751.92
773.519	19649.1
773.855	19620.63
774.19	19537.69
774.525	19405.72
774.86	19387.64
775.195	19407.98
775.53	19304.03
775.865	19144.03
776.2	19026.29
776.535	18933.19
776.87	18935.67
777.205	18892.06
777.539	18718.28
777.874	18794.44
778.209	18673.53
778.543	18579.53
778.878	18581.11
779.212	18504.27
779.547	18412.3
779.881	18447.55
780.215	18228.8
780.55	18219.08
780.884	18260.21
781.218	18041.46
781.552	18049.82
781.886	18022.48
782.22	17800.56
782.554	17896.15
782.888	17743.84
783.222	17627.69
783.556	17578.2
783.889	17564.19
784.223	17421.59
784.557	17448.71
784.89	17356.28
785.224	17345.43
785.557	17255.94
785.891	17220.92
786.224	17101.6
786.558	17116.74
786.891	17032.9
787.224	16987.48
787.557	16847.37
787.891	16847.37
788.224	16815.73
788.557	16753.81
788.89	16749.74
789.223	16627.49
789.556	16589.97
789.888	16486.47
790.221	16445.12
790.554	16389.98
790.887	16363.31
791.219	16306.37
791.552	16188.63
791.884	16182.53
792.217	16093.26
792.549	16148.18
792.882	15982.31
793.214	15957.9
793.546	15912.7
793.879	15853.72
794.211	15725.82
794.543	15872.03
794.875	15659.38
795.207	15654.18
795.539	15601.52
795.871	15560.4
796.203	15466.84
796.535	15361.31
796.867	15357.69
797.198	15265.49
797.53	15263.68
797.862	15166.96
798.193	15185.49
798.525	15094.87
798.856	15082.44
799.188	14968.32
799.519	14882.67
799.85	14874.09
800.182	14837.25
800.513	14878.15
800.844	14669.12
801.175	14738.95
801.506	14729.91
801.837	14651.95
802.168	14595.45
802.499	14470.03
802.83	14512.51
803.161	14386.19
803.491	14504.83
803.822	14473.19
804.153	14315
804.483	14239.98
804.814	14117.72
805.145	14107.78
805.475	14218.06
805.805	14135.12
806.136	14124.5
806.466	14137.83
806.796	14051.51
807.126	13908.46
807.457	13837.5
807.787	13942.36
808.117	13905.52
808.447	13749.14
808.777	13851.97
809.107	13813.55
809.436	13730.16
809.766	13691.52
810.096	13616.27
810.426	13507.57
810.755	13568.58
811.085	13520.68
811.414	13481.13
811.744	13345.31
812.073	13392.54
812.403	13378.08
812.732	13305.77
813.061	13327.01
813.39	13183.96
813.719	13233
814.049	13285.2
814.378	13221.93
814.707	13116.84
815.036	13042.27
815.365	13013.34
815.693	12966.79
816.022	12908.26
816.351	12955.04
816.68	12811.09
817.008	12868.49
817.337	12754.37
817.665	12771.09
817.994	12754.14
818.322	12748.04
818.651	12672.11
818.979	12672.79
819.307	12716.85
819.636	12757.31
819.964	12562.73
820.292	12703.97
820.62	12609.29
820.948	12515.05
821.276	12565.45
821.604	12572
821.932	12545.79
822.259	12494.49
822.587	12550.08
822.915	12531.78
823.243	12563.64
823.57	12442.29
823.898	12520.7
824.225	12453.13
824.553	12459.46
824.88	12502.62
825.207	12391.21
825.535	12496.52
825.862	12484.77
826.189	12442.29
826.516	12482.06
826.843	12540.59
827.17	12434.38
827.497	12512.11
827.824	12468.27
828.151	12489.06
828.478	12471.44
828.805	12490.42
829.131	12430.53
829.458	12426.92
829.785	12389.18
830.111	12343.31
830.438	12432.79
830.764	12423.08
831.09	12431.66
831.417	12381.5
831.743	12455.84
832.069	12341.5
832.395	12327.03
832.722	12418.78
833.048	12302.85
833.374	12280.93
833.7	12280.03
834.026	12262.63
834.351	12279.8
834.677	12293.82
835.003	12327.94
835.329	12326.13
835.654	12200.94
835.98	12142.63
836.306	12216.98
836.631	12105.35
836.956	12284.1
837.282	12131.79
837.607	12133.14
837.932	12134.05
838.258	12105.35
838.583	12089.07
838.908	12013.14
839.233	12070.09
839.558	12027.61
839.883	11994.39
840.208	11966.59
840.533	11914.84
840.858	11977.67
841.182	11929.3
841.507	11934.95
841.832	11803.88
842.156	11868.06
842.481	11853.6
842.805	11823.32
843.13	11799.59
843.454	11758.69
843.778	11666.49
844.103	11729.99
844.427	11560.28
844.751	11613.16
845.075	11640.95
845.399	11652.02
845.723	11569.77
846.047	11525.02
846.371	11448.87
846.695	11406.83
847.019	11327.96
847.343	11212.49
847.666	11224.92
847.99	11137.01
848.313	11189.21
848.637	11080.29
848.96	11179.72
849.284	11044.13
849.607	10993.28
849.931	10831.48
850.254	10852.05
850.577	10820.18
850.9	10765.04
851.223	10783.57
851.546	10660.19
851.869	10667.87
852.192	10640.75
852.515	10537.7
852.838	10513.75
853.161	10489.12
853.483	10484.6
853.806	10468.78
854.129	10431.04
854.451	10383.13
854.774	10305.17
855.096	10334.09
855.419	10254.55
855.741	10281.89
856.063	10193.53
856.385	10177.49
856.708	10165.96
857.03	10127.09
857.352	10125.51
857.674	10086.64
857.996	9999.41
858.318	10024.95
858.64	10017.49
858.961	10066.3
859.283	9887.78
859.605	9874.22
859.926	9890.49
860.248	9857.72
860.57	9787.67
860.891	9844.61
861.212	9727.55
861.534	9765.07
861.855	9730.49
862.176	9674.22
862.498	9690.95
862.819	9673.32
863.14	9633.32
863.461	9642.13
863.782	9551.74
864.103	9628.8
864.424	9580.89
864.745	9551.29
865.065	9478.97
865.386	9511.06
865.707	9474.68
866.027	9504.51
866.348	9439.2
866.668	9485.98
866.989	9414.57
867.309	9342.03
867.63	9459.09
867.95	9435.13
868.27	9317.85
868.59	9367.11
868.91	9324.4
869.23	9258.19
869.55	9284.85
869.87	9336.15
870.19	9230.84
870.51	9315.14
870.83	9226.1
871.15	9183.61
871.469	9149.49
871.789	9163.73
872.109	9158.08
872.428	9093
872.748	9186.55
873.067	9138.64
873.386	9166.44
873.706	9096.39
874.025	9055.71
874.344	9013.68
874.663	9024.75
874.982	9017.97
875.301	9034.24
875.62	8958.76
875.939	8907.01
876.258	8953.56
876.577	8912.89
876.896	8989.72
877.214	8924.41
877.533	8917.86
877.852	8947.91
878.17	8938.42
878.489	8912.21
878.807	8895.71
879.125	8884.64
879.444	8914.24
879.762	8823.17
880.08	8830.18
880.398	8776.17
880.716	8792.44
881.034	8746.79
881.352	8775.94
881.67	8686.68
881.988	8728.26
882.306	8672.22
882.624	8646.68
882.941	8631.54
883.259	8615.72
883.577	8579.56
883.894	8577.98
884.212	8534.82
884.529	8546.8
884.846	8542.95
885.164	8535.95
885.481	8495.04
885.798	8546.57
886.115	8411.21
886.432	8390.64
886.75	8407.82
887.067	8418.66
887.383	8358.55
887.7	8309.97
888.017	8314.26
888.334	8285.33
888.651	8265.22
888.967	8271.55
889.284	8242.4
889.6	8212.57
889.917	8161.27
890.233	8143.19
890.55	8142.96
890.866	8192.68
891.182	8101.16
891.498	8028.16
891.815	8114.04
892.131	7995.62
892.447	7996.08
892.763	7953.82
893.079	7982.29
893.395	7944.33
893.71	7892.8
894.026	7877.66
894.342	7858
894.657	7820.71
894.973	7870.2
895.289	7822.29
895.604	7765.35
895.92	7690.55
896.235	7675.41
896.55	7685.57
896.865	7688.06
897.181	7607.84
897.496	7585.01
897.811	7558.12
898.126	7526.26
898.441	7543.43
898.756	7550.66
899.071	7444.23
899.386	7447.61
899.7	7412.14
900.015	7392.25
900.33	7363.32
900.644	7343.21
900.959	7322.65
901.273	7316.09
901.588	7270.22
901.902	7242.65
902.216	7199.03
902.531	7221.86
902.845	7131.01
903.159	7132.14
903.473	7076.33
903.787	7049.66
904.101	7055.99
904.415	7063.22
904.729	6980.06
905.042	7018.93
905.356	6964.46
905.67	6919.49
905.984	6988.19
906.297	6878.59
906.611	6875.2
906.924	6835.65
907.237	6871.58
907.551	6789.78
907.864	6776.9
908.177	6757.69
908.491	6707.52
908.804	6691.93
909.117	6701.42
909.43	6610.12
909.743	6594.76
910.056	6594.3
910.368	6592.5
910.681	6542.33
910.994	6509.11
911.307	6446.51
911.619	6419.39
911.932	6448.77
912.244	6388.89
912.557	6410.81
912.869	6361.99
913.181	6320.41
913.494	6356.12
913.806	6252.39
914.118	6240.19
914.43	6184.82
914.742	6232.73
915.054	6163.58
915.366	6118.84
915.678	6156.8
915.99	6099.63
916.302	6064.83
916.613	5996.35
916.925	6031.15
917.236	6019.4
917.548	5952.51
917.859	5938.73
918.171	5932.63
918.482	5901.44
918.794	5872.74
919.105	5805.4
919.416	5805.17
919.727	5795.68
920.038	5782.8
920.349	5756.81
920.66	5715.46
920.971	5698.73
921.282	5669.13
921.593	5643.14
921.903	5636.82
922.214	5615.8
922.525	5535.35
922.835	5572.18
923.146	5569.47
923.456	5465.75
923.767	5503.94
924.077	5466.42
924.387	5477.05
924.697	5403.15
925.008	5422.36
925.318	5410.61
925.628	5369.48
925.938	5313.21
926.248	5276.82
926.558	5234.57
926.867	5281.8
927.177	5244.28
927.487	5293.77
927.796	5175.58
928.106	5202.25
928.416	5166.54
928.725	5150.27
929.034	5151.63
929.344	5149.14
929.653	5083.38
929.962	5009.94
930.271	5025.53
930.581	5001.13
930.89	4984.4
931.199	4961.35
931.508	4959.54
931.817	4964.29
932.125	4908.02
932.434	4924.52
932.743	4852.2
933.051	4824.86
933.36	4798.42
933.669	4740.12
933.977	4722.71
934.286	4729.95
934.594	4777.85
934.902	4742.15
935.21	4706.22
935.519	4708.25
935.827	4654.47
936.135	4660.12
936.443	4633.23
936.751	4589.61
937.059	4601.36
937.367	4557.75
937.674	4566.11
937.982	4535.6
938.29	4503.51
938.597	4524.53
938.905	4428.94
939.213	4412.89
939.52	4437.07
939.827	4430.29
940.135	4400.92
940.442	4354.81
940.749	4339
941.056	4371.31
941.363	4336.51
941.67	4301.03
941.977	4269.17
942.284	4271.65
942.591	4217.87
942.898	4209.28
943.205	4204.76
943.511	4216.29
943.818	4167.7
944.125	4140.58
944.431	4141.94
944.738	4153.01
945.044	4119.34
945.35	4098.55
945.657	4071.43
945.963	4005.22
946.269	4024.65
946.575	4012.23
946.881	3993.47
947.187	4018.1
947.493	3939.91
947.799	3967.71
948.105	3960.47
948.41	3885.67
948.716	3909.18
949.022	3914.83
949.327	3915.96
949.633	3836.18
949.938	3847.71
950.244	3821.27
950.549	3798.9
950.854	3765
951.16	3787.37
951.465	3766.58
951.77	3721.16
952.075	3724.32
952.38	3686.58
952.685	3725
952.99	3701.95
953.294	3645.68
953.599	3602.74
953.904	3608.39
954.209	3555.74
954.513	3638.45
954.818	3579.02
955.122	3545.34
955.426	3550.99
955.731	3553.93
956.035	3539.92
956.339	3488.62
956.643	3464.22
956.948	3471.45
957.252	3477.32
957.556	3496.08
957.86	3454.5
958.163	3447.49
958.467	3406.59
958.771	3395.97
959.075	3400.72
959.378	3349.42
959.682	3390.55
959.985	3318.23
960.289	3317.78
960.592	3279.14
960.896	3286.37
961.199	3275.07
961.502	3252.92
961.805	3250.66
962.108	3216.09
962.411	3262.64
962.714	3217.22
963.017	3211.79
963.32	3189.42
963.623	3157.78
963.926	3147.61
964.228	3149.65
964.531	3093.61
964.833	3103.77
965.136	3105.58
965.438	3085.47
965.741	3044.79
966.043	3033.04
966.345	3035.08
966.648	3008.64
966.95	3038.69
967.252	2969.77
967.554	3014.96
967.856	2977.9
968.158	2909.88
968.46	2952.82
968.761	2939.03
969.063	2948.98
969.365	2900.84
969.666	2948.98
969.968	2868.3
970.269	2871.69
970.571	2853.39
970.872	2872.37
971.174	2863.78
971.475	2861.52
971.776	2817
972.077	2769.32
972.378	2788.53
972.679	2774.97
972.98	2779.94
973.281	2752.6
973.582	2760.51
973.883	2731.13
974.183	2720.06
974.484	2701.75
974.785	2691.36
975.085	2663.79
975.386	2693.84
975.686	2667.4
975.986	2667.63
976.287	2648.19
976.587	2647.06
976.887	2620.4
977.187	2609.55
977.487	2610.68
977.787	2566.61
978.087	2593.05
978.387	2551.25
978.687	2578.59
978.987	2528.2
979.286	2537.91
979.586	2512.83
979.885	2520.51
980.185	2493.62
980.484	2497.69
980.784	2489.1
981.083	2468.76
981.382	2474.19
981.682	2452.27
981.981	2456.33
982.28	2427.18
982.579	2407.52
982.878	2392.38
983.177	2388.76
983.475	2388.99
983.774	2374.08
984.073	2370.91
984.372	2351.7
984.67	2363.23
984.969	2326.62
985.267	2359.61
985.566	2299.5
985.864	2310.8
986.162	2303.12
986.461	2293.4
986.759	2291.59
987.057	2277.81
987.355	2241.65
987.653	2261.31
987.951	2211.14
988.249	2214.08
988.547	2217.24
988.844	2198.94
989.142	2170.01
989.44	2168.88
989.737	2176.34
990.035	2159.17
990.332	2172.05
990.63	2181.99
990.927	2142.67
991.224	2126.17
991.521	2134.76
991.819	2114.2
992.116	2098.15
992.413	2086.4
992.71	2082.78
993.006	2065.38
993.303	2049.56
993.6	2016.8
993.897	2034.2
994.193	2024.03
994.49	2000.75
994.787	1987.87
995.083	2015.22
995.379	2015.44
995.676	2000.3
995.972	2000.98
996.268	1985.16
996.565	1935.9
996.861	1944.93
997.157	1943.8
997.453	1913.07
997.749	1948.32
998.044	1921.66
998.34	1877.14
998.636	1881.66
998.932	1902
999.227	1862
999.523	1859.74
999.818	1841.66
1000.114	1864.94
1000.409	1855.9
1000.704	1829.46
1001	1819.97
1001.295	1811.38
1001.59	1793.3
1001.885	1801.89
1002.18	1810.47
1002.475	1771.15
1002.77	1793.53
1003.065	1731.83
1003.359	1748.33
1003.654	1744.49
1003.949	1742.68
1004.243	1713.75
1004.538	1731.16
1004.832	1697.48
1005.127	1682.12
1005.421	1709.69
1005.715	1683.47
1006.009	1665.39
1006.304	1633.3
1006.598	1623.81
1006.892	1626.53
1007.186	1634.43
1007.48	1598.96
1007.773	1643.7
1008.067	1605.51
1008.361	1576.58
1008.655	1601.44
1008.948	1548.11
1009.242	1558.28
1009.535	1549.92
1009.829	1551.95
1010.122	1540.2
1010.415	1563.93
1010.708	1533.87
1011.001	1519.86
1011.295	1499.3
1011.588	1493.87
1011.881	1480.99
1012.173	1497.94
1012.466	1500.2
1012.759	1485.74
1013.052	1455.91
1013.344	1441.45
1013.637	1436.7
1013.93	1453.2
1014.222	1437.38
1014.514	1449.13
1014.807	1393.76
1015.099	1429.92
1015.391	1417.04
1015.683	1381.56
1015.976	1363.71
1016.268	1386.08
1016.56	1370.94
1016.851	1373.65
1017.143	1380.43
1017.435	1339.75
1017.727	1355.57
1018.018	1294.78
1018.31	1306.76
1018.602	1318.06
1018.893	1321.67
1019.185	1303.82
1019.476	1246.65
1019.767	1299.08
1020.058	1291.62
1020.35	1271.51
1020.641	1249.81
1020.932	1248.68
1021.223	1265.4
1021.514	1215.69
1021.804	1205.52
1022.095	1208.23
1022.386	1209.81
1022.677	1184.05
1022.967	1200.32
1023.258	1212.3
1023.548	1171.4
1023.839	1160.32
1024.129	1170.27
1024.419	1145.63
1024.709	1150.83
1025	1159.42
1025.29	1143.83
1025.58	1137.05
1025.87	1132.3
1026.16	1110.61
1026.449	1108.35
1026.739	1114.22
1027.029	1079.42
1027.319	1078.97
1027.608	1068.35
1027.898	1052.08
1028.187	1087.33
1028.477	1070.61
1028.766	1044.17
1029.055	1066.54
1029.344	1035.35
1029.634	1040.78
1029.923	1019.76
1030.212	1024.51
1030.501	1010.72
1030.79	1002.59
1031.078	1009.37
1031.367	1003.49
1031.656	985.41
1031.945	999.65
1032.233	987.67
1032.522	969.37
1032.81	960.33
1033.099	978.18
1033.387	970.95
1033.675	946.09
1033.963	933.21
1034.251	921.01
1034.54	942.25
1034.828	936.15
1035.116	932.76
1035.403	920.33
1035.691	920.33
1035.979	911.06
1036.267	898.41
1036.554	886.88
1036.842	909.71
1037.129	888.69
1037.417	863.61
1037.704	893.21
1037.992	864.74
1038.279	883.04
1038.566	871.52
1038.853	871.52
1039.14	871.52
