Data from hue_310_FLMS001491_25.txt Node
Date: Mon Feb 06 15:49:19 GMT 2017
User: dcchb
Spectrometer: FLMS00149
Trigger mode: 0
Integration Time (sec): 2.000000E-2
Scans to average: 10
Electric dark correction enabled: true
Nonlinearity correction enabled: false
Boxcar width: 0
XAxis mode: Wavelengths
Number of Pixels in Spectrum: 2048
>>>>>Begin Spectral Data<<<<<
341.393	-15.61
341.776	-15.61
342.16	-15.61
342.543	-60.8
342.927	-68.94
343.31	-65.32
343.693	-51.99
344.077	-54.48
344.46	-56.74
344.843	-49.73
345.226	-61.71
345.61	-36.4
345.993	-11.54
346.376	8.35
346.759	17.61
347.142	-2.05
347.525	34.34
347.908	45.18
348.291	83.83
348.674	77.72
349.057	122.92
349.44	125.41
349.823	139.19
350.206	152.3
350.588	181.9
350.971	205.4
351.354	236.14
351.737	241.34
352.119	251.28
352.502	277.27
352.884	295.35
353.267	282.24
353.65	280.88
354.032	321.11
354.414	318.17
354.797	317.04
355.179	318.62
355.562	313.42
355.944	329.02
356.326	342.8
356.709	340.09
357.091	337.83
357.473	340.99
357.855	350.03
358.238	350.03
358.62	340.09
359.002	320.66
359.384	336.7
359.766	340.32
360.148	334.89
360.53	343.48
360.912	340.99
361.294	328.11
361.676	340.77
362.057	329.69
362.439	318.85
362.821	322.69
363.203	318.85
363.584	351.16
363.966	317.27
364.348	321.33
364.729	333.08
365.111	316.59
365.493	311.84
365.874	322.92
366.256	328.79
366.637	306.64
367.019	315.68
367.4	323.82
367.781	281.56
368.163	318.17
368.544	329.92
368.925	324.27
369.306	332.63
369.688	293.54
370.069	312.07
370.45	314.33
370.831	302.8
371.212	307.55
371.593	307.1
371.974	300.54
372.355	320.2
372.736	318.17
373.117	334.21
373.498	328.11
373.879	313.42
374.26	301.45
374.641	302.58
375.021	303.25
375.402	316.14
375.783	305.74
376.163	328.56
376.544	343.03
376.925	326.3
377.305	343.48
377.686	320.66
378.066	357.94
378.447	326.08
378.827	338.51
379.208	334.44
379.588	339.19
379.968	321.11
380.349	327.89
380.729	330.6
381.109	339.86
381.489	322.69
381.87	341.22
382.25	339.86
382.63	362.91
383.01	330.82
383.39	351.16
383.77	318.17
384.15	338.28
384.53	366.3
384.91	350.26
385.29	367.43
385.67	360.88
386.049	373.31
386.429	357.72
386.809	350.26
387.189	372.41
387.568	372.18
387.948	342.35
388.328	345.74
388.707	384.16
389.087	359.98
389.466	367.43
389.846	363.37
390.225	361.11
390.605	362.69
390.984	359.52
391.363	368.11
391.743	372.18
392.122	364.5
392.501	363.82
392.881	371.05
393.26	379.86
393.639	364.72
394.018	378.96
394.397	387.09
394.776	373.31
395.155	404.04
395.534	395.68
395.913	378.96
396.292	391.84
396.671	395.23
397.05	379.64
397.429	390.71
397.808	374.44
398.186	420.99
398.565	390.48
398.944	406.3
399.323	398.17
399.701	377.83
400.08	407.43
400.458	413.76
400.837	419.86
401.215	393.2
401.594	425.06
401.972	423.25
402.351	433.87
402.729	419.64
403.107	428.68
403.486	424.83
403.864	435
404.242	431.16
404.62	444.49
404.999	438.17
405.377	436.13
405.755	427.55
406.133	439.07
406.511	443.82
406.889	456.92
407.267	453.76
407.645	437.49
408.023	445.85
408.401	477.71
408.779	475.45
409.156	466.64
409.534	487.2
409.912	483.36
410.29	471.84
410.667	500.09
411.045	504.15
411.422	516.81
411.8	499.63
412.178	546.64
412.555	532.85
412.933	540.08
413.31	529.46
413.687	549.8
414.065	556.81
414.442	533.08
414.819	568.33
415.197	585.96
415.574	561.78
415.951	594.09
416.328	614.66
416.705	619.86
417.082	606.3
417.46	590.93
417.837	611.27
418.214	619.63
418.591	627.77
418.967	633.19
419.344	657.37
419.721	682.91
420.098	663.25
420.475	652.4
420.852	696.92
421.228	691.49
421.605	692.17
421.982	704.15
422.358	702.11
422.735	689.01
423.111	705.28
423.488	735.33
423.864	746.63
424.241	759.51
424.617	742.11
424.994	749.8
425.37	763.13
425.746	758.84
426.123	766.29
426.499	769.23
426.875	794.99
427.251	826.63
427.627	821.21
428.003	814.65
428.379	847.42
428.756	825.5
429.132	843.58
429.507	858.72
429.883	864.37
430.259	874.77
430.635	889.91
431.011	895.56
431.387	910.7
431.763	940.98
432.138	947.31
432.514	935.78
432.89	949.79
433.265	964.71
433.641	965.61
434.016	971.94
434.392	981.65
434.767	992.5
435.143	1039.28
435.518	1040.41
435.894	1040.64
436.269	1032.73
436.644	1050.58
437.02	1049.9
437.395	1073.18
437.77	1073.18
438.145	1096.23
438.52	1080.41
438.895	1114.76
439.271	1121.09
439.646	1119.5
440.021	1121.99
440.395	1135.32
440.77	1127.64
441.145	1147.53
441.52	1195.43
441.895	1159.05
442.27	1175.77
442.645	1164.7
443.019	1194.98
443.394	1195.21
443.769	1205.15
444.143	1202.21
444.518	1183.68
444.892	1215.77
445.267	1218.94
445.641	1228.43
446.016	1232.72
446.39	1240.63
446.764	1231.82
447.139	1228.65
447.513	1225.49
447.887	1250.12
448.262	1238.6
448.636	1274.08
449.01	1266.17
449.384	1227.07
449.758	1291.48
450.132	1312.04
450.506	1292.61
450.88	1312.27
451.254	1300.74
451.628	1295.55
452.002	1292.61
452.376	1321.76
452.75	1341.87
453.123	1300.29
453.497	1341.65
453.871	1322.21
454.244	1356.33
454.618	1373.74
454.992	1368.99
455.365	1376.45
455.739	1423.23
456.112	1417.35
456.486	1428.42
456.859	1432.72
457.232	1428.2
457.606	1442.66
457.979	1490.12
458.352	1491.02
458.725	1481.3
459.099	1499.83
459.472	1497.57
459.845	1542.54
460.218	1513.17
460.591	1510
460.964	1532.15
461.337	1567.18
461.71	1581.19
462.083	1592.26
462.456	1593.39
462.829	1590.68
463.201	1617.57
463.574	1622.54
463.947	1591.36
464.32	1648.08
464.692	1670.68
465.065	1678.81
465.438	1718.58
465.81	1725.14
466.183	1720.84
466.555	1770.56
466.928	1745.48
467.3	1749.09
467.672	1761.3
468.045	1814.18
468.417	1784.8
468.789	1792.93
469.161	1810.79
469.534	1857.11
469.906	1882.87
470.278	1891.24
470.65	1899.82
471.022	1926.94
471.394	1956.32
471.766	1962.42
472.138	1976.88
472.51	1987.73
472.882	2021.63
473.253	2046.49
473.625	2046.26
473.997	2096.2
474.369	2086.03
474.74	2134.84
475.112	2154.73
475.484	2128.29
475.855	2168.97
476.227	2171
476.598	2227.95
476.97	2209.87
477.341	2267.04
477.713	2303.88
478.084	2316.08
478.455	2366.25
478.827	2362.41
479.198	2402.18
479.569	2401.5
479.94	2436.53
480.311	2429.75
480.682	2495.29
481.053	2552.46
481.424	2572.8
481.795	2566.25
482.166	2611.67
482.537	2586.13
482.908	2693.93
483.279	2685.11
483.65	2713.13
484.021	2781.38
484.391	2766.69
484.762	2813.92
485.133	2852.79
485.503	2868.61
485.874	2938.44
486.244	2906.35
486.615	2983.86
486.985	2943.64
487.356	3001.04
487.726	3012.11
488.097	3057.31
488.467	3053.69
488.837	3131.65
489.207	3112.67
489.578	3187.7
489.948	3206
490.318	3212.33
490.688	3196.29
491.058	3327.81
491.428	3306.11
491.798	3327.13
492.168	3386.56
492.538	3377.07
492.908	3405.77
493.278	3468.14
493.648	3445.32
494.017	3469.73
494.387	3462.95
494.757	3548.59
495.126	3559.67
495.496	3540.68
495.866	3568.25
496.235	3612.09
496.605	3635.14
496.974	3665.43
497.344	3680.79
497.713	3658.65
498.082	3660.45
498.452	3714.69
498.821	3714.46
499.19	3760.79
499.559	3762.15
499.928	3771.64
500.298	3816.16
500.667	3858.19
501.036	3818.87
501.405	3880.56
501.774	3836.95
502.143	3871.07
502.512	3944.74
502.88	3914.46
503.249	3906.1
503.618	3946.77
503.987	3978.19
504.356	3952.65
504.724	3928.24
505.093	4034.91
505.462	3996.49
505.83	4025.87
506.199	4019.09
506.567	4055.7
506.936	4104.28
507.304	4108.13
507.672	4095.47
508.041	4112.42
508.409	4115.13
508.777	4147.22
509.145	4163.04
509.514	4192.42
509.882	4220.67
510.25	4230.84
510.618	4212.98
510.986	4192.87
511.354	4223.6
511.722	4262.92
512.09	4302.47
512.458	4300.21
512.826	4293.43
513.193	4324.39
513.561	4308.35
513.929	4330.95
514.297	4405.52
514.664	4424.05
515.032	4372.3
515.4	4387.89
515.767	4417.27
516.135	4430.38
516.502	4409.81
516.869	4495.69
517.237	4421.34
517.604	4464.28
517.972	4453.65
518.339	4493.65
518.706	4506.08
519.073	4461.34
519.44	4512.64
519.808	4577.49
520.175	4579.3
520.542	4591.96
520.909	4599.64
521.276	4544.05
521.643	4603.93
522.009	4661.78
522.376	4680.54
522.743	4690.71
523.11	4728
523.477	4737.26
523.843	4751.27
524.21	4769.13
524.577	4785.85
524.943	4828.33
525.31	4819.97
525.676	4864.49
526.043	4878.73
526.409	4899.52
526.776	4985.17
527.142	4915.34
527.508	4913.53
527.874	5027.88
528.241	4977.26
528.607	5006.86
528.973	5078.95
529.339	5072.17
529.705	5078.72
530.071	5119.85
530.437	5148.1
530.803	5149.91
531.169	5203.46
531.535	5135.67
531.901	5195.56
532.267	5251.15
532.632	5238.72
532.998	5271.71
533.364	5302.45
533.73	5321.2
534.095	5291.15
534.461	5380.86
534.826	5393.06
535.192	5450.92
535.557	5462.22
535.923	5467.41
536.288	5487.53
536.653	5509.45
537.019	5511.03
537.384	5531.37
537.749	5568.88
538.114	5587.18
538.479	5583.34
538.845	5595.77
539.21	5612.72
539.575	5693.85
539.94	5661.08
540.305	5733.17
540.67	5695.88
541.034	5741.3
541.399	5755.77
541.764	5814.52
542.129	5868.08
542.494	5868.31
542.858	5849.55
543.223	5899.49
543.587	5924.58
543.952	5926.61
544.316	5952.6
544.681	5971.35
545.045	5960.96
545.41	6083.67
545.774	6076.66
546.138	6042.31
546.503	6059.71
546.867	6095.64
547.231	6209.54
547.595	6178.35
547.959	6226.71
548.324	6220.39
548.688	6195.53
549.052	6256.54
549.416	6257.67
549.779	6317.11
550.143	6351.46
550.507	6317.33
550.871	6318.01
551.235	6342.42
551.599	6412.92
551.962	6400.72
552.326	6382.19
552.689	6470.32
553.053	6425.35
553.417	6436.2
553.78	6530.66
554.143	6469.65
554.507	6529.76
554.87	6570.89
555.234	6625.57
555.597	6563.43
555.96	6583.54
556.323	6647.72
556.686	6624.22
557.05	6678
557.413	6703.54
557.776	6702.41
558.139	6730.43
558.502	6770.2
558.865	6768.4
559.228	6776.98
559.59	6804.33
559.953	6778.79
560.316	6869.18
560.679	6917.54
561.041	6904.21
561.404	6943.98
561.767	6970.65
562.129	6940.59
562.492	7006.13
562.854	7007.49
563.217	7030.08
563.579	7071.44
563.941	7093.81
564.304	7079.35
564.666	7112.57
565.028	7125
565.39	7199.8
565.753	7230.3
566.115	7226.24
566.477	7286.57
566.839	7256.52
567.201	7316.63
567.563	7348.04
567.925	7309.85
568.287	7371.32
568.648	7334.93
569.01	7449.73
569.372	7482.73
569.734	7447.02
570.095	7542.39
570.457	7495.38
570.819	7579.45
571.18	7583.29
571.542	7630.97
571.903	7658.32
572.265	7804.75
572.626	7717.07
572.987	7826.9
573.349	7824.86
573.71	7864.64
574.071	7955.26
574.432	7995.48
574.794	8057.4
575.155	8150.51
575.516	8105.31
575.877	8188.47
576.238	8288.36
576.599	8381.01
576.96	8386.66
577.32	8425.53
577.681	8536.94
578.042	8625.97
578.403	8721.79
578.763	8827.1
579.124	8918.62
579.485	9130.82
579.845	9121.55
580.206	9183.7
580.566	9385.5
580.927	9367.2
581.287	9629.56
581.648	9658.94
582.008	9917.24
582.368	9972.15
582.728	10166.05
583.089	10263.9
583.449	10422.08
583.809	10611.01
584.169	10802.64
584.529	10926.48
584.889	11213.7
585.249	11216.87
585.609	11410.53
585.969	11729.85
586.329	11953.57
586.688	12115.15
587.048	12338.64
587.408	12515.14
587.768	12744.51
588.127	12994.45
588.487	13182.92
588.846	13469.46
589.206	13638.5
589.565	13867.42
589.925	14251.14
590.284	14449.1
590.643	14713.95
591.003	14944.45
591.362	15261.51
591.721	15481.61
592.08	15827.14
592.44	16131.31
592.799	16463.73
593.158	16642.71
593.517	16903.72
593.876	17235.01
594.235	17505.74
594.593	17838.39
594.952	18125.38
595.311	18336.23
595.67	18627.29
596.029	19029.32
596.387	19310.66
596.746	19636.31
597.104	19807.15
597.463	20122.85
597.822	20401.26
598.18	20674.7
598.538	20914.01
598.897	21403.04
599.255	21456.6
599.613	22139.97
599.972	22099.07
600.33	22466.74
600.688	22760.29
601.046	23071.02
601.404	23377.68
601.762	23655.41
602.12	23942.41
602.478	24171.78
602.836	24466.46
603.194	24670.07
603.552	24851.31
603.91	25106.9
604.268	25470.28
604.625	25641.8
604.983	25963.37
605.341	26115.23
605.698	26399.29
606.056	26789.79
606.413	26949.79
606.771	27299.16
607.128	27511.8
607.485	27563.55
607.843	27784.34
608.2	28191.11
608.557	28443.98
608.914	28611.21
609.272	28911.32
609.629	29224.53
609.986	29503.16
610.343	29514.01
610.7	29941.8
611.057	30031.96
611.414	30161
611.771	30338.4
612.127	30671.72
612.484	30690.48
612.841	30981.09
613.198	31182.22
613.554	31397.8
613.911	31716.67
614.267	31714.41
614.624	31969.99
614.98	32061.06
615.337	32354.62
615.693	32467.83
616.05	32468.96
616.406	32852.68
616.762	32885.9
617.118	33036.41
617.475	33184.88
617.831	33381.71
618.187	33542.15
618.543	33719.55
618.899	33936.04
619.255	33971.07
619.611	34044.74
619.967	34344.39
620.323	34371.51
620.678	34495.12
621.034	34646.76
621.39	34629.36
621.746	34728.56
622.101	35106.86
622.457	34926.3
622.812	35043.81
623.168	35365.38
623.523	35374.87
623.879	35654.19
624.234	35399.96
624.589	35474.99
624.945	35716.56
625.3	35777.8
625.655	35820.74
626.01	35962.2
626.365	36057.12
626.72	36214.17
627.075	36157
627.43	36306.38
627.785	36160.39
628.14	36293.49
628.495	36415.3
628.85	36433.15
629.205	36302.76
629.559	36491.68
629.914	36582.75
630.269	36633.37
630.623	36533.26
630.978	36483.77
631.332	36701.85
631.687	36756.08
632.041	36833.37
632.396	37013.25
632.75	36745.01
633.104	37013.02
633.459	36670.89
633.813	36759.25
634.167	36877.89
634.521	36841.5
634.875	37032.01
635.229	37031.78
635.583	36918.11
635.937	36806.48
636.291	36850.32
636.645	36865.46
636.999	36887.15
637.352	36932.57
637.706	36700.26
638.06	37001.95
638.413	36868.85
638.767	36837.66
639.121	36945.91
639.474	36827.27
639.828	36761.96
640.181	36872.91
640.534	36927.83
640.888	36850.99
641.241	36699.59
641.594	36749.75
641.947	36927.6
642.301	36761.05
642.654	36766.93
643.007	36895.29
643.36	36754.73
643.713	36790.2
644.066	36854.61
644.419	36602.41
644.771	36525.58
645.124	36037.68
645.477	36087.17
645.83	35852.38
646.182	35602.44
646.535	35652.61
646.888	35742.55
647.24	35659.39
647.593	35805.15
647.945	35634.3
648.298	35613.51
648.65	35381.43
649.002	35437.7
649.355	35578.49
649.707	35486.06
650.059	35702.32
650.411	36115.42
650.763	36302.31
651.115	36552.47
651.467	36455.98
651.819	36377.11
652.171	36324.23
652.523	36316.77
652.875	36255.76
653.227	36088.3
653.578	36557.67
653.93	36375.75
654.282	36168.98
654.633	36074.29
654.985	36268.18
655.337	36264.34
655.688	36304.12
656.039	36456.88
656.391	36129.21
656.742	36171.92
657.094	36134.18
657.445	36128.3
657.796	36248.52
658.147	36063.9
658.498	36111.35
658.849	36167.4
659.2	35983.67
659.551	36049.66
659.902	36230.22
660.253	36190.45
660.604	36193.84
660.955	35934.63
661.306	36140.73
661.656	35935.31
662.007	36164.91
662.358	36053.28
662.708	35995.2
663.059	36029.55
663.409	35899.15
663.76	36046.04
664.11	35982.54
664.461	35982.77
664.811	36146.15
665.161	35849.66
665.511	35924.47
665.862	35922.21
666.212	36077.23
666.562	36046.04
666.912	35985.93
667.262	35965.59
667.612	36016.89
667.962	36075.87
668.312	35954.52
668.662	36064.8
669.011	35940.51
669.361	35885.37
669.711	35837.24
670.06	35815.99
670.41	35754.53
670.76	35741.87
671.109	35964.92
671.459	35954.29
671.808	35707.75
672.157	35865.03
672.507	35668.2
672.856	35602.89
673.205	35715.43
673.554	35790.23
673.904	35666.84
674.253	35910.68
674.602	35684.7
674.951	35279.28
675.3	35015.11
675.649	35724.02
675.998	35690.35
676.346	35574.42
676.695	35773.06
677.044	35501.65
677.393	35651.48
677.741	35701.19
678.09	35576.9
678.438	35573.97
678.787	35512.72
679.135	35606.96
679.484	35362.67
679.832	35587.07
680.181	35241.77
680.529	35333.97
680.877	35292.84
681.225	35218.72
681.573	35428.21
681.922	35200.19
682.27	35039.06
682.618	35058.05
682.966	35041.78
683.314	35131.94
683.661	34991.61
684.009	34744.38
684.357	34725.85
684.705	34715.46
685.053	34700.54
685.4	34710.71
685.748	34554.11
686.095	34428.01
686.443	34414.22
686.79	34308.24
687.138	34315.47
687.485	34432.53
687.832	34313.89
688.18	34193.44
688.527	34054.91
688.874	34049.03
689.221	34122.03
689.568	33998.87
689.915	33883.39
690.262	33937.4
690.609	33728.36
690.956	33717.97
691.303	33686.11
691.65	33541.93
691.997	33532.21
692.344	33351.65
692.69	33193.46
693.037	33259.68
693.383	33108.95
693.73	33174.93
694.077	33012.23
694.423	33094.93
694.769	32967.03
695.116	32846.13
695.462	32791.44
695.808	32715.28
696.155	32792.34
696.501	32580.15
696.847	32608.17
697.193	32217.67
697.539	32466.02
697.885	32182.64
698.231	32112.59
698.577	32133.6
698.923	32042.76
699.269	31793.5
699.614	31652.26
699.96	31700.17
700.306	31607.52
700.651	31545.6
700.997	31370.69
701.342	31458.37
701.688	31287.75
702.033	31328.65
702.379	31292.5
702.724	31109.68
703.069	31280.52
703.415	30793.53
703.76	30950.81
704.105	30915.78
704.45	30769.57
704.795	30771.61
705.14	30682.12
705.485	30578.16
705.83	30443.48
706.175	30410.03
706.52	30409.13
706.865	30293.65
707.209	30300.88
707.554	30205.97
707.899	30160.1
708.243	30058.63
708.588	30091.62
708.932	29722.82
709.277	29620.9
709.621	29797.39
709.966	29572.77
710.31	29648.25
710.654	29386.78
710.998	29524.86
711.342	29483.96
711.687	29375.71
712.031	29262.27
712.375	29129.16
712.719	29192.21
713.063	29073.57
713.407	29192.66
713.75	28931.43
714.094	29036.28
714.438	28988.15
714.782	28928.04
715.125	28738.67
715.469	28757.65
715.812	28735.28
716.156	28668.84
716.499	28606.69
716.843	28509.97
717.186	28484.43
717.53	28525.56
717.873	28495.51
718.216	28556.98
718.559	28415.28
718.902	28241.05
719.246	28191.34
719.589	28063.2
719.932	28082.64
720.275	28118.34
720.617	28119.92
720.96	28005.58
721.303	27960.61
721.646	27859.59
721.989	27728.07
722.331	27755.19
722.674	27734.4
723.016	27826.82
723.359	27589.77
723.701	27637.23
724.044	27472.94
724.386	27364.69
724.729	27488.75
725.071	27356.55
725.413	27387.97
725.755	27414.86
726.097	27260.06
726.439	27046.73
726.782	27121.31
727.124	27300.28
727.465	27044.7
727.807	27047.86
728.149	27055.09
728.491	27009.45
728.833	26930.13
729.175	26903.01
729.516	26843.35
729.858	26769.9
730.199	26861.88
730.541	26763.12
730.882	26771.49
731.224	26696.91
731.565	26573.52
731.906	26583.47
732.248	26603.13
732.589	26473.87
732.93	26354.1
733.271	26359.07
733.612	26500.53
733.953	26527.42
734.294	26250.14
734.635	26263.93
734.976	26371.27
735.317	26235.23
735.658	26183.7
735.999	26140.54
736.339	26120.43
736.68	26186.87
737.021	26021
737.361	26011.05
737.702	26143.25
738.042	25987.55
738.383	25918.4
738.723	25911.85
739.063	25823.49
739.404	25809.25
739.744	25818.52
740.084	25503.5
740.424	25766.54
740.764	25625.75
741.104	25771.29
741.444	25522.48
741.784	25502.37
742.124	25520.67
742.464	25535.13
742.804	25402.03
743.143	25444.74
743.483	25407.68
743.823	25223.05
744.162	25226.67
744.502	25300.11
744.841	25185.99
745.181	25259.89
745.52	25161.58
745.86	25129.49
746.199	25097.86
746.538	25130.85
746.877	25136.05
747.216	25008.59
747.556	24961.36
747.895	25024.86
748.234	24794.81
748.573	24824.64
748.911	24627.81
749.25	24748.94
749.589	24675.95
749.928	24635.5
750.267	24666.68
750.605	24629.17
750.944	24519.34
751.283	24440.7
751.621	24530.87
751.96	24479.12
752.298	24433.47
752.636	24336.07
752.975	24257.88
753.313	24185.34
753.651	24308.95
753.989	24153.7
754.327	24131.33
754.666	23917.55
755.004	23904.67
755.342	23973.37
755.679	23953.03
756.017	23776.54
756.355	23907.61
756.693	23722.75
757.031	23792.13
757.368	23573.83
757.706	23584.22
758.044	23520.27
758.381	23580.16
758.719	23400.73
759.056	23386.94
759.394	23265.59
759.731	23143.11
760.068	23210.45
760.405	23243.22
760.743	23054.07
761.08	22965.03
761.417	22852.27
761.754	22933.17
762.091	22844.36
762.428	22692.95
762.765	22573.4
763.102	22657.47
763.438	22445.05
763.775	22341.55
764.112	22362.34
764.449	22375.44
764.785	22270.59
765.122	22051.84
765.458	22075.79
765.795	21925.51
766.131	21939.07
766.467	21990.59
766.804	21811.16
767.14	21707.66
767.476	21738.62
767.812	21612.07
768.148	21670.6
768.485	21611.4
768.821	21426.54
769.157	21315.58
769.492	21299.99
769.828	21295.25
770.164	21133.22
770.5	21039.43
770.836	21012.77
771.171	20820.91
771.507	20934.8
771.842	20685.77
772.178	20677.18
772.513	20754.92
772.849	20525.32
773.184	20529.16
773.519	20509.73
773.855	20336.17
774.19	20344.08
774.525	20242.84
774.86	20270.19
775.195	20243.52
775.53	20023.64
775.865	19940.25
776.2	19847.6
776.535	19763.53
776.87	19766.02
777.205	19642.41
777.539	19573.26
777.874	19672.69
778.209	19403.09
778.543	19363.77
778.878	19218.01
779.212	19326.48
779.547	19110.67
779.881	19157.22
780.215	19007.62
780.55	19028.64
780.884	18921.52
781.218	18794.52
781.552	18885.82
781.886	18703.67
782.22	18571.02
782.554	18489.44
782.888	18445.83
783.222	18348.66
783.556	18339.62
783.889	18206.06
784.223	18122.9
784.557	18155.67
784.89	18114.54
785.224	17943.92
785.557	17999.51
785.891	17910.48
786.224	17814.88
786.558	17844.49
786.891	17604.72
787.224	17600.43
787.557	17568.79
787.891	17472.52
788.224	17471.62
788.557	17486.08
788.89	17401.34
789.223	17351.62
789.556	17241.11
789.888	17226.88
790.221	17156.6
790.554	17004.51
790.887	17046.77
791.219	16993.44
791.552	16846.1
791.884	16838.64
792.217	16716.83
792.549	16656.05
792.882	16710.05
793.214	16551.87
793.546	16477.29
793.879	16479.78
794.211	16370.18
794.543	16399.55
794.875	16354.58
795.207	16436.62
795.539	16264.64
795.871	16197.3
796.203	16080.47
796.535	15996.85
796.867	15990.3
797.198	15958.21
797.53	16009.06
797.862	15863.07
798.193	15841.38
798.525	15747.59
798.856	15759.57
799.188	15626.69
799.519	15527.94
799.85	15388.51
800.182	15485.23
800.513	15405.46
800.844	15283.2
801.175	15371.79
801.506	15371.56
801.837	15258.57
802.168	15203.43
802.499	15076.43
802.83	15049.53
803.161	15091.79
803.491	15001.4
803.822	15084.34
804.153	14986.94
804.483	14857
804.814	14816.09
805.145	14767.96
805.475	14805.92
805.805	14755.76
806.136	14662.88
806.466	14639.83
806.796	14582.43
807.126	14519.15
807.457	14483.45
807.787	14426.05
808.117	14491.13
808.447	14418.36
808.777	14365.48
809.107	14269.89
809.436	14257.24
809.766	14241.19
810.096	14216.11
810.426	14172.49
810.755	14209.1
811.085	14177.92
811.414	14151.7
811.744	14004.14
812.073	13905.16
812.403	13846.4
812.732	13828.1
813.061	13760.98
813.39	13739.74
813.719	13755.56
814.049	13807.98
814.378	13696.12
814.707	13610.7
815.036	13608.89
815.365	13624.71
815.693	13483.7
816.022	13466.98
816.351	13434.21
816.68	13368.67
817.008	13349.47
817.337	13400.99
817.665	13253.42
817.994	13343.14
818.322	13222.69
818.651	13162.8
818.979	13160.77
819.307	13205.51
819.636	13103.37
819.964	13029.7
820.292	13109.02
820.62	13125.29
820.948	13130.49
821.276	13096.82
821.604	13048.23
821.932	13046.87
822.259	13040.55
822.587	12960.32
822.915	12990.15
823.243	12992.86
823.57	13056.82
823.898	13024.28
824.225	12977.5
824.553	12981.79
824.88	13008.23
825.207	13016.82
825.535	12964.62
825.862	13004.84
826.189	12935.24
826.516	13029.47
826.843	13087.1
827.17	13028.57
827.497	13015.69
827.824	12953.77
828.151	13033.09
828.478	13039.87
828.805	13064.05
829.131	12939.98
829.458	12996.25
829.785	12861.57
830.111	12952.41
830.438	12971.85
830.764	12955.13
831.09	12972.75
831.417	12878.07
831.743	12891.17
832.069	12881.46
832.395	12897.5
832.722	12942.24
833.048	12802.81
833.374	12808.69
833.7	12725.98
834.026	12816.6
834.351	12828.12
834.677	12788.35
835.003	12872.64
835.329	12838.29
835.654	12812.3
835.98	12696.83
836.306	12694.57
836.631	12695.7
836.956	12655.7
837.282	12706.09
837.607	12651.63
837.932	12587
838.258	12541.35
838.583	12628.35
838.908	12505.42
839.233	12595.59
839.558	12447.34
839.883	12445.08
840.208	12445.08
840.533	12485.08
840.858	12443.95
841.182	12445.31
841.507	12418.87
841.832	12399.89
842.156	12351.98
842.481	12229.27
842.805	12372.32
843.13	12243.05
843.454	12149.5
843.778	12126.9
844.103	12217.74
844.427	12133
844.751	12147.92
845.075	12090.74
845.399	12023.17
845.723	12049.39
846.047	11954.47
846.371	11921.71
846.695	11876.74
847.019	11760.13
847.343	11741.82
847.666	11684.2
847.99	11653.01
848.313	11653.92
848.637	11516.97
848.96	11547.25
849.284	11544.54
849.607	11439.23
849.931	11390.19
850.254	11351.78
850.577	11262.51
850.9	11173.25
851.223	11235.17
851.546	11202.86
851.869	11064.55
852.192	11142.97
852.515	10986.14
852.838	10981.62
853.161	10903.65
853.483	10944.78
853.806	10818.91
854.129	10827.95
854.451	10749.31
854.774	10763.77
855.096	10724.45
855.419	10679.93
855.741	10659.82
856.063	10702.76
856.385	10624.57
856.708	10510.67
857.03	10495.53
857.352	10557.45
857.674	10474.06
857.996	10451.46
858.318	10331.24
858.64	10353.84
858.961	10367.62
859.283	10277.91
859.605	10196.33
859.926	10230.23
860.248	10256.89
860.57	10210.34
860.891	10192.03
861.212	10180.96
861.534	10119.49
861.855	10086.27
862.176	10070
862.498	10164.69
862.819	10170.79
863.14	10048.76
863.461	9939.61
863.782	10004.92
864.103	9986.16
864.424	9936.45
864.745	9988.65
865.065	9902.55
865.386	9854.19
865.707	9849.9
866.027	9864.59
866.348	9855.32
866.668	9832.04
866.989	9783.91
867.309	9791.37
867.63	9795.21
867.95	9713.63
868.27	9660.52
868.59	9703.01
868.91	9664.14
869.23	9697.81
869.55	9590.92
869.87	9687.64
870.19	9696.23
870.51	9642.44
870.83	9621.65
871.15	9550.02
871.469	9629.79
871.789	9598.6
872.109	9593.63
872.428	9426.86
872.748	9518.15
873.067	9448.1
873.386	9515.22
873.706	9533.29
874.025	9461.88
874.344	9388.67
874.663	9429.34
874.982	9400.42
875.301	9420.76
875.62	9395.22
875.939	9299.63
876.258	9352.96
876.577	9272.74
876.896	9283.13
877.214	9223.7
877.533	9276.35
877.852	9290.36
878.17	9282.45
878.489	9206.3
878.807	9233.87
879.125	9247.65
879.444	9163.36
879.762	9175.56
880.08	9150.25
880.398	9125.17
880.716	9114.32
881.034	9098.5
881.352	9075.68
881.67	9021.44
881.988	9096.47
882.306	8968.11
882.624	8982.35
882.941	8962.24
883.259	8989.81
883.577	8918.85
883.894	8911.84
884.212	8915.23
884.529	8898.51
884.846	8836.14
885.164	8857.83
885.481	8778.29
885.798	8851.05
886.115	8768.34
886.432	8743.94
886.75	8703.26
887.067	8716.59
887.383	8685.86
887.7	8673.2
888.017	8581
888.334	8676.37
888.651	8595.01
888.967	8567.9
889.284	8585.75
889.6	8563.83
889.917	8485.86
890.233	8466.88
890.55	8418.3
890.866	8507.78
891.182	8465.07
891.498	8379.65
891.815	8366.77
892.131	8305.53
892.447	8352.08
892.763	8290.62
893.079	8244.06
893.395	8246.77
893.71	8170.84
894.026	8188.25
894.342	8167.91
894.657	8122.71
894.973	8157.74
895.289	8133.33
895.604	8047.91
895.92	8027.12
896.235	7996.16
896.55	7981.02
896.865	7969.04
897.181	7940.34
897.496	7945.31
897.811	7870.06
898.126	7835.49
898.441	7828.93
898.756	7784.41
899.071	7693.12
899.386	7722.04
899.7	7729.95
900.015	7699.9
900.33	7615.38
900.644	7578.32
900.959	7624.64
901.273	7653.57
901.588	7589.39
901.902	7563.63
902.216	7510.3
902.531	7458.32
902.845	7411.54
903.159	7333.13
903.473	7374.48
903.787	7349.85
904.101	7277.99
904.415	7317.99
904.729	7265.56
905.042	7242.96
905.356	7216.07
905.67	7183.07
905.984	7143.07
906.297	7173.58
906.611	7110.31
906.924	7100.14
907.237	7048.16
907.551	7050.65
907.864	7019.46
908.177	7042.51
908.491	6997.77
908.804	6924.32
909.117	6879.13
909.43	6856.53
909.743	6804.78
910.056	6809.98
910.368	6812.91
910.681	6734.27
910.994	6737.21
911.307	6758
911.619	6630.32
911.932	6665.57
912.244	6645.69
912.557	6630.77
912.869	6563.66
913.181	6574.5
913.494	6549.64
913.806	6472.36
914.118	6491.57
914.43	6443.88
914.742	6401.17
915.054	6351.01
915.366	6367.95
915.678	6376.32
915.99	6304.9
916.302	6303.55
916.613	6301.29
916.925	6259.48
917.236	6228.52
917.548	6241.86
917.859	6213.38
918.171	6150.78
918.482	6151.91
918.794	6101.52
919.105	6115.08
919.416	6065.14
919.727	6032.82
920.038	6014.74
920.349	6008.42
920.66	5900.62
920.971	5937
921.282	5911.47
921.593	5873.28
921.903	5817.46
922.214	5794.41
922.525	5815.2
922.835	5758.25
923.146	5776.56
923.456	5733.39
923.767	5745.37
924.077	5661.08
924.387	5651.81
924.697	5581.99
925.008	5583.79
925.318	5596
925.628	5529.78
925.938	5587.41
926.248	5474.87
926.558	5497.47
926.867	5451.82
927.177	5445.27
927.487	5361.65
927.796	5398.04
928.106	5395.1
928.416	5353.97
928.725	5314.2
929.034	5273.75
929.344	5314.65
929.653	5297.25
929.962	5217.93
930.271	5207.31
930.581	5170.02
930.89	5153.75
931.199	5139.74
931.508	5123.02
931.817	5135.9
932.125	5094.54
932.434	5050.7
932.743	5034.2
933.051	5018.84
933.36	5032.62
933.669	4958.73
933.977	4942.68
934.286	4947.65
934.594	4884.6
934.902	4905.85
935.21	4864.72
935.519	4830.59
935.827	4817.03
936.135	4803.7
936.443	4787.66
936.751	4821.55
937.059	4757.83
937.367	4703.14
937.674	4725.06
937.982	4714.44
938.29	4629.69
938.597	4692.29
938.905	4637.83
939.213	4573.2
939.52	4609.36
939.827	4554.89
940.135	4538.4
940.442	4551.05
940.749	4500.21
941.056	4523.93
941.363	4469.25
941.67	4459.53
941.977	4425.18
942.284	4378.63
942.591	4401.68
942.898	4358.52
943.205	4372.98
943.511	4377.95
943.818	4308.12
944.125	4309.7
944.431	4302.25
944.738	4308.35
945.044	4278.74
945.35	4225.41
945.657	4178.41
945.963	4187.22
946.269	4164.4
946.575	4201.46
946.881	4183.6
947.187	4128.01
947.493	4114.45
947.799	4065.64
948.105	4087.79
948.41	4048.92
948.716	4032.87
949.022	4024.29
949.327	4019.54
949.633	3955.59
949.938	3942.03
950.244	3978.19
950.549	3918.07
950.854	3873.1
951.16	3911.3
951.465	3889.15
951.77	3837.63
952.075	3849.6
952.38	3813.67
952.685	3819.09
952.99	3777.29
953.294	3822.48
953.599	3784.07
953.904	3723.73
954.209	3749.04
954.513	3747.01
954.818	3704.07
955.122	3681.47
955.426	3642.83
955.731	3629.27
956.035	3647.12
956.339	3634.01
956.643	3605.54
956.948	3560.12
957.252	3559.89
957.556	3565.09
957.86	3526.9
958.163	3519.67
958.467	3554.69
958.771	3496.84
959.075	3498.88
959.378	3484.41
959.682	3447.35
959.985	3443.51
960.289	3407.35
960.592	3397.86
960.896	3404.64
961.199	3380.46
961.502	3346.79
961.805	3347.69
962.108	3337.75
962.411	3314.7
962.714	3302.72
963.017	3283.06
963.32	3307.47
963.623	3271.31
963.926	3271.54
964.228	3264.08
964.531	3220.24
964.833	3235.38
965.136	3206.46
965.438	3164.65
965.741	3141.37
966.043	3140.24
966.345	3161.03
966.648	3142.5
966.95	3118.55
967.252	3086.46
967.554	3111.54
967.856	3111.77
968.158	3057.76
968.46	3022.05
968.761	3052.56
969.063	3046.91
969.365	3024.99
969.666	3027.02
969.968	2998.55
970.269	2975.27
970.571	2972.11
970.872	2965.11
971.174	2935.73
971.475	2941.15
971.776	2956.29
972.077	2904.54
972.378	2874.71
972.679	2871.32
972.98	2899.12
973.281	2892.11
973.582	2829.06
973.883	2817.31
974.183	2814.38
974.484	2821.38
974.785	2784.09
975.085	2773.47
975.386	2767.6
975.686	2768.95
975.986	2703.19
976.287	2761.95
976.587	2712.46
976.887	2693.47
977.187	2700.93
977.487	2702.97
977.787	2672.91
978.087	2681.05
978.387	2666.13
978.687	2668.62
978.987	2623.87
979.286	2601.73
979.586	2597.21
979.885	2619.58
980.185	2550.43
980.484	2585
980.784	2551.11
981.083	2515.85
981.382	2550.88
981.682	2507.49
981.981	2552.46
982.28	2546.36
982.579	2503.87
982.878	2500.26
983.177	2464.33
983.475	2485.34
983.774	2453.93
984.073	2456.64
984.372	2438.79
984.67	2439.02
984.969	2395.86
985.267	2408.06
985.566	2399.92
985.864	2384.1
986.162	2406.02
986.461	2384.1
986.759	2336.2
987.057	2316.99
987.355	2329.87
987.653	2308.17
987.951	2336.65
988.249	2305.91
988.547	2330.55
988.844	2269.53
989.142	2291.23
989.44	2271.11
989.737	2273.37
990.035	2220.72
990.332	2227.27
990.63	2249.64
990.927	2188.63
991.224	2153.38
991.521	2173.04
991.819	2171.91
992.116	2160.38
992.413	2170.55
992.71	2138.69
993.006	2154.28
993.303	2105.92
993.6	2111.34
993.897	2127.16
994.193	2112.7
994.49	2081.74
994.787	2069.31
995.083	2079.93
995.379	2039.71
995.676	2057.33
995.972	2053.27
996.268	2036.09
996.565	2028.63
996.861	2036.77
997.157	1997.22
997.453	1994.28
997.749	1983.66
998.044	1971.46
998.34	1982.98
998.636	1966.04
998.932	1925.36
999.227	1939.37
999.523	1898.24
999.818	1916.09
1000.114	1910.44
1000.409	1907.05
1000.704	1884.91
1001	1890.11
1001.295	1889.43
1001.59	1862.08
1001.885	1858.24
1002.18	1838.58
1002.475	1827.51
1002.77	1791.35
1003.065	1773.05
1003.359	1806.49
1003.654	1790
1003.949	1785.93
1004.243	1770.79
1004.538	1742.09
1004.832	1747.96
1005.127	1739.83
1005.421	1746.15
1005.715	1724.69
1006.009	1720.39
1006.304	1714.74
1006.598	1689.21
1006.892	1661.41
1007.186	1670.68
1007.48	1645.37
1007.773	1643.56
1008.067	1668.19
1008.361	1667.74
1008.655	1637.46
1008.948	1599.49
1009.242	1626.84
1009.535	1635.88
1009.829	1585.03
1010.122	1600.62
1010.415	1561.53
1010.708	1602.43
1011.001	1535.99
1011.295	1534.63
1011.588	1565.14
1011.881	1549.55
1012.173	1527.18
1012.466	1527.4
1012.759	1517.23
1013.052	1524.47
1013.344	1490.57
1013.637	1485.6
1013.93	1494.41
1014.222	1474.3
1014.514	1483.34
1014.807	1458.93
1015.099	1446.28
1015.391	1441.98
1015.683	1423.68
1015.976	1409.67
1016.268	1434.75
1016.56	1412.15
1016.851	1420.97
1017.143	1392.94
1017.435	1396.79
1017.727	1370.35
1018.018	1377.12
1018.31	1350.23
1018.602	1386.62
1018.893	1329.22
1019.185	1306.62
1019.476	1334.87
1019.767	1292.61
1020.058	1308.65
1020.35	1309.33
1020.641	1317.69
1020.932	1301.42
1021.223	1284.92
1021.514	1300.06
1021.804	1261.87
1022.095	1249.44
1022.386	1241.76
1022.677	1255.77
1022.967	1246.05
1023.258	1215.55
1023.548	1222.55
1023.839	1218.71
1024.129	1213.74
1024.419	1203.8
1024.709	1187.98
1025	1173.06
1025.29	1172.16
1025.58	1165.6
1025.87	1162.44
1026.16	1141.88
1026.449	1125.83
1026.739	1136.68
1027.029	1129.45
1027.319	1111.6
1027.608	1114.76
1027.898	1100.75
1028.187	1079.28
1028.477	1118.6
1028.766	1093.97
1029.055	1063.46
1029.344	1050.81
1029.634	1069.11
1029.923	1052.16
1030.212	1073.86
1030.501	1028.43
1030.79	1050.81
1031.078	1013.07
1031.367	1030.24
1031.656	999.96
1031.945	1004.71
1032.233	991.15
1032.522	1006.74
1032.81	999.96
1033.099	982.33
1033.387	992.95
1033.675	986.63
1033.963	981.2
1034.251	958.15
1034.54	962.22
1034.828	950.02
1035.116	956.57
1035.403	967.42
1035.691	934.88
1035.979	944.82
1036.267	915.44
1036.554	914.54
1036.842	930.36
1037.129	926.74
1037.417	898.49
1037.704	879.28
1037.992	877.7
1038.279	864.6
1038.566	880.41
1038.853	880.41
1039.14	880.41
