Data from hue_110_FLMS001491_00026.txt Node
Date: Tue Feb 07 17:01:06 GMT 2017
User: dcchb
Spectrometer: FLMS00149
Trigger mode: 0
Integration Time (sec): 2.000000E-2
Scans to average: 10
Electric dark correction enabled: true
Nonlinearity correction enabled: false
Boxcar width: 0
XAxis mode: Wavelengths
Number of Pixels in Spectrum: 2048
>>>>>Begin Spectral Data<<<<<
341.393	-17.94
341.776	-17.94
342.16	-17.94
342.543	-54.32
342.927	-62.46
343.31	-74.21
343.693	-85.05
344.077	-71.27
344.46	-65.39
344.843	-61.1
345.226	-14.77
345.61	-14.32
345.993	-13.87
346.376	-6.19
346.759	-6.19
347.142	30.87
347.525	44.21
347.908	58.44
348.291	67.03
348.674	103.19
349.057	108.61
349.44	126.92
349.823	153.81
350.206	164.88
350.588	209.63
350.971	209.4
351.354	215.05
351.737	230.19
352.119	249.85
352.502	260.47
352.884	287.14
353.267	284.65
353.65	299.12
354.032	289.63
354.414	304.31
354.797	306.35
355.179	310.42
355.562	320.81
355.944	327.36
356.326	333.47
356.709	324.43
357.091	329.17
357.473	323.97
357.855	345.44
358.238	347.93
358.62	346.8
359.002	367.82
359.384	347.02
359.766	340.25
360.148	341.38
360.53	332.34
360.912	310.19
361.294	333.47
361.676	343.86
362.057	321.49
362.439	326.46
362.821	326.91
363.203	319.45
363.584	326.69
363.966	330.08
364.348	321.04
364.729	321.71
365.111	319.91
365.493	320.36
365.874	324.88
366.256	321.49
366.637	313.35
367.019	311.09
367.4	300.7
367.781	306.8
368.163	332.79
368.544	310.64
368.925	302.51
369.306	312.45
369.688	312.45
370.069	313.81
370.45	315.39
370.831	308.38
371.212	297.08
371.593	318.78
371.974	312.45
372.355	288.72
372.736	304.31
373.117	319.91
373.498	325.56
373.879	295.73
374.26	314.03
374.641	327.82
375.021	304.31
375.402	305.67
375.783	309.51
376.163	319.68
376.544	331.21
376.925	314.94
377.305	316.07
377.686	328.04
378.066	340.7
378.447	343.86
378.827	324.65
379.208	339.34
379.588	308.16
379.968	333.24
380.349	307.7
380.729	341.83
381.109	315.39
381.489	335.95
381.87	332.79
382.25	333.92
382.63	343.86
383.01	337.53
383.39	333.47
383.77	326.91
384.15	335.5
384.53	376.4
384.91	342.28
385.29	341.6
385.67	363.3
386.049	333.01
386.429	326.23
386.809	354.93
387.189	348.61
387.568	344.31
387.948	336.63
388.328	341.15
388.707	334.82
389.087	361.71
389.466	341.83
389.846	363.52
390.225	375.5
390.605	383.18
390.984	357.65
391.363	365.33
391.743	342.51
392.122	370.3
392.501	363.52
392.881	399.45
393.26	356.06
393.639	379.34
394.018	379.11
394.397	378.44
394.776	388.61
395.155	370.3
395.534	364.43
395.913	378.66
396.292	388.83
396.671	383.86
397.05	360.58
397.429	391.09
397.808	387.93
398.186	379.79
398.565	359.45
398.944	385.67
399.323	403.97
399.701	393.35
400.08	384.09
400.458	386.35
400.837	397.19
401.215	388.61
401.594	389.74
401.972	399.9
402.351	403.52
402.729	397.42
403.107	404.65
403.486	408.27
403.864	390.87
404.242	403.97
404.62	414.82
404.999	401.71
405.377	404.42
405.755	403.52
406.133	423.86
406.511	419.11
406.889	431.54
407.267	428.38
407.645	432.22
408.023	424.76
408.401	439
408.779	436.06
409.156	433.12
409.534	431.09
409.912	449.85
410.29	448.72
410.667	451.88
411.045	440.58
411.422	444.42
411.8	432.22
412.178	487.81
412.555	464.76
412.933	465.21
413.31	453.69
413.687	442.84
414.065	467.25
414.442	470.86
414.819	485.55
415.197	482.61
415.574	470.41
415.951	484.87
416.328	508.38
416.705	469.28
417.082	489.62
417.46	479.22
417.837	493.69
418.214	475.61
418.591	481.48
418.967	489.85
419.344	513.12
419.721	526.68
420.098	508.15
420.475	497.3
420.852	513.35
421.228	514.7
421.605	519.9
421.982	531.65
422.358	518.09
422.735	524.65
423.111	522.61
423.488	516.51
423.864	547.25
424.241	554.7
424.617	557.64
424.994	561.03
425.37	566.91
425.746	551.99
426.123	562.16
426.499	562.61
426.875	579.34
427.251	581.37
427.627	601.93
428.003	592.44
428.379	577.3
428.756	578.88
429.132	588.6
429.507	599
429.883	602.84
430.259	617.98
430.635	632.89
431.011	607.13
431.387	627.7
431.763	648.71
432.138	638.54
432.514	641.25
432.89	637.64
433.265	645.1
433.641	655.27
434.016	647.36
434.392	675.83
434.767	676.73
435.143	666.34
435.518	683.51
435.894	690.97
436.269	680.58
436.644	717.64
437.02	698.2
437.395	700.69
437.77	726.68
438.145	720.35
438.52	741.59
438.895	736.62
439.271	728.26
439.646	719.67
440.021	761.48
440.395	747.69
440.77	742.04
441.145	744.98
441.52	774.36
441.895	747.92
442.27	770.29
442.645	757.41
443.019	775.26
443.394	774.13
443.769	805.32
444.143	791.53
444.518	804.64
444.892	793.34
445.267	789.05
445.641	819.55
446.016	817.52
446.39	817.97
446.764	811.42
447.139	807.13
447.513	842.15
447.887	829.95
448.262	842.38
448.636	841.02
449.01	854.36
449.384	841.7
449.758	865.88
450.132	882.15
450.506	860.01
450.88	901.36
451.254	862.49
451.628	892.77
452.002	884.86
452.376	902.94
452.75	911.3
453.123	908.14
453.497	964.18
453.871	927.35
454.244	963.73
454.618	965.31
454.992	985.2
455.365	966.67
455.739	995.82
456.112	999.66
456.486	1010.96
456.859	1021.58
457.232	1025.88
457.606	1034.69
457.979	1048.02
458.352	1058.19
458.725	1072.2
459.099	1078.08
459.472	1098.87
459.845	1131.41
460.218	1129.15
460.591	1150.39
460.964	1144.74
461.337	1160.34
461.71	1183.39
462.083	1215.02
462.456	1201.69
462.829	1223.16
463.201	1242.82
463.574	1249.37
463.947	1271.07
464.32	1292.08
464.692	1289.37
465.065	1300.22
465.438	1336.38
465.81	1328.47
466.183	1375.92
466.555	1380.9
466.928	1408.69
467.3	1406.21
467.672	1427.67
468.045	1497.28
468.417	1500.89
468.789	1503.15
469.161	1535.47
469.534	1583.6
469.906	1604.84
470.278	1607.78
470.65	1643.04
471.022	1676.71
471.394	1715.8
471.766	1760.55
472.138	1776.14
472.51	1804.16
472.882	1870.37
473.253	1856.82
473.625	1881
473.997	1954.44
474.369	2004.16
474.74	2048.9
475.112	2099.97
475.484	2132.29
475.855	2211.16
476.227	2258.84
476.598	2329.57
476.97	2361.89
477.341	2431.26
477.713	2469
478.084	2543.13
478.455	2641.65
478.827	2675.78
479.198	2773.18
479.569	2818.37
479.94	2908.31
480.311	2988.76
480.682	3106.5
481.053	3149.66
481.424	3265.59
481.795	3379.71
482.166	3471.01
482.537	3527.05
482.908	3592.82
483.279	3733.15
483.65	3827.84
484.021	3959.13
484.391	4061.05
484.762	4118.45
485.133	4219.24
485.503	4318.22
485.874	4437.54
486.244	4539.46
486.615	4746.68
486.985	4846.12
487.356	5029.84
487.726	5070.52
488.097	5220.79
488.467	5305.09
488.837	5522.26
489.207	5653.1
489.578	5748.24
489.948	5890.61
490.318	6038.63
490.688	6096.7
491.058	6254.89
491.428	6401.1
491.798	6606.97
492.168	6771.04
492.538	6895.33
492.908	6994.53
493.278	7145.72
493.648	7265.26
494.017	7446.95
494.387	7558.81
494.757	7666.61
495.126	7866.38
495.496	7876.77
495.866	8099.36
496.235	8160.15
496.605	8368.51
496.974	8417.55
497.344	8528.73
497.713	8690.08
498.082	8866.57
498.452	8951.09
498.821	9029.28
499.19	9135.49
499.559	9287.81
499.928	9375.04
500.298	9523.28
500.667	9615.71
501.036	9674.92
501.405	9820.67
501.774	9896.83
502.143	9987.9
502.512	10069.26
502.88	10177.73
503.249	10201.68
503.618	10351.96
503.987	10469.92
504.356	10507.66
504.724	10691.61
505.093	10747.2
505.462	10785.39
505.83	10878.95
506.199	10999.63
506.567	11103.13
506.936	11126.18
507.304	11219.96
507.672	11320.3
508.041	11327.53
508.409	11496.11
508.777	11566.39
509.145	11589.44
509.514	11633.06
509.882	11733.39
510.25	11729.55
510.618	11851.36
510.986	11854.29
511.354	11971.13
511.722	12093.83
512.09	12148.52
512.458	12089.54
512.826	12253.38
513.193	12305.81
513.561	12389.42
513.929	12457.21
514.297	12535.4
514.664	12535.63
515.032	12606.14
515.4	12626.25
515.767	12694.04
516.135	12732.01
516.502	12668.06
516.869	12794.83
517.237	12857.66
517.604	12863.76
517.972	12922.29
518.339	12931.1
518.706	12999.35
519.073	13023.53
519.44	13048.84
519.808	13113.02
520.175	13118.21
520.542	13167.93
520.909	13282.73
521.276	13166.57
521.643	13355.27
522.009	13355.95
522.376	13378.09
522.743	13393.69
523.11	13506.68
523.477	13517.3
523.843	13550.52
524.21	13725.88
524.577	13721.36
524.943	13731.98
525.31	13750.97
525.676	13777.18
526.043	13910.51
526.409	13810.85
526.776	13875.26
527.142	13863.96
527.508	13868.25
527.874	13915.26
528.241	13970.4
528.607	14049.04
528.973	13982.6
529.339	13957.06
529.705	14075.7
530.071	14028.47
530.437	14059.21
530.803	14063.73
531.169	14135.81
531.535	14028.47
531.901	14008.13
532.267	14024.41
532.632	14134.91
532.998	14034.12
533.364	14108.24
533.73	14160.67
534.095	14134.23
534.461	14073.9
534.826	14111.18
535.192	14093.1
535.557	14108.47
535.923	14033.22
536.288	13929.72
536.653	14062.82
537.019	13816.05
537.384	13837.07
537.749	13985.54
538.114	13942.37
538.479	13817.86
538.845	13828.93
539.21	13765.65
539.575	13811.08
539.94	13797.07
540.305	13794.58
540.67	13747.58
541.034	13670.29
541.399	13678.88
541.764	13684.08
542.129	13681.14
542.494	13599.11
542.858	13591.2
543.223	13540.35
543.587	13540.12
543.952	13494.93
544.316	13475.49
544.681	13445.44
545.045	13422.61
545.41	13415.16
545.774	13343.29
546.138	13352.11
546.503	13357.53
546.867	13198.89
547.231	13289.06
547.595	13248.38
547.959	13220.13
548.324	13159.34
548.688	13137.87
549.052	13125.22
549.416	13091.1
549.779	13093.58
550.143	13016.07
550.507	13087.25
550.871	13009.52
551.235	12965.22
551.599	13013.13
551.962	12883.64
552.326	12945.79
552.689	12934.49
553.053	12778.79
553.417	12830.99
553.78	12928.39
554.143	12767.49
554.507	12798.45
554.87	12761.84
555.234	12945.79
555.597	12783.53
555.96	12779.69
556.323	12778.79
556.686	12684.55
557.05	12716.42
557.413	12731.33
557.776	12659.02
558.139	12729.3
558.502	12702.63
558.865	12665.8
559.228	12722.52
559.59	12638.68
559.953	12664.67
560.316	12744.44
560.679	12739.02
561.041	12728.62
561.404	12665.34
561.767	12721.61
562.129	12674.38
562.492	12743.08
562.854	12788.51
563.217	12688.62
563.579	12720.03
563.941	12767.72
564.304	12742.86
564.666	12830.76
565.028	12788.28
565.39	12786.47
565.753	12819.69
566.115	12881.61
566.477	12930.87
566.839	12885.9
567.201	12848.39
567.563	12900.59
567.925	12929.97
568.287	12937.2
568.648	12851.1
569.01	12896.53
569.372	12939.69
569.734	13008.16
570.095	12993.47
570.457	13046.8
570.819	12981.27
571.18	12957.09
571.542	13042.28
571.903	13087.03
572.265	13031.44
572.626	13007.93
572.987	13084.99
573.349	13105.79
573.71	13061.94
574.071	13083.19
574.432	13173.13
574.794	13207.03
575.155	13194.82
575.516	13111.43
575.877	13179.91
576.238	13226.46
576.599	13240.02
576.96	13214.48
577.32	13153.24
577.681	13228.72
578.042	13223.75
578.403	13214.94
578.763	13229.17
579.124	13200.25
579.485	13170.19
579.845	13280.47
580.206	13187.14
580.566	13219.91
580.927	13143.75
581.287	13227.82
581.648	13183.98
582.008	13313.46
582.368	13207.25
582.728	13187.37
583.089	13190.98
583.449	13201.6
583.809	13124.09
584.169	13172.45
584.529	13075.96
584.889	13264.43
585.249	13108.72
585.609	13137.2
585.969	13155.5
586.329	13038.89
586.688	13054.49
587.048	13195.05
587.408	13020.14
587.768	13001.38
588.127	12974.04
588.487	13098.78
588.846	13080.02
589.206	13055.39
589.565	13013.58
589.925	13055.17
590.284	13082.28
590.643	13105.33
591.003	13085.67
591.362	13143.75
591.721	13101.94
592.08	13013.36
592.44	13082.06
592.799	13025.34
593.158	13045.45
593.517	12982.4
593.876	13057.65
594.235	12980.14
594.593	12950.99
594.952	13015.39
595.311	12922.74
595.67	12887.94
596.029	13049.06
596.387	12950.99
596.746	12940.14
597.104	12927.03
597.463	12931.33
597.822	13009.29
598.18	12882.97
598.538	12908.5
598.897	12935.85
599.255	12867.37
599.613	13016.3
599.972	12972.23
600.33	12969.29
600.688	12828.73
601.046	12887.71
601.404	12893.36
601.762	12861.27
602.12	12999.57
602.478	12926.81
602.836	12931.33
603.194	12939.24
603.552	12893.81
603.91	12892.46
604.268	12936.75
604.625	12864.89
604.983	12954.6
605.341	12938.11
605.698	12934.26
606.056	12973.81
606.413	12957.99
606.771	12971.1
607.128	12957.09
607.485	12937.65
607.843	12993.25
608.2	12992.34
608.557	12982.62
608.914	13068.5
609.272	13044.09
609.629	13020.59
609.986	13014.04
610.343	13025.11
610.7	13065.33
611.057	13041.61
611.414	13048.61
611.771	13020.14
612.127	13178.55
612.484	13154.82
612.841	13178.55
613.198	13073.02
613.554	13127.93
613.911	13194.37
614.267	13212.68
614.624	13126.12
614.98	13157.54
615.337	13216.29
615.693	13218.55
616.05	13187.82
616.406	13268.49
616.762	13205.67
617.118	13187.14
617.475	13215.84
617.831	13228.27
618.187	13313.92
618.543	13181.49
618.899	13266.46
619.255	13246.12
619.611	13369.51
619.967	13299
620.323	13397.98
620.678	13352.11
621.034	13310.53
621.39	13263.97
621.746	13269.62
622.101	13393.01
622.457	13350.07
622.812	13297.42
623.168	13312.11
623.523	13449.28
623.879	13336.51
624.234	13327.7
624.589	13304.2
624.945	13399.56
625.3	13370.64
625.655	13356.4
626.01	13406.34
626.365	13368.15
626.72	13331.32
627.075	13306.68
627.43	13290.87
627.785	13304.88
628.14	13273.24
628.495	13240.47
628.85	13307.81
629.205	13282.96
629.559	13326.34
629.914	13211.55
630.269	13248.61
630.623	13169.96
630.978	13204.99
631.332	13308.72
631.687	13277.98
632.041	13254.03
632.396	13197.76
632.75	13197.08
633.104	13144.43
633.459	13138.33
633.813	13084.32
634.167	13098.55
634.521	13178.55
634.875	13209.29
635.229	13170.64
635.583	13006.35
635.937	13108.27
636.291	13048.39
636.645	13045.67
636.999	12971.55
637.352	13111.43
637.706	12957.31
638.06	13039.12
638.413	12913.02
638.767	12849.52
639.121	12924.32
639.474	12833.48
639.828	12906.47
640.181	12841.39
640.534	12868.28
640.888	12854.04
641.241	12794.83
641.594	12851.33
641.947	12802.97
642.301	12779.24
642.654	12749.64
643.007	12883.87
643.36	12783.76
643.713	12825.11
644.066	12794.83
644.419	12819.01
644.771	12643.88
645.124	12603.65
645.477	12579.25
645.83	12429.64
646.182	12417.67
646.535	12335.18
646.888	12403.66
647.24	12349.42
647.593	12388.29
647.945	12362.75
648.298	12333.6
648.65	12317.33
649.002	12362.53
649.355	12395.75
649.707	12334.96
650.059	12347.39
650.411	12561.39
650.763	12494.05
651.115	12636.87
651.467	12595.29
651.819	12642.29
652.171	12611.11
652.523	12589.41
652.875	12603.43
653.227	12583.31
653.578	12659.92
653.93	12573.37
654.282	12609.3
654.633	12518.23
654.985	12631
655.337	12641.62
655.688	12631.22
656.039	12721.39
656.391	12565.91
656.742	12653.82
657.094	12611.79
657.445	12633.26
657.796	12582.41
658.147	12560.26
658.498	12637.32
658.849	12704.89
659.2	12663.09
659.551	12571.34
659.902	12654.95
660.253	12603.43
660.604	12643.65
660.955	12614.05
661.306	12688.4
661.656	12617.21
662.007	12634.84
662.358	12691.33
662.708	12704.44
663.059	12598.23
663.409	12593.48
663.76	12758.45
664.11	12634.39
664.461	12780.14
664.811	12715.74
665.161	12763.87
665.511	12659.02
665.862	12677.55
666.212	12730.88
666.562	12710.54
666.912	12732.01
667.262	12698.34
667.612	12650.66
667.962	12748.96
668.312	12664.89
668.662	12750.99
669.011	12797.32
669.361	12664.22
669.711	12697.89
670.06	12607.72
670.41	12615.63
670.76	12620.15
671.109	12614.5
671.459	12708.51
671.808	12610.66
672.157	12691.56
672.507	12591
672.856	12548.96
673.205	12578.12
673.554	12606.36
673.904	12628.28
674.253	12612.01
674.602	12549.42
674.951	12380.61
675.3	12383.09
675.649	12498.34
675.998	12545.57
676.346	12457.44
676.695	12547.83
677.044	12383.09
677.393	12546.7
677.741	12478.91
678.09	12500.6
678.438	12414.05
678.787	12413.15
679.135	12448.18
679.484	12349.42
679.832	12360.04
680.181	12391.45
680.529	12374.05
680.877	12236.88
681.225	12309.2
681.573	12261.97
681.922	12286.6
682.27	12192.14
682.618	12181.74
682.966	12188.75
683.314	12235.98
683.661	12155.98
684.009	12096.09
684.357	12047.73
684.705	12058.13
685.053	12142.65
685.4	12050.9
685.748	11952.14
686.095	11982.65
686.443	11899.49
686.79	11828.76
687.138	11914.18
687.485	11918.47
687.832	11852.48
688.18	11927.06
688.527	11762.09
688.874	11827.85
689.221	11769.55
689.568	11695.88
689.915	11632.6
690.262	11565.49
690.609	11606.62
690.956	11566.16
691.303	11584.7
691.65	11496.11
691.997	11476
692.344	11363.46
692.69	11405.72
693.037	11401.65
693.383	11295.66
693.73	11327.98
694.077	11274.2
694.423	11253.4
694.769	11228.77
695.116	11123.69
695.462	11146.51
695.808	11058.38
696.155	11117.82
696.501	11010.93
696.847	10980.64
697.193	10896.58
697.539	10938.84
697.885	10868.56
698.231	10824.72
698.577	10808.22
698.923	10788.11
699.269	10657.04
699.614	10642.12
699.96	10577.94
700.306	10599.41
700.651	10485.74
700.997	10520.77
701.342	10495.01
701.688	10391.05
702.033	10468.57
702.379	10385.86
702.724	10335.46
703.069	10350.6
703.415	10207.1
703.76	10172.76
704.105	10197.16
704.45	10164.62
704.795	10060.44
705.14	10097.5
705.485	10043.49
705.83	10057.05
706.175	10025.87
706.52	10060.22
706.865	9920.11
707.209	9857.96
707.554	9870.84
707.899	9913.55
708.243	9774.12
708.588	9805.53
708.932	9759.66
709.277	9723.73
709.621	9702.94
709.966	9747.23
710.31	9713.11
710.654	9595.14
710.998	9622.04
711.342	9647.12
711.687	9532.55
712.031	9546.33
712.375	9506.33
712.719	9495.94
713.063	9574.35
713.407	9558.31
713.75	9548.82
714.094	9450.97
714.438	9418.88
714.782	9401.93
715.125	9387.24
715.469	9347.24
715.812	9288.03
716.156	9330.97
716.499	9328.26
716.843	9297.98
717.186	9261.59
717.53	9276.73
717.873	9339.56
718.216	9259.11
718.559	9223.63
718.902	9168.94
719.246	9222.95
719.589	9166.45
719.932	9171.43
720.275	9112.44
720.617	9180.24
720.96	9151.77
721.303	9107.02
721.646	9135.49
721.989	9077.42
722.331	9139.11
722.674	9179.79
723.016	9133.01
723.359	9125.1
723.701	9086.91
724.044	8990.41
724.386	9002.16
724.729	9031.32
725.071	8996.74
725.413	8973.69
725.755	8981.6
726.097	8929.17
726.439	8942.28
726.782	8972.79
727.124	8932.34
727.465	8862.73
727.807	8940.02
728.149	8916.97
728.491	8901.15
728.833	8856.63
729.175	8942.05
729.516	8938.66
729.858	8910.87
730.199	8894.14
730.541	8831.32
730.882	8813.24
731.224	8898.89
731.565	8849.63
731.906	8857.54
732.248	8848.5
732.589	8753.58
732.93	8818.21
733.271	8822.28
733.612	8913.81
733.953	8875.39
734.294	8831.1
734.635	8843.07
734.976	8870.19
735.317	8794.94
735.658	8844.43
735.999	8865.22
736.339	8846.91
736.68	8878.55
737.021	8818.67
737.361	8785.22
737.702	8915.39
738.042	8890.3
738.383	8864.31
738.723	8871.77
739.063	8907.48
739.404	8958.32
739.744	8897.53
740.084	8928.27
740.424	8965.56
740.764	8942.05
741.104	9016.4
741.444	8936.4
741.784	8949.96
742.124	8970.3
742.464	9004.2
742.804	9026.57
743.143	8998.55
743.483	9097.53
743.823	9096.63
744.162	9197.64
744.502	9120.58
744.841	9154.7
745.181	9247.36
745.52	9231.99
745.86	9299.11
746.199	9295.72
746.538	9295.04
746.877	9443.28
747.216	9451.42
747.556	9460.46
747.895	9467.24
748.234	9528.48
748.573	9631.3
748.911	9636.5
749.25	9753.11
749.589	9838.75
749.928	9930.5
750.267	9989.03
750.605	9989.48
750.944	10110.16
751.283	10182.25
751.621	10286.88
751.96	10291.17
752.298	10357.83
752.636	10617.04
752.975	10569.35
753.313	10640.31
753.651	10866.97
753.989	10889.35
754.327	10967.31
754.666	11086.86
755.004	11200.07
755.342	11393.06
755.679	11511.7
756.017	11688.2
756.355	11708.31
756.693	11906.04
757.031	12048.41
757.368	12138.58
757.706	12321.4
758.044	12364.56
758.381	12660.6
758.719	12739.69
759.056	12904.43
759.394	13021.72
759.731	13162.28
760.068	13362.05
760.405	13451.54
760.743	13605.89
761.08	13811.98
761.417	13893.34
761.754	14120
762.091	14251.07
762.428	14424.62
762.765	14551.4
763.102	14772.86
763.438	14852.86
763.775	14956.13
764.112	15265.28
764.449	15438.61
764.785	15594.53
765.122	15553.86
765.458	15792.27
765.795	15951.59
766.131	16061.64
766.467	16265.02
766.804	16279.26
767.14	16434.29
767.476	16544.34
767.812	16676.99
768.148	16895.06
768.485	16928.51
768.821	17047.83
769.157	17217.32
769.492	17248.5
769.828	17379.57
770.164	17381.83
770.5	17468.16
770.836	17656.17
771.171	17698.21
771.507	17863.17
771.842	17913.12
772.178	17967.13
772.513	18076.05
772.849	18067.91
773.184	18108.37
773.519	18255.93
773.855	18275.14
774.19	18342.94
774.525	18386.55
774.86	18382.26
775.195	18591.97
775.53	18524.85
775.865	18475.36
776.2	18510.39
776.535	18445.98
776.87	18523.72
777.205	18625.87
777.539	18556.26
777.874	18754.22
778.209	18606.88
778.543	18582.48
778.878	18535.93
779.212	18674.9
779.547	18640.33
779.881	18737.5
780.215	18707.45
780.55	18721.91
780.884	18730.72
781.218	18690.27
781.552	18850.95
781.886	18866.76
782.22	18658.86
782.554	18770.04
782.888	18559.43
783.222	18599.65
783.556	18539.77
783.889	18647.79
784.223	18489.82
784.557	18504.06
784.89	18600.1
785.224	18472.65
785.557	18373.67
785.891	18489.82
786.224	18472.65
786.558	18515.81
786.891	18351.07
787.224	18459.09
787.557	18287.34
787.891	18304.74
788.224	18340.22
788.557	18407.57
788.89	18313.33
789.223	18313.56
789.556	18255.03
789.888	18173
790.221	18137.74
790.554	18037.41
790.887	18165.54
791.219	18055.71
791.552	18003.96
791.884	17984.98
792.217	17997.86
792.549	17883.29
792.882	17848.71
793.214	17757.19
793.546	17799.22
793.879	17730.3
794.211	17507.25
794.543	17667.25
794.875	17611.88
795.207	17737.98
795.539	17626.12
795.871	17565.1
796.203	17397.42
796.535	17413.24
796.867	17379.57
797.198	17296.86
797.53	17273.59
797.862	17168.05
798.193	17228.61
798.525	17168.96
798.856	17108.62
799.188	17032.91
799.519	16957.21
799.85	16904.78
800.182	16887.38
800.513	16953.37
800.844	16853.26
801.175	16847.38
801.506	16799.47
801.837	16858.68
802.168	16841.51
802.499	16721.96
802.83	16566.26
803.161	16471.12
803.491	16561.06
803.822	16526.03
804.153	16415.98
804.483	16336.89
804.814	16351.58
805.145	16431.57
805.475	16304.57
805.805	16347.73
806.136	16270
806.466	16375.98
806.796	16245.14
807.126	16022.54
807.457	16002.21
807.787	16135.31
808.117	16049.66
808.447	15999.72
808.777	15979.38
809.107	15929.44
809.436	15764.02
809.766	15772.83
810.096	15744.59
810.426	15761.53
810.755	15733.29
811.085	15740.97
811.414	15754.53
811.744	15588.21
812.073	15525.38
812.403	15493.97
812.732	15480.86
813.061	15539.62
813.39	15479.96
813.719	15398.38
814.049	15443.13
814.378	15276.58
814.707	15305.28
815.036	15262.34
815.365	15265.5
815.693	15198.84
816.022	15098.73
816.351	15148.44
816.68	15070.93
817.008	15139.86
817.337	14956.81
817.665	14882.91
817.994	14888.79
818.322	14928.79
818.651	14881.56
818.979	14814.44
819.307	14948.22
819.636	14918.62
819.964	14775.35
820.292	14865.74
820.62	14792.75
820.948	14782.58
821.276	14807.44
821.604	14750.26
821.932	14782.8
822.259	14754.33
822.587	14738.74
822.915	14721.56
823.243	14872.74
823.57	14675.24
823.898	14776.93
824.225	14639.08
824.553	14781.9
824.88	14784.16
825.207	14698.51
825.535	14756.14
825.862	14750.26
826.189	14736.02
826.516	14690.6
826.843	14755.23
827.17	14806.98
827.497	14734.22
827.824	14747.78
828.151	14896.7
828.478	14718.17
828.805	14850.15
829.131	14731.05
829.458	14705.74
829.785	14691.73
830.111	14739.64
830.438	14746.65
830.764	14750.04
831.09	14796.14
831.417	14776.93
831.743	14674.78
832.069	14596.59
832.395	14719.3
832.722	14632.75
833.048	14657.61
833.374	14731.73
833.7	14625.97
834.026	14608.34
834.351	14677.95
834.677	14682.24
835.003	14650.15
835.329	14519.53
835.654	14580.55
835.98	14496.48
836.306	14538.52
836.631	14489.25
836.956	14512.3
837.282	14535.58
837.607	14474.34
837.932	14522.92
838.258	14472.3
838.583	14390.05
838.908	14345.07
839.233	14372.64
839.558	14327.9
839.883	14324.96
840.208	14285.19
840.533	14326.54
840.858	14205.64
841.182	14285.19
841.507	14176.72
841.832	14124.06
842.156	14072.54
842.481	14091.97
842.805	14131.97
843.13	14024.41
843.454	13980.56
843.778	14036.16
844.103	13917.74
844.427	13878.65
844.751	13932.2
845.075	13826.22
845.399	13780.8
845.723	13784.19
846.047	13749.38
846.371	13631.42
846.695	13596.62
847.019	13547.81
847.343	13482.27
847.666	13463.06
847.99	13359.11
848.313	13310.3
848.637	13281.6
848.96	13188.5
849.284	13155.5
849.607	13144.65
849.931	13143.3
850.254	13084.99
850.577	12937.2
850.9	12832.12
851.223	12892.68
851.546	12731.11
851.869	12762.07
852.192	12812.46
852.515	12604.1
852.838	12635.74
853.161	12635.97
853.483	12450.89
853.806	12481.39
854.129	12432.13
854.451	12437.1
854.774	12348.29
855.096	12336.09
855.419	12235.75
855.741	12243.44
856.063	12200.05
856.385	12177.45
856.708	12104.91
857.03	12056.55
857.352	12091.8
857.674	12017.68
857.996	12014.74
858.318	11931.13
858.64	11878.47
858.961	11831.02
859.283	11859.72
859.605	11805.25
859.926	11809.1
860.248	11735.88
860.57	11732.04
860.891	11746.27
861.212	11614.98
861.534	11605.26
861.855	11673.05
862.176	11603
862.498	11571.36
862.819	11596.9
863.14	11526.39
863.461	11532.72
863.782	11505.38
864.103	11487.75
864.424	11389.67
864.745	11410.24
865.065	11371.14
865.386	11309.22
865.707	11329.79
866.027	11308.32
866.348	11238.04
866.668	11294.53
866.989	11253.63
867.309	11143.58
867.63	11206.85
867.95	11154.42
868.27	11135.67
868.59	11188.55
868.91	11088.44
869.23	11101.32
869.55	11031.94
869.87	11166.4
870.19	11094.99
870.51	11081.43
870.83	11033.07
871.15	11008.21
871.469	10933.19
871.789	11038.04
872.109	10934.77
872.428	10945.62
872.748	10950.59
873.067	10963.24
873.386	10901.1
873.706	10916.24
874.025	10802.34
874.344	10788.33
874.663	10843.47
874.982	10804.38
875.301	10766.41
875.62	10767.77
875.939	10744.94
876.258	10738.62
876.577	10662.01
876.896	10657.94
877.214	10692.52
877.533	10741.55
877.852	10585.85
878.17	10747.66
878.489	10662.69
878.807	10684.38
879.125	10592.86
879.444	10600.99
879.762	10549.47
880.08	10541.11
880.398	10494.78
880.716	10547.43
881.034	10437.61
881.352	10436.03
881.67	10419.53
881.988	10437.83
882.306	10375.01
882.624	10340.66
882.941	10319.42
883.259	10286.88
883.577	10302.47
883.894	10279.64
884.212	10217.95
884.529	10180.44
884.846	10238.97
885.164	10168.24
885.481	10120.1
885.798	10168.69
886.115	10013.44
886.432	10068.58
886.75	10057.73
887.067	10072.64
887.383	9982.93
887.7	9968.69
888.017	9936.38
888.334	9979.31
888.651	9897.51
888.967	9864.74
889.284	9805.31
889.6	9810.05
889.917	9794.01
890.233	9812.99
890.55	9743.16
890.866	9783.16
891.182	9717.85
891.498	9680.11
891.815	9641.24
892.131	9601.47
892.447	9573.67
892.763	9525.77
893.079	9496.39
893.395	9470.85
893.71	9427.69
894.026	9418.88
894.342	9373.45
894.657	9316.73
894.973	9246.9
895.289	9315.83
895.604	9279.45
895.92	9168.26
896.235	9206.9
896.55	9153.35
896.865	9112.22
897.181	9128.71
897.496	9110.18
897.811	9092.11
898.126	8974.37
898.441	8985.22
898.756	8956.52
899.071	8926.46
899.386	8861.38
899.7	8786.8
900.015	8860.93
900.33	8768.27
900.644	8688.5
900.959	8751.1
901.273	8676.52
901.588	8672.91
901.902	8638.56
902.216	8572.57
902.531	8561.72
902.845	8562.4
903.159	8453.48
903.473	8499.58
903.787	8409.19
904.101	8373.03
904.415	8403.99
904.729	8348.85
905.042	8291.9
905.356	8342.97
905.67	8270.88
905.984	8260.04
906.297	8176.42
906.611	8118.8
906.924	8189.53
907.237	8086.93
907.551	8116.09
907.864	7996.99
908.177	8020.95
908.491	8064.11
908.804	7987.5
909.117	7942.76
909.43	7853.27
909.743	7783.44
910.056	7861.63
910.368	7790.67
910.681	7714.06
910.994	7705.93
911.307	7624.35
911.619	7651.92
911.932	7702.54
912.244	7573.5
912.557	7616.66
912.869	7495.99
913.181	7473.84
913.494	7453.96
913.806	7378.7
914.118	7374.18
914.43	7375.99
914.742	7371.92
915.054	7291.93
915.366	7204.25
915.678	7217.8
915.99	7166.73
916.302	7146.17
916.613	7140.74
916.925	7133.06
917.236	7075.66
917.548	7129.45
917.859	7117.69
918.171	7010.35
918.482	6996.57
918.794	6900.75
919.105	6946.85
919.416	6891.49
919.727	6940.75
920.038	6886.29
920.349	6820.98
920.66	6789.12
920.971	6793.63
921.282	6733.52
921.593	6718.38
921.903	6684.49
922.214	6648.33
922.525	6629.35
922.835	6566.52
923.146	6515.68
923.456	6557.71
923.767	6481.78
924.077	6529.01
924.387	6432.29
924.697	6465.28
925.008	6451.95
925.318	6429.12
925.628	6331.5
925.938	6405.4
926.248	6312.74
926.558	6228.68
926.867	6242.46
927.177	6189.58
927.487	6172.18
927.796	6143.93
928.106	6159.98
928.416	6099.87
928.725	6116.14
929.034	6074.56
929.344	6081.56
929.653	6043.15
929.962	6005.41
930.271	5993.2
930.581	5976.93
930.89	5872.98
931.199	5884.28
931.508	5901.45
931.817	5867.11
932.125	5782.36
932.434	5832.08
932.743	5788.69
933.051	5740.56
933.36	5706.66
933.669	5682.7
933.977	5694.91
934.286	5701.01
934.594	5654.91
934.902	5636.15
935.21	5559.09
935.519	5582.82
935.827	5571.29
936.135	5520.9
936.443	5487.45
936.751	5489.49
937.059	5468.47
937.367	5472.99
937.674	5381.92
937.982	5354.35
938.29	5304.18
938.597	5350.74
938.905	5307.12
939.213	5310.74
939.52	5302.6
939.827	5225.77
940.135	5217.18
940.442	5197.74
940.749	5193.9
941.056	5145.32
941.363	5124.53
941.67	5099.44
941.977	5095.37
942.284	5023.29
942.591	5079.33
942.898	4974.47
943.205	5011.31
943.511	4971.99
943.818	4982.84
944.125	4936.73
944.431	4890.18
944.738	4892.67
945.044	4922.5
945.35	4821.48
945.657	4766.57
945.963	4778.32
946.269	4762.5
946.575	4791.2
946.881	4725.21
947.187	4676.4
947.493	4724.08
947.799	4730.64
948.105	4670.07
948.41	4633.01
948.716	4625.1
949.022	4584.65
949.327	4563.19
949.633	4517.08
949.938	4530.64
950.244	4520.25
950.549	4514.37
950.854	4489.29
951.16	4516.86
951.465	4464.66
951.77	4443.87
952.075	4421.95
952.38	4401.16
952.685	4429.18
952.99	4367.94
953.294	4353.02
953.599	4283.87
953.904	4288.84
954.209	4279.35
954.513	4255.17
954.818	4244.32
955.122	4228.28
955.426	4221.95
955.731	4247.94
956.035	4169.07
956.339	4173.82
956.643	4140.6
956.948	4157.09
957.252	4131.33
957.556	4138.79
957.86	4082.75
958.163	4085.68
958.467	4032.13
958.771	4059.92
959.075	4036.65
959.378	3995.97
959.682	3989.64
959.985	3946.25
960.289	3958
960.592	3948.74
960.896	3911.22
961.199	3888.4
961.502	3871.68
961.805	3882.3
962.108	3827.39
962.411	3814.05
962.714	3791.91
963.017	3804.79
963.32	3798.46
963.623	3746.94
963.926	3729.99
964.228	3738.57
964.531	3709.87
964.833	3682.08
965.136	3655.41
965.438	3646.15
965.741	3605.47
966.043	3612.48
966.345	3619.03
966.648	3590.33
966.95	3618.35
967.252	3550.33
967.554	3531.8
967.856	3563.66
968.158	3495.19
968.46	3542.42
968.761	3479.6
969.063	3515.98
969.365	3447.51
969.666	3411.35
969.968	3421.97
970.269	3387.62
970.571	3448.64
970.872	3391.69
971.174	3360.73
971.475	3339.49
971.776	3347.62
972.077	3294.74
972.378	3363.67
972.679	3285.7
972.98	3285.25
973.281	3255.65
973.582	3258.13
973.883	3249.1
974.183	3249.32
974.484	3259.94
974.785	3194.86
975.085	3204.58
975.386	3195.31
975.686	3120.74
975.986	3172.71
976.287	3097.23
976.587	3049.33
976.887	3087.52
977.187	3133.62
977.487	3085.03
977.787	3040.97
978.087	3036.9
978.387	3006.16
978.687	3025.82
978.987	2985.83
979.286	3002.32
979.586	2973.4
979.885	2935.43
980.185	2915.54
980.484	2924.13
980.784	2908.77
981.083	2934.53
981.382	2906.51
981.682	2871.7
981.981	2842.33
982.28	2854.98
982.579	2806.4
982.878	2832.38
983.177	2815.66
983.475	2777.47
983.774	2793.74
984.073	2749.67
984.372	2766.4
984.67	2780.86
984.969	2744.48
985.267	2719.17
985.566	2747.41
985.864	2690.69
986.162	2666.96
986.461	2643.24
986.759	2703.12
987.057	2652.05
987.355	2603.24
987.653	2642.11
987.951	2590.13
988.249	2633.52
988.547	2567.53
988.844	2589.68
989.142	2588.1
989.44	2555.33
989.737	2559.4
990.035	2530.47
990.332	2559.17
990.63	2522.33
990.927	2513.07
991.224	2497.25
991.521	2480.08
991.819	2465.61
992.116	2468.55
992.413	2437.82
992.71	2444.37
993.006	2444.37
993.303	2444.82
993.6	2399.85
993.897	2386.07
994.193	2377.25
994.49	2388.55
994.787	2365.5
995.083	2337.93
995.379	2337.48
995.676	2279.4
995.972	2309.01
996.268	2283.7
996.565	2259.97
996.861	2255
997.157	2235.79
997.453	2256.35
997.749	2277.82
998.044	2244.6
998.34	2220.42
998.636	2210.7
998.932	2214.77
999.227	2186.98
999.523	2196.69
999.818	2167.77
1000.114	2156.92
1000.409	2139.07
1000.704	2130.71
1001	2163.47
1001.295	2076.02
1001.59	2114.21
1001.885	2082.12
1002.18	2074.66
1002.475	2072.63
1002.77	2047.77
1003.065	2048.22
1003.359	2043.93
1003.654	2033.31
1003.949	2035.57
1004.243	2024.95
1004.538	1941.79
1004.832	1944.5
1005.127	1998.73
1005.421	1943.82
1005.715	1933.42
1006.009	1923.93
1006.304	1930.26
1006.598	1909.7
1006.892	1936.81
1007.186	1897.72
1007.48	1867.21
1007.773	1868.57
1008.067	1847.78
1008.361	1852.07
1008.655	1830.38
1008.948	1820.88
1009.242	1824.5
1009.535	1794.9
1009.829	1805.74
1010.122	1762.13
1010.415	1783.82
1010.708	1770.26
1011.001	1735.69
1011.295	1756.03
1011.588	1709.25
1011.881	1709.93
1012.173	1704.5
1012.466	1686.42
1012.759	1639.19
1013.052	1692.75
1013.344	1668.8
1013.637	1661.79
1013.93	1663.15
1014.222	1649.59
1014.514	1628.57
1014.807	1636.71
1015.099	1617.73
1015.391	1594.68
1015.683	1599.42
1015.976	1588.8
1016.268	1565.75
1016.56	1557.84
1016.851	1568.01
1017.143	1534.11
1017.435	1558.52
1017.727	1535.02
1018.018	1512.19
1018.31	1525.3
1018.602	1525.3
1018.893	1489.37
1019.185	1488.01
1019.476	1481.01
1019.767	1472.42
1020.058	1460.67
1020.35	1418.86
1020.641	1411.63
1020.932	1440.1
1021.223	1410.73
1021.514	1408.47
1021.804	1388.81
1022.095	1364.63
1022.386	1391.07
1022.677	1387.9
1022.967	1345.87
1023.258	1344.96
1023.548	1339.99
1023.839	1328.02
1024.129	1331.86
1024.419	1347.45
1024.709	1280.56
1025	1298.64
1025.29	1274.68
1025.58	1291.86
1025.87	1306.55
1026.16	1257.51
1026.449	1271.07
1026.739	1254.35
1027.029	1255.7
1027.319	1227.68
1027.608	1209.37
1027.898	1232.88
1028.187	1228.13
1028.477	1192.2
1028.766	1180.22
1029.055	1186.78
1029.344	1182.93
1029.634	1162.82
1029.923	1173.22
1030.212	1150.39
1030.501	1196.27
1030.79	1143.16
1031.078	1144.29
1031.367	1128.7
1031.656	1145.2
1031.945	1113.56
1032.233	1114.69
1032.522	1107.68
1032.81	1102.71
1033.099	1083.5
1033.387	1080.56
1033.675	1056.61
1033.963	1077.63
1034.251	1070.85
1034.54	1058.42
1034.828	1048.93
1035.116	1029.72
1035.403	1025.2
1035.691	1031.98
1035.979	1011.19
1036.267	1004.63
1036.554	1017.74
1036.842	1003.73
1037.129	989.95
1037.417	984.07
1037.704	989.95
1037.992	977.74
1038.279	948.59
1038.566	942.26
1038.853	942.26
1039.14	942.26
