Data from hue_310_FLMS001491_38.txt Node
Date: Mon Feb 06 15:49:37 GMT 2017
User: dcchb
Spectrometer: FLMS00149
Trigger mode: 0
Integration Time (sec): 2.000000E-2
Scans to average: 10
Electric dark correction enabled: true
Nonlinearity correction enabled: false
Boxcar width: 0
XAxis mode: Wavelengths
Number of Pixels in Spectrum: 2048
>>>>>Begin Spectral Data<<<<<
341.393	-23.8
341.776	-23.8
342.16	-23.8
342.543	-71.03
342.927	-49.79
343.31	-66.06
343.693	-69.22
344.077	-87.07
344.46	-64.02
344.843	-62.22
345.226	-40.3
345.61	-26.74
345.993	-11.14
346.376	1.74
346.759	19.59
347.142	11.91
347.525	66.14
347.908	62.53
348.291	75.18
348.674	91.45
349.057	98.23
349.44	121.06
349.823	134.16
350.206	167.38
350.588	194.27
350.971	225.69
351.354	235.63
351.737	245.12
352.119	260.71
352.502	274.95
352.884	271.79
353.267	294.38
353.65	288.96
354.032	281.73
354.414	304.1
354.797	312.69
355.179	326.47
355.562	321.28
355.944	326.93
356.326	309.53
356.709	326.7
357.091	322.18
357.473	342.97
357.855	321.5
358.238	352.24
358.62	352.46
359.002	343.42
359.384	350.88
359.766	353.37
360.148	326.47
360.53	349.52
360.912	339.81
361.294	324.89
361.676	346.36
362.057	331.67
362.439	323.99
362.821	325.57
363.203	333.25
363.584	337.55
363.966	315.85
364.348	319.69
364.729	305.23
365.111	327.15
365.493	326.47
365.874	322.63
366.256	320.15
366.637	302.07
367.019	333.93
367.4	309.3
367.781	319.92
368.163	303.65
368.544	316.53
368.925	311.79
369.306	314.05
369.688	306.14
370.069	297.32
370.45	311.79
370.831	318.57
371.212	334.38
371.593	310.66
371.974	319.47
372.355	319.69
372.736	312.69
373.117	300.26
373.498	311.33
373.879	309.98
374.26	329.64
374.641	307.04
375.021	330.77
375.402	302.29
375.783	314.05
376.163	331.9
376.544	331.22
376.925	319.47
377.305	319.47
377.686	318.57
378.066	340.26
378.447	314.5
378.827	319.47
379.208	304.33
379.588	331.22
379.968	330.99
380.349	351.11
380.729	330.54
381.109	331.45
381.489	328.28
381.87	353.59
382.25	328.06
382.63	343.42
383.01	331.9
383.39	343.42
383.77	355.4
384.15	351.33
384.53	353.14
384.91	347.49
385.29	329.86
385.67	320.15
386.049	346.59
386.429	348.85
386.809	359.69
387.189	366.47
387.568	359.47
387.948	357.43
388.328	354.04
388.707	339.58
389.087	355.4
389.466	356.98
389.846	349.52
390.225	356.98
390.605	371.67
390.984	374.83
391.363	366.93
391.743	379.13
392.122	366.7
392.501	356.98
392.881	377.09
393.26	382.52
393.639	367.15
394.018	388.17
394.397	384.1
394.776	370.54
395.155	378
395.534	390.88
395.913	375.74
396.292	391.78
396.671	406.02
397.05	382.74
397.429	371.67
397.808	383.87
398.186	399.01
398.565	396.98
398.944	389.3
399.323	387.26
399.701	378.22
400.08	401.5
400.458	383.65
400.837	401.27
401.215	396.53
401.594	408.51
401.972	406.47
402.351	398.34
402.729	396.98
403.107	420.03
403.486	412.8
403.864	419.81
404.242	427.71
404.62	423.65
404.999	418.68
405.377	439.92
405.755	429.07
406.133	426.13
406.511	435.62
406.889	468.17
407.267	460.93
407.645	446.92
408.023	444.89
408.401	459.13
408.779	474.04
409.156	463.65
409.534	465
409.912	462.74
410.29	500.93
410.667	488.5
411.045	487.37
411.422	474.04
411.8	505.68
412.178	504.55
412.555	545.9
412.933	534.15
413.31	508.16
413.687	522.4
414.065	528.73
414.442	544.77
414.819	559.24
415.197	566.02
415.574	569.41
415.951	565.79
416.328	564.66
416.705	568.5
417.082	585.22
417.46	599.01
417.837	595.62
418.214	597.88
418.591	636.97
418.967	640.82
419.344	636.07
419.721	616.64
420.098	625.45
420.475	642.17
420.852	654.83
421.228	656.18
421.605	664.77
421.982	688.72
422.358	701.83
422.735	702.28
423.111	696.63
423.488	718.33
423.864	708.39
424.241	721.94
424.617	751.55
424.994	748.84
425.37	747.93
425.746	755.62
426.123	770.08
426.499	769.17
426.875	767.37
427.251	775.05
427.627	789.74
428.003	804.43
428.379	825.22
428.756	815.5
429.132	832.68
429.507	851.43
429.883	879.91
430.259	864.09
430.635	871.32
431.011	873.13
431.387	880.58
431.763	897.31
432.138	895.95
432.514	898.89
432.89	911.32
433.265	945.67
433.641	947.48
434.016	956.74
434.392	964.42
434.767	980.24
435.143	969.85
435.518	990.64
435.894	1005.33
436.269	1005.55
436.644	1030.86
437.02	1039.45
437.395	1042.39
437.77	1068.38
438.145	1047.36
438.52	1055.95
438.895	1063.86
439.271	1080.13
439.646	1084.87
440.021	1102.05
440.395	1127.81
440.77	1092.1
441.145	1114.02
441.52	1137.07
441.895	1126
442.27	1137.75
442.645	1141.37
443.019	1130.07
443.394	1166.45
443.769	1169.16
444.143	1180.24
444.518	1175.49
444.892	1152.44
445.267	1178.43
445.641	1187.02
446.016	1178.66
446.39	1187.47
446.764	1196.73
447.139	1201.71
447.513	1218.2
447.887	1196.28
448.262	1184.31
448.636	1205.55
449.01	1221.14
449.384	1218.65
449.758	1229.5
450.132	1265.43
450.506	1253.46
450.88	1263.4
451.254	1239.67
451.628	1265.21
452.002	1278.31
452.376	1277.18
452.75	1272.66
453.123	1291.65
453.497	1310.18
453.871	1282.38
454.244	1302.49
454.618	1295.71
454.992	1328.03
455.365	1321.93
455.739	1354.02
456.112	1347.69
456.486	1344.75
456.859	1407.35
457.232	1380.68
457.606	1385.2
457.979	1395.6
458.352	1380.68
458.725	1414.58
459.099	1394.69
459.472	1452.55
459.845	1489.16
460.218	1470.17
460.591	1470.17
460.964	1483.51
461.337	1486.22
461.71	1495.48
462.083	1528.7
462.456	1518.99
462.829	1494.13
463.201	1541.13
463.574	1508.14
463.947	1551.08
464.32	1573.9
464.692	1559.44
465.065	1590.85
465.438	1619.32
465.81	1611.86
466.183	1605.76
466.555	1668.59
466.928	1636.95
467.3	1661.81
467.672	1682.6
468.045	1696.61
468.417	1676.72
468.789	1672.65
469.161	1716.72
469.534	1728.47
469.906	1766.21
470.278	1754.46
470.65	1792.65
471.022	1818.64
471.394	1817.96
471.766	1852.08
472.138	1845.76
472.51	1858.64
472.882	1920.1
473.253	1900.9
473.625	1869.94
473.997	1917.62
474.369	1933.44
474.74	1947
475.112	1987.9
475.484	1986.32
475.855	2006.66
476.227	2025.64
476.598	2065.86
476.97	2092.98
477.341	2085.07
477.713	2143.83
478.084	2125.52
478.455	2151.96
478.827	2198.29
479.198	2217.72
479.569	2207.55
479.94	2256.37
480.311	2281.45
480.682	2331.17
481.053	2352.18
481.424	2394.44
481.795	2383.6
482.166	2393.31
482.537	2393.54
482.908	2466.53
483.279	2457.04
483.65	2524.61
484.021	2545.85
484.391	2562.35
484.762	2542.69
485.133	2548.11
485.503	2600.31
485.874	2628.79
486.244	2653.42
486.615	2695
486.985	2706.52
487.356	2723.93
487.726	2741.55
488.097	2780.2
488.467	2796.69
488.837	2846.63
489.207	2855.9
489.578	2866.75
489.948	2892.96
490.318	2944.03
490.688	2919.17
491.058	2967.31
491.428	2992.39
491.798	3004.6
492.168	3047.31
492.538	3057.48
492.908	3068.32
493.278	3109.45
493.648	3107.64
494.017	3128.66
494.387	3151.03
494.757	3197.81
495.126	3149.23
495.496	3164.14
495.866	3222.9
496.235	3237.36
496.605	3252.73
496.974	3277.81
497.344	3307.64
497.713	3311.48
498.082	3357.36
498.452	3304.7
498.821	3335.89
499.19	3352.84
499.559	3401.42
499.928	3393.29
500.298	3416.34
500.667	3429.44
501.036	3423.57
501.405	3451.82
501.774	3453.85
502.143	3493.4
502.512	3501.31
502.88	3472.61
503.249	3509.22
503.618	3519.38
503.987	3466.73
504.356	3529.78
504.724	3588.99
505.093	3580.17
505.462	3543.57
505.83	3610.23
506.199	3560.51
506.567	3621.76
506.936	3587.18
507.304	3648.65
507.672	3681.64
508.041	3658.59
508.409	3689.1
508.777	3684.8
509.145	3713.73
509.514	3712.6
509.882	3692.94
510.25	3686.39
510.618	3786.72
510.986	3729.77
511.354	3777.01
511.722	3798.7
512.09	3784.69
512.458	3769.55
512.826	3768.87
513.193	3781.07
513.561	3802.09
513.929	3825.82
514.297	3846.38
514.664	3823.11
515.032	3907.17
515.4	3869.66
515.767	3878.02
516.135	3896.32
516.502	3873.95
516.869	3915.31
517.237	3924.35
517.604	3887.74
517.972	3911.24
518.339	3925.93
518.706	3933.84
519.073	3969.77
519.44	3958.47
519.808	3939.49
520.175	3992.37
520.542	3995.98
520.909	4001.63
521.276	4007.51
521.643	4017.9
522.009	4049.99
522.376	4051.57
522.743	4096.32
523.11	4127.28
523.477	4104
523.843	4172.25
524.21	4150.78
524.577	4135.19
524.943	4214.28
525.31	4186.94
525.676	4242.3
526.043	4247.95
526.409	4240.95
526.776	4299.48
527.142	4285.24
527.508	4303.55
527.874	4315.52
528.241	4353.26
528.607	4358.68
528.973	4419.47
529.339	4376.99
529.705	4419.47
530.071	4447.72
530.437	4463.31
530.803	4490.88
531.169	4489.75
531.535	4522.75
531.901	4557.55
532.267	4550.32
532.632	4542.18
532.998	4584.67
533.364	4574.27
533.73	4625.8
534.095	4640.49
534.461	4682.97
534.826	4678.45
535.192	4668.06
535.557	4723.65
535.923	4734.49
536.288	4783.76
536.653	4804.32
537.019	4768.62
537.384	4774.72
537.749	4822.63
538.114	4845.23
538.479	4841.84
538.845	4868.95
539.21	4908.27
539.575	4889.07
539.94	4899.01
540.305	4995.05
540.67	4990.98
541.034	5004.09
541.399	5025.79
541.764	5045.67
542.129	5049.97
542.494	5063.07
542.858	5116.41
543.223	5094.94
543.587	5194.82
543.952	5102.17
544.316	5149.62
544.681	5206.35
545.045	5247.93
545.41	5247.25
545.774	5218.1
546.138	5258.32
546.503	5261.03
546.867	5278.21
547.231	5326.12
547.595	5337.42
547.959	5336.51
548.324	5414.93
548.688	5392.1
549.052	5421.48
549.416	5427.58
549.779	5410.86
550.143	5416.96
550.507	5495.15
550.871	5465.32
551.235	5484.76
551.599	5554.36
551.962	5544.87
552.326	5565.88
552.689	5615.83
553.053	5585.09
553.417	5580.8
553.78	5606.11
554.143	5610.18
554.507	5637.52
554.87	5675.71
555.234	5718.65
555.597	5659.89
555.96	5695.15
556.323	5770.4
556.686	5756.16
557.05	5769.27
557.413	5833.9
557.776	5778.99
558.139	5847.01
558.502	5908.25
558.865	5904.18
559.228	5902.6
559.59	5895.37
559.953	5914.35
560.316	5947.12
560.679	5963.16
561.041	5973.56
561.404	6036.38
561.767	6014.01
562.129	6000.9
562.492	6096.27
562.854	6049.94
563.217	6090.16
563.579	6067.34
563.941	6143.5
564.304	6108.92
564.666	6236.15
565.028	6159.32
565.39	6150.95
565.753	6246.32
566.115	6288.58
566.477	6265.75
566.839	6263.72
567.201	6337.84
567.563	6290.16
567.925	6339.42
568.287	6385.52
568.648	6369.03
569.01	6459.42
569.372	6450.16
569.734	6454.67
570.095	6473.66
570.457	6509.36
570.819	6533.32
571.18	6531.51
571.542	6595.91
571.903	6624.39
572.265	6645.86
572.626	6695.57
572.987	6738.74
573.349	6770.82
573.71	6817.6
574.071	6878.39
574.432	6908.67
574.794	6975.79
575.155	7028.45
575.516	7056.92
575.877	7068.44
576.238	7178.27
576.599	7164.26
576.96	7298.49
577.32	7318.61
577.681	7397.47
578.042	7474.31
578.403	7553.63
578.763	7579.39
579.124	7719.5
579.485	7785.71
579.845	7910.46
580.206	7962.66
580.566	8138.25
580.927	8173.73
581.287	8366.94
581.648	8455.75
582.008	8635.63
582.368	8714.73
582.728	8867.94
583.089	8996.75
583.449	9096.64
583.809	9266.13
584.169	9464.77
584.529	9660.47
584.889	9857.75
585.249	9953.34
585.609	10132.09
585.969	10417.28
586.329	10568.69
586.688	10828.8
587.048	10960.77
587.408	11172.74
587.768	11362.12
588.127	11582.9
588.487	11801.65
588.846	12247.97
589.206	12308.08
589.565	12528.19
589.925	12906.26
590.284	13027.61
590.643	13381.72
591.003	13646.12
591.362	13929.05
591.721	14195.71
592.08	14395.26
592.44	14762.71
592.799	15028.69
593.158	15279.98
593.517	15644.94
593.876	15889.23
594.235	16097.36
594.593	16398.82
594.952	16654.18
595.311	16964.23
595.67	17277.67
596.029	17752.46
596.387	17962.62
596.746	18232.22
597.104	18551.53
597.463	18860.22
597.822	19188.35
598.18	19549.7
598.538	19649.81
598.897	20126.86
599.255	20172.73
599.613	20766.39
599.972	20894.97
600.33	21255.64
600.688	21499.93
601.046	21840.94
601.404	22171.1
601.762	22412.9
602.12	22764.75
602.478	23094.46
602.836	23270.05
603.194	23379.65
603.552	23797.95
603.91	23922.92
604.268	24380.31
604.625	24402.9
604.983	24887.41
605.341	24912.72
605.698	25298.47
606.056	25579.6
606.413	25709.99
606.771	26184.78
607.128	26415.73
607.485	26399.91
607.843	26763.29
608.2	27097.07
608.557	27316.73
608.914	27407.12
609.272	27770.72
609.629	28050.72
609.986	28347.66
610.343	28371.61
610.7	28770.92
611.057	28777.7
611.414	29031.26
611.771	29170.91
612.127	29559.83
612.484	29594.86
612.841	29913.72
613.198	29935.87
613.554	30195.52
613.911	30405.23
614.267	30535.17
614.624	30789.18
614.98	30944.2
615.337	31252.21
615.693	31369.5
616.05	31425.32
616.406	31784.63
616.762	31709.6
617.118	31992.08
617.475	31993.66
617.831	32305.97
618.187	32536.25
618.543	32584.16
618.899	32851.72
619.255	32820.08
619.611	33041.77
619.967	33202.9
620.323	33375.77
620.678	33289.22
621.034	33351.37
621.39	33486.96
621.746	33504.81
622.101	34069.09
622.457	33807.18
622.812	34038.58
623.168	34159.71
623.523	34254.85
623.879	34430.44
624.234	34284.68
624.589	34459.36
624.945	34672.01
625.3	34738.68
625.655	34881.95
626.01	34816.19
626.365	34970.99
626.72	34960.59
627.075	35009.63
627.43	35142.28
627.785	35121.72
628.14	35196.07
628.495	35337.53
628.85	35329.4
629.205	35260.92
629.559	35439.9
629.914	35422.73
630.269	35514.25
630.623	35414.14
630.978	35398.55
631.332	35811.64
631.687	35657.3
632.041	35580.69
632.396	35705.43
632.75	35690.52
633.104	35765.09
633.459	35554.25
633.813	35719.22
634.167	35635.15
634.521	35692.1
634.875	35731.87
635.229	35809.16
635.583	35647.13
635.937	35700.46
636.291	35778.88
636.645	35700.46
636.999	35780.01
637.352	35939.1
637.706	35569.39
638.06	35788.59
638.413	35748.14
638.767	35708.59
639.121	35677.18
639.474	35526.23
639.828	35552.44
640.181	35703.85
640.534	35793.11
640.888	35704.75
641.241	35631.76
641.594	35599.22
641.947	35833.34
642.301	35650.07
642.654	35681.7
643.007	35678.09
643.36	35718.99
643.713	35628.6
644.066	35796.05
644.419	35454.36
644.771	35382.5
645.124	35044.21
645.477	35030.87
645.83	34783.65
646.182	34688.06
646.535	34567.16
646.888	34666.81
647.24	34558.57
647.593	34690.32
647.945	34730.32
648.298	34438.12
648.65	34547.27
649.002	34453.94
649.355	34470.44
649.707	34469.31
650.059	34660.49
650.411	35000.82
650.763	35095.28
651.115	35446.91
651.467	35273.35
651.819	35483.74
652.171	35281.04
652.523	35141.38
652.875	35223.18
653.227	35001.49
653.578	35406
653.93	35184.09
654.282	35199
654.633	35058.67
654.985	35097.09
655.337	35062.28
655.688	35147.71
656.039	35209.17
656.391	34994.94
656.742	35022.96
657.094	35080.36
657.445	35157.65
657.796	35020.03
658.147	35097.99
658.498	35074.71
658.849	35169.63
659.2	35099.12
659.551	34947.94
659.902	35052.12
660.253	34999.69
660.604	35042.4
660.955	34854.38
661.306	34900.48
661.656	34949.74
662.007	34995.62
662.358	34853.48
662.708	34885.11
663.059	34903.19
663.409	34780.03
663.76	34987.94
664.11	34856.41
664.461	35047.14
664.811	34957.2
665.161	34929.18
665.511	34734.61
665.862	34935.96
666.212	35042.85
666.562	34945.9
666.912	34970.99
667.262	34984.55
667.612	34872.68
667.962	34846.92
668.312	35013.25
668.662	34943.87
669.011	34914.94
669.361	34875.85
669.711	34811.44
670.06	34924.66
670.41	34663.42
670.76	34707.04
671.109	34744.55
671.459	34710.66
671.808	34678.57
672.157	34802.18
672.507	34633.14
672.856	34598.79
673.205	34707.49
673.554	34693.71
673.904	34489.64
674.253	34716.53
674.602	34700.71
674.951	34108.86
675.3	33902.31
675.649	34509.53
675.998	34425.46
676.346	34571.45
676.695	34654.16
677.044	34297.33
677.393	34513.37
677.741	34414.17
678.09	34320.38
678.438	34314.06
678.787	34547.5
679.135	34557.44
679.484	34219.14
679.832	34361.74
680.181	34065.25
680.529	34233.38
680.877	34170.56
681.225	34070.45
681.573	34380.72
681.922	34036.1
682.27	33880.85
682.618	33985.25
682.966	33865.48
683.314	34024.35
683.661	33835.2
684.009	33733.51
684.357	33658.25
684.705	33618.25
685.053	33619.16
685.4	33543.91
685.748	33365.38
686.095	33408.77
686.443	33323.8
686.79	33388.66
687.138	33247.42
687.485	33213.97
687.832	33282.67
688.18	33086.74
688.527	32996.58
688.874	33207.42
689.221	33008.33
689.568	32974.2
689.915	32916.35
690.262	32900.31
690.609	32734.21
690.956	32526.76
691.303	32596.13
691.65	32336.71
691.997	32508
692.344	32244.96
692.69	32318.63
693.037	32379.64
693.383	31979.43
693.73	32090.16
694.077	31833.67
694.423	31945.98
694.769	31839.54
695.116	31752.77
695.462	31694.24
695.808	31630.96
696.155	31648.81
696.501	31495.82
696.847	31397.3
697.193	31349.39
697.539	31253.34
697.885	31162.95
698.231	31011.54
698.577	30933.35
698.923	30875.95
699.269	30863.07
699.614	30716.64
699.96	30652.68
700.306	30649.52
700.651	30446.13
700.997	30451.78
701.342	30385.8
701.688	30324.56
702.033	30096.77
702.379	30169.31
702.724	30117.56
703.069	30094.96
703.415	29741.75
703.76	29895.19
704.105	29807.51
704.45	29791.24
704.795	29672.6
705.14	29659.49
705.485	29662.2
705.83	29378.82
706.175	29459.95
706.52	29299.05
706.865	29282.1
707.209	29280.29
707.554	29116.9
707.899	29226.51
708.243	29104.47
708.588	28952.61
708.932	28795.78
709.277	28701.55
709.621	28805.73
709.966	28605.73
710.31	28672.17
710.654	28415.45
710.998	28548.33
711.342	28582.68
711.687	28379.3
712.031	28301.33
712.375	28264.27
712.719	28281.45
713.063	28105.63
713.407	28264.5
713.75	27975.01
714.094	28078.97
714.438	27938.18
714.782	27946.99
715.125	27788.13
715.469	27770.5
715.812	27812.53
716.156	27607.11
716.499	27610.05
716.843	27693.44
717.186	27502.48
717.53	27630.16
717.873	27601.46
718.216	27455.7
718.559	27401.24
718.902	27256.61
719.246	27223.17
719.589	27109.5
719.932	26971.65
720.275	27012.33
720.617	27028.37
720.96	27006
721.303	27007.13
721.646	26954.25
721.989	26691.2
722.331	26836.29
722.674	26714.93
723.016	26723.29
723.359	26805.33
723.701	26644.43
724.044	26565.11
724.386	26407.6
724.729	26555.84
725.071	26372.34
725.413	26363.76
725.755	26406.69
726.097	26360.59
726.439	26271.78
726.782	26225
727.124	26223.65
727.465	26261.61
727.807	26187.49
728.149	26146.36
728.491	26063.88
728.833	26149.52
729.175	26016.87
729.516	25948.85
729.858	25954.95
730.199	25993.6
730.541	25771.46
730.882	25880.15
731.224	25927.38
731.565	25661.63
731.906	25830.21
732.248	25792.25
732.589	25535.3
732.93	25615.08
733.271	25453.27
733.612	25451.46
733.953	25601.29
734.294	25366.95
734.635	25368.3
734.976	25415.53
735.317	25400.84
735.658	25262.09
735.999	25224.8
736.339	25311.35
736.68	25374.86
737.021	25198.14
737.361	25065.26
737.702	25176.89
738.042	25124.47
738.383	24914.75
738.723	25104.13
739.063	24941.65
739.404	25025.94
739.744	24891.48
740.084	24918.37
740.424	24881.08
740.764	24754.08
741.104	24803.57
741.444	24696.46
741.784	24603.12
742.124	24621.65
742.464	24614.42
742.804	24499.62
743.143	24424.6
743.483	24641.09
743.823	24327.88
744.162	24419.4
744.502	24407.42
744.841	24198.84
745.181	24313.87
745.52	24265.05
745.86	24336.01
746.199	24181.44
746.538	24262.12
746.877	24211.72
747.216	24140.99
747.556	24046.08
747.895	24103.93
748.234	24054.44
748.573	24010.15
748.911	23948.9
749.25	23965.85
749.589	23818.74
749.928	23871.17
750.267	23833.88
750.605	23720.89
750.944	23715.92
751.283	23621
751.621	23702.58
751.96	23523.38
752.298	23458.07
752.636	23548.91
752.975	23355.25
753.313	23327
753.651	23501.23
753.989	23257.4
754.327	23185.76
754.666	23094.69
755.004	23147.8
755.342	23198.19
755.679	23114.58
756.017	22966.33
756.355	23140.56
756.693	22939.89
757.031	22988.03
757.368	22787.58
757.706	22747.81
758.044	22622.84
758.381	22722.72
758.719	22617.19
759.056	22637.3
759.394	22537.64
759.731	22497.19
760.068	22333.35
760.405	22314.37
760.743	22315.73
761.08	22300.59
761.417	22144.66
761.754	22112.57
762.091	22163.19
762.428	21895.62
762.765	21848.17
763.102	21964.1
763.438	21797.1
763.775	21669.19
764.112	21707.61
764.449	21609.3
764.785	21529.76
765.122	21428.52
765.458	21302.42
765.795	21417.45
766.131	21371.57
766.467	21080.96
766.804	21098.36
767.14	21019.72
767.476	20998.93
767.812	20897.91
768.148	20921.64
768.485	20719.16
768.821	20513.97
769.157	20585.38
769.492	20699.95
769.828	20456.79
770.164	20457.7
770.5	20414.53
770.836	20312.16
771.171	20263.8
771.507	20178.16
771.842	19992.85
772.178	20059.74
772.513	19928.22
772.849	19859.29
773.184	19849.58
773.519	19847.54
773.855	19748.11
774.19	19720.99
774.525	19584.27
774.86	19577.04
775.195	19511.05
775.53	19400.1
775.865	19381.57
776.2	19166.66
776.535	19078.75
776.87	19143.61
777.205	19059.09
777.539	18974.57
777.874	18943.39
778.209	18775.48
778.543	18713.11
778.878	18616.84
779.212	18645.99
779.547	18617.52
779.881	18579.78
780.215	18446.22
780.55	18494.36
780.884	18315.61
781.218	18263.4
781.552	18296.62
781.886	18158.77
782.22	18072
782.554	18041.71
782.888	17802.63
783.222	17795.85
783.556	17738.67
783.889	17580.03
784.223	17559.47
784.557	17502.29
784.89	17545.91
785.224	17480.15
785.557	17368.29
785.891	17286.48
786.224	17278.35
786.558	17226.37
786.891	17040.61
787.224	17050.78
787.557	16947.28
787.891	16873.84
788.224	16887.39
788.557	16815.08
788.89	16904.12
789.223	16814.85
789.556	16570.57
789.888	16533.28
790.221	16574.86
790.554	16380.97
790.887	16451.25
791.219	16328.77
791.552	16348.88
791.884	16270.69
792.217	16188.2
792.549	16099.17
792.882	16072.05
793.214	15983.24
793.546	16022.78
793.879	15893.75
794.211	15785.28
794.543	15799.06
794.875	15743.92
795.207	15767.2
795.539	15728.1
795.871	15622.34
796.203	15548.9
796.535	15479.97
796.867	15414.67
797.198	15392.29
797.53	15373.08
797.862	15268
798.193	15293.76
798.525	15189.36
798.856	15238.85
799.188	15047.44
799.519	14994.34
799.85	14898.75
800.182	14966.09
800.513	14916.83
800.844	14817.62
801.175	14873.89
801.506	14797.28
801.837	14682.03
802.168	14653.78
802.499	14736.27
802.83	14621.47
803.161	14595.7
803.491	14599.77
803.822	14464.18
804.153	14490.17
804.483	14364.98
804.814	14298.08
805.145	14259.22
805.475	14249.5
805.805	14158.43
806.136	14158.88
806.466	14124.76
806.796	14145.32
807.126	14040.46
807.457	14036.17
807.787	14012.89
808.117	13966.79
808.447	13875.72
808.777	13925.21
809.107	13771.32
809.436	13743.3
809.766	13737.42
810.096	13729.29
810.426	13689.29
810.755	13666.01
811.085	13619.46
811.414	13542.85
811.744	13644.54
812.073	13512.57
812.403	13430.54
812.732	13453.81
813.061	13294.04
813.39	13312.57
813.719	13326.13
814.049	13347.38
814.378	13285.46
814.707	13274.16
815.036	13218.56
815.365	13122.75
815.693	13093.37
816.022	13080.72
816.351	13036.65
816.68	12951.91
817.008	12948.97
817.337	12766.6
817.665	12831
817.994	12906.26
818.322	12852.92
818.651	12736.32
818.979	12684.12
819.307	12759.59
819.636	12746.49
819.964	12641.4
820.292	12708.52
820.62	12670.78
820.948	12620.84
821.276	12631.01
821.604	12601.63
821.932	12656.77
822.259	12624.68
822.587	12587.17
822.915	12593.04
823.243	12632.37
823.57	12593.72
823.898	12634.63
824.225	12527.28
824.553	12559.83
824.88	12528.64
825.207	12613.61
825.535	12525.7
825.862	12599.6
826.189	12479.83
826.516	12547.17
826.843	12600.5
827.17	12592.37
827.497	12590.33
827.824	12515.53
828.151	12631.24
828.478	12545.36
828.805	12605.7
829.131	12551.69
829.458	12582.2
829.785	12414.52
830.111	12530.67
830.438	12540.16
830.764	12635.76
831.09	12522.54
831.417	12511.46
831.743	12536.55
832.069	12497.45
832.395	12437.12
832.722	12468.08
833.048	12449.32
833.374	12425.82
833.7	12417
834.026	12447.96
834.351	12487.28
834.677	12434.18
835.003	12421.3
835.329	12407.74
835.654	12313.5
835.98	12359.15
836.306	12372.03
836.631	12289.1
836.956	12292.04
837.282	12234.86
837.607	12235.54
837.932	12191.93
838.258	12216.56
838.583	12165.26
838.908	12060.86
839.233	12120.06
839.558	12086.62
839.883	12038.71
840.208	11968.2
840.533	12047.97
840.858	11969.78
841.182	11960.29
841.507	11954.42
841.832	11901.99
842.156	11936.79
842.481	11919.62
842.805	11863.57
843.13	11810.01
843.454	11820.18
843.778	11812.05
844.103	11676.68
844.427	11658.61
844.751	11722.78
845.075	11712.39
845.399	11642.34
845.723	11620.64
846.047	11582.45
846.371	11547.87
846.695	11549.91
847.019	11439.63
847.343	11376.81
847.666	11330.48
847.99	11264.94
848.313	11275.34
848.637	11134.55
848.96	11196.47
849.284	11155.34
849.607	11065.4
849.931	11015.68
850.254	10951.28
850.577	10939.3
850.9	10869.25
851.223	10811.4
851.546	10813.43
851.869	10714
852.192	10766.65
852.515	10691.63
852.838	10621.12
853.161	10589.71
853.483	10562.82
853.806	10551.29
854.129	10412.76
854.451	10380.9
854.774	10365.08
855.096	10334.8
855.419	10332.99
855.741	10311.3
856.063	10290.05
856.385	10287.79
856.708	10234.69
857.03	10164.63
857.352	10146.78
857.674	10141.58
857.996	10114.92
858.318	10048.25
858.64	10072.21
858.961	10022.49
859.283	9954.02
859.605	9831.76
859.926	9969.61
860.248	9875.15
860.57	9870.86
860.891	9907.69
861.212	9816.85
861.534	9747.24
861.855	9764.19
862.176	9764.87
862.498	9753.8
862.819	9786.34
863.14	9717.64
863.461	9680.13
863.782	9606.68
864.103	9592.67
864.424	9644.87
864.745	9660.24
865.065	9476.29
865.386	9545.89
865.707	9489.17
866.027	9515.84
866.348	9513.58
866.668	9528.72
866.989	9491.66
867.309	9387.93
867.63	9429.96
867.95	9440.13
868.27	9308.16
868.59	9387.93
868.91	9373.02
869.23	9363.3
869.55	9314.71
869.87	9344.77
870.19	9355.84
870.51	9324.88
870.83	9307.03
871.15	9264.54
871.469	9355.16
871.789	9261.83
872.109	9165.11
872.428	9163.98
872.748	9273.58
873.067	9210.76
873.386	9221.16
873.706	9225.68
874.025	9065.68
874.344	9117.43
874.663	9091.89
874.982	9091.22
875.301	9119.01
875.62	9026.58
875.939	8997.43
876.258	9027.94
876.577	8974.16
876.896	8978
877.214	8993.82
877.533	8976.64
877.852	8935.97
878.17	8920.82
878.489	8941.62
878.807	8914.05
879.125	8895.06
879.444	8924.44
879.762	8852.13
880.08	8828.62
880.398	8796.76
880.716	8833.6
881.034	8747.27
881.352	8804.44
881.67	8759.93
881.988	8742.07
882.306	8736.2
882.624	8743.88
882.941	8642.64
883.259	8654.84
883.577	8642.87
883.894	8610.32
884.212	8625.01
884.529	8611.91
884.846	8600.83
885.164	8542.3
885.481	8567.16
885.798	8474.96
886.115	8492.36
886.432	8441.29
886.75	8486.49
887.067	8403.78
887.383	8414.4
887.7	8402.87
888.017	8353.16
888.334	8392.03
888.651	8311.58
888.967	8281.07
889.284	8244.68
889.6	8208.3
889.917	8225.25
890.233	8237.9
890.55	8137.79
890.866	8187.51
891.182	8128.08
891.498	8091.69
891.815	8094.18
892.131	8077.01
892.447	8065.25
892.763	8013.05
893.079	7970.57
893.395	7963.34
893.71	7989.1
894.026	7938.25
894.342	7880.17
894.657	7850.57
894.973	7799.95
895.289	7820.51
895.604	7818.93
895.92	7796.11
896.235	7757.47
896.55	7766.73
896.865	7703
897.181	7667.07
897.496	7662.1
897.811	7599.96
898.126	7583.91
898.441	7596.57
898.756	7613.97
899.071	7526.06
899.386	7511.82
899.7	7458.94
900.015	7439.96
900.33	7336.01
900.644	7420.75
900.959	7359.96
901.273	7352.96
901.588	7312.96
901.902	7220.08
902.216	7217.37
902.531	7265.73
902.845	7205.84
903.159	7209.91
903.473	7100.08
903.787	7107.99
904.101	7063.25
904.415	7058.95
904.729	7070.93
905.042	6986.86
905.356	7045.62
905.67	6982.34
905.984	6991.38
906.297	6961.33
906.611	6885.17
906.924	6903.93
907.237	6889.24
907.551	6841.11
907.864	6823.7
908.177	6818.96
908.491	6771.05
908.804	6715.46
909.117	6661.9
909.43	6639.08
909.743	6620.09
910.056	6608.34
910.368	6573.09
910.681	6518.85
910.994	6544.16
911.307	6470.72
911.619	6450.83
911.932	6456.26
912.244	6373.77
912.557	6390.72
912.869	6360.44
913.181	6331.74
913.494	6314.34
913.806	6323.6
914.118	6299.2
914.43	6242.25
914.742	6210.61
915.054	6214.68
915.366	6182.82
915.678	6119.77
915.99	6092.2
916.302	6086.55
916.613	6111.41
916.925	6080.9
917.236	5951.86
917.548	5988.47
917.859	6045.87
918.171	5958.42
918.482	5892.43
918.794	5883.84
919.105	5877.51
919.416	5832.09
919.727	5838.42
920.038	5825.31
920.349	5750.74
920.66	5768.59
920.971	5790.96
921.282	5729.72
921.593	5681.59
921.903	5656.28
922.214	5633.45
922.525	5599.78
922.835	5598.43
923.146	5538.77
923.456	5553.91
923.767	5490.86
924.077	5537.41
924.387	5483.63
924.697	5490.18
925.008	5425.55
925.318	5421.48
925.628	5406.11
925.938	5328.6
926.248	5326.12
926.558	5291.32
926.867	5289.51
927.177	5208.83
927.487	5246.57
927.796	5198.89
928.106	5212.22
928.416	5126.35
928.725	5183.97
929.034	5115.28
929.344	5148.27
929.653	5110.3
929.962	5069.4
930.271	5050.87
930.581	4999.12
930.89	5023.98
931.199	4960.48
931.508	4974.49
931.817	4953.7
932.125	4947.82
932.434	4880.25
932.743	4868.73
933.051	4802.06
933.36	4826.47
933.669	4790.99
933.977	4801.39
934.286	4785.34
934.594	4755.74
934.902	4719.58
935.21	4719.35
935.519	4700.37
935.827	4682.52
936.135	4679.35
936.443	4652.01
936.751	4612.46
937.059	4619.24
937.367	4572.01
937.674	4593.03
937.982	4579.7
938.29	4535.63
938.597	4535.63
938.905	4473.48
939.213	4532.01
939.52	4454.5
939.827	4481.85
940.135	4423.32
940.442	4384.9
940.749	4381.96
941.056	4365.46
941.363	4335.18
941.67	4379.48
941.977	4332.92
942.284	4281.17
942.591	4249.76
942.898	4278.46
943.205	4232.59
943.511	4220.84
943.818	4187.84
944.125	4145.81
944.431	4198.69
944.738	4139.71
945.044	4087.73
945.35	4103.78
945.657	4072.14
945.963	4087.96
946.269	4094.96
946.575	4050.22
946.881	4057
947.187	4022.42
947.493	3974.51
947.799	3930.67
948.105	3947.4
948.41	3844.57
948.716	3932.03
949.022	3888.87
949.327	3921.63
949.633	3851.35
949.938	3868.98
950.244	3863.78
950.549	3817
950.854	3777.91
951.16	3805.48
951.465	3801.64
951.77	3738.36
952.075	3761.64
952.38	3754.18
952.685	3687.74
952.99	3685.03
953.294	3683.22
953.599	3609.1
953.904	3645.26
954.209	3635.31
954.513	3660.17
954.818	3603.9
955.122	3572.94
955.426	3560.51
955.731	3575.65
956.035	3518.71
956.339	3523.23
956.643	3523
956.948	3497.69
957.252	3477.35
957.556	3466.28
957.86	3448.88
958.163	3441.19
958.467	3444.58
958.771	3385.6
959.075	3389.67
959.378	3366.17
959.682	3360.52
959.985	3380.18
960.289	3334.98
960.592	3307.87
960.896	3311.48
961.199	3291.59
961.502	3291.82
961.805	3265.38
962.108	3243.91
962.411	3224.03
962.714	3197.59
963.017	3218.6
963.32	3210.47
963.623	3200.52
963.926	3187.42
964.228	3110.58
964.531	3106.74
964.833	3093.63
965.136	3073.29
965.438	3074.65
965.741	3062
966.043	3070.36
966.345	3063.58
966.648	3036.23
966.95	3045.27
967.252	3022.45
967.554	3001.88
967.856	2993.3
968.158	2951.94
968.46	2981.55
968.761	2936.58
969.063	2933.64
969.365	2931.83
969.666	2901.55
969.968	2922.34
970.269	2880.08
970.571	2845.5
970.872	2882.11
971.174	2886.86
971.475	2842.57
971.776	2857.93
972.077	2826.97
972.378	2808.44
972.679	2828.56
972.98	2805.51
973.281	2809.8
973.582	2754.43
973.883	2763.25
974.183	2720.31
974.484	2735.68
974.785	2723.93
975.085	2693.64
975.386	2743.13
975.686	2687.54
975.986	2672.4
976.287	2668.11
976.587	2630.37
976.887	2633.76
977.187	2612.29
977.487	2619.07
977.787	2597.38
978.087	2565.96
978.387	2566.87
978.687	2549.69
978.987	2565.51
979.286	2529.13
979.586	2529.81
979.885	2494.33
980.185	2512.41
980.484	2515.34
980.784	2449.58
981.083	2487.32
981.382	2458.17
981.682	2456.36
981.981	2450.26
982.28	2429.02
982.579	2420.2
982.878	2405.74
983.177	2399.19
983.475	2416.81
983.774	2362.58
984.073	2372.3
984.372	2381.11
984.67	2357.16
984.969	2345.86
985.267	2347.21
985.566	2330.72
985.864	2292.98
986.162	2313.09
986.461	2311.06
986.759	2290.49
987.057	2253.43
987.355	2246.2
987.653	2242.81
987.951	2239.64
988.249	2251.62
988.547	2241.68
988.844	2229.7
989.142	2224.05
989.44	2206.2
989.737	2158.52
990.035	2161.91
990.332	2178.18
990.63	2144.73
990.927	2144.96
991.224	2139.08
991.521	2142.47
991.819	2136.82
992.116	2088.69
992.413	2083.04
992.71	2089.59
993.006	2097.73
993.303	2049.37
993.6	2059.99
993.897	2038.52
994.193	2062.93
994.49	2046.66
994.787	2024.73
995.083	2003.72
995.379	2019.31
995.676	2005.3
995.972	1984.28
996.268	2000.55
996.565	1972.08
996.861	1956.04
997.157	1945.87
997.453	1937.28
997.749	1953.1
998.044	1917.62
998.34	1914.91
998.636	1919.65
998.932	1860.45
999.227	1882.59
999.523	1855.7
999.818	1840.56
1000.114	1847.79
1000.409	1830.84
1000.704	1879.65
1001	1816.15
1001.295	1819.77
1001.59	1819.54
1001.885	1793.55
1002.18	1774.8
1002.475	1787.9
1002.77	1770.96
1003.065	1744.74
1003.359	1771.41
1003.654	1735.48
1003.949	1741.8
1004.243	1711.75
1004.538	1717.62
1004.832	1700
1005.127	1703.84
1005.421	1694.57
1005.715	1648.93
1006.009	1655.71
1006.304	1648.7
1006.598	1674.46
1006.892	1658.19
1007.186	1622.26
1007.48	1626.55
1007.773	1615.48
1008.067	1597.63
1008.361	1599.89
1008.655	1582.94
1008.948	1576.84
1009.242	1555.59
1009.535	1571.64
1009.829	1544.07
1010.122	1532.32
1010.415	1519.21
1010.708	1555.14
1011.001	1540
1011.295	1511.98
1011.588	1533.67
1011.881	1493.22
1012.173	1482.83
1012.466	1500.23
1012.759	1483.96
1013.052	1457.74
1013.344	1450.51
1013.637	1466.78
1013.93	1436.28
1014.222	1433.79
1014.514	1431.98
1014.807	1406.45
1015.099	1387.46
1015.391	1405.54
1015.683	1386.56
1015.976	1382.94
1016.268	1377.29
1016.56	1388.14
1016.851	1350.85
1017.143	1344.75
1017.435	1351.31
1017.727	1340.91
1018.018	1326.67
1018.31	1329.39
1018.602	1301.36
1018.893	1303.4
1019.185	1301.36
1019.476	1271.08
1019.767	1279.9
1020.058	1284.87
1020.35	1264.75
1020.641	1253.68
1020.932	1251.42
1021.223	1249.16
1021.514	1233.12
1021.804	1229.5
1022.095	1221.59
1022.386	1221.59
1022.677	1221.37
1022.967	1198.32
1023.258	1193.12
1023.548	1191.76
1023.839	1191.08
1024.129	1153.8
1024.419	1166.9
1024.709	1141.82
1025	1182.95
1025.29	1127.36
1025.58	1153.35
1025.87	1142.95
1026.16	1131.2
1026.449	1122.39
1026.739	1103.63
1027.029	1092.33
1027.319	1103.63
1027.608	1081.71
1027.898	1064.53
1028.187	1077.19
1028.477	1056.17
1028.766	1068.15
1029.055	1050.75
1029.344	1032.44
1029.634	1039.9
1029.923	1028.38
1030.212	1028.6
1030.501	1016.4
1030.79	1010.52
1031.078	991.99
1031.367	987.7
1031.656	986.8
1031.945	990.41
1032.233	1013.46
1032.522	980.47
1032.81	989.51
1033.099	985.21
1033.387	978.43
1033.675	955.16
1033.963	941.6
1034.251	943.86
1034.54	940.7
1034.828	918.55
1035.116	909.28
1035.403	920.81
1035.691	916.29
1035.979	921.26
1036.267	898.21
1036.554	884.2
1036.842	881.71
1037.129	872.45
1037.417	889.4
1037.704	871.54
1037.992	875.61
1038.279	862.51
1038.566	849.62
1038.853	849.62
1039.14	849.62
