Data from hue_170_FLMS001491_00081.txt Node
Date: Tue Feb 07 16:49:18 GMT 2017
User: dcchb
Spectrometer: FLMS00149
Trigger mode: 0
Integration Time (sec): 2.000000E-2
Scans to average: 10
Electric dark correction enabled: true
Nonlinearity correction enabled: false
Boxcar width: 0
XAxis mode: Wavelengths
Number of Pixels in Spectrum: 2048
>>>>>Begin Spectral Data<<<<<
341.393	3.25
341.776	3.25
342.16	3.25
342.543	-41.27
342.927	-76.52
343.31	-55.96
343.693	-62.51
344.077	-79.46
344.46	-64.77
344.843	-73.81
345.226	-47.15
345.61	-29.97
345.993	-15.51
346.376	-6.47
346.759	11.61
347.142	10.03
347.525	45.06
347.908	64.72
348.291	87.54
348.674	99.74
349.057	116.92
349.44	127.31
349.823	138.39
350.206	169.57
350.588	174.54
350.971	208.21
351.354	214.99
351.737	230.36
352.119	233.3
352.502	260.19
352.884	265.61
353.267	283.02
353.65	297.25
354.032	288.89
354.414	304.26
354.797	309.23
355.179	330.92
355.562	318.95
355.944	330.47
356.326	346.97
356.709	342.45
357.091	329.57
357.473	342.9
357.855	341.32
358.238	310.36
358.62	316.23
359.002	329.79
359.384	336.12
359.766	337.48
360.148	325.27
360.53	343.8
360.912	334.09
361.294	343.58
361.676	347.65
362.057	331.83
362.439	339.74
362.821	322.34
363.203	314.88
363.584	332.73
363.966	311.71
364.348	336.8
364.729	343.35
365.111	320.98
365.493	316.46
365.874	325.5
366.256	304.48
366.637	326.63
367.019	311.49
367.4	325.73
367.781	298.83
368.163	302.9
368.544	308.33
368.925	317.36
369.306	322.11
369.688	339.74
370.069	310.36
370.45	310.59
370.831	328.89
371.212	317.82
371.593	324.37
371.974	312.62
372.355	320.75
372.736	294.54
373.117	320.3
373.498	286.4
373.879	311.94
374.26	317.59
374.641	297.25
375.021	306.29
375.402	332.73
375.783	341.77
376.163	332.96
376.544	327.76
376.925	309.46
377.305	324.14
377.686	318.04
378.066	327.08
378.447	321.21
378.827	343.8
379.208	331.83
379.588	330.25
379.968	323.92
380.349	325.95
380.729	330.25
381.109	335.9
381.489	356.23
381.87	324.6
382.25	341.54
382.63	336.35
383.01	339.51
383.39	315.33
383.77	348.32
384.15	338.38
384.53	358.49
384.91	367.53
385.29	365.5
385.67	352.39
386.049	346.97
386.429	349.45
386.809	352.39
387.189	364.37
387.568	357.36
387.948	353.97
388.328	369.79
388.707	367.53
389.087	367.53
389.466	356.01
389.846	349
390.225	374.99
390.605	363.24
390.984	358.04
391.363	377.93
391.743	406.4
392.122	382.22
392.501	364.59
392.881	370.02
393.26	386.74
393.639	364.37
394.018	372.73
394.397	379.06
394.776	370.92
395.155	375.22
395.534	397.14
395.913	406.63
396.292	388.55
396.671	370.7
397.05	410.7
397.429	408.66
397.808	396.23
398.186	408.21
398.565	407.08
398.944	394.2
399.323	395.55
399.701	407.53
400.08	410.7
400.458	421.09
400.837	431.94
401.215	430.13
401.594	412.28
401.972	414.76
402.351	403.24
402.729	429.45
403.107	423.8
403.486	440.07
403.864	444.37
404.242	433.07
404.62	440.07
404.999	449.56
405.377	451.6
405.755	437.36
406.133	452.28
406.511	466.74
406.889	442.33
407.267	478.04
407.645	467.87
408.023	461.09
408.401	469
408.779	482.11
409.156	485.95
409.534	488.21
409.912	473.07
410.29	494.99
410.667	495.66
411.045	514.87
411.422	506.74
411.8	523.23
412.178	513.97
412.555	540.86
412.933	544.25
413.31	545.83
413.687	545.61
414.065	531.14
414.442	560.52
414.819	553.52
415.197	541.09
415.574	541.99
415.951	580.63
416.328	600.97
416.705	588.54
417.082	572.5
417.46	580.86
417.837	575.66
418.214	592.61
418.591	603.46
418.967	612.27
419.344	623.57
419.721	638.26
420.098	632.84
420.475	636.45
420.852	644.36
421.228	657.02
421.605	638.94
421.982	642.55
422.358	656.34
422.735	686.39
423.111	648.88
423.488	687.52
423.864	720.97
424.241	699.73
424.617	707.18
424.994	717.81
425.37	717.81
425.746	731.59
426.123	741.53
426.499	729.33
426.875	723.68
427.251	767.52
427.627	768.65
428.003	752.61
428.379	776.34
428.756	796.22
429.132	805.71
429.507	807.07
429.883	804.36
430.259	794.19
430.635	830.57
431.011	816.79
431.387	832.61
431.763	881.42
432.138	868.54
432.514	896.11
432.89	880.29
433.265	898.14
433.641	917.12
434.016	917.12
434.392	951.7
434.767	950.79
435.143	939.5
435.518	953.05
435.894	976.33
436.269	978.59
436.644	994.63
437.02	1014.75
437.395	1023.11
437.77	1034.63
438.145	1044.13
438.52	1048.42
438.895	1056.33
439.271	1072.37
439.646	1080.73
440.021	1107.63
440.395	1091.36
440.77	1068.76
441.145	1094.07
441.52	1123.9
441.895	1131.58
442.27	1180.84
442.645	1160.05
443.019	1179.04
443.394	1167.74
443.769	1215.42
444.143	1177.68
444.518	1210.22
444.892	1205.02
445.267	1198.25
445.641	1222.43
446.016	1228.75
446.39	1238.02
446.764	1251.58
447.139	1268.3
447.513	1282.54
447.887	1270.79
448.262	1301.52
448.636	1291.35
449.01	1309.2
449.384	1345.59
449.758	1349.2
450.132	1352.82
450.506	1384.46
450.88	1377.68
451.254	1391.23
451.628	1443.21
452.002	1409.09
452.376	1397.11
452.75	1427.84
453.123	1427.39
453.497	1461.06
453.871	1495.19
454.244	1508.97
454.618	1520.95
454.992	1558.69
455.365	1527.5
455.739	1591.68
456.112	1598.01
456.486	1602.98
456.859	1634.62
457.232	1658.35
457.606	1663.09
457.979	1677.33
458.352	1719.14
458.725	1732.47
459.099	1737.89
459.472	1788.96
459.845	1812.92
460.218	1794.61
460.591	1869.41
460.964	1870.77
461.337	1892.69
461.71	1950.09
462.083	1967.04
462.456	1989.86
462.829	1973.59
463.201	1989.86
463.574	2037.55
463.947	2042.74
464.32	2151.89
464.692	2131.1
465.065	2142.85
465.438	2190.08
465.81	2220.14
466.183	2244.32
466.555	2305.33
466.928	2314.37
467.3	2346.69
467.672	2389.85
468.045	2447.48
468.417	2452.68
468.789	2494.93
469.161	2535.16
469.534	2595.27
469.906	2665.55
470.278	2632.33
470.65	2710.07
471.022	2787.36
471.394	2821.48
471.766	2889.27
472.138	2922.04
472.51	2976.96
472.882	3045.43
473.253	3065.99
473.625	3166.78
473.997	3227.57
474.369	3285.2
474.74	3317.96
475.112	3412.65
475.484	3506.66
475.855	3588.24
476.227	3607.9
476.598	3734.9
476.97	3797.73
477.341	3839.08
477.713	3949.59
478.084	4011.96
478.455	4095.8
478.827	4198.84
479.198	4361.33
479.569	4394.32
479.94	4525.84
480.311	4591.6
480.682	4748.43
481.053	4879.73
481.424	4980.97
481.795	5045.38
482.166	5143.45
482.537	5257.35
482.908	5396.78
483.279	5505.25
483.65	5688.52
484.021	5717.45
484.391	5884.22
484.762	6000.38
485.133	6107.27
485.503	6205.35
485.874	6388.62
486.244	6469.97
486.615	6641.27
486.985	6736.86
487.356	6909.73
487.726	6979.56
488.097	7182.49
488.467	7224.98
488.837	7469.49
489.207	7612.99
489.578	7685.53
489.948	7841.23
490.318	7981.57
490.688	8131.62
491.058	8245.07
491.428	8431.73
491.798	8488.45
492.168	8737.26
492.538	8784.71
492.908	8853.19
493.278	9037.36
493.648	9148.54
494.017	9241.42
494.387	9399.84
494.757	9511.93
495.126	9688.19
495.496	9696.1
495.866	9796.66
496.235	9936.09
496.605	10101.74
496.974	10122.76
497.344	10239.14
497.713	10302.64
498.082	10395.52
498.452	10661.73
498.821	10616.75
499.19	10586.25
499.559	10863.08
499.928	10842.51
500.298	10938.55
500.667	11071.43
501.036	11133.8
501.405	11260.81
501.774	11213.35
502.143	11342.16
502.512	11411.31
502.88	11483.62
503.249	11459.44
503.618	11637.07
503.987	11759.32
504.356	11725.2
504.724	11860.34
505.093	11802.49
505.462	11858.98
505.83	11975.59
506.199	12015.81
506.567	12251.06
506.936	12176.94
507.304	12263.72
507.672	12326.77
508.041	12407.22
508.409	12482.24
508.777	12521.34
509.145	12661.22
509.514	12624.84
509.882	12709.81
510.25	12644.72
510.618	12760.88
510.986	12757.72
511.354	12875.45
511.722	12879.97
512.09	12993.64
512.458	13029.8
512.826	13117.93
513.193	13099.63
513.561	13191.6
513.929	13229.12
514.297	13174.88
514.664	13262.33
515.032	13289.45
515.4	13420.07
515.767	13435.89
516.135	13434.53
516.502	13378.94
516.869	13613.06
517.237	13524.25
517.604	13507.3
517.972	13544.14
518.339	13623.91
518.706	13667.07
519.073	13690.12
519.44	13680.85
519.808	13834.52
520.175	13669.78
520.542	13849.44
520.909	13845.82
521.276	13807.86
521.643	13915.2
522.009	13933.73
522.376	13932.15
522.743	14033.39
523.11	14082.65
523.477	14170.79
523.843	14168.3
524.21	14286.71
524.577	14352.25
524.943	14232.03
525.31	14305.02
525.676	14340.95
526.043	14382.76
526.409	14239.03
526.776	14415.75
527.142	14436.77
527.508	14469.31
527.874	14512.47
528.241	14550.21
528.607	14453.04
528.973	14514.05
529.339	14437.45
529.705	14492.13
530.071	14493.49
530.437	14597.22
530.803	14519.25
531.169	14573.03
531.535	14492.36
531.901	14500.72
532.267	14423.43
532.632	14657.1
532.998	14515.41
533.364	14486.71
533.73	14519.48
534.095	14474.96
534.461	14467.95
534.826	14477.22
535.192	14452.81
535.557	14524.22
535.923	14440.83
536.288	14425.92
536.653	14412.36
537.019	14330.33
537.384	14314.51
537.749	14407.16
538.114	14324.91
538.479	14097.57
538.845	14220.28
539.21	14044.91
539.575	14154.29
539.94	14145.25
540.305	14117.23
540.67	14005.37
541.034	13988.19
541.399	13995.2
541.764	14010.34
542.129	13890.57
542.494	13894.63
542.858	13820.06
543.223	13806.73
543.587	13879.27
543.952	13699.84
544.316	13696.22
544.681	13693.96
545.045	13697.58
545.41	13629.78
545.774	13586.39
546.138	13536.45
546.503	13486.74
546.867	13518.15
547.231	13533.97
547.595	13413.29
547.959	13403.12
548.324	13361.54
548.688	13251.04
549.052	13321.99
549.416	13257.14
549.779	13240.41
550.143	13225.95
550.507	13256.91
550.871	13203.81
551.235	13055.79
551.599	13126.97
551.962	13039.74
552.326	12995.68
552.689	12993.19
553.053	12870.71
553.417	12907.77
553.78	12963.81
554.143	12901.67
554.507	12877.71
554.87	12853.98
555.234	12901.21
555.597	12789.58
555.96	12864.61
556.323	12845.62
556.686	12693.54
557.05	12842.91
557.413	12814.66
557.776	12713.65
558.139	12790.48
558.502	12750.71
558.865	12679.53
559.228	12755.23
559.59	12705.06
559.953	12682.69
560.316	12772.18
560.679	12711.61
561.041	12823.7
561.404	12759.75
561.767	12740.09
562.129	12699.19
562.492	12851.5
562.854	12745.06
563.217	12669.13
563.579	12769.92
563.941	12799.97
564.304	12706.19
564.666	12761.56
565.028	12799.75
565.39	12696.93
565.753	12785.06
566.115	12844.49
566.477	12748.45
566.839	12797.26
567.201	12826.87
567.563	12804.27
567.925	12862.57
568.287	12933.76
568.648	12910.71
569.01	12914.1
569.372	12924.72
569.734	12860.31
570.095	12987.09
570.457	12985.05
570.819	12889.24
571.18	12996.58
571.542	13073.87
571.903	12970.37
572.265	12980.99
572.626	12968.11
572.987	13081.55
573.349	13002.91
573.71	13063.7
574.071	13098.05
574.432	13119.74
574.794	13127.42
575.155	13058.27
575.516	13057.59
575.877	13045.84
576.238	13143.02
576.599	13097.82
576.96	13108.44
577.32	13072.28
577.681	13111.38
578.042	13193.64
578.403	13100.98
578.763	13032.06
579.124	13181.66
579.485	13129.91
579.845	13164.26
580.206	13129.46
580.566	13124.26
580.927	13114.32
581.287	13133.98
581.648	13121.77
582.008	13126.75
582.368	13105.5
582.728	13119.29
583.089	13112.51
583.449	13075.22
583.809	13108.21
584.169	13139.4
584.529	13072.74
584.889	13068.44
585.249	13069.8
585.609	13022.57
585.969	13084.26
586.329	13013.75
586.688	12992.96
587.048	12962.68
587.408	12900.08
587.768	12924.26
588.127	12925.62
588.487	12973.08
588.846	13076.58
589.206	12937.15
589.565	13012.4
589.925	12993.42
590.284	12912.74
590.643	12961.78
591.003	12973.53
591.362	12933.08
591.721	12913.87
592.08	12906.19
592.44	12967.65
592.799	12881.1
593.158	12862.12
593.517	12806.08
593.876	12835.45
594.235	12884.72
594.593	12916.58
594.952	12831.39
595.311	12712.74
595.67	12763.59
596.029	12881.1
596.387	12848.79
596.746	12819.63
597.104	12823.93
597.463	12848.56
597.822	12785.29
598.18	12787.55
598.538	12743.7
598.897	12883.81
599.255	12622.13
599.613	12921.78
599.972	12865.28
600.33	12832.97
600.688	12753.87
601.046	12864.15
601.404	12880.42
601.762	12736.47
602.12	12888.33
602.478	12804.04
602.836	12830.48
603.194	12752.97
603.552	12764.72
603.91	12783.93
604.268	12813.31
604.625	12755.46
604.983	12825.74
605.341	12798.62
605.698	12859.86
606.056	12725.4
606.413	12782.57
606.771	12836.81
607.128	12868.9
607.485	12800.65
607.843	12786.19
608.2	12871.84
608.557	12838.39
608.914	12798.62
609.272	12863.02
609.629	12869.12
609.986	12993.42
610.343	12824.15
610.7	13011.72
611.057	13006.97
611.414	12952.06
611.771	12898.28
612.127	13049.91
612.484	12948.22
612.841	13051.27
613.198	12930.14
613.554	12900.99
613.911	12985.96
614.267	13009.69
614.624	12962.46
614.98	12940.99
615.337	12993.64
615.693	13003.13
616.05	13058.05
616.406	13072.96
616.762	12973.53
617.118	12958.16
617.475	13020.76
617.831	13058.27
618.187	13067.76
618.543	12994.77
618.899	13129.68
619.255	13142.79
619.611	13098.05
619.967	13224.6
620.323	13103.7
620.678	13072.51
621.034	13023.92
621.39	13047.2
621.746	13098.72
622.101	13197.48
622.457	13071.38
622.812	13128.1
623.168	13176.46
623.523	13115.22
623.879	13268.89
624.234	13104.15
624.589	13132.62
624.945	13164.03
625.3	13177.37
625.655	13199.51
626.01	13180.98
626.365	13139.85
626.72	13140.53
627.075	13067.31
627.43	13121.77
627.785	13026.18
628.14	13178.27
628.495	13169.68
628.85	13159.51
629.205	13017.6
629.559	13053.75
629.914	13019.4
630.269	13027.76
630.623	13018.95
630.978	13013.75
631.332	13081.32
631.687	12929.69
632.041	12979.18
632.396	13054.43
632.75	12993.64
633.104	12976.47
633.459	12883.81
633.813	12876.81
634.167	12945.73
634.521	12950.93
634.875	12959.52
635.229	12899.18
635.583	12838.17
635.937	12821.22
636.291	12832.74
636.645	12755.46
636.999	12805.85
637.352	12830.26
637.706	12721.11
638.06	12774.66
638.413	12730.15
638.767	12736.7
639.121	12714.55
639.474	12644.95
639.828	12592.52
640.181	12631.39
640.534	12670.26
640.888	12592.75
641.241	12465.97
641.594	12634.55
641.947	12545.74
642.301	12572.18
642.654	12575.57
643.007	12570.15
643.36	12547.78
643.713	12442.24
644.066	12489.25
644.419	12502.35
644.771	12382.58
645.124	12378.74
645.477	12247.45
645.83	12284.51
646.182	12086.32
646.535	12115.25
646.888	12099.2
647.24	12085.42
647.593	12181.01
647.945	12119.99
648.298	12057.17
648.65	12068.69
649.002	12044.97
649.355	12084.29
649.707	12021.01
650.059	12137.62
650.411	12290.61
650.763	12272.76
651.115	12383.94
651.467	12351.85
651.819	12383.49
652.171	12318.63
652.523	12325.18
652.875	12360.66
653.227	12302.13
653.578	12403.37
653.93	12352.75
654.282	12266.2
654.633	12269.59
654.985	12305.3
655.337	12336.26
655.688	12374.9
656.039	12461.45
656.391	12329.93
656.742	12374
657.094	12333.32
657.445	12395.92
657.796	12368.57
658.147	12371.06
658.498	12280.44
658.849	12434.11
659.2	12374.67
659.551	12367.67
659.902	12382.36
660.253	12343.71
660.604	12330.83
660.955	12294.22
661.306	12398.85
661.656	12410.83
662.007	12394.11
662.358	12457.16
662.708	12401.57
663.059	12399.76
663.409	12287.67
663.76	12467.78
664.11	12352.3
664.461	12432.75
664.811	12374.22
665.161	12341
665.511	12386.2
665.862	12479.08
666.212	12526.08
666.562	12468.91
666.912	12421
667.262	12418.29
667.612	12499.42
667.962	12447.44
668.312	12441.11
668.662	12478.85
669.011	12508.68
669.361	12398.85
669.711	12441.34
670.06	12432.75
670.41	12373.32
670.76	12337.61
671.109	12344.62
671.459	12366.09
671.808	12352.75
672.157	12323.83
672.507	12315.69
672.856	12315.24
673.205	12245.19
673.554	12300.78
673.904	12239.99
674.253	12322.92
674.602	12305.07
674.951	12174.91
675.3	12023.5
675.649	12228.24
675.998	12277.95
676.346	12202.02
676.695	12209.71
677.044	12217.84
677.393	12187.33
677.741	12218.97
678.09	12192.08
678.438	12099.43
678.787	12164.74
679.135	12126.32
679.484	12059.2
679.832	12093.78
680.181	12078.19
680.529	12067.56
680.877	11947.79
681.225	11992.54
681.573	11983.27
681.922	11961.8
682.27	11976.04
682.618	11880
682.966	11939.43
683.314	11850.17
683.661	11835.25
684.009	11765.65
684.357	11767.01
684.705	11725.88
685.053	11829.15
685.4	11730.62
685.748	11649.04
686.095	11553.91
686.443	11590.74
686.79	11590.97
687.138	11637.74
687.485	11606.56
687.832	11555.26
688.18	11526.79
688.527	11461.48
688.874	11501.03
689.221	11476.62
689.568	11378.77
689.915	11416.51
690.262	11366.34
690.609	11342.84
690.956	11327.47
691.303	11265.33
691.65	11218.09
691.997	11173.58
692.344	11132.9
692.69	11163.86
693.037	11079.34
693.383	11005.45
693.73	11018.55
694.077	10953.7
694.423	10960.93
694.769	10866.92
695.116	10870.31
695.462	10851.32
695.808	10772.91
696.155	10834.15
696.501	10785.34
696.847	10741.95
697.193	10708.5
697.539	10666.02
697.885	10569.75
698.231	10538.34
698.577	10493.82
698.923	10474.61
699.269	10416.08
699.614	10352.13
699.96	10339.7
700.306	10312.13
700.651	10264
700.997	10203.66
701.342	10228.74
701.688	10203.66
702.033	10118.46
702.379	10110.78
702.724	10118.46
703.069	10114.85
703.415	9978.58
703.76	9973.61
704.105	9953.27
704.45	9933.16
704.795	9836.66
705.14	9798.7
705.485	9759.38
705.83	9735.65
706.175	9808.64
706.52	9713.5
706.865	9690.45
707.209	9687.74
707.554	9647.97
707.899	9688.87
708.243	9615.65
708.588	9579.95
708.932	9573.84
709.277	9470.8
709.621	9497.91
709.966	9417.69
710.31	9524.13
710.654	9349.9
710.998	9395.77
711.342	9388.99
711.687	9319.84
712.031	9350.12
712.375	9274.42
712.719	9312.38
713.063	9208.66
713.407	9272.84
713.75	9231.48
714.094	9235.32
714.438	9166.4
714.782	9207.3
715.125	9109
715.469	9154.87
715.812	9110.58
716.156	9119.17
716.499	9031.49
716.843	9068.09
717.186	9043.24
717.53	9043.69
717.873	9066.96
718.216	9051.82
718.559	9022.45
718.902	8936.35
719.246	8959.17
719.589	8911.49
719.932	8943.8
720.275	8844.82
720.617	8885.27
720.96	8855.67
721.303	8901.55
721.646	8868.55
721.989	8816.8
722.331	8827.65
722.674	8811.83
723.016	8852.96
723.359	8810.7
723.701	8777.48
724.044	8737.03
724.386	8760.08
724.729	8754.66
725.071	8794.43
725.413	8769.35
725.755	8775
726.097	8718.05
726.439	8673.3
726.782	8664.72
727.124	8740.42
727.465	8607.99
727.807	8674.21
728.149	8611.38
728.491	8607.32
728.833	8702.45
729.175	8699.97
729.516	8599.18
729.858	8655.9
730.199	8594.89
730.541	8610.93
730.882	8673.08
731.224	8656.58
731.565	8580.42
731.906	8660.65
732.248	8587.2
732.589	8579.29
732.93	8578.62
733.271	8549.92
733.612	8610.93
733.953	8555.11
734.294	8574.32
734.635	8585.85
734.976	8598.05
735.317	8564.38
735.658	8550.59
735.999	8614.32
736.339	8604.38
736.68	8591.05
737.021	8560.31
737.361	8568.9
737.702	8625.17
738.042	8602.8
738.383	8604.6
738.723	8616.13
739.063	8618.39
739.404	8678.95
739.744	8585.4
740.084	8632.85
740.424	8723.7
740.764	8739.06
741.104	8731.61
741.444	8706.3
741.784	8746.52
742.124	8810.02
742.464	8727.99
742.804	8759.63
743.143	8753.75
743.483	8842.79
743.823	8786.07
744.162	8829.46
744.502	8876.01
744.841	8869.23
745.181	8941.54
745.52	8956.23
745.86	8936.35
746.199	9049.34
746.538	9107.42
746.877	9112.39
747.216	9133.86
747.556	9211.14
747.895	9286.62
748.234	9288.43
748.573	9315.32
748.911	9396.22
749.25	9473.96
749.589	9474.86
749.928	9548.76
750.267	9686.61
750.605	9769.55
750.944	9759.83
751.283	9872.14
751.621	9983.78
751.96	10060.61
752.298	10097.9
752.636	10191.46
752.975	10274.84
753.313	10386.48
753.651	10516.64
753.989	10610.65
754.327	10665.34
754.666	10783.98
755.004	10972.23
755.342	11103.3
755.679	11231.43
756.017	11377.64
756.355	11512.78
756.693	11520.46
757.031	11769.72
757.368	11855.37
757.706	12026.21
758.044	12138.97
758.381	12357.73
758.719	12485.86
759.056	12673.65
759.394	12771.05
759.731	12871.84
760.068	13135.33
760.405	13211.04
760.743	13419.17
761.08	13578.26
761.417	13709.1
761.754	13846.05
762.091	14047.4
762.428	14220.28
762.765	14304.79
763.102	14516.77
763.438	14712.01
763.775	14827.27
764.112	15025
764.449	15242.85
764.785	15367.36
765.122	15519.22
765.458	15623.18
765.795	15801.48
766.131	15932.77
766.467	16086.89
766.804	16178.42
767.14	16354.91
767.476	16570.27
767.812	16534.57
768.148	16808.68
768.485	16921.67
768.821	17083.03
769.157	17179.97
769.492	17319.86
769.828	17438.27
770.164	17454.09
770.5	17654.99
770.836	17809.79
771.171	17743.8
771.507	17857.47
771.842	17958.26
772.178	18066.95
772.513	18144.47
772.849	18271.02
773.184	18295.87
773.519	18451.58
773.855	18379.26
774.19	18496.32
774.525	18586.26
774.86	18606.83
775.195	18682.53
775.53	18783.32
775.865	18745.13
776.2	18750.1
776.535	18652.48
776.87	18910.32
777.205	18837.1
777.539	18853.6
777.874	19050.66
778.209	18927.95
778.543	19101.05
778.878	19003.88
779.212	19105.35
779.547	19068.06
779.881	19205.46
780.215	19145.34
780.55	19207.94
780.884	19148.28
781.218	19238.22
781.552	19191.22
781.886	19181.05
782.22	19191.67
782.554	19238.9
782.888	19073.93
783.222	19052.24
783.556	19117.1
783.889	19101.73
784.223	19010.88
784.557	18985.57
784.89	19045.46
785.224	19031.22
785.557	18871
785.891	18962.07
786.224	18976.53
786.558	19020.83
786.891	19012.92
787.224	18789.2
787.557	18812.02
787.891	18933.6
788.224	18843.66
788.557	18951.68
788.89	18841.17
789.223	18907.38
789.556	18750.78
789.888	18825.58
790.221	18690.21
790.554	18621.29
790.887	18585.58
791.219	18619.48
791.552	18471.69
791.884	18504
792.217	18437.34
792.549	18410
792.882	18321.18
793.214	18316.67
793.546	18467.4
793.879	18223.56
794.211	18205.03
794.543	18252.49
794.875	18198.48
795.207	18304.91
795.539	18189.21
795.871	18099.04
796.203	18018.82
796.535	17911.93
796.867	17924.36
797.198	17946.96
797.53	17916.22
797.862	17771.59
798.193	17859.5
798.525	17684.37
798.856	17777.24
799.188	17585.39
799.519	17531.83
799.85	17454.77
800.182	17532.96
800.513	17520.08
800.844	17381.77
801.175	17478.5
801.506	17424.71
801.837	17403.24
802.168	17219.74
802.499	17273.75
802.83	17153.08
803.161	17207.77
803.491	17111.5
803.822	17143.36
804.153	17048.45
804.483	16965.06
804.814	16908.79
805.145	16992.63
805.475	16932.75
805.805	16776.14
806.136	16867.66
806.466	16791.28
806.796	16818.85
807.126	16645.3
807.457	16654.56
807.787	16669.93
808.117	16578.41
808.447	16477.62
808.777	16634.22
809.107	16557.16
809.436	16442.82
809.766	16417.73
810.096	16392.2
810.426	16396.26
810.755	16372.99
811.085	16358.3
811.414	16335.25
811.744	16264.52
812.073	16139.77
812.403	16180.68
812.732	16092.99
813.061	16069.49
813.39	15987.69
813.719	16001.92
814.049	16024.3
814.378	15988.82
814.707	15881.93
815.036	15901.81
815.365	15888.03
815.693	15789.73
816.022	15804.41
816.351	15796.28
816.68	15657.98
817.008	15758.77
817.337	15602.84
817.665	15554.03
817.994	15584.31
818.322	15586.12
818.651	15458.21
818.979	15438.77
819.307	15541.6
819.636	15479.9
819.964	15413.24
820.292	15465.67
820.62	15440.58
820.948	15377.53
821.276	15458.21
821.604	15326.91
821.932	15431.77
822.259	15473.12
822.587	15429.28
822.915	15318.55
823.243	15325.11
823.57	15321.72
823.898	15406.46
824.225	15351.09
824.553	15270.64
824.88	15340.25
825.207	15488.49
825.535	15304.54
825.862	15439.23
826.189	15370.53
826.516	15342.73
826.843	15392.22
827.17	15470.64
827.497	15482.62
827.824	15470.86
828.151	15441.49
828.478	15395.16
828.805	15467.02
829.131	15322.62
829.458	15323.98
829.785	15387.48
830.111	15370.3
830.438	15459.79
830.764	15380.47
831.09	15452.56
831.417	15277.2
831.743	15384.09
832.069	15339.57
832.395	15330.3
832.722	15358.32
833.048	15317.2
833.374	15340.7
833.7	15344.54
834.026	15187.03
834.351	15332.79
834.677	15306.12
835.003	15222.74
835.329	15153.36
835.654	15273.13
835.98	15134.83
836.306	15212.79
836.631	15065.68
836.956	15148.16
837.282	15131.21
837.607	15014.15
837.932	15094.15
838.258	15086.69
838.583	15025.68
838.908	14974.61
839.233	15072.68
839.558	15044.89
839.883	14947.49
840.208	14846.93
840.533	14917.21
840.858	14864.55
841.182	14966.92
841.507	14755.63
841.832	14745.01
842.156	14737.32
842.481	14699.36
842.805	14702.07
843.13	14634.95
843.454	14570.32
843.778	14565.58
844.103	14518.35
844.427	14580.72
844.751	14585.01
845.075	14436.09
845.399	14332.14
845.723	14319.93
846.047	14367.39
846.371	14190.45
846.695	14205.59
847.019	14095.08
847.343	14063.67
847.666	13999.94
847.99	13972.82
848.313	13920.4
848.637	13814.64
848.96	13838.59
849.284	13829.78
849.607	13692.61
849.931	13648.09
850.254	13651.48
850.577	13565.6
850.9	13426.17
851.223	13468.66
851.546	13370.13
851.869	13233.18
852.192	13314.08
852.515	13153.19
852.838	13158.38
853.161	13187.08
853.483	13062.57
853.806	12995.45
854.129	12983.02
854.451	12949.57
854.774	12897.82
855.096	12883.14
855.419	12882.91
855.741	12797.49
856.063	12689.02
856.385	12687.89
856.708	12633.42
857.03	12661.22
857.352	12663.03
857.674	12509.59
857.996	12538.96
858.318	12468.23
858.64	12445.18
858.961	12423.26
859.283	12380.78
859.605	12306.2
859.926	12373.77
860.248	12316.6
860.57	12238.63
860.891	12258.97
861.212	12231.4
861.534	12117.28
861.855	12085.19
862.176	12152.99
862.498	12134.68
862.819	12149.37
863.14	12067.79
863.461	12058.3
863.782	12072.54
864.103	11997.28
864.424	11955.48
864.745	11960.45
865.065	11912.77
865.386	11845.2
865.707	11856.27
866.027	11922.48
866.348	11768.14
866.668	11810.17
866.989	11772.2
867.309	11721.36
867.63	11702.15
867.95	11670.29
868.27	11627.12
868.59	11644.3
868.91	11661.02
869.23	11571.08
869.55	11515.04
869.87	11585.32
870.19	11628.48
870.51	11642.72
870.83	11573.11
871.15	11588.48
871.469	11571.08
871.789	11555.49
872.109	11544.64
872.428	11479.56
872.748	11439.11
873.067	11414.7
873.386	11416.51
873.706	11385.55
874.025	11355.94
874.344	11289.05
874.663	11355.72
874.982	11299.9
875.301	11289.51
875.62	11357.98
875.939	11206.34
876.258	11281.6
876.577	11239.56
876.896	11226.23
877.214	11164.54
877.533	11225.78
877.852	11127.93
878.17	11158.89
878.489	11168.38
878.807	11150.07
879.125	11059.68
879.444	11104.2
879.762	11065.78
880.08	11042.73
880.398	10957.76
880.716	11051.77
881.034	10931.32
881.352	10990.08
881.67	10903.3
881.988	10957.99
882.306	10800.25
882.624	10773.13
882.941	10781.72
883.259	10745.79
883.577	10735.62
883.894	10667.83
884.212	10731.1
884.529	10749.41
884.846	10602.07
885.164	10599.81
885.481	10598.68
885.798	10596.42
886.115	10499.02
886.432	10484.33
886.75	10488.17
887.067	10517.1
887.383	10408.4
887.7	10427.38
888.017	10371.56
888.334	10323.66
888.651	10356.2
888.967	10353.26
889.284	10218.12
889.6	10251.11
889.917	10195.07
890.233	10218.8
890.55	10143.09
890.866	10170.21
891.182	10068.29
891.498	10134.28
891.815	10057
892.131	10003.66
892.447	9988.75
892.763	9956.66
893.079	9953.27
893.395	9924.34
893.71	9918.69
894.026	9840.73
894.342	9824.91
894.657	9769.09
894.973	9772.94
895.289	9773.16
895.604	9755.99
895.92	9633.96
896.235	9605.03
896.55	9581.53
896.865	9599.83
897.181	9525.94
897.496	9572.26
897.811	9485.94
898.126	9426.73
898.441	9479.84
898.756	9418.37
899.071	9341.76
899.386	9357.58
899.7	9267.64
900.015	9219.96
900.33	9189.22
900.644	9189
900.959	9212.05
901.273	9103.12
901.588	9112.16
901.902	9047.98
902.216	8989
902.531	8934.54
902.845	8956.46
903.159	8891.15
903.473	8854.54
903.787	8865.16
904.101	8755.11
904.415	8828.55
904.729	8761.89
905.042	8633.76
905.356	8674.88
905.67	8622.46
905.984	8559.41
906.297	8591.27
906.611	8598.5
906.924	8474.21
907.237	8473.76
907.551	8396.25
907.864	8410.94
908.177	8394.21
908.491	8382.69
908.804	8304.95
909.117	8321.9
909.43	8223.6
909.743	8178.63
910.056	8090.49
910.368	8059.53
910.681	8117.84
910.994	8041
911.307	8075.13
911.619	7945.41
911.932	7939.54
912.244	7943.83
912.557	7878.07
912.869	7841.91
913.181	7869.71
913.494	7791.07
913.806	7765.53
914.118	7736.83
914.43	7725.31
914.742	7664.52
915.054	7592.65
915.366	7602.6
915.678	7520.56
915.99	7570.06
916.302	7479.66
916.613	7458.19
916.925	7471.53
917.236	7386.56
917.548	7369.16
917.859	7353.34
918.171	7380.91
918.482	7237.63
918.794	7256.17
919.105	7210.52
919.416	7170.07
919.727	7161.93
920.038	7133.46
920.349	7160.8
920.66	7144.3
920.971	7084.19
921.282	7021.14
921.593	6977.75
921.903	6977.98
922.214	6979.56
922.525	6883.75
922.835	6906.12
923.146	6781.83
923.456	6815.72
923.767	6777.76
924.077	6821.6
924.387	6742.51
924.697	6768.95
925.008	6702.06
925.318	6707.7
925.628	6647.14
925.938	6623.19
926.248	6545.22
926.558	6535.73
926.867	6518.11
927.177	6519.46
927.487	6478.11
927.796	6362.4
928.106	6401.72
928.416	6336.42
928.725	6396.3
929.034	6317.66
929.344	6330.31
929.653	6297.32
929.962	6266.81
930.271	6270.43
930.581	6223.65
930.89	6188.4
931.199	6121.05
931.508	6136.19
931.817	6154.27
932.125	6094.39
932.434	6113.14
932.743	6026.37
933.051	6001.51
933.36	5963.09
933.669	5937.78
933.977	5898.23
934.286	5961.28
934.594	5892.13
934.902	5849.2
935.21	5857.33
935.519	5839.48
935.827	5789.76
936.135	5737.11
936.443	5730.56
936.751	5724.91
937.059	5724.45
937.367	5679.03
937.674	5699.6
937.982	5649.88
938.29	5605.14
938.597	5597.45
938.905	5510
939.213	5570.56
939.52	5508.19
939.827	5523.78
940.135	5459.83
940.442	5449.43
940.749	5440.62
941.056	5391.13
941.363	5354.07
941.67	5314.07
941.977	5310.23
942.284	5320.4
942.591	5250.34
942.898	5233.85
943.205	5237.01
943.511	5204.24
943.818	5160.63
944.125	5183.23
944.431	5127.63
944.738	5152.04
945.044	5073.62
945.35	5080.63
945.657	5037.01
945.963	5005.83
946.269	5019.39
946.575	5031.14
946.881	4931.93
947.187	4962.21
947.493	4922.89
947.799	4879.05
948.105	4878.6
948.41	4841.54
948.716	4854.65
949.022	4838.15
949.327	4804.48
949.633	4787.76
949.938	4753.18
950.244	4740.3
950.549	4747.08
950.854	4689.68
951.16	4677.7
951.465	4625.5
951.77	4694.42
952.075	4568.55
952.38	4600.42
952.685	4581.66
952.99	4551.6
953.294	4521.1
953.599	4484.71
953.904	4467.09
954.209	4467.09
954.513	4476.35
954.818	4418.05
955.122	4399.52
955.426	4395.45
955.731	4407.88
956.035	4319.52
956.339	4378.27
956.643	4326.3
956.948	4271.16
957.252	4271.16
957.556	4243.36
957.86	4232.52
958.163	4264.38
958.467	4195
958.771	4206.3
959.075	4173.76
959.378	4133.99
959.682	4200.88
959.985	4129.47
960.289	4112.74
960.592	4122.46
960.896	4105.97
961.199	4050.83
961.502	4001.11
961.805	4036.81
962.108	3964.73
962.411	3974.44
962.714	3945.29
963.017	3939.87
963.32	3935.57
963.623	3895.12
963.926	3920.43
964.228	3893.54
964.531	3883.15
964.833	3816.48
965.136	3849.93
965.438	3811.51
965.741	3789.59
966.043	3790.72
966.345	3771.29
966.648	3731.96
966.95	3719.76
967.252	3732.19
967.554	3723.38
967.856	3667.33
968.158	3649.03
968.46	3683.6
968.761	3649.03
969.063	3659.2
969.365	3600.22
969.666	3584.62
969.968	3532.65
970.269	3552.99
970.571	3562.93
970.872	3544.85
971.174	3494.91
971.475	3498.3
971.776	3508.02
972.077	3455.59
972.378	3439.32
972.679	3457.17
972.98	3418.75
973.281	3406.77
973.582	3392.99
973.883	3343.95
974.183	3383.95
974.484	3345.08
974.785	3312.09
975.085	3386.21
975.386	3296.5
975.686	3327.68
975.986	3268.02
976.287	3294.24
976.587	3235.71
976.887	3218.76
977.187	3249.72
977.487	3221.24
977.787	3232.32
978.087	3188.7
978.387	3130.17
978.687	3160.23
978.987	3119.78
979.286	3106.22
979.586	3101.25
979.885	3092.88
980.185	3093.34
980.484	3081.81
980.784	3089.5
981.083	3080.68
981.382	3017.18
981.682	2988.93
981.981	3022.6
982.28	2994.58
982.579	2958.88
982.878	2965.43
983.177	2927.69
983.475	2922.04
983.774	2927.24
984.073	2891.31
984.372	2906.67
984.67	2864.64
984.969	2889.73
985.267	2850.41
985.566	2816.06
985.864	2855.15
986.162	2851.31
986.461	2790.75
986.759	2781.71
987.057	2755.27
987.355	2710.3
987.653	2749.84
987.951	2763.85
988.249	2712.56
988.547	2694.03
988.844	2709.17
989.142	2702.16
989.44	2672.78
989.737	2668.94
990.035	2668.72
990.332	2649.73
990.63	2617.64
990.927	2587.14
991.224	2625.78
991.521	2590.98
991.819	2580.13
992.116	2565.67
992.413	2553.01
992.71	2563.63
993.006	2552.33
993.303	2515.5
993.6	2521.83
993.897	2492.22
994.193	2490.64
994.49	2477.76
994.787	2467.82
995.083	2432.34
995.379	2426.69
995.676	2421.26
995.972	2425.33
996.268	2390.98
996.565	2385.56
996.861	2381.04
997.157	2370.87
997.453	2362.73
997.749	2361.15
998.044	2308.72
998.34	2329.74
998.636	2287.93
998.932	2296.97
999.227	2232.57
999.523	2245.68
999.818	2250.87
1000.114	2277.31
1000.409	2235.51
1000.704	2209.29
1001	2234.38
1001.295	2179.91
1001.59	2189.86
1001.885	2163.64
1002.18	2117.54
1002.475	2153.47
1002.77	2135.17
1003.065	2114.83
1003.359	2137.43
1003.654	2117.32
1003.949	2064.44
1004.243	2077.77
1004.538	2059.92
1004.832	2025.34
1005.127	2063.76
1005.421	1999.13
1005.715	2032.12
1006.009	2012.46
1006.304	1987.38
1006.598	1958
1006.892	1963.2
1007.186	1972.46
1007.48	1945.8
1007.773	1943.99
1008.067	1939.02
1008.361	1893.14
1008.655	1906.02
1008.948	1893.59
1009.242	1888.4
1009.535	1893.82
1009.829	1856.99
1010.122	1842.07
1010.415	1851.11
1010.708	1819.25
1011.001	1806.59
1011.295	1810.43
1011.588	1777.21
1011.881	1752.13
1012.173	1783.09
1012.466	1763.88
1012.759	1760.94
1013.052	1778.12
1013.344	1733.82
1013.637	1739.25
1013.93	1728.4
1014.222	1707.38
1014.514	1673.26
1014.807	1679.36
1015.099	1666.48
1015.391	1648.18
1015.683	1650.89
1015.976	1655.63
1016.268	1669.19
1016.56	1612.02
1016.851	1612.02
1017.143	1627.39
1017.435	1587.16
1017.727	1620.38
1018.018	1570.66
1018.31	1545.13
1018.602	1548.29
1018.893	1544.68
1019.185	1521.17
1019.476	1498.35
1019.767	1531.12
1020.058	1486.6
1020.35	1481.18
1020.641	1473.27
1020.932	1504.68
1021.223	1433.04
1021.514	1462.87
1021.804	1415.41
1022.095	1428.75
1022.386	1440.95
1022.677	1434.85
1022.967	1409.77
1023.258	1373.38
1023.548	1390.56
1023.839	1383.1
1024.129	1419.03
1024.419	1364.34
1024.709	1356.89
1025	1341.74
1025.29	1334.96
1025.58	1328.86
1025.87	1314.17
1026.16	1312.14
1026.449	1292.48
1026.739	1326.15
1027.029	1289.54
1027.319	1287.28
1027.608	1296.1
1027.898	1261.07
1028.187	1283.89
1028.477	1278.92
1028.766	1248.19
1029.055	1229.43
1029.344	1246.61
1029.634	1201.18
1029.923	1203.22
1030.212	1205.93
1030.501	1214.06
1030.79	1179.71
1031.078	1190.11
1031.367	1181.97
1031.656	1136.33
1031.945	1153.5
1032.233	1137.23
1032.522	1146.95
1032.81	1137.46
1033.099	1139.72
1033.387	1116.89
1033.675	1137.91
1033.963	1112.15
1034.251	1118.25
1034.54	1080.51
1034.828	1063.56
1035.116	1071.02
1035.403	1070.11
1035.691	1045.71
1035.979	1072.6
1036.267	1030.57
1036.554	1028.76
1036.842	1051.58
1037.129	1043.22
1037.417	1036.44
1037.704	1009.32
1037.992	1014.3
1038.279	1000.74
1038.566	976.78
1038.853	976.78
1039.14	976.78
