Data from hue_32_FLMS001491_00047.txt Node
Date: Tue Feb 07 17:23:27 GMT 2017
User: dcchb
Spectrometer: FLMS00149
Trigger mode: 0
Integration Time (sec): 2.000000E-2
Scans to average: 10
Electric dark correction enabled: true
Nonlinearity correction enabled: false
Boxcar width: 0
XAxis mode: Wavelengths
Number of Pixels in Spectrum: 2048
>>>>>Begin Spectral Data<<<<<
341.393	-3.67
341.776	-3.67
342.16	-3.67
342.543	-64.01
342.927	-54.52
343.31	-91.58
343.693	-60.62
344.077	-56.55
344.46	-71.69
344.843	-34.86
345.226	-28.76
345.61	-40.73
345.993	-16.78
346.376	-3.9
346.759	11.24
347.142	20.73
347.525	51.47
347.908	65.7
348.291	72.48
348.674	86.04
349.057	97.79
349.44	123.78
349.823	145.93
350.206	170.33
350.588	198.58
350.971	206.27
351.354	204.01
351.737	252.82
352.119	255.98
352.502	266.83
352.884	283.33
353.267	279.71
353.65	307.96
354.032	309.77
354.414	301.4
354.797	319.03
355.179	330.33
355.562	319.94
355.944	335.08
356.326	326.94
356.709	334.17
357.091	317
357.473	343.44
357.855	321.97
358.238	345.47
358.62	347.73
359.002	351.35
359.384	332.36
359.766	335.53
360.148	315.87
360.53	342.53
360.912	326.26
361.294	341.86
361.676	321.07
362.057	344.34
362.439	324.23
362.821	327.17
363.203	326.94
363.584	317.45
363.966	351.12
364.348	331.91
364.729	330.56
365.111	330.56
365.493	322.65
365.874	302.53
366.256	318.13
366.637	309.09
367.019	318.81
367.4	318.13
367.781	317.68
368.163	309.54
368.544	325.13
368.925	311.12
369.306	335.53
369.688	307.51
370.069	303.89
370.45	319.03
370.831	326.26
371.212	335.08
371.593	325.13
371.974	312.7
372.355	324.91
372.736	335.75
373.117	326.26
373.498	336.88
373.879	335.53
374.26	318.58
374.641	311.12
375.021	345.7
375.402	331.23
375.783	328.97
376.163	343.44
376.544	343.21
376.925	313.38
377.305	338.69
377.686	313.38
378.066	334.4
378.447	340.73
378.827	335.08
379.208	328.75
379.588	342.53
379.968	336.43
380.349	350.22
380.729	323.32
381.109	345.47
381.489	332.14
381.87	339.14
382.25	364.91
382.63	331.69
383.01	338.47
383.39	360.39
383.77	361.97
384.15	349.54
384.53	348.41
384.91	349.99
385.29	349.99
385.67	350.89
386.049	358.8
386.429	356.77
386.809	354.51
387.189	356.54
387.568	360.84
387.948	361.97
388.328	353.38
388.707	372.14
389.087	369.88
389.466	366.04
389.846	374.17
390.225	376.88
390.605	357
390.984	394.96
391.363	392.93
391.743	376.43
392.122	369.2
392.501	367.62
392.881	378.01
393.26	369.88
393.639	348.41
394.018	388.86
394.397	370.78
394.776	378.69
395.155	377.79
395.534	385.92
395.913	401.74
396.292	379.37
396.671	392.7
397.05	407.62
397.429	383.89
397.808	384.57
398.186	407.84
398.565	420.05
398.944	405.36
399.323	428.86
399.701	404.68
400.08	399.93
400.458	419.37
400.837	389.54
401.215	422.31
401.594	394.74
401.972	432.25
402.351	414.85
402.729	415.75
403.107	433.83
403.486	423.21
403.864	409.65
404.242	415.75
404.62	426.82
404.999	416.2
405.377	407.62
405.755	419.37
406.133	439.71
406.511	439.93
406.889	459.59
407.267	442.42
407.645	432.7
408.023	455.98
408.401	442.87
408.779	460.04
409.156	451.68
409.534	447.16
409.912	459.37
410.29	444.9
410.667	459.82
411.045	474.28
411.422	476.54
411.8	478.8
412.178	472.02
412.555	466.82
412.933	471.8
413.31	497.78
413.687	498.46
414.065	497.78
414.442	479.48
414.819	500.5
415.197	510.66
415.574	510.21
415.951	506.14
416.328	476.32
416.705	514.28
417.082	529.87
417.46	514.51
417.837	510.89
418.214	508.63
418.591	541.4
418.967	522.42
419.344	525.13
419.721	525.58
420.098	518.8
420.475	540.04
420.852	547.05
421.228	547.95
421.605	546.82
421.982	554.51
422.358	572.36
422.735	547.05
423.111	554.73
423.488	572.36
423.864	566.71
424.241	589.08
424.617	586.14
424.994	577.1
425.37	606.26
425.746	608.97
426.123	596.76
426.499	579.82
426.875	604.9
427.251	607.16
427.627	619.36
428.003	619.59
428.379	610.55
428.756	629.98
429.132	618.01
429.507	627.95
429.883	613.26
430.259	632.02
430.635	662.98
431.011	635.18
431.387	664.11
431.763	668.4
432.138	686.25
432.514	686.93
432.89	694.84
433.265	700.49
433.641	695.07
434.016	691.22
434.392	694.39
434.767	710.66
435.143	721.73
435.518	699.59
435.894	761.28
436.269	721.96
436.644	734.16
437.02	717.89
437.395	746.82
437.77	778.45
438.145	744.78
438.52	744.33
438.895	768.06
439.271	761.73
439.646	763.77
440.021	774.16
440.395	761.05
440.77	806.93
441.145	781.62
441.52	792.01
441.895	827.04
442.27	810.77
442.645	801.5
443.019	815.06
443.394	829.07
443.769	811.45
444.143	816.19
444.518	836.76
444.892	836.31
445.267	845.12
445.641	822.07
446.016	850.99
446.39	845.8
446.764	844.44
447.139	851.9
447.513	869.3
447.887	864.55
448.262	880.15
448.636	862.52
449.01	886.93
449.384	922.63
449.758	898.68
450.132	907.72
450.506	924.44
450.88	908.39
451.254	934.83
451.628	936.19
452.002	933.7
452.376	939.35
452.75	953.14
453.123	935.51
453.497	963.53
453.871	992.23
454.244	964.66
454.618	992.23
454.992	991.78
455.365	1015.06
455.739	1005.11
456.112	1025.68
456.486	1053.7
456.859	1048.5
457.232	1077.66
457.606	1065.23
457.979	1075.17
458.352	1095.51
458.725	1100.48
459.099	1131.44
459.472	1113.13
459.845	1104.55
460.218	1158.33
460.591	1164.21
460.964	1154.04
461.337	1189.06
461.71	1221.38
462.083	1239.01
462.456	1234.04
462.829	1237.65
463.201	1265.45
463.574	1252.11
463.947	1276.07
464.32	1297.08
464.692	1306.8
465.065	1301.6
465.438	1330.98
465.81	1317.2
466.183	1362.62
466.555	1414.37
466.928	1403.75
467.3	1425.67
467.672	1446.69
468.045	1485.1
468.417	1503.86
468.789	1489.17
469.161	1468.15
469.534	1535.72
469.906	1568.49
470.278	1572.78
470.65	1604.2
471.022	1659.11
471.394	1662.95
471.766	1661.82
472.138	1737.3
472.51	1748.15
472.882	1782.5
473.253	1797.18
473.625	1836.28
473.997	1871.08
474.369	1903.62
474.74	1929.61
475.112	1967.12
475.484	2012.77
475.855	2037.18
476.227	2088.02
476.598	2140
476.97	2169.38
477.341	2217.96
477.713	2276.72
478.084	2259.09
478.455	2358.53
478.827	2382.48
479.198	2478.75
479.569	2520.33
479.94	2561.46
480.311	2662.47
480.682	2693.43
481.053	2769.59
481.424	2822.24
481.795	2862.69
482.166	2935.01
482.537	3009.36
482.908	3110.14
483.279	3173.42
483.65	3235.34
484.021	3329.12
484.391	3424.26
484.762	3438.27
485.133	3494.31
485.503	3583.35
485.874	3691.37
486.244	3752.84
486.615	3840.75
486.985	3953.29
487.356	3991.7
487.726	4038.71
488.097	4230.79
488.467	4241.41
488.837	4346.95
489.207	4464.23
489.578	4551.46
489.948	4604.79
490.318	4707.62
490.688	4770.89
491.058	4876.88
491.428	4969.98
491.798	5044.33
492.168	5210.43
492.538	5248.62
492.908	5322.74
493.278	5400.71
493.648	5527.48
494.017	5579.46
494.387	5663.52
494.757	5750.53
495.126	5865.78
495.496	5883.86
495.866	6004.31
496.235	6078.43
496.605	6185.32
496.974	6258.31
497.344	6305.54
497.713	6393.45
498.082	6423.05
498.452	6480
498.821	6597.96
499.19	6686.77
499.559	6800.89
499.928	6847.67
500.298	6851.74
500.667	6968.12
501.036	7054.67
501.405	7120.66
501.774	7115.24
502.143	7232.3
502.512	7242.92
502.88	7366.76
503.249	7410.14
503.618	7470.71
503.987	7486.53
504.356	7597.71
504.724	7616.47
505.093	7676.13
505.462	7828.21
505.83	7779.4
506.199	7879.28
506.567	7994.76
506.936	7976
507.304	8115.66
507.672	8097.81
508.041	8217.81
508.409	8288.09
508.777	8339.61
509.145	8444.92
509.514	8384.36
509.882	8493.96
510.25	8547.97
510.618	8604.69
510.986	8664.8
511.354	8709.09
511.722	8854.4
512.09	8933.04
512.458	8891.46
512.826	9003.77
513.193	8978.46
513.561	9055.07
513.929	9140.72
514.297	9166.48
514.664	9279.47
515.032	9285.12
515.4	9298.23
515.767	9353.82
516.135	9444.21
516.502	9420.94
516.869	9576.64
517.237	9559.24
517.604	9594.72
517.972	9738.67
518.339	9752.91
518.706	9743.64
519.073	9774.15
519.44	9806.92
519.808	9997.19
520.175	9945.22
520.542	9995.39
520.909	10046.91
521.276	10074.93
521.643	10250.07
522.009	10276.74
522.376	10303.85
522.743	10377.75
523.11	10469.95
523.477	10549.04
523.843	10638.08
524.21	10689.38
524.577	10862.71
524.943	10777.51
525.31	10806.67
525.676	10922.37
526.043	10927.79
526.409	11015.93
526.776	11109.03
527.142	11117.62
527.508	11238.74
527.874	11308.12
528.241	11434.9
528.607	11328.01
528.973	11525.52
529.339	11508.79
529.705	11652.74
530.071	11684.38
530.437	11729.58
530.803	11800.99
531.169	11894.09
531.535	11897.71
531.901	11963.02
532.267	11988.1
532.632	12074.65
532.998	12119.62
533.364	12282.78
533.73	12252.73
534.095	12365.49
534.461	12375.66
534.826	12440.29
535.192	12472.84
535.557	12592.15
535.923	12522.33
536.288	12612.04
536.653	12680.51
537.019	12762.09
537.384	12727.97
537.749	12779.95
538.114	12813.84
538.479	12839.61
538.845	12937.46
539.21	12934.29
539.575	13013.39
539.94	12991.01
540.305	13136.32
540.67	13078.24
541.034	13270.33
541.399	13233.04
541.764	13372.7
542.129	13379.03
542.494	13448.86
542.858	13511
543.223	13468.74
543.587	13600.04
543.952	13597.1
544.316	13713.93
544.681	13731.33
545.045	13741.28
545.41	13883.65
545.774	13956.19
546.138	13886.36
546.503	14011.33
546.867	14053.13
547.231	14100.59
547.595	14136.75
547.959	14226.24
548.324	14195.28
548.688	14306.23
549.052	14305.56
549.416	14462.84
549.779	14460.35
550.143	14395.27
550.507	14611.76
550.871	14614.7
551.235	14552.56
551.599	14723.4
551.962	14707.58
552.326	14770.4
552.689	14765.43
553.053	14744.87
553.417	14804.75
553.78	15014.46
554.143	14953.67
554.507	15028.02
554.87	15066.89
555.234	15247.45
555.597	15098.98
555.96	15210.39
556.323	15229.15
556.686	15368.13
557.05	15356.15
557.413	15429.59
557.776	15385.75
558.139	15520.67
558.502	15510.27
558.865	15541
559.228	15627.1
559.59	15810.15
559.953	15719.08
560.316	15965.63
560.679	15977.83
561.041	16007.43
561.404	16060.09
561.767	16146.41
562.129	16099.86
562.492	16286.52
562.854	16322.23
563.217	16290.59
563.579	16426.18
563.941	16441.32
564.304	16583.24
564.666	16539.85
565.028	16625.72
565.39	16705.72
565.753	16837.47
566.115	16791.82
566.477	16901.42
566.839	16957.01
567.201	17042.43
567.563	17103.45
567.925	17153.39
568.287	17187.29
568.648	17208.98
569.01	17361.29
569.372	17427.28
569.734	17435.42
570.095	17535.53
570.457	17698.91
570.819	17742.3
571.18	17696.2
571.542	17891.45
571.903	17901.17
572.265	17929.19
572.626	18036.76
572.987	18177.09
573.349	18183.42
573.71	18308.84
574.071	18467.03
574.432	18507.93
574.794	18657.76
575.155	18682.62
575.516	18726.68
575.877	18823.63
576.238	18970.97
576.599	19064.08
576.96	19214.81
577.32	19253.67
577.681	19393.78
578.042	19551.75
578.403	19635.13
578.763	19740.44
579.124	19852.75
579.485	20111.51
579.845	20285.29
580.206	20320.99
580.566	20543.36
580.927	20703.81
581.287	20859.73
581.648	20930.01
582.008	21238.03
582.368	21280.74
582.728	21656.78
583.089	21673.05
583.449	21977.22
583.809	22059.48
584.169	22383.54
584.529	22542.85
584.889	22920.7
585.249	22908.95
585.609	23140.8
585.969	23506.44
586.329	23593.9
586.688	23879.09
587.048	24071.17
587.408	24178.29
587.768	24446.98
588.127	24625.74
588.487	24977.59
588.846	25404.02
589.206	25431.14
589.565	25632.04
589.925	26120.84
590.284	26263.43
590.643	26660.94
591.003	26822.97
591.362	27091.21
591.721	27285.55
592.08	27523.74
592.44	27844.41
592.799	28041.92
593.158	28311.74
593.517	28664.95
593.876	28936.58
594.235	29098.16
594.593	29568.21
594.952	29691.59
595.311	29871.25
595.67	30275.08
596.029	30565.47
596.387	30897.44
596.746	31241.38
597.104	31193.25
597.463	31549.85
597.822	32000.46
598.18	32031.42
598.538	32303.05
598.897	32803.37
599.255	32699.87
599.613	33384.83
599.972	33363.81
600.33	33710.92
600.688	33685.16
601.046	34134.87
601.404	34522.65
601.762	34598.13
602.12	34878.12
602.478	35073.6
602.836	35371.89
603.194	35191.56
603.552	35490.08
603.91	35633.58
604.268	36071.54
604.625	35966.91
604.983	36364.64
605.341	36431.75
605.698	36915.81
606.056	37182.92
606.413	37119.65
606.771	37464.04
607.128	37689.8
607.485	37639.86
607.843	37929.34
608.2	38015.67
608.557	38368.43
608.914	38391.7
609.272	38658.36
609.629	38887.51
609.986	39082.53
610.343	39162.76
610.7	39442.07
611.057	39494.72
611.414	39669.18
611.771	39792.34
612.127	40098.78
612.484	40162.96
612.841	40224.65
613.198	40351.88
613.554	40456.05
613.911	40779.66
614.267	40872.54
614.624	40976.04
614.98	41067.11
615.337	41427.1
615.693	41396.14
616.05	41631.39
616.406	41813.53
616.762	41661.22
617.118	41831.61
617.475	41972.4
617.831	42036.58
618.187	42347.3
618.543	42297.59
618.899	42617.13
619.255	42697.8
619.611	42583.68
619.967	42845.14
620.323	42976.67
620.678	42990.68
621.034	42971.47
621.39	43063.9
621.746	43145.48
622.101	43554.96
622.457	43334.17
622.812	43469.53
623.168	43621.4
623.523	43519.03
623.879	43807.83
624.234	43499.82
624.589	43789.75
624.945	43808.06
625.3	44032.46
625.655	43836.31
626.01	43965.34
626.365	44064.1
626.72	44201.95
627.075	44149.52
627.43	44230.64
627.785	44174.38
628.14	44175.51
628.495	44277.42
628.85	44325.33
629.205	44153.36
629.559	44377.76
629.914	44387.02
630.269	44307.03
630.623	44346.35
630.978	44305.22
631.332	44333.69
631.687	44544.08
632.041	44339.12
632.396	44613.91
632.75	44413.92
633.104	44392.67
633.459	44349.06
633.813	44222.96
634.167	44346.35
634.521	44418.66
634.875	44440.13
635.229	44373.24
635.583	44183.64
635.937	44354.26
636.291	44262.96
636.645	44245.11
636.999	44363.97
637.352	44490.98
637.706	44050.08
638.06	44393.35
638.413	44236.75
638.767	44131.66
639.121	44232
639.474	43961.5
639.828	44060.71
640.181	44125.79
640.534	44226.58
640.888	44058.22
641.241	43815.29
641.594	43995.85
641.947	44063.19
642.301	43999.24
642.654	44177.09
643.007	44108.84
643.36	43948.17
643.713	43996.98
644.066	44150.65
644.419	43960.82
644.771	43655.07
645.124	43194.06
645.477	43138.47
645.83	42850.34
646.182	42847.4
646.535	42658.93
646.888	42853.51
647.24	42627.98
647.593	42770.34
647.945	42770.34
648.298	42544.14
648.65	42469.11
649.002	42480.18
649.355	42629.56
649.707	42541.2
650.059	42758.59
650.411	43213.72
650.763	43262.99
651.115	43513.83
651.467	43464.34
651.819	43411.91
652.171	43287.84
652.523	43328.75
652.875	43250.56
653.227	43166.49
653.578	43455.75
653.93	43422.53
654.282	43227.28
654.633	43151.35
654.985	43174.63
655.337	43271.8
655.688	43303.21
656.039	43381.18
656.391	43165.14
656.742	43251.69
657.094	43289.65
657.445	43261.4
657.796	42978.25
658.147	43103.67
658.498	43172.14
658.849	42979.6
659.2	42983.9
659.551	42937.8
659.902	43013.5
660.253	42972.82
660.604	43140.5
660.955	42944.13
661.306	42939.83
661.656	42944.13
662.007	42887.18
662.358	42998.36
662.708	42913.84
663.059	42906.16
663.409	42663.68
663.76	42871.58
664.11	42891.47
664.461	42971.02
664.811	42997.91
665.161	42872.94
665.511	42839.5
665.862	42907.52
666.212	42895.76
666.562	43022.09
666.912	42823.68
667.262	42873.62
667.612	42806.05
667.962	42884.01
668.312	42771.93
668.662	42903.9
669.011	42830.46
669.361	42825.71
669.711	42760.4
670.06	42711.81
670.41	42627.07
670.76	42565.15
671.109	42673.85
671.459	42542.78
671.808	42566.73
672.157	42649.67
672.507	42394.54
672.856	42418.72
673.205	42449.9
673.554	42615.32
673.904	42439.73
674.253	42646.05
674.602	42570.8
674.951	42055.33
675.3	41845.62
675.649	42538.71
675.998	42362.22
676.346	42404.03
676.695	42593.85
677.044	42121.77
677.393	42439.28
677.741	42305.95
678.09	42343.46
678.438	42235.22
678.787	42268.21
679.135	42247.65
679.484	42018.05
679.832	42141.43
680.181	41937.37
680.529	42009.91
680.877	41952.74
681.225	41875.23
681.573	42072.28
681.922	41735.8
682.27	41793.87
682.618	41656.93
682.966	41661.67
683.314	41772.86
683.661	41516.59
684.009	41522.69
684.357	41311.4
684.705	41336.71
685.053	41348.91
685.4	41277.05
685.748	41159.77
686.095	41110.5
686.443	40986.66
686.79	40929.49
687.138	40945.99
687.485	40861.92
687.832	40705.99
688.18	40785.31
688.527	40573.57
688.874	40628.25
689.221	40397.07
689.568	40451.76
689.915	40251.99
690.262	40314.82
690.609	40172.45
690.956	40121.15
691.303	40161.37
691.65	39965.22
691.997	39847.94
692.344	39692.01
692.69	39652.91
693.037	39652.23
693.383	39376.76
693.73	39525.01
694.077	39139.48
694.423	39266.03
694.769	39090.89
695.116	38961.18
695.462	38939.71
695.808	38825.82
696.155	38831.01
696.501	38662.43
696.847	38516.9
697.193	38365.26
697.539	38535.65
697.885	38173.86
698.231	38217.7
698.577	38231.03
698.923	38111.26
699.269	37826.97
699.614	37746.07
699.96	37840.53
700.306	37862.9
700.651	37498.17
700.997	37456.36
701.342	37430.37
701.688	37366.87
702.033	37138.4
702.379	37149.48
702.724	37176.59
703.069	37143.37
703.415	36783.84
703.76	36793.1
704.105	36758.07
704.45	36683.05
704.795	36551.07
705.14	36274.47
705.485	36290.51
705.83	36294.36
706.175	36138.2
706.52	36217.07
706.865	36062.5
707.209	36006.23
707.554	35868.83
707.899	36031.31
708.243	35701.83
708.588	35672.23
708.932	35528.95
709.277	35425.68
709.621	35359.69
709.966	35309.98
710.31	35383.87
710.654	35139.36
710.998	35065.69
711.342	35080.83
711.687	34863.89
712.031	34898.91
712.375	34738.69
712.719	34870.89
713.063	34684.46
713.407	34709.99
713.75	34567.85
714.094	34551.58
714.438	34333.05
714.782	34500.73
715.125	34239.72
715.469	34445.59
715.812	34109.56
716.156	33985.94
716.499	33979.84
716.843	34108.43
717.186	33771.48
717.53	34034.08
717.873	33927.41
718.216	33917.47
718.559	33717.7
718.902	33341.21
719.246	33456.92
719.589	33320.2
719.932	33376.69
720.275	33349.35
720.617	33277.49
720.96	33120.2
721.303	33235
721.646	33166.98
721.989	33069.81
722.331	33100.77
722.674	32927.44
723.016	33021
723.359	32938.06
723.701	33060.54
724.044	32754.11
724.386	32665.98
724.729	32799.31
725.071	32694.23
725.413	32630.27
725.755	32662.59
726.097	32537.85
726.439	32296.95
726.782	32292.43
727.124	32443.16
727.465	32306.21
727.807	32211.98
728.149	32221.7
728.491	32200.9
728.833	32198.87
729.175	32128.14
729.516	31989.84
729.858	31969.72
730.199	31981.93
730.541	31744.19
730.882	31840.91
731.224	31944.19
731.565	31666.23
731.906	31717.53
732.248	31742.84
732.589	31650.41
732.93	31492.45
733.271	31497.65
733.612	31440.02
733.953	31427.14
734.294	31313.92
734.635	31314.6
734.976	31343.98
735.317	31248.84
735.658	31257.88
735.999	31116.41
736.339	31102.85
736.68	31081.16
737.021	30920.71
737.361	30821.73
737.702	31176.3
738.042	30906.48
738.383	30871.9
738.723	30844.1
739.063	30859.47
739.404	30864.22
739.744	30694.5
740.084	30568.18
740.424	30749.87
740.764	30503.32
741.104	30624.45
741.444	30576.09
741.784	30376.32
742.124	30447.73
742.464	30485.47
742.804	30311.46
743.143	30247.51
743.483	30339.71
743.823	30177.68
744.162	30092.26
744.502	30207.06
744.841	30000.96
745.181	30201.86
745.52	30032.37
745.86	29893.85
746.199	29952.15
746.538	30055.65
746.877	29939.95
747.216	29786.73
747.556	29725.49
747.895	29840.51
748.234	29682.33
748.573	29600.75
748.911	29635.1
749.25	29583.8
749.589	29477.59
749.928	29491.82
750.267	29482.78
750.605	29435.55
750.944	29385.16
751.283	29260.19
751.621	29256.8
751.96	29088.22
752.298	29066.75
752.636	29139.74
752.975	28979.75
753.313	28836.25
753.651	29038.95
753.989	28837.38
754.327	28769.81
754.666	28646.42
755.004	28737.49
755.342	28746.76
755.679	28633.77
756.017	28480.1
756.355	28613.2
756.693	28405.07
757.031	28478.97
757.368	28283.04
757.706	28203.72
758.044	28128.02
758.381	28136.6
758.719	28031.07
759.056	28037.85
759.394	28100
759.731	27812.09
760.068	27801.7
760.405	27749.27
760.743	27590.63
761.08	27540.01
761.417	27415.27
761.754	27441.48
762.091	27505.89
762.428	27313.12
762.765	27194.26
763.102	27263.86
763.438	27053.47
763.775	26969.4
764.112	26962.4
764.449	26977.54
764.785	26826.13
765.122	26626.81
765.458	26586.14
765.795	26603.09
766.131	26443.09
766.467	26435.18
766.804	26222.08
767.14	26097.11
767.476	26251.23
767.812	25913.84
768.148	26127.17
768.485	25853.73
768.821	25766.05
769.157	25786.38
769.492	25626.61
769.828	25636.33
770.164	25379.16
770.5	25395.21
770.836	25372.61
771.171	25213.52
771.507	25222.78
771.842	24956.58
772.178	25072.73
772.513	24802.68
772.849	24855.79
773.184	24682.46
773.519	24668.45
773.855	24593.65
774.19	24488.34
774.525	24316.82
774.86	24392.52
775.195	24219.87
775.53	24138.74
775.865	24221.91
776.2	23939.65
776.535	23729.49
776.87	23731.97
777.205	23814.01
777.539	23554.13
777.874	23739.43
778.209	23362.72
778.543	23493.79
778.878	23235.72
779.212	23261.03
779.547	23054.48
779.881	23124.08
780.215	22933.13
780.55	22933.8
780.884	22878.89
781.218	22798.44
781.552	22694.71
781.886	22622.63
782.22	22447.26
782.554	22426.92
782.888	22132.69
783.222	22141.96
783.556	22034.62
783.889	22080.49
784.223	21876.43
784.557	21871.01
784.89	21861.52
785.224	21774.06
785.557	21727.96
785.891	21620.39
786.224	21541.3
786.558	21529.77
786.891	21320.06
787.224	21246.84
787.557	21229.44
787.891	21148.31
788.224	21194.19
788.557	21005.94
788.89	21019.5
789.223	20911.48
789.556	20750.13
789.888	20811.37
790.221	20672.85
790.554	20467.88
790.887	20483.02
791.219	20438.05
791.552	20456.13
791.884	20295
792.217	20259.07
792.549	20031.28
792.882	19944.96
793.214	19841.91
793.546	19897.73
793.879	19796.71
794.211	19774.11
794.543	19802.59
794.875	19607.79
795.207	19715.13
795.539	19612.31
795.871	19658.41
796.203	19364.86
796.535	19280.57
796.867	19311.98
797.198	19191.98
797.53	19268.14
797.862	19108.37
798.193	19113.34
798.525	18945.21
798.856	18944.08
799.188	18742.05
799.519	18704.54
799.85	18661.6
800.182	18681.26
800.513	18630.87
800.844	18487.82
801.175	18614.14
801.506	18402.62
801.837	18418.67
802.168	18336.64
802.499	18320.59
802.83	18148.62
803.161	18168.05
803.491	18257.99
803.822	18177.09
804.153	18022.29
804.483	17954.95
804.814	17935.52
805.145	17839.7
805.475	17801.06
805.805	17645.36
806.136	17735.3
806.466	17829.31
806.796	17621.85
807.126	17430.9
807.457	17466.38
807.787	17497.79
808.117	17433.38
808.447	17371.46
808.777	17321.07
809.107	17326.95
809.436	17171.47
809.766	17281.97
810.096	17205.14
810.426	17125.37
810.755	17079.95
811.085	17041.76
811.414	16999.95
811.744	16829.56
812.073	16877.92
812.403	16818.94
812.732	16766.28
813.061	16740.75
813.39	16607.87
813.719	16645.61
814.049	16597.02
814.378	16516.8
814.707	16476.8
815.036	16463.92
815.365	16399.74
815.693	16283.36
816.022	16334.88
816.351	16154.77
816.68	16160.2
817.008	16246.52
817.337	16045.85
817.665	16027.09
817.994	16019.41
818.322	16049.01
818.651	15940.09
818.979	15892.41
819.307	15946.42
819.636	15934.67
819.964	15741.9
820.292	15875.91
820.62	15889.7
820.948	15814.22
821.276	15823.26
821.604	15717.27
821.932	15771.05
822.259	15684.73
822.587	15763.6
822.915	15681.34
823.243	15723.6
823.57	15699.87
823.898	15710.04
824.225	15601.12
824.553	15614
824.88	15623.26
825.207	15635.01
825.535	15689.47
825.862	15721.34
826.189	15637.05
826.516	15721.11
826.843	15759.98
827.17	15661.45
827.497	15659.64
827.824	15701
828.151	15765.4
828.478	15655.8
828.805	15673.43
829.131	15641.79
829.458	15599.76
829.785	15670.72
830.111	15662.13
830.438	15717.04
830.764	15670.94
831.09	15629.14
831.417	15547.56
831.743	15530.38
832.069	15630.72
832.395	15506.88
832.722	15605.41
833.048	15448.12
833.374	15553.66
833.7	15444.51
834.026	15499.87
834.351	15497.84
834.677	15517.28
835.003	15476.82
835.329	15521.34
835.654	15513.43
835.98	15378.52
836.306	15427.56
836.631	15317.05
836.956	15398.86
837.282	15318.86
837.607	15333.1
837.932	15227.79
838.258	15202.26
838.583	15232.09
838.908	15088.36
839.233	15144.63
839.558	15115.48
839.883	14982.6
840.208	14969.95
840.533	15051.98
840.858	15007.46
841.182	14965.2
841.507	14977.85
841.832	14863.28
842.156	14913
842.481	14752.1
842.805	14854.92
843.13	14798.88
843.454	14758.65
843.778	14673.68
844.103	14620.12
844.427	14673.23
844.751	14664.64
845.075	14596.85
845.399	14592.1
845.723	14412.9
846.047	14496.96
846.371	14305.33
846.695	14266.24
847.019	14249.96
847.343	14085.22
847.666	14090.19
847.99	14060.14
848.313	14012.91
848.637	14000.93
848.96	13960.71
849.284	13890.88
849.607	13833.93
849.931	13740.37
850.254	13673.03
850.577	13643.2
850.9	13500.15
851.223	13556.42
851.546	13476.2
851.869	13341.97
852.192	13392.36
852.515	13303.77
852.838	13250.22
853.161	13208.64
853.483	13102.2
853.806	13014.97
854.129	13167.28
854.451	12967.74
854.774	12904.69
855.096	12984.01
855.419	12937.46
855.741	12868.08
856.063	12745.82
856.385	12806.84
856.708	12796.22
857.03	12656.11
857.352	12745.82
857.674	12712.83
857.996	12586.51
858.318	12533.85
858.64	12474.42
858.961	12525.26
859.283	12413.18
859.605	12403.91
859.926	12485.49
860.248	12417.47
860.57	12236.46
860.891	12366.4
861.212	12183.35
861.534	12187.42
861.855	12170.02
862.176	12248.44
862.498	12144.26
862.819	12103.13
863.14	12157.36
863.461	12095.44
863.782	11980.65
864.103	11966.86
864.424	11967.99
864.745	11979.06
865.065	11958.5
865.386	11821.1
865.707	11840.31
866.027	11873.76
866.348	11818.39
866.668	11855
866.989	11807.09
867.309	11791.5
867.63	11756.7
867.95	11772.52
868.27	11670.15
868.59	11713.31
868.91	11656.36
869.23	11693.2
869.55	11632.41
869.87	11638.96
870.19	11626.08
870.51	11527.78
870.83	11615.01
871.15	11519.87
871.469	11538.17
871.789	11585.4
872.109	11511.28
872.428	11467.66
872.748	11490.71
873.067	11483.26
873.386	11459.98
873.706	11361.68
874.025	11297.5
874.344	11332.75
874.663	11321
874.982	11341.79
875.301	11309.7
875.62	11318.97
875.939	11251.63
876.258	11316.26
876.577	11128.24
876.896	11166.43
877.214	11159.2
877.533	11179.08
877.852	11125.98
878.17	11162.59
878.489	11097.96
878.807	11096.83
879.125	11087.56
879.444	11043.72
879.762	11076.94
880.08	11093.44
880.398	10913.55
880.716	11037.62
881.034	10912.65
881.352	10943.16
881.67	10934.35
881.988	10930.73
882.306	10870.17
882.624	10854.12
882.941	10738.42
883.259	10768.25
883.577	10821.35
883.894	10816.61
884.212	10732.54
884.529	10717.63
884.846	10672.43
885.164	10676.95
885.481	10637.63
885.798	10636.27
886.115	10537.07
886.432	10417.75
886.75	10500.91
887.067	10542.94
887.383	10432.66
887.7	10399.22
888.017	10395.15
888.334	10400.35
888.651	10310.86
888.967	10396.05
889.284	10335.72
889.6	10300.92
889.917	10214.59
890.233	10262.95
890.55	10120.58
890.866	10171.43
891.182	10124.88
891.498	10091.2
891.815	10046.23
892.131	10004.2
892.447	10039.91
892.763	10001.04
893.079	9978.21
893.395	9948.38
893.71	9967.37
894.026	9947.25
894.342	9913.81
894.657	9803.08
894.973	9750.65
895.289	9735.51
895.604	9793.36
895.92	9705.9
896.235	9659.35
896.55	9641.27
896.865	9586.36
897.181	9590.65
897.496	9586.13
897.811	9496.87
898.126	9471.56
898.441	9347.49
898.756	9427.94
899.071	9315.4
899.386	9336.42
899.7	9276.99
900.015	9238.8
900.33	9168.74
900.644	9204
900.959	9177.78
901.273	9119.93
901.588	9095.07
901.902	9010.78
902.216	9006.94
902.531	8950.44
902.845	8883.78
903.159	8949.09
903.473	8861.41
903.787	8852.37
904.101	8799.71
904.415	8842.65
904.729	8763.55
905.042	8725.82
905.356	8660.96
905.67	8648.53
905.984	8668.87
906.297	8602.43
906.611	8584.12
906.924	8560.4
907.237	8533.96
907.551	8473.62
907.864	8465.26
908.177	8441.3
908.491	8411.93
908.804	8361.98
909.117	8344.58
909.43	8303
909.743	8232.5
910.056	8206.73
910.368	8165.15
910.681	8190.24
910.994	8145.49
911.307	7991.37
911.619	8078.6
911.932	8030.24
912.244	7989.79
912.557	7990.47
912.869	7886.74
913.181	7930.36
913.494	7831.83
913.806	7821.66
914.118	7816.01
914.43	7744.15
914.742	7727.88
915.054	7719.51
915.366	7685.84
915.678	7629.8
915.99	7598.39
916.302	7496.7
916.613	7538.05
916.925	7524.27
917.236	7520.65
917.548	7434.1
917.859	7416.92
918.171	7414.66
918.482	7305.06
918.794	7347.09
919.105	7304.38
919.416	7253.99
919.727	7206.76
920.038	7214.9
920.349	7195.23
920.66	7130.15
920.971	7124.73
921.282	7057.84
921.593	7082.92
921.903	6965.41
922.214	6960.66
922.525	6879.31
922.835	6926.77
923.146	6844.28
923.456	6874.79
923.767	6844.96
924.077	6854.9
924.387	6799.31
924.697	6758.86
925.008	6734.46
925.318	6667.56
925.628	6614.68
925.938	6604.97
926.248	6590.96
926.558	6558.19
926.867	6562.03
927.177	6544.86
927.487	6502.6
927.796	6386.44
928.106	6403.39
928.416	6418.98
928.725	6339.44
929.034	6351.41
929.344	6342.15
929.653	6297.41
929.962	6235.94
930.271	6240.68
930.581	6215.83
930.89	6141.93
931.199	6193.23
931.508	6114.81
931.817	6152.32
932.125	6075.04
932.434	6063.06
932.743	6054.25
933.051	5997.3
933.36	5970.41
933.669	5875.95
933.977	5962.72
934.286	5918.43
934.594	5863.97
934.902	5820.81
935.21	5844.76
935.519	5816.29
935.827	5800.02
936.135	5731.32
936.443	5727.25
936.751	5657.87
937.059	5659.23
937.367	5608.61
937.674	5654.48
937.982	5644.54
938.29	5548.95
938.597	5577.2
938.905	5509.18
939.213	5498.33
939.52	5478.67
939.827	5495.84
940.135	5434.38
940.442	5380.82
940.749	5399.35
941.056	5391.89
941.363	5360.03
941.67	5339.92
941.977	5291.56
942.284	5239.81
942.591	5252.69
942.898	5212.46
943.205	5233.25
943.511	5184.67
943.818	5194.61
944.125	5138.11
944.431	5149.86
944.738	5084.33
945.044	5049.75
945.35	5019.02
945.657	4986.71
945.963	5011.34
946.269	4921.85
946.575	4961.85
946.881	4879.14
947.187	4947.38
947.493	4889.08
947.799	4861.28
948.105	4851.34
948.41	4800.04
948.716	4800.72
949.022	4761.4
949.327	4756.43
949.633	4740.61
949.938	4735.41
950.244	4780.16
950.549	4680.27
950.854	4655.41
951.16	4656.54
951.465	4628.52
951.77	4628.3
952.075	4582.2
952.38	4539.03
952.685	4552.59
952.99	4534.51
953.294	4509.2
953.599	4460.62
953.904	4445.25
954.209	4426.95
954.513	4405.93
954.818	4400.51
955.122	4402.54
955.426	4374.07
955.731	4368.64
956.035	4330.9
956.339	4284.58
956.643	4319.15
956.948	4297.46
957.252	4265.82
957.556	4251.58
957.86	4231.02
958.163	4187.18
958.467	4203.22
958.771	4222.43
959.075	4147.63
959.378	4108.08
959.682	4140.17
959.985	4073.96
960.289	4076.45
960.592	4068.31
960.896	4036.9
961.199	4067.18
961.502	4025.15
961.805	3977.24
962.108	3998.71
962.411	3945.38
962.714	3968.88
963.017	3917.13
963.32	3910.12
963.623	3863.34
963.926	3894.3
964.228	3883.46
964.531	3837.58
964.833	3838.94
965.136	3826.74
965.438	3804.59
965.741	3753.74
966.043	3734.76
966.345	3745.83
966.648	3743.12
966.95	3697.02
967.252	3685.72
967.554	3682.11
967.856	3662.45
968.158	3630.36
968.46	3628.32
968.761	3607.31
969.063	3591.94
969.365	3549.45
969.666	3596.01
969.968	3540.64
970.269	3519.62
970.571	3480.76
970.872	3502.22
971.174	3474.2
971.475	3473.52
971.776	3433.75
972.077	3432.17
972.378	3441.89
972.679	3448.67
972.98	3376.13
973.281	3370.02
973.582	3386.75
973.883	3338.16
974.183	3384.71
974.484	3270.59
974.785	3277.37
975.085	3286.64
975.386	3316.47
975.686	3276.24
975.986	3252.97
976.287	3239.63
976.587	3240.31
976.887	3208.9
977.187	3194.44
977.487	3153.76
977.787	3143.14
978.087	3135.68
978.387	3125.96
978.687	3123.03
978.987	3109.47
979.286	3062.91
979.586	3071.95
979.885	3062.01
980.185	3062.01
980.484	2992.41
980.784	3018.4
981.083	3015.01
981.382	3011.62
981.682	3014.1
981.981	2979.53
982.28	2938.85
982.579	2900.88
982.878	2953.54
983.177	2919.41
983.475	2934.78
983.774	2874.44
984.073	2926.19
984.372	2847.1
984.67	2833.77
984.969	2858.85
985.267	2850.72
985.566	2800.77
985.864	2812.75
986.162	2798.06
986.461	2754.67
986.759	2743.83
987.057	2739.76
987.355	2745.41
987.653	2715.8
987.951	2729.14
988.249	2702.92
988.547	2666.77
988.844	2714
989.142	2650.95
989.44	2652.3
989.737	2629.48
990.035	2628.12
990.332	2631.29
990.63	2643.49
990.927	2586.99
991.224	2601.91
991.521	2557.62
991.819	2552.64
992.116	2566.2
992.413	2554.45
992.71	2522.14
993.006	2497.96
993.303	2465.64
993.6	2469.94
993.897	2457.96
994.193	2487.11
994.49	2459.31
994.787	2444.17
995.083	2405.98
995.379	2440.33
995.676	2425.64
995.972	2382.25
996.268	2370.05
996.565	2373.89
996.861	2367.11
997.157	2317.62
997.453	2340.67
997.749	2337.96
998.044	2318.53
998.34	2281.01
998.636	2296.38
998.932	2243.05
999.227	2243.27
999.523	2253.44
999.818	2254.12
1000.114	2202.15
1000.409	2175.93
1000.704	2219.77
1001	2186.78
1001.295	2192.2
1001.59	2163.73
1001.885	2145.88
1002.18	2109.27
1002.475	2116.27
1002.77	2139.77
1003.065	2097.29
1003.359	2089.15
1003.654	2108.81
1003.949	2089.15
1004.243	2069.72
1004.538	2055.03
1004.832	2046.44
1005.127	2016.61
1005.421	2008.93
1005.715	2030.4
1006.009	2015.26
1006.304	1980.68
1006.598	2008.03
1006.892	1972.55
1007.186	1963.73
1007.48	1951.53
1007.773	1959.67
1008.067	1911.76
1008.361	1916.5
1008.655	1933.23
1008.948	1920.8
1009.242	1894.36
1009.535	1847.8
1009.829	1857.07
1010.122	1848.26
1010.415	1856.62
1010.708	1840.35
1011.001	1796.51
1011.295	1817.52
1011.588	1818.43
1011.881	1780.69
1012.173	1786.34
1012.466	1774.81
1012.759	1745.66
1013.052	1753.34
1013.344	1721.71
1013.637	1741.59
1013.93	1706.57
1014.222	1699.11
1014.514	1683.97
1014.807	1678.32
1015.099	1682.84
1015.391	1681.71
1015.683	1694.36
1015.976	1649.62
1016.268	1629.28
1016.56	1617.98
1016.851	1604.2
1017.143	1608.94
1017.435	1612.78
1017.727	1598.77
1018.018	1581.6
1018.31	1562.84
1018.602	1569.17
1018.893	1555.38
1019.185	1523.75
1019.476	1504.08
1019.767	1534.59
1020.058	1523.52
1020.35	1501.6
1020.641	1481.49
1020.932	1491.66
1021.223	1491.66
1021.514	1451.66
1021.804	1445.78
1022.095	1433.35
1022.386	1419.79
1022.677	1411.43
1022.967	1410.53
1023.258	1413.47
1023.548	1369.4
1023.839	1379.57
1024.129	1372.11
1024.419	1369.63
1024.709	1359.23
1025	1337.08
1025.29	1336.86
1025.58	1318.55
1025.87	1329.17
1026.16	1333.24
1026.449	1320.81
1026.739	1295.5
1027.029	1328.04
1027.319	1263.41
1027.608	1255.96
1027.898	1272.68
1028.187	1253.02
1028.477	1232.91
1028.766	1222.74
1029.055	1206.24
1029.344	1230.42
1029.634	1204.43
1029.923	1227.93
1030.212	1192
1030.501	1194.26
1030.79	1174.83
1031.078	1161.04
1031.367	1135.51
1031.656	1181.16
1031.945	1135.28
1032.233	1136.41
1032.522	1126.69
1032.81	1152.46
1033.099	1122.85
1033.387	1107.49
1033.675	1122.17
1033.963	1104.77
1034.251	1062.29
1034.54	1059.8
1034.828	1082.4
1035.116	1081.27
1035.403	1100.71
1035.691	1059.12
1035.979	1069.52
1036.267	1057.99
1036.554	1042.18
1036.842	999.92
1037.129	1043.76
1037.417	1014.38
1037.704	1025.91
1037.992	982.06
1038.279	1003.76
1038.566	989.3
1038.853	989.3
1039.14	989.3
