Data from hue_26_FLMS001491_00001.txt Node
Date: Tue Feb 07 17:13:28 GMT 2017
User: dcchb
Spectrometer: FLMS00149
Trigger mode: 0
Integration Time (sec): 2.000000E-2
Scans to average: 10
Electric dark correction enabled: true
Nonlinearity correction enabled: false
Boxcar width: 0
XAxis mode: Wavelengths
Number of Pixels in Spectrum: 2048
>>>>>Begin Spectral Data<<<<<
341.393	-1.02
341.776	-1.02
342.16	-1.02
342.543	-58.64
342.927	-86.21
343.31	-55.03
343.693	-64.52
344.077	-73.33
344.46	-63.39
344.843	-56.61
345.226	-62.71
345.61	-36.95
345.993	-20.9
346.376	-11.86
346.759	6.21
347.142	40.34
347.525	48.47
347.908	57.29
348.291	92.99
348.674	92.54
349.057	107.45
349.44	116.27
349.823	143.84
350.206	156.27
350.588	191.52
350.971	191.97
351.354	210.5
351.737	252.31
352.119	236.49
352.502	266.55
352.884	274.23
353.267	279.2
353.65	294.57
354.032	311.74
354.414	302.03
354.797	295.02
355.179	326.66
355.562	321.69
355.944	324.4
356.326	331.86
356.709	327.11
357.091	331.18
357.473	330.95
357.855	337.05
358.238	328.47
358.62	319.65
359.002	342.93
359.384	351.52
359.766	340.89
360.148	325.3
360.53	343.83
360.912	342.25
361.294	353.32
361.676	339.31
362.057	331.4
362.439	329.14
362.821	313.55
363.203	304.29
363.584	329.14
363.966	309.48
364.348	333.66
364.729	330.73
365.111	329.14
365.493	316.94
365.874	327.34
366.256	292.53
366.637	307
367.019	293.89
367.4	290.73
367.781	309.26
368.163	308.35
368.544	303.83
368.925	306.09
369.306	299.31
369.688	323.27
370.069	318.75
370.45	310.16
370.831	313.1
371.212	314.68
371.593	303.38
371.974	313.78
372.355	308.35
372.736	304.74
373.117	296.38
373.498	320.33
373.879	293.44
374.26	327.11
374.641	306.09
375.021	310.16
375.402	322.82
375.783	326.88
376.163	294.79
376.544	341.8
376.925	316.94
377.305	312.87
377.686	315.58
378.066	314.68
378.447	342.7
378.827	324.17
379.208	320.33
379.588	335.92
379.968	332.31
380.349	345.19
380.729	312.87
381.109	343.61
381.489	323.95
381.87	328.92
382.25	324.17
382.63	332.31
383.01	312.2
383.39	332.31
383.77	340.67
384.15	357.62
384.53	339.99
384.91	323.27
385.29	348.58
385.67	339.99
386.049	357.62
386.429	357.62
386.809	363.04
387.189	329.14
387.568	361.46
387.948	354
388.328	345.87
388.707	344.51
389.087	353.1
389.466	352.19
389.846	367.56
390.225	355.13
390.605	360.78
390.984	352.87
391.363	365.75
391.743	365.3
392.122	363.72
392.501	366.43
392.881	376.15
393.26	370.05
393.639	376.6
394.018	381.12
394.397	379.76
394.776	379.76
395.155	387
395.534	385.19
395.913	370.95
396.292	374.79
396.671	387.45
397.05	375.92
397.429	369.37
397.808	376.6
398.186	403.72
398.565	380.44
398.944	381.57
399.323	393.55
399.701	382.7
400.08	390.16
400.458	396.03
400.837	384.51
401.215	383.83
401.594	391.97
401.972	401.23
402.351	383.38
402.729	393.55
403.107	394.23
403.486	388.8
403.864	386.54
404.242	403.94
404.62	409.14
404.999	409.14
405.377	405.98
405.755	416.83
406.133	419.99
406.511	420.21
406.889	425.64
407.267	429.48
407.645	417.96
408.023	423.6
408.401	423.15
408.779	441.91
409.156	447.56
409.534	437.62
409.912	433.55
410.29	443.04
410.667	448.46
411.045	445.53
411.422	461.34
411.8	454.79
412.178	455.47
412.555	451.4
412.933	450.72
413.31	459.31
413.687	474.9
414.065	468.35
414.442	473.32
414.819	478.07
415.197	487.11
415.574	482.36
415.951	471.06
416.328	506.09
416.705	471.51
417.082	489.14
417.46	489.59
417.837	496.82
418.214	499.31
418.591	485.98
418.967	502.25
419.344	496.15
419.721	499.76
420.098	515.35
420.475	510.83
420.852	487.78
421.228	498.18
421.605	525.97
421.982	537.95
422.358	528.01
422.735	528.91
423.111	541.57
423.488	563.94
423.864	562.81
424.241	552.19
424.617	553.32
424.994	578.63
425.37	557.84
425.746	554.9
426.123	543.38
426.499	569.36
426.875	577.72
427.251	554.67
427.627	563.71
428.003	555.35
428.379	577.27
428.756	586.99
429.132	612.3
429.507	596.26
429.883	615.92
430.259	584.05
430.635	606.65
431.011	598.74
431.387	628.8
431.763	634.9
432.138	623.83
432.514	643.94
432.89	641.68
433.265	640.1
433.641	652.98
434.016	652.53
434.392	664.95
434.767	654.33
435.143	676.03
435.518	688
435.894	692.75
436.269	696.37
436.644	685.74
437.02	701.34
437.395	694.33
437.77	708.34
438.145	703.82
438.52	723.48
438.895	713.31
439.271	721
439.646	730.94
440.021	747.89
440.395	740.21
440.77	723.48
441.145	749.02
441.52	763.03
441.895	762.58
442.27	742.24
442.645	747.21
443.019	751.73
443.394	757.61
443.769	765.29
444.143	776.59
444.518	774.78
444.892	763.48
445.267	775.69
445.641	795.35
446.016	782.92
446.39	798.51
446.764	788.11
447.139	801.9
447.513	816.36
447.887	830.15
448.262	834.67
448.636	831.96
449.01	836.48
449.384	831.96
449.758	826.53
450.132	842.8
450.506	873.31
450.88	853.88
451.254	861.56
451.628	853.88
452.002	885.97
452.376	894.55
452.75	887.32
453.123	880.99
453.497	895.91
453.871	908.79
454.244	910.37
454.618	915.12
454.992	942.46
455.365	930.71
455.739	953.08
456.112	957.38
456.486	972.06
456.859	1002.8
457.232	992.18
457.606	975
457.979	1010.71
458.352	1008.9
458.725	1021.78
459.099	1033.08
459.472	1062.46
459.845	1065.4
460.218	1078.95
460.591	1073.98
460.964	1075.34
461.337	1088.9
461.71	1125.06
462.083	1135.68
462.456	1104.72
462.829	1142
463.201	1141.55
463.574	1168.9
463.947	1170.7
464.32	1212.28
464.692	1183.58
465.065	1194.21
465.438	1205.96
465.81	1255.45
466.183	1259.97
466.555	1278.27
466.928	1255
467.3	1246.86
467.672	1306.52
468.045	1320.53
468.417	1311.49
468.789	1335.45
469.161	1384.03
469.534	1384.03
469.906	1392.17
470.278	1415.89
470.65	1429.23
471.022	1449.79
471.394	1498.83
471.766	1528.66
472.138	1557.81
472.51	1583.57
472.882	1569.56
473.253	1596.46
473.625	1618.6
473.997	1632.61
474.369	1647.75
474.74	1660.63
475.112	1698.15
475.484	1721.65
475.855	1762.55
476.227	1811.14
476.598	1856.34
476.97	1831.03
477.341	1885.49
477.713	1880.97
478.084	1975.88
478.455	2014.3
478.827	2019.49
479.198	2099.27
479.569	2108.31
479.94	2154.63
480.311	2198.47
480.682	2245.25
481.053	2269.66
481.424	2324.35
481.795	2353.27
482.166	2373.61
482.537	2416.09
482.908	2486.38
483.279	2513.49
483.65	2553.94
484.021	2604.56
484.391	2665.81
484.762	2679.82
485.133	2725.24
485.503	2755.97
485.874	2872.13
486.244	2862.18
486.615	2902.18
486.985	2956.19
487.356	3037.32
487.726	3084.33
488.097	3164.78
488.467	3179.01
488.837	3237.54
489.207	3255.85
489.578	3323.19
489.948	3357.31
490.318	3429.18
490.688	3462.17
491.058	3522.51
491.428	3499.46
491.798	3611.32
492.168	3667.14
492.538	3676.85
492.908	3725.89
493.278	3808.83
493.648	3825.32
494.017	3867.36
494.387	3967.01
494.757	3974.02
495.126	3978.31
495.496	4029.16
495.866	4102.15
496.235	4115.49
496.605	4165.65
496.974	4220.57
497.344	4233
497.713	4258.98
498.082	4282.94
498.452	4368.59
498.821	4338.76
499.19	4384.86
499.559	4438.64
499.928	4459.2
500.298	4482.26
500.667	4534.46
501.036	4567
501.405	4628.01
501.774	4595.47
502.143	4699.65
502.512	4682.48
502.88	4760.21
503.249	4742.36
503.618	4788.46
503.987	4791.17
504.356	4858.97
504.724	4859.19
505.093	4907.55
505.462	4955.91
505.83	4942.13
506.199	4983.94
506.567	5030.94
506.936	5042.01
507.304	5075.46
507.672	5116.81
508.041	5132.41
508.409	5165.4
508.777	5229.35
509.145	5220.99
509.514	5197.49
509.882	5267.32
510.25	5268
510.618	5292.4
510.986	5321.33
511.354	5413.53
511.722	5401.78
512.09	5501.66
512.458	5421.44
512.826	5472.74
513.193	5498.05
513.561	5494.88
513.929	5565.84
514.297	5629.8
514.664	5659.17
515.032	5639.74
515.4	5670.25
515.767	5694.43
516.135	5736.46
516.502	5715.67
516.869	5806.06
517.237	5779.4
517.604	5793.86
517.972	5855.33
518.339	5904.14
518.706	5922.67
519.073	5892.16
519.44	5924.48
519.808	5963.8
520.175	6011.25
520.542	6033.63
520.909	6048.32
521.276	6076.79
521.643	6110.91
522.009	6139.61
522.376	6194.98
522.743	6218.93
523.11	6226.16
523.477	6253.73
523.843	6319.49
524.21	6324.01
524.577	6408.31
524.943	6471.81
525.31	6478.13
525.676	6472.26
526.043	6478.13
526.409	6571.69
526.776	6647.17
527.142	6688.98
527.508	6683.33
527.874	6715.42
528.241	6679.94
528.607	6801.97
528.973	6786.83
529.339	6827.05
529.705	6909.76
530.071	6973.04
530.437	6980.95
530.803	7054.84
531.169	7054.16
531.535	7024.11
531.901	7112.47
532.267	7102.07
532.632	7138
532.998	7153.37
533.364	7186.36
533.73	7247.61
534.095	7248.74
534.461	7262.75
534.826	7308.85
535.192	7416.19
535.557	7430.43
535.923	7423.65
536.288	7429.97
536.653	7478.56
537.019	7458.45
537.384	7455.96
537.749	7528.73
538.114	7554.26
538.479	7643.98
538.845	7649.18
539.21	7673.81
539.575	7733.92
539.94	7785.9
540.305	7785.22
540.67	7782.06
541.034	7838.32
541.399	7903.86
541.764	7902.5
542.129	7923.07
542.494	7981.82
542.858	7994.71
543.223	7973.46
543.587	8038.32
543.952	8044.2
544.316	8057.08
544.681	8146.11
545.045	8148.6
545.41	8232.89
545.774	8294.58
546.138	8238.54
546.503	8318.09
546.867	8317.86
547.231	8385.2
547.595	8417.97
547.959	8417.29
548.324	8404.64
548.688	8463.85
549.052	8500.23
549.416	8523.05
549.779	8544.75
550.143	8590.4
550.507	8668.59
550.871	8652.09
551.235	8655.03
551.599	8700
551.962	8704.29
552.326	8680.11
552.689	8797.85
553.053	8737.51
553.417	8780.9
553.78	8948.8
554.143	8808.02
554.507	8946.09
554.87	8980.89
555.234	9013.44
555.597	8954
555.96	8998.75
556.323	9036.71
556.686	9087.56
557.05	9151.74
557.413	9123.94
557.776	9192.64
558.139	9293.65
558.502	9221.11
558.865	9252.07
559.228	9325.52
559.59	9327.1
559.953	9351.96
560.316	9405.29
560.679	9450.03
561.041	9551.27
561.404	9548.34
561.767	9596.7
562.129	9633.76
562.492	9684.15
562.854	9653.64
563.217	9662.46
563.579	9738.39
563.941	9725.73
564.304	9862.23
564.666	9796.24
565.028	9835.11
565.39	9829.91
565.753	9953.07
566.115	9957.82
566.477	9952.85
566.839	10049.34
567.201	10116.23
567.563	10088.21
567.925	10151.71
568.287	10196.68
568.648	10244.36
569.01	10238.49
569.372	10357.13
569.734	10283.01
570.095	10409.1
570.457	10444.81
570.819	10501.53
571.18	10505.83
571.542	10517.8
571.903	10606.61
572.265	10647.97
572.626	10681.87
572.987	10832.82
573.349	10795.54
573.71	10893.84
574.071	10922.09
574.432	10962.99
574.794	11101.74
575.155	11010.67
575.516	11173.38
575.877	11255.64
576.238	11250.44
576.599	11354.62
576.96	11403.2
577.32	11494.5
577.681	11582.86
578.042	11693.14
578.403	11689.75
578.763	11756.41
579.124	11910.31
579.485	12082.73
579.845	12188.04
580.206	12226.46
580.566	12239.34
580.927	12507.13
581.287	12619.22
581.648	12715.71
582.008	12970.39
582.368	12998.42
582.728	13196.15
583.089	13382.81
583.449	13468.01
583.809	13726.08
584.169	13875.23
584.529	14002.46
584.889	14311.83
585.249	14506.85
585.609	14567.41
585.969	14819.84
586.329	14922.66
586.688	15176.66
587.048	15458.01
587.408	15650.1
587.768	15849.19
588.127	16057.77
588.487	16334.82
588.846	16627.02
589.206	16772.55
589.565	17030.17
589.925	17331.18
590.284	17524.62
590.643	17867.21
591.003	18163.93
591.362	18485.05
591.721	18691.82
592.08	19041.65
592.44	19362.54
592.799	19636.66
593.158	19761.63
593.517	20110.77
593.876	20451.55
594.235	20649.97
594.593	21040.01
594.952	21369.95
595.311	21584.4
595.67	21948.01
596.029	22412.63
596.387	22586.64
596.746	23000.19
597.104	23174.87
597.463	23388.65
597.822	23765.82
598.18	24107.5
598.538	24313.15
598.897	24737.77
599.255	24880.81
599.613	25369.16
599.972	25619.33
600.33	25987.9
600.688	26016.83
601.046	26530.04
601.404	26926.64
601.762	27151.94
602.12	27546.73
602.478	27750.8
602.836	28012.94
603.194	28162.76
603.552	28482.98
603.91	28785.34
604.268	29150.31
604.625	29237.76
604.983	29810.63
605.341	29765.43
605.698	30145.31
606.056	30619.65
606.413	30517.5
606.771	31019.64
607.128	31224.15
607.485	31402.45
607.843	31674.99
608.2	32045.6
608.557	32329.66
608.914	32486.49
609.272	32806.48
609.629	33163.76
609.986	33396.07
610.343	33414.15
610.7	33766.46
611.057	33923.29
611.414	34062.04
611.771	34356.27
612.127	34744.96
612.484	34719.65
612.841	35120.77
613.198	35230.37
613.554	35378.17
613.911	35668.33
614.267	35900.64
614.624	36008.43
614.98	36286.39
615.337	36455.2
615.693	36644.57
616.05	36770.45
616.406	36916.43
616.762	37099.93
617.118	37144.22
617.475	37257.66
617.831	37547.83
618.187	37675.73
618.543	37894.48
618.899	38265.1
619.255	38369.5
619.611	38278.43
619.967	38656.27
620.323	38613.79
620.678	38703.5
621.034	38741.69
621.39	38794.57
621.746	38950.73
622.101	39428.23
622.457	39252.64
622.812	39408.12
623.168	39656.92
623.523	39638.62
623.879	39850.82
624.234	39599.3
624.589	39782.34
624.945	40092.62
625.3	40164.93
625.655	40088.1
626.01	40356.57
626.365	40460.52
626.72	40468.65
627.075	40478.14
627.43	40557.01
627.785	40490.12
628.14	40628.42
628.495	40787.97
628.85	40743.45
629.205	40728.99
629.559	40915.65
629.914	40788.19
630.269	40905.93
630.623	40979.37
630.978	40827.51
631.332	41105.02
631.687	41176.21
632.041	41101.18
632.396	41169.2
632.75	41068.41
633.104	41253.04
633.459	41063.67
633.813	41101.86
634.167	41086.49
634.521	41342.75
634.875	41186.83
635.229	41236.32
635.583	41035.64
635.937	41073.61
636.291	41086.49
636.645	41186.6
636.999	41146.38
637.352	41232.25
637.706	41033.61
638.06	41374.62
638.413	41234.73
638.767	41109.99
639.121	41221.85
639.474	41028.86
639.828	41108.41
640.181	41092.37
640.534	41126.04
640.888	41076.55
641.241	40928.53
641.594	41059.82
641.947	41116.55
642.301	41045.59
642.654	41212.59
643.007	41058.24
643.36	41124.68
643.713	41029.32
644.066	41138.24
644.419	40870.9
644.771	40719.04
645.124	40328.32
645.477	40204.03
645.83	39993.64
646.182	39834.32
646.535	39707.54
646.888	39956.58
647.24	39700.99
647.593	39988.89
647.945	39898.5
648.298	39711.61
648.65	39571.73
649.002	39598.85
649.355	39858.73
649.707	39708.22
650.059	39938.5
650.411	40436.56
650.763	40554.98
651.115	40804.92
651.467	40635.2
651.819	40604.7
652.171	40579.61
652.523	40585.49
652.875	40511.14
653.227	40392.5
653.578	40562.21
653.93	40625.94
654.282	40483.34
654.633	40366.51
654.985	40518.82
655.337	40415.1
655.688	40451.7
656.039	40709.33
656.391	40334.87
656.742	40423.46
657.094	40453.51
657.445	40555.43
657.796	40518.6
658.147	40339.62
658.498	40445.38
658.849	40389.56
659.2	40419.62
659.551	40270.24
659.902	40407.86
660.253	40273.86
660.604	40372.84
660.955	40192.05
661.306	40457.58
661.656	40253.07
662.007	40390.01
662.358	40367.87
662.708	40242.22
663.059	40157.7
663.409	40047.65
663.76	40270.92
664.11	40200.41
664.461	40333.74
664.811	40434.76
665.161	40234.54
665.511	40102.34
665.862	40146.4
666.212	40442.67
666.562	40268.21
666.912	40202.9
667.262	40114.99
667.612	40244.25
667.962	40193.63
668.312	40256.68
668.662	40425.04
669.011	40233.86
669.361	40267.08
669.711	40219.17
670.06	40113.63
670.41	40192.95
670.76	39971.49
671.109	40060.75
671.459	40104.14
671.808	39987.99
672.157	40099.85
672.507	39907.09
672.856	39818.05
673.205	39890.59
673.554	40084.03
673.904	40050.36
674.253	40171.71
674.602	39897.37
674.951	39362.24
675.3	39174.22
675.649	39880.87
675.998	39794.09
676.346	39835.45
676.695	39992.28
677.044	39564.72
677.393	39672.52
677.741	39861.21
678.09	39752.74
678.438	39511.84
678.787	39608.56
679.135	39557.72
679.484	39363.82
679.832	39602.01
680.181	39449.02
680.529	39445.4
680.877	39352.3
681.225	39210.61
681.573	39575.12
681.922	39234.79
682.27	39152.08
682.618	39141
682.966	39098.75
683.314	39220.55
683.661	39006.32
684.009	38926.1
684.357	38747.34
684.705	38798.87
685.053	38745.08
685.4	38825.76
685.748	38693.78
686.095	38711.64
686.443	38415.37
686.79	38393.45
687.138	38532.21
687.485	38483.39
687.832	38364.08
688.18	38294.47
688.527	38015.61
688.874	38013.8
689.221	38055.16
689.568	37903.75
689.915	37912.11
690.262	37821.27
690.609	37754.15
690.956	37587.15
691.303	37562.06
691.65	37313.93
691.997	37419.69
692.344	37299.02
692.69	37206.14
693.037	37235.97
693.383	36838.69
693.73	37111.91
694.077	36890.44
694.423	36827.85
694.769	36626.04
695.116	36644.8
695.462	36635.08
695.808	36622.43
696.155	36626.04
696.501	36460.17
696.847	36314.86
697.193	36088.88
697.539	36253.17
697.885	35893.63
698.231	35952.16
698.577	35766.86
698.923	35796.46
699.269	35662.9
699.614	35368.9
699.96	35421.55
700.306	35354.44
700.651	35310.15
700.997	35113.54
701.342	35144.27
701.688	34954
702.033	34964.62
702.379	35037.84
702.724	34750.61
703.069	34814.79
703.415	34566.44
703.76	34664.29
704.105	34561.46
704.45	34526.89
704.795	34277.4
705.14	34300.23
705.485	34201.25
705.83	34028.37
706.175	34153.34
706.52	34010.07
706.865	33880.8
707.209	33994.93
707.554	33747.25
707.899	33725.55
708.243	33696.4
708.588	33589.96
708.932	33438.78
709.277	33357.88
709.621	33393.81
709.966	33094.16
710.31	33134.16
710.654	32909.76
710.998	32919.93
711.342	32963.77
711.687	32835.63
712.031	32746.14
712.375	32622.08
712.719	32651.46
713.063	32568.52
713.407	32567.39
713.75	32402.88
714.094	32431.8
714.438	32355.65
714.782	32330.79
715.125	32037.01
715.469	32168.53
715.812	32032.04
716.156	31951.36
716.499	31995.88
716.843	32025.94
717.186	31767.41
717.53	31976.9
717.873	31870.01
718.216	31832.5
718.559	31620.3
718.902	31432.51
719.246	31632.28
719.589	31487.87
719.932	31338.95
720.275	31375.33
720.617	31278.39
720.96	31253.08
721.303	31274.77
721.646	31219.41
721.989	31042.69
722.331	31123.14
722.674	31033.2
723.016	31060.54
723.359	30944.38
723.701	31035.91
724.044	30826.42
724.386	30647.67
724.729	30833.65
725.071	30722.92
725.413	30688.57
725.755	30604.51
726.097	30591.4
726.439	30444.51
726.782	30432.31
727.124	30449.93
727.465	30434.12
727.807	30244.06
728.149	30239.54
728.491	30247
728.833	30372.42
729.175	30069.6
729.516	30140.11
729.858	30038.42
730.199	30006.56
730.541	29965.2
730.882	29975.14
731.224	29962.26
731.565	29796.39
731.906	29726.56
732.248	29880.68
732.589	29603.85
732.93	29584.65
733.271	29592.56
733.612	29623.74
733.953	29606.57
734.294	29411.77
734.635	29405.89
734.976	29483.18
735.317	29368.15
735.658	29385.78
735.999	29326.35
736.339	29323.64
736.68	29367.48
737.021	29208.16
737.361	29107.6
737.702	29233.02
738.042	29167.26
738.383	29031.67
738.723	29175.84
739.063	29036.41
739.404	29095.85
739.744	28946.47
740.084	28882.52
740.424	28887.04
740.764	28763.88
741.104	28867.6
741.444	28683.43
741.784	28631.68
742.124	28706.25
742.464	28642.52
742.804	28499.93
743.143	28447.95
743.483	28546.26
743.823	28418.12
744.162	28357.11
744.502	28386.94
744.841	28323.89
745.181	28400.5
745.52	28159.15
745.86	28308.97
746.199	28198.92
746.538	28231.46
746.877	28144.46
747.216	28161.41
747.556	28062.88
747.895	28125.48
748.234	27980.85
748.573	27830.79
748.911	27844.58
749.25	27881.64
749.589	27773.85
749.928	27748.31
750.267	27866.72
750.605	27706.73
750.944	27726.39
751.283	27537.47
751.621	27593.51
751.96	27442.78
752.298	27442.33
752.636	27394.19
752.975	27306.97
753.313	27301.99
753.651	27371.6
753.989	27234.2
754.327	27218.83
754.666	26976.58
755.004	27076.46
755.342	27119.4
755.679	26947.43
756.017	26851.61
756.355	26931.61
756.693	26759.86
757.031	26796.24
757.368	26640.77
757.706	26639.86
758.044	26646.87
758.381	26586.31
758.719	26551.96
759.056	26442.58
759.394	26418.63
759.731	26274.9
760.068	26212.31
760.405	26179.54
760.743	25999.66
761.08	26082.59
761.417	25936.15
761.754	25768.93
762.091	25869.72
762.428	25732.32
762.765	25723.28
763.102	25714.92
763.438	25604.19
763.775	25460.01
764.112	25509.5
764.449	25467.69
764.785	25451.87
765.122	25093.92
765.458	25024.77
765.795	25063.18
766.131	25030.19
766.467	24933.24
766.804	24941.83
767.14	24662.06
767.476	24689.41
767.812	24601.05
768.148	24657.09
768.485	24426.14
768.821	24381.17
769.157	24353.6
769.492	24289.64
769.828	24175.75
770.164	23897.79
770.5	23924.23
770.836	23973.04
771.171	23697.34
771.507	23669.77
771.842	23594.07
772.178	23547.97
772.513	23494.41
772.849	23411.47
773.184	23222.55
773.519	23236.11
773.855	23192.95
774.19	23080.86
774.525	23107.98
774.86	23074.08
775.195	22896.23
775.53	22818.95
775.865	22693.08
776.2	22453.53
776.535	22432.29
776.87	22420.31
777.205	22318.4
777.539	22223.94
777.874	22341.9
778.209	22020.1
778.543	22138.06
778.878	21959.76
779.212	21890.38
779.547	21804.06
779.881	21748.24
780.215	21747.79
780.55	21713.44
780.884	21609.71
781.218	21460.11
781.552	21550.96
781.886	21361.13
782.22	21233.45
782.554	21144.64
782.888	21075.49
783.222	20913.46
783.556	20878.89
783.889	20732.9
784.223	20671.89
784.557	20550.53
784.89	20710.98
785.224	20451.78
785.557	20481.38
785.891	20320.93
786.224	20379.46
786.558	20403.19
786.891	20066.48
787.224	19986.48
787.557	19981.28
787.891	20002.07
788.224	19898.12
788.557	19797.33
788.89	19797.33
789.223	19856.77
789.556	19626.04
789.888	19610.9
790.221	19470.79
790.554	19296.33
790.887	19314.86
791.219	19303.11
791.552	19267.63
791.884	19122.55
792.217	19105.83
792.549	19017.01
792.882	18872.84
793.214	18863.35
793.546	18844.36
793.879	18728.21
794.211	18583.13
794.543	18687.31
794.875	18518.72
795.207	18657.48
795.539	18480.31
795.871	18436.24
796.203	18292.97
796.535	18239.41
796.867	18143.82
797.198	18068.11
797.53	18106.3
797.862	17965.52
798.193	18092.29
798.525	17855.91
798.856	17990.37
799.188	17712.87
799.519	17678.52
799.85	17683.04
800.182	17730.49
800.513	17708.8
800.844	17493.44
801.175	17622.25
801.506	17516.94
801.837	17381.58
802.168	17372.54
802.499	17335.93
802.83	17178.42
803.161	17114.92
803.491	17146.1
803.822	17143.62
804.153	17016.16
804.483	16881.25
804.814	16919.22
805.145	16885.77
805.475	16790.86
805.805	16746.34
806.136	16756.28
806.466	16758.77
806.796	16617.3
807.126	16541.15
807.457	16387.03
807.787	16410.53
808.117	16398.1
808.447	16392.22
808.777	16387.7
809.107	16298.22
809.436	16190.65
809.766	16295.5
810.096	16091.22
810.426	16131.21
810.755	16075.62
811.085	16113.14
811.414	16003.08
811.744	15897.55
812.073	15905.91
812.403	15813.26
812.732	15777.78
813.061	15722.86
813.39	15587.27
813.719	15594.28
814.049	15700.72
814.378	15606.03
814.707	15610.78
815.036	15497.33
815.365	15433.15
815.693	15354.51
816.022	15313.83
816.351	15403.55
816.68	15242.65
817.008	15283.78
817.337	15221.86
817.665	15086.04
817.994	15127.17
818.322	15112.71
818.651	14986.16
818.979	14957.46
819.307	14986.61
819.636	14957.91
819.964	14845.37
820.292	15013.05
820.62	14937.12
820.948	14846.28
821.276	14908.2
821.604	14817.12
821.932	14876.78
822.259	14883.79
822.587	14897.12
822.915	14864.35
823.243	14808.76
823.57	14861.42
823.898	14849.67
824.225	14738.03
824.553	14692.61
824.88	14785.94
825.207	14746.17
825.535	14776
825.862	14762.21
826.189	14743.91
826.516	14801.53
826.843	14799.95
827.17	14711.59
827.497	14866.84
827.824	14777.58
828.151	14785.71
828.478	14785.26
828.805	14811.7
829.131	14786.84
829.458	14711.59
829.785	14637.92
830.111	14750.23
830.438	14764.47
830.764	14729.67
831.09	14806.28
831.417	14679.28
831.743	14703.68
832.069	14809.67
832.395	14672.27
832.722	14717.24
833.048	14755.66
833.374	14661.42
833.7	14515.21
834.026	14626.4
834.351	14636.79
834.677	14608.32
835.003	14680.63
835.329	14647.86
835.654	14605.15
835.98	14483.57
836.306	14433.86
836.631	14437.25
836.956	14529.22
837.282	14502.78
837.607	14466.17
837.932	14401.54
838.258	14397.02
838.583	14414.88
838.908	14235.44
839.233	14307.76
839.558	14269.34
839.883	14242.45
840.208	14134.2
840.533	14190.93
840.858	14165.62
841.182	14188.21
841.507	14157.71
841.832	13997.49
842.156	14044.04
842.481	14010.82
842.805	13965.4
843.13	13946.86
843.454	13964.72
843.778	13868.9
844.103	13858.28
844.427	13794.33
844.751	13841.56
845.075	13769.92
845.399	13831.16
845.723	13651.05
846.047	13613.99
846.371	13525.86
846.695	13552.75
847.019	13452.19
847.343	13417.61
847.666	13278.18
847.99	13239.54
848.313	13270.5
848.637	13175.59
848.96	13150.95
849.284	13166.32
849.607	13020.34
849.931	12941.69
850.254	12893.33
850.577	12914.12
850.9	12827.57
851.223	12759.1
851.546	12668.25
851.869	12630.52
852.192	12719.1
852.515	12504.87
852.838	12452.44
853.161	12423.29
853.483	12448.37
853.806	12314.14
854.129	12346
854.451	12281.15
854.774	12249.96
855.096	12193.92
855.419	12197.53
855.741	12129.06
856.063	12084.32
856.385	12020.81
856.708	12014.94
857.03	11993.92
857.352	11982.17
857.674	11809.07
857.996	11860.37
858.318	11780.14
858.64	11834.38
858.961	11789.18
859.283	11739.24
859.605	11636.64
859.926	11712.35
860.248	11619.92
860.57	11563.65
860.891	11629.64
861.212	11546.02
861.534	11561.39
861.855	11498.57
862.176	11537.66
862.498	11506.7
862.819	11472.13
863.14	11387.16
863.461	11434.84
863.782	11377.67
864.103	11381.51
864.424	11322.98
864.745	11252.02
865.065	11224
865.386	11248.63
865.707	11241.85
866.027	11233.94
866.348	11184.23
866.668	11232.59
866.989	11221.06
867.309	11165.92
867.63	11078.92
867.95	11092.25
868.27	11002.08
868.59	11097.22
868.91	11003.21
869.23	11027.39
869.55	11002.76
869.87	11012.48
870.19	10948.07
870.51	10910.11
870.83	10966.6
871.15	10940.16
871.469	10940.16
871.789	10912.37
872.109	10815.87
872.428	10767.97
872.748	10842.54
873.067	10765.03
873.386	10849.77
873.706	10772.03
874.025	10734.97
874.344	10729.55
874.663	10716.67
874.982	10696.78
875.301	10698.81
875.62	10710.11
875.939	10695.88
876.258	10627.63
876.577	10583.34
876.896	10552.38
877.214	10505.83
877.533	10532.27
877.852	10513.06
878.17	10531.14
878.489	10525.26
878.807	10521.42
879.125	10430.57
879.444	10483.45
879.762	10373.85
880.08	10432.61
880.398	10267.87
880.716	10438.26
881.034	10338.6
881.352	10252.5
881.67	10260.41
881.988	10345.38
882.306	10238.49
882.624	10205.27
882.941	10126.85
883.259	10118.94
883.577	10141.54
883.894	10138.38
884.212	10145.16
884.529	10185.61
884.846	10070.81
885.164	10123.69
885.481	10067.42
885.798	10041.66
886.115	9883.47
886.432	9928.21
886.75	9901.55
887.067	9909.23
887.383	9853.41
887.7	9897.48
888.017	9820.42
888.334	9825.39
888.651	9746.07
888.967	9758.95
889.284	9745.39
889.6	9728.22
889.917	9737.48
890.233	9737.94
890.55	9677.15
890.866	9589.69
891.182	9646.86
891.498	9539.07
891.815	9516.02
892.131	9491.16
892.447	9472.18
892.763	9434.22
893.079	9407.55
893.395	9341.79
893.71	9433.54
894.026	9305.18
894.342	9331.62
894.657	9259.53
894.973	9265.63
895.289	9226.09
895.604	9214.33
895.92	9158.74
896.235	9040.33
896.55	9089.37
896.865	9085.3
897.181	9084.85
897.496	9026.32
897.811	8943.15
898.126	8905.87
898.441	8918.07
898.756	8908.81
899.071	8821.35
899.386	8851.41
899.7	8743.84
900.015	8738.87
900.33	8732.76
900.644	8689.83
900.959	8749.49
901.273	8701.58
901.588	8622.71
901.902	8580.9
902.216	8522.6
902.531	8514.24
902.845	8559.66
903.159	8415.71
903.473	8377.97
903.787	8396.5
904.101	8349.5
904.415	8328.71
904.729	8317.86
905.042	8249.39
905.356	8234.25
905.67	8200.12
905.984	8135.49
906.297	8192.67
906.611	8121.48
906.924	8050.3
907.237	8033.57
907.551	8065.21
907.864	8040.81
908.177	7999.45
908.491	7944.08
908.804	7835.39
909.117	7798.33
909.43	7797.42
909.743	7815.05
910.056	7798.1
910.368	7720.81
910.681	7693.02
910.994	7643.98
911.307	7652.34
911.619	7555.62
911.932	7636.3
912.244	7549.74
912.557	7563.53
912.869	7483.76
913.181	7407.38
913.494	7458.45
913.806	7366.02
914.118	7337.32
914.43	7289.64
914.742	7287.6
915.054	7250.77
915.366	7239.7
915.678	7235.4
915.99	7156.53
916.302	7145.46
916.613	7108.17
916.925	7092.58
917.236	7049.19
917.548	7028.18
917.859	7048.97
918.171	6971
918.482	6945.47
918.794	6898.91
919.105	6878.58
919.416	6854.85
919.727	6827.28
920.038	6786.38
920.349	6745.47
920.66	6753.16
920.971	6705.93
921.282	6686.26
921.593	6617.11
921.903	6639.26
922.214	6641.52
922.525	6559.26
922.835	6531.24
923.146	6481.07
923.456	6433.62
923.767	6454.86
924.077	6478.13
924.387	6370.57
924.697	6372.15
925.008	6365.6
925.318	6280.63
925.628	6319.49
925.938	6274.52
926.248	6225.26
926.558	6254.19
926.867	6236.79
927.177	6180.29
927.487	6098.48
927.796	6071.82
928.106	6117.01
928.416	6017.58
928.725	6063
929.034	6015.77
929.344	6039.28
929.653	6026.62
929.962	5975.55
930.271	5889.22
930.581	5867.98
930.89	5884.93
931.199	5838.38
931.508	5818.27
931.817	5801.09
932.125	5782.11
932.434	5783.69
932.743	5693.75
933.051	5699.17
933.36	5654.88
933.669	5639.51
933.977	5607.42
934.286	5582.11
934.594	5608.55
934.902	5553.41
935.21	5484.26
935.519	5557.71
935.827	5530.82
936.135	5465.73
936.443	5390.93
936.751	5390.71
937.059	5392.51
937.367	5339.63
937.674	5330.82
937.982	5324.49
938.29	5299.86
938.597	5264.83
938.905	5254.89
939.213	5223.7
939.52	5182.58
939.827	5196.13
940.135	5165.63
940.442	5133.09
940.749	5100.09
941.056	5088.34
941.363	5070.94
941.67	5050.15
941.977	5012.64
942.284	4958.85
942.591	4980.32
942.898	4957.27
943.205	4944.16
943.511	4913.43
943.818	4933.32
944.125	4877.05
944.431	4831.85
944.738	4809.25
945.044	4783.26
945.35	4798.63
945.657	4785.07
945.963	4731.97
946.269	4737.16
946.575	4722.7
946.881	4689.48
947.187	4665.53
947.493	4694.45
947.799	4635.02
948.105	4607.68
948.41	4575.13
948.716	4546.21
949.022	4524.74
949.327	4535.81
949.633	4509.15
949.938	4479.32
950.244	4464.18
950.549	4457.85
950.854	4418.3
951.16	4375.82
951.465	4382.14
951.77	4394.8
952.075	4345.54
952.38	4368.59
952.685	4331.07
952.99	4316.38
953.294	4284.75
953.599	4239.1
953.904	4187.35
954.209	4200.91
954.513	4177.86
954.818	4213.34
955.122	4174.01
955.426	4135.82
955.731	4124.98
956.035	4119.33
956.339	4060.12
956.643	4095.6
956.948	4080.23
957.252	4042.72
957.556	4025.77
957.86	4019.22
958.163	4027.8
958.467	3985.54
958.771	3976.05
959.075	3958.43
959.378	3886.11
959.682	3917.07
959.985	3879.11
960.289	3866.9
960.592	3864.19
960.896	3861.03
961.199	3770.18
961.502	3774.7
961.805	3785.55
962.108	3775.38
962.411	3793.23
962.714	3726.12
963.017	3691.54
963.32	3735.16
963.623	3674.82
963.926	3686.12
964.228	3666.23
964.531	3634.37
964.833	3609.96
965.136	3648.38
965.438	3560.02
965.741	3577.65
966.043	3527.25
966.345	3541.49
966.648	3494.94
966.95	3489.06
967.252	3480.7
967.554	3500.59
967.856	3492
968.158	3432.34
968.46	3432.79
968.761	3425.79
969.063	3411.1
969.365	3378.33
969.666	3393.24
969.968	3341.27
970.269	3364.32
970.571	3329.29
970.872	3325.45
971.174	3295.17
971.475	3279.35
971.776	3303.75
972.077	3223.76
972.378	3245.45
972.679	3236.19
972.98	3199.58
973.281	3198.67
973.582	3227.37
973.883	3206.13
974.183	3172.23
974.484	3135.62
974.785	3132.23
975.085	3141.27
975.386	3140.14
975.686	3083.87
975.986	3080.48
976.287	3107.38
976.587	3037.1
976.887	3030.09
977.187	3023.54
977.487	3015.63
977.787	3002.97
978.087	2996.42
978.387	2983.99
978.687	2946.93
978.987	2965.91
979.286	2924.56
979.586	2901.96
979.885	2875.29
980.185	2892.47
980.484	2910.09
980.784	2872.13
981.083	2862.86
981.382	2837.78
981.682	2829.19
981.981	2834.84
982.28	2774.73
982.579	2773.6
982.878	2811.56
983.177	2783.09
983.475	2788.97
983.774	2727.05
984.073	2718.46
984.372	2722.75
984.67	2722.3
984.969	2711
985.267	2672.13
985.566	2676.88
985.864	2642.98
986.162	2677.78
986.461	2632.13
986.759	2589.88
987.057	2591.68
987.355	2591.68
987.653	2577.9
987.951	2578.58
988.249	2573.6
988.547	2562.31
988.844	2545.81
989.142	2540.61
989.44	2509.65
989.737	2501.97
990.035	2518.46
990.332	2496.77
990.63	2494.96
990.927	2442.76
991.224	2423.33
991.521	2451.35
991.819	2441.18
992.116	2429.2
992.413	2403.44
992.71	2401.63
993.006	2405.02
993.303	2340.62
993.6	2378.13
993.897	2361.86
994.193	2332.93
994.49	2332.26
994.787	2309.66
995.083	2263.78
995.379	2266.95
995.676	2328.64
995.972	2279.15
996.268	2250
996.565	2233.27
996.861	2246.61
997.157	2243.9
997.453	2185.14
997.749	2209.55
998.044	2215.87
998.34	2222.65
998.636	2151.92
998.932	2161.86
999.227	2157.12
999.523	2121.87
999.818	2135.2
1000.114	2122.09
1000.409	2082.09
1000.704	2082.77
1001	2093.84
1001.295	2078.02
1001.59	2073.73
1001.885	2059.04
1002.18	2043
1002.475	2049.32
1002.77	2019.27
1003.065	2018.14
1003.359	2037.12
1003.654	1986.73
1003.949	1969.1
1004.243	1970.68
1004.538	1983.34
1004.832	1953.06
1005.127	1961.42
1005.421	1902.66
1005.715	1895.2
1006.009	1905.37
1006.304	1879.39
1006.598	1889.1
1006.892	1864.92
1007.186	1859.5
1007.48	1888.2
1007.773	1865.83
1008.067	1831.03
1008.361	1818.82
1008.655	1797.81
1008.948	1814.3
1009.242	1757.35
1009.535	1774.08
1009.829	1776.79
1010.122	1764.13
1010.415	1728.66
1010.708	1745.6
1011.001	1723.23
1011.295	1706.06
1011.588	1704.7
1011.881	1706.06
1012.173	1706.28
1012.466	1687.3
1012.759	1691.14
1013.052	1656.79
1013.344	1662.22
1013.637	1625.38
1013.93	1657.92
1014.222	1628.54
1014.514	1623.12
1014.807	1621.09
1015.099	1589.45
1015.391	1578.38
1015.683	1582.9
1015.976	1547.42
1016.268	1559.85
1016.56	1530.47
1016.851	1568.21
1017.143	1525.5
1017.435	1518.94
1017.727	1501.99
1018.018	1481.43
1018.31	1531.82
1018.602	1491.37
1018.893	1461.54
1019.185	1466.74
1019.476	1448.44
1019.767	1471.49
1020.058	1446.18
1020.35	1444.82
1020.641	1405.05
1020.932	1409.79
1021.223	1393.75
1021.514	1401.43
1021.804	1356.01
1022.095	1383.35
1022.386	1383.13
1022.677	1348.33
1022.967	1356.91
1023.258	1355.56
1023.548	1335.67
1023.839	1307.88
1024.129	1317.82
1024.419	1318.72
1024.709	1302
1025	1287.08
1025.29	1294.99
1025.58	1262
1025.87	1234.43
1026.16	1282.79
1026.449	1259.06
1026.739	1212.74
1027.029	1252.96
1027.319	1226.52
1027.608	1234.43
1027.898	1215.9
1028.187	1173.87
1028.477	1215.9
1028.766	1184.49
1029.055	1172.96
1029.344	1160.08
1029.634	1153.53
1029.923	1179.29
1030.212	1151.04
1030.501	1135.68
1030.79	1129.8
1031.078	1144.49
1031.367	1121.89
1031.656	1100.88
1031.945	1077.37
1032.233	1105.39
1032.522	1094.32
1032.81	1084.6
1033.099	1077.6
1033.387	1050.93
1033.675	1083.93
1033.963	1041.89
1034.251	1059.07
1034.54	1056.13
1034.828	1066.3
1035.116	1025.4
1035.403	1031.95
1035.691	998.73
1035.979	1005.96
1036.267	1023.81
1036.554	1007.54
1036.842	977.04
1037.129	988.34
1037.417	948.11
1037.704	968.45
1037.992	958.73
1038.279	944.49
1038.566	953.99
1038.853	953.99
1039.14	953.99
