Data from hue_350_FLMS001491_36.txt Node
Date: Mon Feb 06 15:37:56 GMT 2017
User: dcchb
Spectrometer: FLMS00149
Trigger mode: 0
Integration Time (sec): 2.000000E-2
Scans to average: 10
Electric dark correction enabled: true
Nonlinearity correction enabled: false
Boxcar width: 0
XAxis mode: Wavelengths
Number of Pixels in Spectrum: 2048
>>>>>Begin Spectral Data<<<<<
341.393	-14.46
341.776	-14.46
342.16	-14.46
342.543	-77.74
342.927	-66.44
343.31	-83.61
343.693	-72.77
344.077	-40.68
344.46	-50.85
344.843	-56.27
345.226	-44.07
345.61	-25.54
345.993	-42.03
346.376	-20.34
346.759	23.28
347.142	22.6
347.525	47
347.908	49.72
348.291	87
348.674	100.56
349.057	105.99
349.44	131.3
349.823	134.69
350.206	162.48
350.588	212.42
350.971	180.11
351.354	204.06
351.737	232.08
352.119	235.25
352.502	247.9
352.884	272.54
353.267	286.09
353.65	280.22
354.032	303.95
354.414	293.78
354.797	324.06
355.179	318.86
355.562	320.22
355.944	298.52
356.326	331.29
356.709	330.39
357.091	331.74
357.473	322.7
357.855	335.58
358.238	358.86
358.62	329.71
359.002	342.59
359.384	329.03
359.766	348.24
360.148	339.43
360.53	320.22
360.912	319.77
361.294	310.05
361.676	333.55
362.057	329.03
362.439	339.88
362.821	313.44
363.203	337.39
363.584	336.04
363.966	323.61
364.348	329.93
364.729	320.44
365.111	309.6
365.493	294.68
365.874	325.19
366.256	306.43
366.637	329.71
367.019	323.61
367.4	309.14
367.781	311.63
368.163	312.08
368.544	304.4
368.925	298.3
369.306	322.03
369.688	319.31
370.069	289.71
370.45	306.88
370.831	307.11
371.212	334.45
371.593	316.83
371.974	314.57
372.355	298.3
372.736	305.98
373.117	291.52
373.498	310.27
373.879	306.21
374.26	321.35
374.641	315.25
375.021	329.03
375.402	325.42
375.783	317.51
376.163	303.04
376.544	326.77
376.925	309.14
377.305	310.05
377.686	319.31
378.066	328.35
378.447	313.89
378.827	315.02
379.208	322.93
379.588	317.51
379.968	321.57
380.349	337.17
380.729	313.44
381.109	340.1
381.489	317.51
381.87	329.03
382.25	319.54
382.63	298.52
383.01	319.77
383.39	335.81
383.77	327.45
384.15	345.98
384.53	339.88
384.91	334.68
385.29	354.34
385.67	321.8
386.049	328.58
386.429	344.85
386.809	343.95
387.189	337.62
387.568	334.68
387.948	329.26
388.328	346.66
388.707	355.24
389.087	342.36
389.466	360.44
389.846	350.27
390.225	342.14
390.605	372.87
390.984	346.88
391.363	333.55
391.743	373.55
392.122	335.13
392.501	360.44
392.881	343.72
393.26	343.27
393.639	341.69
394.018	370.39
394.397	355.7
394.776	359.99
395.155	373.55
395.534	367.22
395.913	355.24
396.292	357.96
396.671	368.58
397.05	382.36
397.429	359.54
397.808	370.16
398.186	361.35
398.565	349.37
398.944	378.3
399.323	363.83
399.701	367.22
400.08	359.31
400.458	369.48
400.837	389.59
401.215	388.46
401.594	364.06
401.972	380.55
402.351	395.7
402.729	385.53
403.107	374.23
403.486	376.71
403.864	371.97
404.242	395.92
404.62	402.25
404.999	388.92
405.377	393.89
405.755	404.06
406.133	424.4
406.511	399.99
406.889	396.37
407.267	406.54
407.645	435.24
408.023	415.36
408.401	397.05
408.779	415.81
409.156	417.16
409.534	429.37
409.912	429.59
410.29	425.07
410.667	443.15
411.045	451.51
411.422	402.93
411.8	456.71
412.178	441.8
412.555	420.55
412.933	430.27
413.31	446.99
413.687	437.05
414.065	448.58
414.442	476.37
414.819	446.99
415.197	470.27
415.574	459.65
415.951	474.34
416.328	463.49
416.705	478.86
417.082	469.37
417.46	457.62
417.837	485.41
418.214	488.12
418.591	488.12
418.967	493.55
419.344	490.83
419.721	490.16
420.098	483.38
420.475	479.99
420.852	494.22
421.228	492.64
421.605	498.07
421.982	510.72
422.358	514.79
422.735	504.62
423.111	506.88
423.488	529.93
423.864	503.72
424.241	527.9
424.617	534.9
424.994	556.37
425.37	553.88
425.746	529.93
426.123	533.77
426.499	540.55
426.875	561.79
427.251	575.13
427.627	544.39
428.003	573.09
428.379	557.27
428.756	579.65
429.132	571.51
429.507	559.99
429.883	591.85
430.259	596.59
430.635	592.75
431.011	617.84
431.387	606.54
431.763	628.68
432.138	622.13
432.514	620.1
432.89	613.54
433.265	631.85
433.641	635.92
434.016	614
434.392	649.25
434.767	637.27
435.143	660.32
435.518	666.2
435.894	661.23
436.269	663.71
436.644	678.4
437.02	676.82
437.395	673.88
437.77	696.25
438.145	686.31
438.52	691.06
438.895	689.7
439.271	703.26
439.646	717.04
440.021	723.6
440.395	718.17
440.77	714.33
441.145	715.01
441.52	710.94
441.895	733.31
442.27	734.22
442.645	754.33
443.019	729.7
443.394	763.82
443.769	753.43
444.143	722.47
444.518	765.18
444.892	736.93
445.267	746.65
445.641	755.69
446.016	742.13
446.39	768.57
446.764	788.45
447.139	756.14
447.513	775.57
447.887	786.42
448.262	788.91
448.636	773.99
449.01	806.98
449.384	776.7
449.758	824.61
450.132	820.54
450.506	818.96
450.88	828.68
451.254	786.19
451.628	833.88
452.002	832.75
452.376	841.33
452.75	826.42
453.123	817.61
453.497	825.74
453.871	854.44
454.244	864.16
454.618	850.6
454.992	888.11
455.365	887.89
455.739	849.7
456.112	890.37
456.486	898.06
456.859	897.6
457.232	921.56
457.606	912.74
457.979	913.65
458.352	928.56
458.725	921.11
459.099	961.1
459.472	969.69
459.845	977.83
460.218	990.93
460.591	1003.14
460.964	960.88
461.337	1011.5
461.71	990.26
462.083	1020.31
462.456	1007.21
462.829	1011.72
463.201	1033.65
463.574	1027.77
463.947	1053.76
464.32	1078.62
464.692	1088.33
465.065	1075.9
465.438	1102.57
465.81	1093.3
466.183	1127.2
466.555	1145.73
466.928	1123.13
467.3	1124.72
467.672	1166.75
468.045	1211.27
468.417	1200.19
468.789	1205.17
469.161	1205.84
469.534	1253.75
469.906	1257.37
470.278	1244.26
470.65	1273.19
471.022	1289.01
471.394	1298.5
471.766	1337.37
472.138	1319.51
472.51	1335.11
472.882	1356.12
473.253	1356.57
473.625	1399.06
473.997	1430.24
474.369	1435.89
474.74	1445.84
475.112	1498.94
475.484	1491.03
475.855	1510.47
476.227	1541.43
476.598	1548.66
476.97	1597.47
477.341	1621.88
477.713	1648.77
478.084	1634.76
478.455	1679.73
478.827	1751.14
479.198	1771.93
479.569	1777.35
479.94	1805.38
480.311	1842.21
480.682	1854.19
481.053	1932.6
481.424	1958.59
481.795	1952.94
482.166	1983.9
482.537	2004.47
482.908	2071.81
483.279	2081.53
483.65	2125.82
484.021	2164.69
484.391	2190.9
484.762	2234.07
485.133	2237.23
485.503	2281.75
485.874	2324.01
486.244	2327.17
486.615	2394.74
486.985	2440.61
487.356	2486.71
487.726	2459.37
488.097	2532.59
488.467	2517.45
488.837	2604.9
489.207	2597.45
489.578	2636.31
489.948	2689.19
490.318	2704.56
490.688	2742.98
491.058	2782.53
491.428	2832.24
491.798	2851.9
492.168	2885.8
492.538	2914.95
492.908	2975.29
493.278	3020.03
493.648	2996.31
494.017	3021.62
494.387	3096.19
494.757	3098
495.126	3144.55
495.496	3121.05
495.866	3139.13
496.235	3212.12
496.605	3250.31
496.974	3243.98
497.344	3314.26
497.713	3304.09
498.082	3342.29
498.452	3363.3
498.821	3414.83
499.19	3398.78
499.559	3469.29
499.928	3471.77
500.298	3489.17
500.667	3474.48
501.036	3540.47
501.405	3574.37
501.774	3534.6
502.143	3589.96
502.512	3589.96
502.88	3639.45
503.249	3611.43
503.618	3666.12
503.987	3665.21
504.356	3657.76
504.724	3713.57
505.093	3753.8
505.462	3737.98
505.83	3772.33
506.199	3791.54
506.567	3819.56
506.936	3786.79
507.304	3868.15
507.672	3830.41
508.041	3831.09
508.409	3888.49
508.777	3901.37
509.145	3915.6
509.514	3938.88
509.882	3959.9
510.25	3992.66
510.618	4046.9
510.986	4010.06
511.354	4036.05
511.722	4036.05
512.09	4053
512.458	4082.6
512.826	4109.95
513.193	4137.07
513.561	4138.2
513.929	4150.17
514.297	4175.71
514.664	4167.12
515.032	4194.01
515.4	4223.62
515.767	4205.31
516.135	4211.19
516.502	4229.72
516.869	4326.89
517.237	4317.4
517.604	4314.46
517.972	4318.53
518.339	4341.13
518.706	4351.75
519.073	4306.55
519.44	4367.57
519.808	4373.44
520.175	4371.64
520.542	4452.99
520.909	4424.29
521.276	4423.16
521.643	4483.27
522.009	4515.81
522.376	4527.34
522.743	4526.21
523.11	4567.34
523.477	4615.7
523.843	4562.14
524.21	4665.41
524.577	4614.57
524.943	4678.52
525.31	4675.81
525.676	4706.77
526.043	4741.12
526.409	4813.43
526.776	4791.29
527.142	4802.59
527.508	4838.74
527.874	4873.77
528.241	4891.85
528.607	4955.58
528.973	4961.68
529.339	4979.98
529.705	4954.22
530.071	4982.02
530.437	5027.66
530.803	5041.9
531.169	5046.87
531.535	5095.91
531.901	5132.97
532.267	5161.67
532.632	5128.9
532.998	5148.79
533.364	5177.04
533.73	5203.25
534.095	5257.26
534.461	5285.74
534.826	5285.96
535.192	5324.83
535.557	5346.53
535.923	5349.92
536.288	5382.01
536.653	5374.32
537.019	5394.21
537.384	5412.97
537.749	5502.91
538.114	5458.61
538.479	5481.89
538.845	5495.67
539.21	5515.79
539.575	5533.64
539.94	5569.57
540.305	5597.82
540.67	5580.64
541.034	5578.38
541.399	5647.99
541.764	5660.42
542.129	5673.75
542.494	5707.42
542.858	5734.76
543.223	5766.18
543.587	5768.89
543.952	5813.63
544.316	5796.01
544.681	5825.38
545.045	5833.29
545.41	5895.44
545.774	5887.75
546.138	5897.25
546.503	5955.1
546.867	5966.17
547.231	6038.71
547.595	6031.48
547.959	6048.65
548.324	6042.78
548.688	6024.02
549.052	6098.82
549.416	6097.24
549.779	6138.6
550.143	6150.57
550.507	6196.9
550.871	6233.51
551.235	6205.49
551.599	6281.19
551.962	6305.82
552.326	6281.64
552.689	6348.53
553.053	6316.67
553.417	6319.61
553.78	6409.1
554.143	6411.13
554.507	6403.67
554.87	6451.36
555.234	6447.97
555.597	6452.49
555.96	6461.75
556.323	6522.54
556.686	6496.55
557.05	6577.23
557.413	6551.24
557.776	6550.34
558.139	6593.27
558.502	6680.05
558.865	6668.98
559.228	6755.08
559.59	6658.36
559.953	6731.35
560.316	6791.23
560.679	6729.54
561.041	6815.41
561.404	6840.72
561.767	6880.05
562.129	6850.22
562.492	6927.95
562.854	6913.26
563.217	6876.2
563.579	6950.1
563.941	6917.56
564.304	6923.43
564.666	7005.92
565.028	7031.23
565.39	7080.04
565.753	7113.26
566.115	7120.26
566.477	7172.01
566.839	7159.13
567.201	7213.6
567.563	7214.05
567.925	7243.43
568.287	7349.19
568.648	7231.45
569.01	7309.86
569.372	7389.18
569.734	7374.5
570.095	7379.02
570.457	7440.03
570.819	7452.01
571.18	7501.27
571.542	7553.47
571.903	7583.98
572.265	7631.44
572.626	7708.27
572.987	7621.49
573.349	7714.6
573.71	7817.65
574.071	7806.12
574.432	7891.77
574.794	7960.47
575.155	8014.25
575.516	8032.56
575.877	8052.22
576.238	8092.22
576.599	8211.31
576.96	8219.22
577.32	8306.67
577.681	8417.86
578.042	8481.36
578.403	8573.33
578.763	8574.69
579.124	8656.04
579.485	8766.55
579.845	8912.99
580.206	8989.37
580.566	9068.69
580.927	9164.73
581.287	9251.96
581.648	9358.62
582.008	9554.1
582.368	9613.08
582.728	9784.38
583.089	9922.9
583.449	10030.92
583.809	10173.52
584.169	10396.11
584.529	10501.87
584.889	10730.11
585.249	10840.39
585.609	10997
585.969	11263.66
586.329	11416.87
586.688	11533.93
587.048	11714.04
587.408	11960.36
587.768	12206.23
588.127	12477.86
588.487	12620.69
588.846	12977.96
589.206	13062.48
589.565	13306.32
589.925	13628.12
590.284	13858.84
590.643	14080.76
591.003	14267.42
591.362	14612.5
591.721	14820.63
592.08	15108.53
592.44	15390.1
592.799	15715.29
593.158	15894.95
593.517	16095.85
593.876	16506.23
594.235	16621.03
594.593	16908.26
594.952	17293.1
595.311	17601.8
595.67	17966.08
596.029	18289.01
596.387	18507.31
596.746	18830.69
597.104	19034.53
597.463	19372.37
597.822	19638.35
598.18	19965.8
598.538	20190.66
598.897	20542.28
599.255	20576.18
599.613	21206.45
599.972	21297.29
600.33	21648.7
600.688	21869.71
601.046	22247.32
601.404	22519.63
601.762	22788.78
602.12	23132.05
602.478	23506.27
602.836	23676.89
603.194	23745.59
603.552	24156.65
603.91	24251.11
604.268	24655.62
604.625	24900.36
604.983	25130.19
605.341	25341.93
605.698	25677.29
606.056	25957.28
606.413	26111.86
606.771	26357.5
607.128	26680.43
607.485	26867.54
607.843	27052.85
608.2	27359.05
608.557	27606.51
608.914	27775.77
609.272	28100.73
609.629	28354.06
609.986	28624.33
610.343	28545.92
610.7	29105.9
611.057	29169.4
611.414	29335.05
611.771	29592.89
612.127	29991.53
612.484	29973.9
612.841	30340.67
613.198	30292.99
613.554	30539.99
613.911	30854.1
614.267	30980.88
614.624	31132.06
614.98	31437.59
615.337	31525.72
615.693	31665.16
616.05	31718.94
616.406	32039.16
616.762	32105.37
617.118	32207.74
617.475	32410.67
617.831	32675.3
618.187	32812.02
618.543	32867.84
618.899	33150.99
619.255	33278.45
619.611	33231.22
619.967	33487.71
620.323	33637.99
620.678	33548.04
621.034	33647.7
621.39	33912.78
621.746	34021.93
622.101	34303.5
622.457	34228.48
622.812	34311.64
623.168	34521.13
623.523	34577.17
623.879	34747.11
624.234	34526.32
624.589	34837.73
624.945	34965.41
625.3	34963.37
625.655	35051.51
626.01	35182.13
626.365	35262.8
626.72	35431.84
627.075	35327.21
627.43	35429.35
627.785	35357.49
628.14	35646.97
628.495	35546.86
628.85	35660.31
629.205	35597.03
629.559	35851.71
629.914	35710.47
630.269	35814.2
630.623	35828.89
630.978	35795.22
631.332	36083.57
631.687	36103.01
632.041	35965.61
632.396	36072.72
632.75	36060.29
633.104	36083.8
633.459	35996.12
633.813	35982.78
634.167	36056.91
634.521	36030.24
634.875	36112.72
635.229	36262.1
635.583	35915.44
635.937	36114.3
636.291	36084.25
636.645	35965.83
636.999	36045.61
637.352	36140.52
637.706	35947.76
638.06	36179.39
638.413	36013.97
638.767	36043.35
639.121	36184.13
639.474	35944.37
639.828	36010.13
640.181	36101.42
640.534	36163.57
640.888	36084.93
641.241	35897.36
641.594	35948.89
641.947	36069.56
642.301	36077.24
642.654	36103.46
643.007	35934.2
643.36	36119.5
643.713	35931.71
644.066	36173.06
644.419	35758.16
644.771	35634.54
645.124	35382.12
645.477	35403.14
645.83	35051.96
646.182	34951.17
646.535	34983.94
646.888	35047.67
647.24	34871.63
647.593	35059.42
647.945	34888.35
648.298	34755.02
648.65	34749.37
649.002	34607.9
649.355	34954.79
649.707	34841.8
650.059	34882.92
650.411	35296.47
650.763	35298.05
651.115	35761.32
651.467	35577.14
651.819	35680.42
652.171	35616.24
652.523	35449.92
652.875	35480.42
653.227	35448.56
653.578	35722.68
653.93	35610.82
654.282	35517.71
654.633	35439.07
654.985	35426.64
655.337	35493.98
655.688	35468.45
656.039	35467.77
656.391	35150.94
656.742	35286.76
657.094	35392.74
657.445	35410.14
657.796	35345.96
658.147	35206.08
658.498	35250.15
658.849	35366.75
659.2	35217.38
659.551	35192.52
659.902	35334.89
660.253	35209.02
660.604	35292.18
660.955	35181.67
661.306	35184.61
661.656	35109.13
662.007	35156.82
662.358	35152.52
662.708	35204.05
663.059	35173.31
663.409	34965.63
663.76	35130.15
664.11	35136.93
664.461	35208.34
664.811	35152.3
665.161	35289.47
665.511	35052.41
665.862	35139.19
666.212	35242.69
666.562	35238.62
666.912	35075.46
667.262	35013.77
667.612	35007.89
667.962	35015.12
668.312	35082.02
668.662	35132.86
669.011	35134.22
669.361	35134.22
669.711	35079.98
670.06	34931.28
670.41	34932.19
670.76	34956.82
671.109	35048.12
671.459	35114.1
671.808	34967.22
672.157	35082.24
672.507	34699.88
672.856	34912.98
673.205	34830.5
673.554	34971.51
673.904	34856.48
674.253	35051.06
674.602	34875.69
674.951	34359.32
675.3	34183.06
675.649	34576.72
675.998	34754.57
676.346	34719.09
676.695	34818.07
677.044	34665.76
677.393	34698.97
677.741	34780.78
678.09	34689.94
678.438	34555.48
678.787	34679.77
679.135	34600.67
679.484	34454.01
679.832	34504.4
680.181	34359.77
680.529	34369.04
680.877	34303.05
681.225	34349.15
681.573	34388.93
681.922	34366.78
682.27	34163.85
682.618	34194.58
682.966	34174.02
683.314	34249.04
683.661	34134.24
684.009	33866.45
684.357	33885.89
684.705	33776.74
685.053	33941.71
685.4	33844.53
685.748	33699
686.095	33618.55
686.443	33495.16
686.79	33509.18
687.138	33576.52
687.485	33473.7
687.832	33440.25
688.18	33339.91
688.527	33114.16
688.874	33275.96
689.221	33245.91
689.568	33168.62
689.915	33051.11
690.262	33010.43
690.609	32853.83
690.956	32707.84
691.303	32714.17
691.65	32518.92
691.997	32613.83
692.344	32383.1
692.69	32450.67
693.037	32401.41
693.383	32158.48
693.73	32311.69
694.077	32035.99
694.423	32040.97
694.769	32042.32
695.116	31911.03
695.462	31840.07
695.808	31709.45
696.155	31878.48
696.501	31718.49
696.847	31610.24
697.193	31362.34
697.539	31517.82
697.885	31214.77
698.231	31200.54
698.577	31238.5
698.923	31161.67
699.269	31062.91
699.614	30862.24
699.96	30768
700.306	30793.09
700.651	30792.64
700.997	30571.63
701.342	30504.51
701.688	30532.08
702.033	30408.92
702.379	30328.47
702.724	30250.96
703.069	30403.72
703.415	29966.67
703.76	30026.1
704.105	30079.89
704.45	29993.34
704.795	29824.07
705.14	29780.69
705.485	29697.07
705.83	29585.89
706.175	29650.07
706.52	29558.09
706.865	29333.01
707.209	29324.43
707.554	29323.75
707.899	29373.46
708.243	29204.43
708.588	29089.86
708.932	28981.38
709.277	29021.61
709.621	28932.8
709.966	28653.26
710.31	28822.52
710.654	28641.51
710.998	28665.46
711.342	28584.11
711.687	28471.57
712.031	28451.91
712.375	28369.65
712.719	28347.5
713.063	28293.49
713.407	28373.72
713.75	28149.99
714.094	28034.97
714.438	28011.92
714.782	28080.62
715.125	28022.31
715.469	28075.65
715.812	27803.11
716.156	27778.7
716.499	27689.67
716.843	27808.08
717.186	27687.86
717.53	27745.49
717.873	27681.08
718.216	27554.98
718.559	27458.04
718.902	27233.18
719.246	27350.92
719.589	27278.38
719.932	27194.77
720.275	27197.48
720.617	27222.34
720.96	27044.94
721.303	27106.41
721.646	26973.53
721.989	26948.9
722.331	26994.09
722.674	26982.12
723.016	26917.48
723.359	26875.9
723.701	26887.2
724.044	26714.1
724.386	26397.27
724.729	26645.85
725.071	26592.75
725.413	26550.94
725.755	26570.37
726.097	26428.46
726.439	26425.29
726.782	26355.47
727.124	26378.97
727.465	26301
727.807	26273.66
728.149	26189.37
728.491	26221.68
728.833	26305.3
729.175	26063.04
729.516	26116.38
729.858	25955.93
730.199	25954.35
730.541	26018.75
730.882	25981.69
731.224	26002.25
731.565	25817.85
731.906	25835.93
732.248	25809.26
732.589	25693.34
732.93	25718.87
733.271	25558.88
733.612	25748.48
733.953	25605.43
734.294	25507.58
734.635	25426.68
734.976	25521.81
735.317	25276.85
735.658	25396.39
735.999	25421.25
736.339	25322.95
736.68	25400.01
737.021	25289.05
737.361	25187.36
737.702	25173.58
738.042	25139.45
738.383	25118.66
738.723	25124.54
739.063	24888.39
739.404	25057.42
739.744	24910.76
740.084	24889.29
740.424	24825.79
740.764	24908.5
741.104	24981.72
741.444	24736.75
741.784	24647.49
742.124	24734.49
742.464	24743.53
742.804	24640.26
743.143	24599.81
743.483	24669.63
743.823	24527.94
744.162	24565.91
744.502	24586.02
744.841	24348.51
745.181	24533.82
745.52	24380.15
745.86	24446.59
746.199	24261.06
746.538	24286.82
746.877	24387.61
747.216	24386.93
747.556	24276.65
747.895	24264.22
748.234	24162.3
748.573	24020.61
748.911	24134.28
749.25	24126.37
749.589	23862.2
749.928	24066.94
750.267	24029.88
750.605	23944.46
750.944	23848.86
751.283	23764.35
751.621	23810.22
751.96	23706.72
752.298	23646.16
752.636	23751.92
752.975	23636.89
753.313	23413.85
753.651	23536.56
753.989	23419.5
754.327	23362.55
754.666	23318.71
755.004	23334.53
755.342	23412.94
755.679	23345.6
756.017	23142.44
756.355	23223.34
756.693	23052.5
757.031	23198.94
757.368	22953.75
757.706	22981.99
758.044	22951.49
758.381	23024.48
758.719	22833.3
759.056	22851.15
759.394	22723.47
759.731	22621.78
760.068	22494.1
760.405	22501.56
760.743	22464.72
761.08	22555.79
761.417	22369.36
761.754	22282.35
762.091	22278.51
762.428	22050.72
762.765	22055.47
763.102	22042.36
763.438	21888.01
763.775	21832.19
764.112	21826.32
764.449	21839.2
764.785	21650.05
765.122	21532.32
765.458	21499.55
765.795	21528.47
766.131	21476.72
766.467	21432.88
766.804	21245.32
767.14	21182.95
767.476	21256.16
767.812	21063.17
768.148	21195.37
768.485	20956.74
768.821	20872.67
769.157	20878.55
769.492	20745.67
769.828	20727.36
770.164	20634.26
770.5	20571.66
770.836	20533.02
771.171	20487.37
771.507	20371.22
771.842	20316.53
772.178	20185.46
772.513	20119.24
772.849	20097.55
773.184	19917.89
773.519	19993.82
773.855	19882.42
774.19	19825.47
774.525	19772.81
774.86	19695.08
775.195	19766.94
775.53	19602.2
775.865	19482.88
776.2	19373.05
776.535	19200.63
776.87	19212.83
777.205	19178.25
777.539	19043.57
777.874	19128.76
778.209	18952.04
778.543	18886.06
778.878	18788.21
779.212	18781.65
779.547	18632.5
779.881	18776
780.215	18552.28
780.55	18608.55
780.884	18466.41
781.218	18417.37
781.552	18433.41
781.886	18344.6
782.22	18331.72
782.554	18207.43
782.888	17950.71
783.222	17915.46
783.556	17958.4
783.889	17839.98
784.223	17707.11
784.557	17625.98
784.89	17667.78
785.224	17618.29
785.557	17516.83
785.891	17453.1
786.224	17371.29
786.558	17470.5
786.891	17252.65
787.224	17108.93
787.557	17111.87
787.891	17062.38
788.224	17012.21
788.557	16993.45
788.89	17003.39
789.223	16955.03
789.556	16734.48
789.888	16796.17
790.221	16697.87
790.554	16547.14
790.887	16581.94
791.219	16523.18
791.552	16552.56
791.884	16372.45
792.217	16347.82
792.549	16297.88
792.882	16180.82
793.214	16069.41
793.546	16128.84
793.879	16107.15
794.211	15968.85
794.543	16023.99
794.875	15941.28
795.207	15891.79
795.539	15865.12
795.871	15806.36
796.203	15654.73
796.535	15595.07
796.867	15630.55
797.198	15587.84
797.53	15506.71
797.862	15371.35
798.193	15419.03
798.525	15412.93
798.856	15442.98
799.188	15236.66
799.519	15191.69
799.85	15067.17
800.182	15136.55
800.513	15048.42
800.844	14893.85
801.175	14999.15
801.506	14971.36
801.837	14943.56
802.168	14909.66
802.499	14761.65
802.83	14758.03
803.161	14612.95
803.491	14698.82
803.822	14675.32
804.153	14583.8
804.483	14389.9
804.814	14414.99
805.145	14433.97
805.475	14349.45
805.805	14324.14
806.136	14253.18
806.466	14298.38
806.796	14242.34
807.126	14137.93
807.457	14101.78
807.787	14043.7
808.117	14021.78
808.447	14014.32
808.777	14047.54
809.107	13987.65
809.436	13799.64
809.766	13845.29
810.096	13799.41
810.426	13832.86
810.755	13746.31
811.085	13699.3
811.414	13737.04
811.744	13602.81
812.073	13594.9
812.403	13515.58
812.732	13473.09
813.061	13474.22
813.39	13409.14
813.719	13417.27
814.049	13446.65
814.378	13420.89
814.707	13327.79
815.036	13335.24
815.365	13253.21
815.693	13099.32
816.022	13151.29
816.351	13078.07
816.68	13072.42
817.008	13069.49
817.337	12991.75
817.665	12901.81
817.994	12954.91
818.322	12977.29
818.651	12932.32
818.979	12807.35
819.307	12896.61
819.636	12816.16
819.964	12696.39
820.292	12787.23
820.62	12831.75
820.948	12744.52
821.276	12793.11
821.604	12756.05
821.932	12774.13
822.259	12753.11
822.587	12696.84
822.915	12693.9
823.243	12719.89
823.57	12711.98
823.898	12761.7
824.225	12676.05
824.553	12615.94
824.88	12667.69
825.207	12700.23
825.535	12710.4
825.862	12664.98
826.189	12599.89
826.516	12634.7
826.843	12657.52
827.17	12683.96
827.497	12655.26
827.824	12744.98
828.151	12686.67
828.478	12707.69
828.805	12780.68
829.131	12663.62
829.458	12664.98
829.785	12581.14
830.111	12567.81
830.438	12557.41
830.764	12591.76
831.09	12633.11
831.417	12600.12
831.743	12624.3
832.069	12584.75
832.395	12557.41
832.722	12573.91
833.048	12550.86
833.374	12623.17
833.7	12521.7
834.026	12479.22
834.351	12576.62
834.677	12538.43
835.003	12570.06
835.329	12529.61
835.654	12425.21
835.98	12394.93
836.306	12398.09
836.631	12345.44
836.956	12342.27
837.282	12423.85
837.607	12290.98
837.932	12243.29
838.258	12268.15
838.583	12307.92
838.908	12232.67
839.233	12258.43
839.558	12198.1
839.883	12226.57
840.208	12111.55
840.533	12154.71
840.858	12128.04
841.182	12087.82
841.507	12141.83
841.832	11948.84
842.156	11974.6
842.481	11990.42
842.805	11975.73
843.13	11949.52
843.454	11896.41
843.778	11808.96
844.103	11857.32
844.427	11836.75
844.751	11846.47
845.075	11739.13
845.399	11745.23
845.723	11669.75
846.047	11646.25
846.371	11490.32
846.695	11626.13
847.019	11516.99
847.343	11453.94
847.666	11459.36
847.99	11455.74
848.313	11366.03
848.637	11334.39
848.96	11290.55
849.284	11229.54
849.607	11113.15
849.931	11176.66
850.254	11069.99
850.577	11023.21
850.9	10971.69
851.223	10932.82
851.546	10843.78
851.869	10790.9
852.192	10802.88
852.515	10838.59
852.838	10685.14
853.161	10715.2
853.483	10648.08
853.806	10561.98
854.129	10570.8
854.451	10574.19
854.774	10520.18
855.096	10488.76
855.419	10450.35
855.741	10391.59
856.063	10361.76
856.385	10285.61
856.708	10273.18
857.03	10318.6
857.352	10358.37
857.674	10255.78
857.996	10217.58
858.318	10124.93
858.64	10174.42
858.961	10105.27
859.283	10013.75
859.605	10030.92
859.926	10055.1
860.248	9970.13
860.57	9917.48
860.891	9959.06
861.212	9939.63
861.534	9797.71
861.855	9879.51
862.176	9836.58
862.498	9819.63
862.819	9819.85
863.14	9773.53
863.461	9805.84
863.782	9745.05
864.103	9715.9
864.424	9718.39
864.745	9695.11
865.065	9592.52
865.386	9632.29
865.707	9644.27
866.027	9610.14
866.348	9574.66
866.668	9556.36
866.989	9633.87
867.309	9473.2
867.63	9461.22
867.95	9460.54
868.27	9457.38
868.59	9512.29
868.91	9491.5
869.23	9391.17
869.55	9405.85
869.87	9469.36
870.19	9379.64
870.51	9415.35
870.83	9433.88
871.15	9291.96
871.469	9360.21
871.789	9395.01
872.109	9346.42
872.428	9253.54
872.748	9286.08
873.067	9289.47
873.386	9302.35
873.706	9337.16
874.025	9190.27
874.344	9200.66
874.663	9195.69
874.982	9230.49
875.301	9165.63
875.62	9085.64
875.939	9112.08
876.258	9058.29
876.577	9089.48
876.896	9067.56
877.214	9092.64
877.533	9125.41
877.852	9035.24
878.17	9029.59
878.489	9038.18
878.807	9013.32
879.125	9022.14
879.444	8970.39
879.762	8932.87
880.08	9011.51
880.398	8898.07
880.716	8907.56
881.034	8839.99
881.352	8891.29
881.67	8858.75
881.988	8853.78
882.306	8848.13
882.624	8788.92
882.941	8743.5
883.259	8771.75
883.577	8751.41
883.894	8737.85
884.212	8660.34
884.529	8687.68
884.846	8669.6
885.164	8625.76
885.481	8575.37
885.798	8610.4
886.115	8564.75
886.432	8584.86
886.75	8552.32
887.067	8538.53
887.383	8414.02
887.7	8475.94
888.017	8400.23
888.334	8467.8
888.651	8462.83
888.967	8410.63
889.284	8300.8
889.6	8343.74
889.917	8312.78
890.233	8244.08
890.55	8208.82
890.866	8308.48
891.182	8235.72
891.498	8176.73
891.815	8177.19
892.131	8159.33
892.447	8131.76
892.763	8139.67
893.079	8036.62
893.395	8026.68
893.71	8073.01
894.026	8004.54
894.342	8038.43
894.657	7915.5
894.973	7931.32
895.289	7900.13
895.604	7876.63
895.92	7848.16
896.235	7866.91
896.55	7795.5
896.865	7853.35
897.181	7743.98
897.496	7750.3
897.811	7698.78
898.126	7643.64
898.441	7600.03
898.756	7553.7
899.071	7553.93
899.386	7608.84
899.7	7486.13
900.015	7558.22
900.33	7487.26
900.644	7463.76
900.959	7467.6
901.273	7365.91
901.588	7389.64
901.902	7330.2
902.216	7308.51
902.531	7289.53
902.845	7302.63
903.159	7239.58
903.473	7177.66
903.787	7186.25
904.101	7135.86
904.415	7172.47
904.729	7122.75
905.042	7065.8
905.356	7031.68
905.67	7037.78
905.984	7053.83
906.297	6966.6
906.611	6985.58
906.924	6958.01
907.237	6902.64
907.551	6890.21
907.864	6812.93
908.177	6903.32
908.491	6808.63
908.804	6762.08
909.117	6744.91
909.43	6722.08
909.743	6670.33
910.056	6609.09
910.368	6652.48
910.681	6595.53
910.994	6578.81
911.307	6575.19
911.619	6556.66
911.932	6500.85
912.244	6465.37
912.557	6480.06
912.869	6413.39
913.181	6399.61
913.494	6450
913.806	6377.91
914.118	6328.87
914.43	6276.22
914.742	6287.97
915.054	6273.73
915.366	6210.46
915.678	6230.34
915.99	6168.43
916.302	6155.32
916.613	6119.84
916.925	6087.07
917.236	6082.33
917.548	6022.44
917.859	6068.77
918.171	5981.54
918.482	5977.92
918.794	5960.52
919.105	5942.67
919.416	5907.19
919.727	5889.11
920.038	5850.24
920.349	5827.19
920.66	5822.67
920.971	5827.19
921.282	5749.45
921.593	5656.57
921.903	5706.74
922.214	5653.18
922.525	5603.92
922.835	5658.38
923.146	5612.73
923.456	5607.08
923.767	5569.35
924.077	5578.16
924.387	5561.44
924.697	5486.86
925.008	5465.84
925.318	5433.08
925.628	5447.99
925.938	5409.8
926.248	5372.51
926.558	5321.22
926.867	5338.16
927.177	5349.69
927.487	5269.69
927.796	5301.33
928.106	5297.71
928.416	5242.8
928.725	5221.56
929.034	5229.02
929.344	5173.65
929.653	5166.19
929.962	5115.35
930.271	5085.29
930.581	5037.38
930.89	5069.25
931.199	5043.26
931.508	5021.34
931.817	4997.83
932.125	4966.88
932.434	5024.27
932.743	4955.58
933.051	4925.29
933.36	4888.01
933.669	4881.68
933.977	4822.92
934.286	4849.82
934.594	4773.21
934.902	4796.03
935.21	4770.04
935.519	4771.85
935.827	4757.62
936.135	4715.58
936.443	4674.68
936.751	4638.07
937.059	4633.1
937.367	4647.79
937.674	4659.99
937.982	4615.7
938.29	4564.85
938.597	4573.67
938.905	4497.28
939.213	4546.32
939.52	4499.77
939.827	4464.29
940.135	4459.09
940.442	4459.09
940.749	4447.34
941.056	4437.85
941.363	4341.81
941.67	4380.45
941.977	4370.51
942.284	4330.51
942.591	4293.45
942.898	4268.36
943.205	4247.8
943.511	4233.11
943.818	4279.66
944.125	4206.9
944.431	4177.07
944.738	4179.78
945.044	4133.22
945.35	4144.3
945.657	4117.18
945.963	4107.69
946.269	4087.12
946.575	4075.15
946.881	4045.32
947.187	4020.46
947.493	4017.52
947.799	4028.14
948.105	3985.88
948.41	3927.81
948.716	3953.12
949.022	3952.66
949.327	3926.68
949.633	3892.55
949.938	3879.9
950.244	3890.07
950.549	3878.54
950.854	3833.12
951.16	3819.79
951.465	3803.97
951.77	3795.83
952.075	3797.41
952.38	3745.44
952.685	3689.85
952.99	3690.75
953.294	3703.63
953.599	3695.95
953.904	3669.51
954.209	3671.32
954.513	3675.16
954.818	3626.57
955.122	3585.89
955.426	3590.64
955.731	3581.83
956.035	3552.9
956.339	3549.51
956.643	3528.27
956.948	3538.21
957.252	3544.54
957.556	3501.83
957.86	3453.02
958.163	3487.14
958.467	3462.06
958.771	3464.32
959.075	3438.1
959.378	3405.56
959.682	3381.83
959.985	3397.88
960.289	3340.48
960.592	3339.35
960.896	3355.39
961.199	3321.72
961.502	3332.12
961.805	3288.28
962.108	3273.36
962.411	3286.02
962.714	3248.95
963.017	3192.91
963.32	3228.84
963.623	3213.47
963.926	3190.2
964.228	3134.83
964.531	3147.94
964.833	3134.61
965.136	3094.38
965.438	3120.14
965.741	3088.73
966.043	3077.66
966.345	3112.69
966.648	3046.93
966.95	3042.41
967.252	3013.03
967.554	3035.63
967.856	3002.41
968.158	2972.35
968.46	2969.87
968.761	2975.06
969.063	2943.43
969.365	2963.31
969.666	2954.27
969.968	2940.49
970.269	2908.85
970.571	2897.78
970.872	2904.56
971.174	2885.12
971.475	2893.26
971.776	2886.7
972.077	2840.15
972.378	2816.2
972.679	2806.93
972.98	2814.39
973.281	2782.3
973.582	2777.1
973.883	2738.01
974.183	2741.4
974.484	2771.45
974.785	2694.84
975.085	2751.11
975.386	2771.9
975.686	2689.87
975.986	2662.98
976.287	2677.67
976.587	2617.78
976.887	2655.75
977.187	2689.42
977.487	2647.61
977.787	2594.73
978.087	2612.13
978.387	2615.98
978.687	2586.15
978.987	2574.4
979.286	2583.43
979.586	2534.85
979.885	2562.42
980.185	2495.53
980.484	2502.76
980.784	2511.12
981.083	2498.92
981.382	2509.76
981.682	2474.96
981.981	2447.17
982.28	2481.06
982.579	2458.01
982.878	2453.27
983.177	2443.78
983.475	2397
983.774	2398.81
984.073	2387.06
984.372	2382.99
984.67	2378.92
984.969	2356.77
985.267	2340.5
985.566	2340.28
985.864	2351.8
986.162	2339.83
986.461	2302.76
986.759	2314.97
987.057	2260.05
987.355	2285.59
987.653	2255.31
987.951	2231.35
988.249	2255.99
988.547	2214.63
988.844	2200.17
989.142	2224.12
989.44	2200.17
989.737	2180.28
990.035	2183.67
990.332	2181.64
990.63	2193.39
990.927	2159.27
991.224	2143.45
991.521	2116.78
991.819	2133.05
992.116	2117.01
992.413	2125.82
992.71	2122.43
993.006	2105.03
993.303	2074.52
993.6	2060.96
993.897	2046.73
994.193	2038.14
994.49	2046.5
994.787	2040.62
995.083	2026.39
995.379	1985.71
995.676	2004.02
995.972	2007.4
996.268	1955.43
996.565	1975.99
996.861	1973.06
997.157	1963.56
997.453	1969.89
997.749	1934.41
998.044	1939.84
998.34	1934.19
998.636	1936.67
998.932	1907.52
999.227	1872.95
999.523	1859.39
999.818	1871.14
1000.114	1870.46
1000.409	1840.63
1000.704	1835.43
1001	1823
1001.295	1792.5
1001.59	1817.13
1001.885	1825.04
1002.18	1804.02
1002.475	1773.74
1002.77	1785.49
1003.065	1755.21
1003.359	1768.32
1003.654	1757.02
1003.949	1741.88
1004.243	1732.38
1004.538	1747.3
1004.832	1708.66
1005.127	1716.79
1005.421	1675.89
1005.715	1701.2
1006.009	1697.81
1006.304	1649.22
1006.598	1654.19
1006.892	1654.19
1007.186	1632.27
1007.48	1619.62
1007.773	1629.34
1008.067	1620.3
1008.361	1587.3
1008.655	1605.83
1008.948	1594.76
1009.242	1583.24
1009.535	1580.75
1009.829	1571.71
1010.122	1567.64
1010.415	1549.34
1010.708	1547.98
1011.001	1541.2
1011.295	1488.77
1011.588	1490.13
1011.881	1501.66
1012.173	1503.24
1012.466	1485.38
1012.759	1493.52
1013.052	1465.5
1013.344	1468.44
1013.637	1467.08
1013.93	1427.76
1014.222	1444.26
1014.514	1421.88
1014.807	1430.02
1015.099	1432.5
1015.391	1416.46
1015.683	1392.28
1015.976	1410.13
1016.268	1387.76
1016.56	1381.21
1016.851	1366.29
1017.143	1368.55
1017.435	1341.89
1017.727	1353.86
1018.018	1334.88
1018.31	1326.52
1018.602	1326.74
1018.893	1321.55
1019.185	1320.42
1019.476	1300.76
1019.767	1312.51
1020.058	1284.94
1020.35	1286.29
1020.641	1265.05
1020.932	1249.91
1021.223	1267.54
1021.514	1244.49
1021.804	1197.03
1022.095	1204.94
1022.386	1211.72
1022.677	1210.36
1022.967	1202.23
1023.258	1198.84
1023.548	1187.77
1023.839	1204.26
1024.129	1153.42
1024.419	1184.15
1024.709	1157.26
1025	1181.21
1025.29	1151.16
1025.58	1127.2
1025.87	1129.01
1026.16	1126.98
1026.449	1127.2
1026.739	1099.41
1027.029	1125.17
1027.319	1115.9
1027.608	1106.41
1027.898	1083.36
1028.187	1067.77
1028.477	1070.71
1028.766	1062.12
1029.055	1061.67
1029.344	1054.66
1029.634	1035
1029.923	1027.54
1030.212	1027.77
1030.501	1016.92
1030.79	1014.44
1031.078	1023.93
1031.367	1015.11
1031.656	1003.59
1031.945	994.32
1032.233	978.96
1032.522	980.31
1032.81	973.31
1033.099	979.86
1033.387	956.59
1033.675	957.04
1033.963	966.75
1034.251	931.5
1034.54	937.38
1034.828	963.82
1035.116	927.21
1035.403	914.78
1035.691	920.2
1035.979	929.92
1036.267	905.74
1036.554	909.35
1036.842	912.74
1037.129	915.46
1037.417	888.56
1037.704	886.98
1037.992	878.85
1038.279	865.97
1038.566	856.25
1038.853	856.25
1039.14	856.25
