Data from hue_350_FLMS001491_9.txt Node
Date: Mon Feb 06 15:37:29 GMT 2017
User: dcchb
Spectrometer: FLMS00149
Trigger mode: 0
Integration Time (sec): 2.000000E-2
Scans to average: 10
Electric dark correction enabled: true
Nonlinearity correction enabled: false
Boxcar width: 0
XAxis mode: Wavelengths
Number of Pixels in Spectrum: 2048
>>>>>Begin Spectral Data<<<<<
341.393	5
341.776	5
342.16	5
342.543	-75.22
342.927	-65.73
343.31	-60.54
343.693	-58.05
344.077	-58.73
344.46	-38.61
344.843	-75
345.226	-51.04
345.61	-45.39
345.993	-23.25
346.376	-4.49
346.759	8.62
347.142	26.02
347.525	43.19
347.908	66.69
348.291	69.4
348.674	97.43
349.057	103.75
349.44	121.16
349.823	141.27
350.206	160.02
350.588	179.91
350.971	207.71
351.354	221.72
351.737	263.07
352.119	249.06
352.502	270.53
352.884	266.46
353.267	273.24
353.65	285.67
354.032	292
354.414	317.08
354.797	305.56
355.179	320.25
355.562	320.02
355.944	317.08
356.326	320.25
356.709	338.1
357.091	348.04
357.473	340.81
357.855	317.99
358.238	344.88
358.62	332.9
359.002	350.3
359.384	359.79
359.766	324.77
360.148	348.49
360.53	333.8
360.912	343.97
361.294	325.22
361.676	349.17
362.057	322.51
362.439	336.97
362.821	327.25
363.203	319.57
363.584	341.94
363.966	348.27
364.348	314.37
364.729	325.9
365.111	318.21
365.493	300.81
365.874	322.51
366.256	335.16
366.637	323.64
367.019	307.14
367.4	327.93
367.781	313.24
368.163	317.76
368.544	323.18
368.925	310.3
369.306	316.63
369.688	307.14
370.069	311.88
370.45	292.22
370.831	299.23
371.212	305.33
371.593	312.11
371.974	292.45
372.355	313.47
372.736	315.27
373.117	307.59
373.498	307.59
373.879	300.13
374.26	332
374.641	320.7
375.021	323.86
375.402	324.99
375.783	328.61
376.163	324.54
376.544	337.87
376.925	310.3
377.305	317.99
377.686	314.82
378.066	327.03
378.447	314.82
378.827	351.21
379.208	335.61
379.588	328.38
379.968	312.34
380.349	315.95
380.729	334.03
381.109	319.57
381.489	346.46
381.87	321.38
382.25	318.44
382.63	342.17
383.01	333.13
383.39	345.1
383.77	351.88
384.15	336.06
384.53	327.93
384.91	350.53
385.29	341.49
385.67	371.32
386.049	348.49
386.429	343.07
386.809	351.66
387.189	370.41
387.568	371.54
387.948	339.91
388.328	349.4
388.707	359.11
389.087	355.5
389.466	346.69
389.846	357.31
390.225	333.58
390.605	364.99
390.984	356.4
391.363	365.67
391.743	367.93
392.122	365.89
392.501	370.87
392.881	362.96
393.26	369.28
393.639	382.39
394.018	362.5
394.397	378.55
394.776	368.15
395.155	361.83
395.534	379
395.913	360.7
396.292	375.16
396.671	388.49
397.05	392.56
397.429	384.42
397.808	379.68
398.186	395.5
398.565	402.05
398.944	398.89
399.323	378.78
399.701	376.52
400.08	421.03
400.458	400.92
400.837	378.1
401.215	389.17
401.594	384.88
401.972	387.14
402.351	408.15
402.729	402.05
403.107	405.67
403.486	393.92
403.864	406.35
404.242	403.86
404.62	396.63
404.999	398.66
405.377	411.99
405.755	397.98
406.133	420.13
406.511	434.59
406.889	445.67
407.267	426.46
407.645	446.12
408.023	428.27
408.401	426.68
408.779	421.71
409.156	449.51
409.534	450.86
409.912	450.41
410.29	465.1
410.667	450.19
411.045	453.8
411.422	479.56
411.8	463.07
412.178	462.61
412.555	477.76
412.933	455.61
413.31	492.22
413.687	482.28
414.065	505.33
414.442	472.56
414.819	502.16
415.197	488.83
415.574	483.18
415.951	507.36
416.328	529.51
416.705	511.43
417.082	520.24
417.46	503.97
417.837	523.18
418.214	523.63
418.591	522.73
418.967	547.13
419.344	517.75
419.721	536.51
420.098	516.85
420.475	535.38
420.852	564.99
421.228	539.9
421.605	544.87
421.982	550.07
422.358	572.67
422.735	567.47
423.111	558.21
423.488	563.86
423.864	595.04
424.241	575.61
424.617	583.06
424.994	567.02
425.37	557.53
425.746	587.36
426.123	606.11
426.499	607.7
426.875	603.18
427.251	619.67
427.627	626.45
428.003	615.83
428.379	608.37
428.756	613.35
429.132	637.3
429.507	617.87
429.883	629.16
430.259	652.21
430.635	645.66
431.011	653.12
431.387	676.62
431.763	672.33
432.138	649.95
432.514	671.87
432.89	682.27
433.265	672.55
433.641	705.55
434.016	708.48
434.392	702.16
434.767	708.71
435.143	712.33
435.518	711.42
435.894	714.81
436.269	718.65
436.644	731.31
437.02	753.91
437.395	730.18
437.77	757.97
438.145	757.52
438.52	747.13
438.895	786.67
439.271	795.49
439.646	787.8
440.021	779.22
440.395	814.92
440.77	792.55
441.145	795.04
441.52	796.39
441.895	799.33
442.27	819.89
442.645	808.82
443.019	834.81
443.394	812.44
443.769	811.08
444.143	835.03
444.518	849.72
444.892	843.85
445.267	838.65
445.641	863.06
446.016	853.34
446.39	850.63
446.764	869.38
447.139	870.74
447.513	874.13
447.887	874.13
448.262	873
448.636	871.87
449.01	882.04
449.384	898.54
449.758	915.71
450.132	916.61
450.506	903.06
450.88	875.71
451.254	935.37
451.628	934.92
452.002	959.55
452.376	941.25
452.75	953.45
453.123	951.64
453.497	939.66
453.871	957.97
454.244	994.35
454.618	1005.43
454.992	1024.63
455.365	978.31
455.739	1048.59
456.112	1049.27
456.486	1035.93
456.859	1030.06
457.232	1025.31
457.606	1048.36
457.979	1044.52
458.352	1087.68
458.725	1052.66
459.099	1073.22
459.472	1089.94
459.845	1135.14
460.218	1120.68
460.591	1124.52
460.964	1137.63
461.337	1159.55
461.71	1174.01
462.083	1174.69
462.456	1205.19
462.829	1180.79
463.201	1213.78
463.574	1203.84
463.947	1212.88
464.32	1229.6
464.692	1262.14
465.065	1227.11
465.438	1281.35
465.81	1308.24
466.183	1317.51
466.555	1335.59
466.928	1307.79
467.3	1324.06
467.672	1342.82
468.045	1390.05
468.417	1397.51
468.789	1383.72
469.161	1397.73
469.534	1431.4
469.906	1462.81
470.278	1494.23
470.65	1501.46
471.022	1470.27
471.394	1531.06
471.766	1547.56
472.138	1571.51
472.51	1592.75
472.882	1604.51
473.253	1621
473.625	1617.39
473.997	1656.93
474.369	1703.03
474.74	1708.01
475.112	1730.15
475.484	1754.78
475.855	1798.4
476.227	1810.15
476.598	1840.66
476.97	1881.79
477.341	1938.96
477.713	1931.28
478.084	1950.71
478.455	2011.05
478.827	2025.74
479.198	2086.08
479.569	2063.93
479.94	2112.06
480.311	2154.55
480.682	2227.54
481.053	2263.02
481.424	2279.52
481.795	2298.5
482.166	2329.91
482.537	2335.56
482.908	2406.97
483.279	2456.01
483.65	2518.61
484.021	2527.42
484.391	2581.2
484.762	2576.68
485.133	2623.46
485.503	2646.74
485.874	2728.77
486.244	2746.4
486.615	2837.24
486.985	2841.99
487.356	2872.95
487.726	2870.01
488.097	2967.63
488.467	2941.19
488.837	3039.95
489.207	3080.63
489.578	3154.97
489.948	3152.94
490.318	3171.47
490.688	3195.88
491.058	3250.11
491.428	3334.18
491.798	3357.23
492.168	3411.24
492.538	3429.09
492.908	3465.47
493.278	3495.76
493.648	3544.79
494.017	3559.93
494.387	3634.73
494.757	3634.96
495.126	3673.83
495.496	3663.66
495.866	3719.48
496.235	3710.67
496.605	3818.68
496.974	3808.29
497.344	3866.14
497.713	3908.17
498.082	3889.19
498.452	3932.58
498.821	3961.28
499.19	4001.28
499.559	4026.14
499.928	4084.44
500.298	4086.02
500.667	4098.45
501.036	4094.61
501.405	4159.92
501.774	4168.96
502.143	4229.52
502.512	4251.44
502.88	4223.87
503.249	4241.72
503.618	4288.73
503.987	4305.45
504.356	4323.76
504.724	4352.91
505.093	4340.93
505.462	4404.88
505.83	4425.67
506.199	4405.34
506.567	4483.98
506.936	4444.43
507.304	4518.33
507.672	4481.72
508.041	4543.86
508.409	4562.85
508.777	4642.62
509.145	4600.81
509.514	4600.36
509.882	4667.02
510.25	4658.21
510.618	4708.38
510.986	4717.87
511.354	4771.88
511.722	4853.91
512.09	4813.69
512.458	4816.4
512.826	4843.29
513.193	4890.97
513.561	4867.47
513.929	4883.06
514.297	4941.59
514.664	4935.94
515.032	4935.27
515.4	5007.35
515.767	4988.37
516.135	5026.79
516.502	4962.84
516.869	5126.22
517.237	5084.64
517.604	5109.95
517.972	5111.76
518.339	5182.72
518.706	5163.28
519.073	5154.92
519.44	5208.25
519.808	5234.69
520.175	5224.3
520.542	5302.71
520.909	5295.03
521.276	5314.24
521.643	5378.42
522.009	5400.11
522.376	5391.52
522.743	5428.36
523.11	5496.15
523.477	5514.69
523.843	5521.69
524.21	5557.17
524.577	5566.21
524.943	5572.76
525.31	5620.22
525.676	5683.72
526.043	5667.68
526.409	5758.97
526.776	5808.69
527.142	5765.07
527.508	5797.16
527.874	5851.63
528.241	5865.41
528.607	5879.65
528.973	5909.7
529.339	5937.95
529.705	6041.68
530.071	5991.51
530.437	6050.94
530.803	6062.92
531.169	6101.79
531.535	6130.26
531.901	6183.14
532.267	6158.96
532.632	6168
532.998	6268.34
533.364	6245.51
533.73	6286.87
534.095	6285.51
534.461	6328.9
534.826	6390.14
535.192	6388.33
535.557	6456.58
535.923	6469.46
536.288	6477.6
536.653	6484.6
537.019	6529.8
537.384	6458.39
537.749	6558.27
538.114	6564.38
538.479	6580.65
538.845	6634.43
539.21	6677.37
539.575	6763.47
539.94	6697.25
540.305	6724.6
540.67	6722.34
541.034	6794.65
541.399	6778.38
541.764	6775.9
542.129	6843.24
542.494	6897.25
542.858	6869.68
543.223	6927.53
543.587	6972.73
543.952	7005.27
544.316	7035.55
544.681	7062.44
545.045	7075.77
545.41	7091.14
545.774	7136.11
546.138	7153.51
546.503	7168.43
546.867	7187.86
547.231	7264.02
547.595	7251.59
547.959	7301.08
548.324	7348.76
548.688	7316.9
549.052	7337.91
549.416	7402.77
549.779	7428.31
550.143	7432.38
550.507	7438.02
550.871	7541.3
551.235	7472.6
551.599	7522.54
551.962	7541.07
552.326	7591.69
552.689	7625.82
553.053	7598.92
553.417	7640.05
553.78	7760.73
554.143	7697.45
554.507	7772.03
554.87	7721.18
555.234	7876.21
555.597	7821.74
555.96	7799.37
556.323	7806.6
556.686	7836.88
557.05	7906.49
557.413	7976.54
557.776	7926.83
558.139	7998.91
558.502	8008.86
558.865	8027.39
559.228	8106.03
559.59	8092.02
559.953	8083.21
560.316	8243.2
560.679	8197.1
561.041	8223.54
561.404	8271
561.767	8298.34
562.129	8250.21
562.492	8329.75
562.854	8363.42
563.217	8314.61
563.579	8428.73
563.941	8449.07
564.304	8418.34
564.666	8523.42
565.028	8537.2
565.39	8585.11
565.753	8628.95
566.115	8604.32
566.477	8701.04
566.839	8628.28
567.201	8743.75
567.563	8719.35
567.925	8776.07
568.287	8791.44
568.648	8815.84
569.01	8845.67
569.372	8914.82
569.734	8953.92
570.095	8974.71
570.457	8990.98
570.819	9078.21
571.18	9065.78
571.542	9210.18
571.903	9229.39
572.265	9198.2
572.626	9284.98
572.987	9290.18
573.349	9376.5
573.71	9382.15
574.071	9469.38
574.432	9519.55
574.794	9576.5
575.155	9604.07
575.516	9599.1
575.877	9759.32
576.238	9816.49
576.599	9803.39
576.96	9874.57
577.32	10002.93
577.681	10021.23
578.042	10116.15
578.403	10220.1
578.763	10218.06
579.124	10379.64
579.485	10474.33
579.845	10595.23
580.206	10661.89
580.566	10745.28
580.927	10839.74
581.287	10998.38
581.648	11125.16
582.008	11247.87
582.368	11350.92
582.728	11507.52
583.089	11602.89
583.449	11824.35
583.809	11930.34
584.169	12095.08
584.529	12199.93
584.889	12458.46
585.249	12613.26
585.609	12799.24
585.969	12980.7
586.329	13180.92
586.688	13363.97
587.048	13517.41
587.408	13710.63
587.768	14008.02
588.127	14202.82
588.487	14408.91
588.846	14622.92
589.206	14749.24
589.565	14983.36
589.925	15342
590.284	15544.93
590.643	15800.74
591.003	16050
591.362	16409.77
591.721	16529.99
592.08	16817.67
592.44	17177.43
592.799	17446.58
593.158	17674.37
593.517	17910.07
593.876	18195.93
594.235	18510.28
594.593	18765.86
594.952	19020.77
595.311	19239.3
595.67	19547.99
596.029	20033.17
596.387	20226.39
596.746	20495.53
597.104	20632.71
597.463	21056.2
597.822	21368.96
598.18	21540.93
598.538	21782.28
598.897	22289.84
599.255	22262.27
599.613	22824.96
599.972	22940.22
600.33	23299.98
600.688	23494.1
601.046	23742
601.404	24172.5
601.762	24368.2
602.12	24683.9
602.478	24929.77
602.836	25221.06
603.194	25361.17
603.552	25646.59
603.91	25742.18
604.268	26237.53
604.625	26380.58
604.983	26641.36
605.341	26713.9
605.698	27037.74
606.056	27430.04
606.413	27631.62
606.771	27899.63
607.128	28163.36
607.485	28276.35
607.843	28470.24
608.2	28919.95
608.557	29184.57
608.914	29113.84
609.272	29589.08
609.629	29813.03
609.986	30069.75
610.343	30118.78
610.7	30616.62
611.057	30717.64
611.414	30741.82
611.771	30974.13
612.127	31234.46
612.484	31338.41
612.841	31739.08
613.198	31651.17
613.554	31872.64
613.911	32235.11
614.267	32295
614.624	32461.55
614.98	32647.98
615.337	32939.05
615.693	32970.69
616.05	33120.97
616.406	33353.5
616.762	33346.04
617.118	33571.8
617.475	33665.81
617.831	33886.59
618.187	34009.53
618.543	34153.25
618.899	34426.92
619.255	34516.41
619.611	34676.18
619.967	34866.68
620.323	34953.69
620.678	34980.13
621.034	35031.42
621.39	35082.95
621.746	35213.79
622.101	35507.57
622.457	35374.92
622.812	35570.84
623.168	35849.93
623.523	35777.84
623.879	36022.81
624.234	35845.41
624.589	36025.07
624.945	36213.54
625.3	36186.2
625.655	36258.51
626.01	36424.61
626.365	36383.03
626.72	36516.36
627.075	36519.07
627.43	36542.34
627.785	36476.36
628.14	36706.18
628.495	36793.86
628.85	36878.83
629.205	36833.86
629.559	37027.76
629.914	36919.06
630.269	36906.63
630.623	36875.44
630.978	36839.96
631.332	37170.8
631.687	37265.49
632.041	37100.97
632.396	37117.7
632.75	37094.19
633.104	37188.65
633.459	37138.71
633.813	37152.05
634.167	37101.65
634.521	37180.75
634.875	37144.81
635.229	37213.74
635.583	37119.73
635.937	37186.85
636.291	37186.17
636.645	37251.25
636.999	37195.21
637.352	37226.39
637.706	37073.4
638.06	37312.95
638.413	37096.45
638.767	37133.52
639.121	37187.98
639.474	37022.78
639.828	37140.97
640.181	37132.84
640.534	37107.3
640.888	37061.65
641.241	36907.76
641.594	37110.92
641.947	37086.28
642.301	37075.21
642.654	37024.14
643.007	37029.11
643.36	37150.69
643.713	36964.48
644.066	37087.87
644.419	36861.88
644.771	36775.78
645.124	36338.06
645.477	36427.32
645.83	36117.27
646.182	36046.76
646.535	35830.05
646.888	36067.55
647.24	35805.64
647.593	36061.68
647.945	35949.37
648.298	35826.88
648.65	35748.01
649.002	35759.99
649.355	35830.5
649.707	35808.58
650.059	35917.95
650.411	36268.45
650.763	36353.2
651.115	36765.16
651.467	36620.08
651.819	36720.87
652.171	36562.68
652.523	36494.21
652.875	36682.91
653.227	36496.47
653.578	36627.77
653.93	36558.84
654.282	36527.2
654.633	36403.59
654.985	36427.32
655.337	36459.41
655.688	36526.75
656.039	36623.25
656.391	36279.3
656.742	36364.27
657.094	36350.71
657.445	36648.1
657.796	36390.71
658.147	36486.75
658.498	36350.71
658.849	36504.61
659.2	36375.12
659.551	36391.61
659.902	36491.72
660.253	36365.85
660.604	36387.32
660.955	36243.37
661.306	36370.37
661.656	36265.06
662.007	36356.59
662.358	36332.18
662.708	36258.96
663.059	36162.69
663.409	36020.1
663.76	36421.9
664.11	36271.84
664.461	36325.17
664.811	36287.44
665.161	36260.32
665.511	36059.42
665.862	36228.68
666.212	36232.3
666.562	36252.18
666.912	36094.45
667.262	36091.96
667.612	36313.42
667.962	36237.49
668.312	36065.29
668.662	36275.01
669.011	36059.65
669.361	36099.19
669.711	36078.4
670.06	35831.63
670.41	35944.62
670.76	35869.37
671.109	36078.4
671.459	36113.2
671.808	35946.43
672.157	36017.16
672.507	35797.73
672.856	35795.92
673.205	35887.9
673.554	35983.71
673.904	35957.5
674.253	35997.95
674.602	35951.17
674.951	35236.39
675.3	35299.67
675.649	35847.9
675.998	35863.94
676.346	35885.19
676.695	35839.76
677.044	35646.55
677.393	35795.7
677.741	35726.32
678.09	35759.09
678.438	35651.75
678.787	35708.47
679.135	35769.94
679.484	35496.27
679.832	35577.17
680.181	35379.44
680.529	35558.42
680.877	35367.69
681.225	35295.15
681.573	35541.01
681.922	35268.03
682.27	35132.21
682.618	35170.85
682.966	35055.38
683.314	35140.12
683.661	35072.78
684.009	34885.21
684.357	34826.23
684.705	34922.5
685.053	34778.77
685.4	34823.52
685.748	34581.27
686.095	34655.61
686.443	34549.85
686.79	34535.62
687.138	34612
687.485	34595.05
687.832	34493.58
688.18	34388.95
688.527	34297.66
688.874	34252.91
689.221	34101.5
689.568	34113.26
689.915	34075.74
690.262	33976.99
690.609	33852.02
690.956	33796.43
691.303	33682.31
691.65	33611.12
691.997	33630.56
692.344	33374.74
692.69	33305.59
693.037	33367.29
693.383	33118.71
693.73	33220.17
694.077	32898.82
694.423	32986.28
694.769	32898.37
695.116	32854.31
695.462	32763.01
695.808	32599.62
696.155	32717.36
696.501	32496.57
696.847	32548.78
697.193	32335.45
697.539	32463.81
697.885	32151.27
698.231	32259.97
698.577	32048.9
698.923	31916.48
699.269	31893.88
699.614	31716.26
699.96	31674.45
700.306	31692.75
700.651	31563.27
700.997	31501.8
701.342	31405.3
701.688	31343.16
702.033	31226.33
702.379	31257.51
702.724	31097.29
703.069	31282.82
703.415	30814.13
703.76	30842.16
704.105	30768.26
704.45	30843.29
704.795	30600.35
705.14	30550.41
705.485	30518.32
705.83	30370.3
706.175	30359.46
706.52	30336.63
706.865	30172.79
707.209	30220.25
707.554	30114.72
707.899	30202.17
708.243	29993.14
708.588	29923.31
708.932	29737.55
709.277	29777.32
709.621	29716.08
709.966	29611
710.31	29720.83
710.654	29396.32
710.998	29455.07
711.342	29496.88
711.687	29224.8
712.031	29277.68
712.375	29205.14
712.719	29324
713.063	29186.61
713.407	29193.84
713.75	29048.98
714.094	29038.36
714.438	28938.02
714.782	28890.57
715.125	28751.81
715.469	28884.24
715.812	28667.52
716.156	28500.3
716.499	28558.83
716.843	28628.2
717.186	28382.78
717.53	28575.55
717.873	28491.93
718.216	28398.15
718.559	28355.89
718.902	28220.08
719.246	28237.7
719.589	28004.04
719.932	28072.28
720.275	27961.1
720.617	27975.56
720.96	27949.12
721.303	27877.94
721.646	27778.73
721.989	27664.39
722.331	27786.19
722.674	27598.85
723.016	27683.37
723.359	27629.81
723.701	27646.08
724.044	27451.96
724.386	27276.15
724.729	27385.52
725.071	27183.49
725.413	27299.88
725.755	27312.3
726.097	27189.82
726.439	27077.06
726.782	27084.51
727.124	27110.5
727.465	27123.83
727.807	26934.46
728.149	26985.99
728.491	26985.31
728.833	26946.66
729.175	26734.92
729.516	26822.83
729.858	26845.42
730.199	26731.53
730.541	26696.28
730.882	26780.34
731.224	26761.13
731.565	26571.08
731.906	26557.3
732.248	26616.96
732.589	26472.1
732.93	26342.61
733.271	26300.35
733.612	26423.29
733.953	26436.85
734.294	26191.88
734.635	26165.44
734.976	26243.63
735.317	26107.36
735.658	26132.45
735.999	26185.33
736.339	25960.02
736.68	26157.76
737.021	26035.28
737.361	25883.64
737.702	26021.26
738.042	25861.04
738.383	25900.36
738.723	25939.91
739.063	25734.94
739.404	25809.75
739.744	25619.24
740.084	25712.35
740.424	25641.84
740.764	25611.33
741.104	25643.65
741.444	25560.26
741.784	25478.68
742.124	25425.57
742.464	25414.28
742.804	25345.35
743.143	25426.7
743.483	25420.83
743.823	25216.99
744.162	25207.05
744.502	25290.21
744.841	25186.71
745.181	25293.37
745.52	25089.76
745.86	25034.85
746.199	25167.73
746.538	24999.6
746.877	25040.05
747.216	25108.75
747.556	24959.37
747.895	24985.81
748.234	24953.72
748.573	24756.89
748.911	24780.62
749.25	24825.36
749.589	24625.6
749.928	24641.64
750.267	24688.19
750.605	24671.24
750.944	24504.47
751.283	24481.64
751.621	24534.52
751.96	24436
752.298	24470.35
752.636	24469.89
752.975	24254.98
753.313	24283.23
753.651	24356
753.989	24232.84
754.327	24138.83
754.666	23994.2
755.004	23967.76
755.342	24110.58
755.679	23956.46
756.017	23830.36
756.355	23862
756.693	23819.06
757.031	23891.6
757.368	23698.16
757.706	23685.06
758.044	23596.7
758.381	23559.41
758.719	23538.39
759.056	23428.34
759.394	23422.01
759.731	23247.33
760.068	23237.38
760.405	23095.69
760.743	23154.22
761.08	23179.53
761.417	23031.74
761.754	22984.51
762.091	22995.81
762.428	22835.81
762.765	22708.81
763.102	22738.64
763.438	22569.83
763.775	22405.31
764.112	22548.14
764.449	22609.38
764.785	22431.75
765.122	22273.11
765.458	22204.87
765.795	22154.93
766.131	22200.35
766.467	22117.64
766.804	22002.16
767.14	21887.81
767.476	21958.09
767.812	21829.51
768.148	21836.29
768.485	21709.74
768.821	21557.2
769.157	21469.07
769.492	21450.54
769.828	21413.02
770.164	21216.19
770.5	21118.57
770.836	21154.95
771.171	21052.36
771.507	20956.09
771.842	20844
772.178	20864.34
772.513	20732.36
772.849	20781.4
773.184	20605.81
773.519	20623.67
773.855	20531.47
774.19	20379.61
774.525	20331.02
774.86	20419.83
775.195	20245.82
775.53	20065.94
775.865	20080.18
776.2	19903.01
776.535	19834.31
776.87	19775.1
777.205	19780.3
777.539	19595.67
777.874	19699.62
778.209	19479.74
778.543	19455.11
778.878	19333.98
779.212	19377.15
779.547	19238.39
779.881	19300.31
780.215	19116.59
780.55	19141.67
780.884	18989.59
781.218	19049.47
781.552	19037.49
781.886	18810.16
782.22	18799.99
782.554	18738.52
782.888	18552.08
783.222	18521.35
783.556	18471.63
783.889	18378.08
784.223	18360.68
784.557	18201.36
784.89	18245.42
785.224	18157.29
785.557	18093.56
785.891	18004.53
786.224	18040.23
786.558	18001.81
786.891	17779.22
787.224	17700.58
787.557	17785.55
787.891	17687.25
788.224	17659
788.557	17579.9
788.89	17522.51
789.223	17478.89
789.556	17315.28
789.888	17191.67
790.221	17170.65
790.554	17121.61
790.887	17225.56
791.219	16968.17
791.552	16932.24
791.884	16914.84
792.217	16863.99
792.549	16830.32
792.882	16651.57
793.214	16598.91
793.546	16626.94
793.879	16571.34
794.211	16527.73
794.543	16493.83
794.875	16447.28
795.207	16450.9
795.539	16334.97
795.871	16291.58
796.203	16123.22
796.535	16048.19
796.867	16051.36
797.198	16009.1
797.53	15984.24
797.862	15918.03
798.193	16020.4
798.525	15817.01
798.856	15825.6
799.188	15801.87
799.519	15734.08
799.85	15536.12
800.182	15586.74
800.513	15564.59
800.844	15430.58
801.175	15547.87
801.506	15480.98
801.837	15405.05
802.168	15330.02
802.499	15329.34
802.83	15192.17
803.161	15199.85
803.491	15109.24
803.822	15068.78
804.153	15086.41
804.483	14851.39
804.814	14877.15
805.145	14914.89
805.475	14882.35
805.805	14803.25
806.136	14798.96
806.466	14686.87
806.796	14700.43
807.126	14586.54
807.457	14502.7
807.787	14553.77
808.117	14490.27
808.447	14447.11
808.777	14484.62
809.107	14394.9
809.436	14368.92
809.766	14343.83
810.096	14292.08
810.426	14257.73
810.755	14281.23
811.085	14177.28
811.414	14264.51
811.744	14088.02
812.073	14061.13
812.403	14019.32
812.732	13899.1
813.061	13920.34
813.39	13895.03
813.719	13729.16
814.049	13898.19
814.378	13848.25
814.707	13777.52
815.036	13729.16
815.365	13652.55
815.693	13589.28
816.022	13625.88
816.351	13554.47
816.68	13556.28
817.008	13556.51
817.337	13396.96
817.665	13357.42
817.994	13408.72
818.322	13351.54
818.651	13304.99
818.979	13350.41
819.307	13308.15
819.636	13307.02
819.964	13194.71
820.292	13221.15
820.62	13180.25
820.948	13093.47
821.276	13181.6
821.604	13176.4
821.932	13109.74
822.259	13152.22
822.587	13044.66
822.915	13087.82
823.243	13133.92
823.57	13090.31
823.898	13052.34
824.225	13044.43
824.553	13070.19
824.88	13051.44
825.207	13096.63
825.535	13015.51
825.862	13048.72
826.189	13067.71
826.516	13084.88
826.843	13011.44
827.17	13072.45
827.497	13102.28
827.824	13006.47
828.151	13022.06
828.478	13041.27
828.805	13119.46
829.131	13062.74
829.458	12966.92
829.785	12969.86
830.111	12984.32
830.438	13095.5
830.764	13065.45
831.09	12989.74
831.417	12987.71
831.743	13028.61
832.069	13019.8
832.395	12908.84
832.722	12966.47
833.048	12933.02
833.374	13002.62
833.7	12911.55
834.026	12920.59
834.351	12949.07
834.677	12908.84
835.003	12970.99
835.329	12954.49
835.654	12875.62
835.98	12774.83
836.306	12808.28
836.631	12757.88
836.956	12722.41
837.282	12756.53
837.607	12767.83
837.932	12698.23
838.258	12689.86
838.583	12717.66
838.908	12595.63
839.233	12688.28
839.558	12643.09
839.883	12550.88
840.208	12526.7
840.533	12483.99
840.858	12529.64
841.182	12483.99
841.507	12496.65
841.832	12397.44
842.156	12414.39
842.481	12358.57
842.805	12381.4
843.13	12300.72
843.454	12350.21
843.778	12184.79
844.103	12261.85
844.427	12195.19
844.751	12178.69
845.075	12166.26
845.399	12155.87
845.723	12044.01
846.047	12072.03
846.371	11922.2
846.695	12001.97
847.019	11896.21
847.343	11850.79
847.666	11751.13
847.99	11678.82
848.313	11649.67
848.637	11627.75
848.96	11679.95
849.284	11595.66
849.607	11543.45
849.931	11460.29
850.254	11400.63
850.577	11390.24
850.9	11250.81
851.223	11192.5
851.546	11215.1
851.869	11152.05
852.192	11143.01
852.515	11089.45
852.838	11063.24
853.161	11034.54
853.483	11030.7
853.806	10926.75
854.129	10970.14
854.451	10913.64
854.774	10826.86
855.096	10799.74
855.419	10727.88
855.741	10764.49
856.063	10733.53
856.385	10677.04
856.708	10620.54
857.03	10659.63
857.352	10587.55
857.674	10558.39
857.996	10493.09
858.318	10413.09
858.64	10467.78
858.961	10468.23
859.283	10355.24
859.605	10334.22
859.926	10393.65
860.248	10277.72
860.57	10283.15
860.891	10279.98
861.212	10242.7
861.534	10177.84
861.855	10125.86
862.176	10159.31
862.498	10208.57
862.819	10123.6
863.14	10117.95
863.461	10064.17
863.782	9973.33
864.103	9970.61
864.424	10021.91
864.745	9978.75
865.065	10002.7
865.386	9884.06
865.707	9895.59
866.027	9953.66
866.348	9870.96
866.668	9853.55
866.989	9821.24
867.309	9758.19
867.63	9820.34
867.95	9796.61
868.27	9765.87
868.59	9794.12
868.91	9757.51
869.23	9757.29
869.55	9638.64
869.87	9719.09
870.19	9716.16
870.51	9731.52
870.83	9684.97
871.15	9603.84
871.469	9674.12
871.789	9654.92
872.109	9621.02
872.428	9625.99
872.748	9663.95
873.067	9560.68
873.386	9573.11
873.706	9510.29
874.025	9468.25
874.344	9499.21
874.663	9457.63
874.982	9494.24
875.301	9430.29
875.62	9348.03
875.939	9348.26
876.258	9364.3
876.577	9313.23
876.896	9345.32
877.214	9249.05
877.533	9293.12
877.852	9268.71
878.17	9340.57
878.489	9261.71
878.807	9197.75
879.125	9279.33
879.444	9243.85
879.762	9233.23
880.08	9220.35
880.398	9164.99
880.716	9202.95
881.034	9098.77
881.352	9118.21
881.67	9066.23
881.988	9139.9
882.306	9076.17
882.624	9014.25
882.941	9064.65
883.259	8979.23
883.577	8996.85
883.894	8994.82
884.212	8985.55
884.529	8933.8
884.846	8940.13
885.164	8946.91
885.481	8825.78
885.798	8917.76
886.115	8772.45
886.432	8790.53
886.75	8838.44
887.067	8752.11
887.383	8720.48
887.7	8724.77
888.017	8746.92
888.334	8690.65
888.651	8708.73
888.967	8695.84
889.284	8608.62
889.6	8647.94
889.917	8537.43
890.233	8508.05
890.55	8513.02
890.866	8522.97
891.182	8465.79
891.498	8400.94
891.815	8405.23
892.131	8367.94
892.447	8335.18
892.763	8287.95
893.079	8277.32
893.395	8285.91
893.71	8234.61
894.026	8286.82
894.342	8258.79
894.657	8144.22
894.973	8157.33
895.289	8109.19
895.604	8119.36
895.92	8059.03
896.235	8017.67
896.55	7994.17
896.865	8015.86
897.181	7997.78
897.496	7984.68
897.811	7909.88
898.126	7926.83
898.441	7892.7
898.756	7823.33
899.071	7867.62
899.386	7825.59
899.7	7666.49
900.015	7665.14
900.33	7622.43
900.644	7668.53
900.959	7706.49
901.273	7617
901.588	7574.07
901.902	7633.05
902.216	7568.19
902.531	7516.67
902.845	7466.72
903.159	7408.42
903.473	7466.05
903.787	7347.41
904.101	7355.77
904.415	7346.28
904.729	7341.53
905.042	7324.13
905.356	7273.74
905.67	7260.18
905.984	7209.78
906.297	7193.74
906.611	7185.38
906.924	7181.31
907.237	7121.87
907.551	7110.12
907.864	7007.98
908.177	7018.15
908.491	7056.11
908.804	7003.01
909.117	6944.93
909.43	6926.4
909.743	6983.35
910.056	6865.16
910.368	6850.92
910.681	6819.28
910.994	6777.48
911.307	6786.74
911.619	6711.72
911.932	6724.82
912.244	6649.12
912.557	6682.79
912.869	6619.06
913.181	6573.87
913.494	6608.44
913.806	6514.21
914.118	6535.45
914.43	6491.38
914.742	6501.78
915.054	6465.62
915.366	6355.79
915.678	6370.03
915.99	6331.61
916.302	6285.96
916.613	6298.85
916.925	6281.67
917.236	6232.18
917.548	6238.06
917.859	6184.27
918.171	6151.73
918.482	6084.39
918.794	6131.62
919.105	6136.14
919.416	6106.99
919.727	6000.32
920.038	6000.1
920.349	5962.13
920.66	5959.65
920.971	5913.09
921.282	5926.2
921.593	5865.86
921.903	5858.63
922.214	5815.92
922.525	5817.95
922.835	5770.5
923.146	5746.09
923.456	5767.33
923.767	5738.86
924.077	5688.01
924.387	5742.02
924.697	5623.16
925.008	5628.81
925.318	5563.72
925.628	5609.6
925.938	5579.77
926.248	5581.8
926.558	5493.9
926.867	5506.78
927.177	5436.95
927.487	5430.85
927.796	5422.94
928.106	5408.93
928.416	5370.06
928.725	5389.94
929.034	5368.02
929.344	5319.66
929.653	5303.84
929.962	5316.27
930.271	5245.54
930.581	5243.73
930.89	5210.96
931.199	5174.58
931.508	5178.65
931.817	5168.25
932.125	5157.18
932.434	5111.31
932.743	5046.45
933.051	5043.06
933.36	5045.32
933.669	5031.53
933.977	4951.08
934.286	4966.9
934.594	4924.87
934.902	4940.46
935.21	4871.09
935.519	4845.55
935.827	4800.58
936.135	4831.77
936.443	4766.23
936.751	4821.82
937.059	4756.06
937.367	4799.45
937.674	4740.24
937.982	4765.55
938.29	4711.77
938.597	4717.42
938.905	4646.46
939.213	4674.71
939.52	4633.8
939.827	4614.37
940.135	4572.11
940.442	4557.65
940.749	4542.96
941.056	4590.42
941.363	4486.69
941.67	4443.53
941.977	4451.44
942.284	4486.92
942.591	4391.55
942.898	4416.18
943.205	4406.47
943.511	4420.7
943.818	4347.26
944.125	4294.83
944.431	4305.68
944.738	4325.79
945.044	4245.34
945.35	4249.18
945.657	4194.49
945.963	4190.2
946.269	4215.06
946.575	4191.1
946.881	4177.09
947.187	4147.04
947.493	4170.31
947.799	4093.25
948.105	4088.51
948.41	4069.53
948.716	4062.97
949.022	4045.35
949.327	4087.6
949.633	3976.42
949.938	3958.34
950.244	4007.83
950.549	3951.34
950.854	3961.96
951.16	3907.5
951.465	3924.22
951.77	3874.95
952.075	3865.24
952.38	3878.57
952.685	3837.22
952.99	3851
953.294	3816.2
953.599	3793.37
953.904	3797.67
954.209	3745.47
954.513	3760.16
954.818	3752.02
955.122	3717.9
955.426	3670.89
955.731	3667.05
956.035	3659.59
956.339	3670.67
956.643	3655.75
956.948	3601.52
957.252	3592.02
957.556	3577.34
957.86	3555.64
958.163	3519.03
958.467	3540.05
958.771	3532.36
959.075	3526.26
959.378	3517
959.682	3512.93
959.985	3518.13
960.289	3483.78
960.592	3448.07
960.896	3418.02
961.199	3412.59
961.502	3392.93
961.805	3378.47
962.108	3395.87
962.411	3329.66
962.714	3349.09
963.017	3300.05
963.32	3298.47
963.623	3291.02
963.926	3281.75
964.228	3233.16
964.531	3264.8
964.833	3246.72
965.136	3249.89
965.438	3188.87
965.741	3196.33
966.043	3179.15
966.345	3182.77
966.648	3202.2
966.95	3122.88
967.252	3132.38
967.554	3140.51
967.856	3095.31
968.158	3070.23
968.46	3055.09
968.761	3072.04
969.063	3052.6
969.365	3008.31
969.666	3079.27
969.968	2987.07
970.269	2958.82
970.571	2991.81
970.872	2961.08
971.174	2950.01
971.475	2959.72
971.776	2958.59
972.077	2909.78
972.378	2874.3
972.679	2939.84
972.98	2905.04
973.281	2872.72
973.582	2856.68
973.883	2902.78
974.183	2849.9
974.484	2809.9
974.785	2804.7
975.085	2817.58
975.386	2796.56
975.686	2803.57
975.986	2762.22
976.287	2733.52
976.587	2730.35
976.887	2748.66
977.187	2738.26
977.487	2718.83
977.787	2668.66
978.087	2691.48
978.387	2671.82
978.687	2686.06
978.987	2634.99
979.286	2623.46
979.586	2607.64
979.885	2603.12
980.185	2620.52
980.484	2565.38
980.784	2580.07
981.083	2552.5
981.382	2537.81
981.682	2547.08
981.981	2528.55
982.28	2540.75
982.579	2523.13
982.878	2530.81
983.177	2468.66
983.475	2496.23
983.774	2439.96
984.073	2467.99
984.372	2406.29
984.67	2458.04
984.969	2436.57
985.267	2393.41
985.566	2385.5
985.864	2368.78
986.162	2384.37
986.461	2360.87
986.759	2379.4
987.057	2356.8
987.355	2347.09
987.653	2309.8
987.951	2290.14
988.249	2302.79
988.547	2299.63
988.844	2294.43
989.142	2273.87
989.44	2281.1
989.737	2273.19
990.035	2250.59
990.332	2227.77
990.63	2247.88
990.927	2221.44
991.224	2242.68
991.521	2173.3
991.819	2160.2
992.116	2167.88
992.413	2194.32
992.71	2159.07
993.006	2161.55
993.303	2152.06
993.6	2152.29
993.897	2118.62
994.193	2112.06
994.49	2123.59
994.787	2081.78
995.083	2078.84
995.379	2080.65
995.676	2044.27
995.972	2054.66
996.268	2032.52
996.565	2056.25
996.861	2011.73
997.157	2031.61
997.453	1992.07
997.749	2000.88
998.044	1991.39
998.34	1966.3
998.636	1965.85
998.932	1970.37
999.227	1917.04
999.523	1954.78
999.818	1949.13
1000.114	1941.22
1000.409	1864.39
1000.704	1890.37
1001	1875.46
1001.295	1851.96
1001.59	1886.76
1001.885	1861.67
1002.18	1835.91
1002.475	1819.87
1002.77	1813.99
1003.065	1813.09
1003.359	1807.89
1003.654	1776.25
1003.949	1805.63
1004.243	1790.26
1004.538	1769.47
1004.832	1771.73
1005.127	1759.76
1005.421	1757.5
1005.715	1743.26
1006.009	1736.71
1006.304	1691.74
1006.598	1692.87
1006.892	1675.46
1007.186	1679.08
1007.48	1678.85
1007.773	1657.16
1008.067	1637.95
1008.361	1658.06
1008.655	1654
1008.948	1625.75
1009.242	1631.4
1009.535	1628.69
1009.829	1605.64
1010.122	1609.25
1010.415	1622.81
1010.708	1572.42
1011.001	1572.87
1011.295	1565.64
1011.588	1564.51
1011.881	1541.46
1012.173	1524.51
1012.466	1536.71
1012.759	1505.75
1013.052	1504.4
1013.344	1522.02
1013.637	1504.62
1013.93	1476.6
1014.222	1444.28
1014.514	1459.88
1014.807	1473.44
1015.099	1448.58
1015.391	1449.48
1015.683	1463.49
1015.976	1422.36
1016.268	1438.41
1016.56	1404.29
1016.851	1421.91
1017.143	1366.09
1017.435	1393.66
1017.727	1358.41
1018.018	1401.35
1018.31	1371.97
1018.602	1359.09
1018.893	1359.31
1019.185	1343.27
1019.476	1337.62
1019.767	1332.65
1020.058	1337.62
1020.35	1326.32
1020.641	1311.18
1020.932	1261.92
1021.223	1288.58
1021.514	1288.81
1021.804	1267.34
1022.095	1251.07
1022.386	1251.52
1022.677	1254.46
1022.967	1236.61
1023.258	1245.65
1023.548	1205.42
1023.839	1205.65
1024.129	1192.09
1024.419	1198.19
1024.709	1179.21
1025	1164.07
1025.29	1168.36
1025.58	1153.22
1025.87	1147.79
1026.16	1137.17
1026.449	1155.48
1026.739	1144.86
1027.029	1125.2
1027.319	1142.37
1027.608	1123.84
1027.898	1126.1
1028.187	1106.44
1028.477	1106.44
1028.766	1099.43
1029.055	1059.21
1029.344	1081.58
1029.634	1082.94
1029.923	1039.77
1030.212	1073.67
1030.501	1059.21
1030.79	1053.56
1031.078	1032.09
1031.367	1023.73
1031.656	1012.43
1031.945	1023.5
1032.233	1014.69
1032.522	1030.96
1032.81	993.9
1033.099	987.8
1033.387	978.31
1033.675	971.3
1033.963	988.7
1034.251	965.88
1034.54	958.87
1034.828	940.79
1035.116	944.64
1035.403	917.74
1035.691	932.89
1035.979	920.46
1036.267	929.27
1036.554	930.85
1036.842	927.69
1037.129	910.51
1037.417	906.67
1037.704	912.77
1037.992	898.99
1038.279	899.44
1038.566	878.2
1038.853	878.2
1039.14	878.2
