Data from hue_290_FLMS001491_00071.txt Node
Date: Tue Feb 07 15:53:12 GMT 2017
User: dcchb
Spectrometer: FLMS00149
Trigger mode: 0
Integration Time (sec): 2.000000E-2
Scans to average: 10
Electric dark correction enabled: true
Nonlinearity correction enabled: false
Boxcar width: 0
XAxis mode: Wavelengths
Number of Pixels in Spectrum: 2048
>>>>>Begin Spectral Data<<<<<
341.393	-8.73
341.776	-8.73
342.16	-8.73
342.543	-49.86
342.927	-61.61
343.31	-88.05
343.693	-64.77
344.077	-75.17
344.46	-52.34
344.843	-56.86
345.226	-44.66
345.61	-21.16
345.993	-35.62
346.376	1.89
346.759	12.74
347.142	18.62
347.525	49.57
347.908	58.84
348.291	77.6
348.674	107.65
349.057	111.72
349.44	139.97
349.823	131.61
350.206	171.61
350.588	183.58
350.971	214.99
351.354	217.71
351.737	227.2
352.119	238.5
352.502	249.34
352.884	251.15
353.267	278.04
353.65	275.78
354.032	294.09
354.414	288.21
354.797	303.13
355.179	308.55
355.562	326.63
355.944	333.64
356.326	332.96
356.709	331.83
357.091	335.44
357.473	320.75
357.855	330.25
358.238	319.85
358.62	324.14
359.002	342.67
359.384	342.67
359.766	362.79
360.148	317.82
360.53	323.47
360.912	337.93
361.294	316.69
361.676	329.12
362.057	319.62
362.439	324.37
362.821	336.35
363.203	324.6
363.584	335.22
363.966	345.61
364.348	318.72
364.729	317.14
365.111	288.44
365.493	297.7
365.874	322.11
366.256	318.72
366.637	290.25
367.019	326.4
367.4	310.13
367.781	306.07
368.163	318.72
368.544	296.35
368.925	299.29
369.306	337.48
369.688	291.6
370.069	318.72
370.45	312.39
370.831	322.56
371.212	311.26
371.593	299.51
371.974	320.75
372.355	311.94
372.736	307.65
373.117	313.97
373.498	303.35
373.879	332.73
374.26	332.05
374.641	313.07
375.021	273.98
375.402	320.53
375.783	324.37
376.163	323.92
376.544	305.39
376.925	329.12
377.305	330.7
377.686	334.99
378.066	320.53
378.447	341.09
378.827	353.52
379.208	320.53
379.588	332.73
379.968	334.54
380.349	326.18
380.729	336.35
381.109	332.51
381.489	327.53
381.87	332.96
382.25	339.96
382.63	323.47
383.01	343.58
383.39	333.86
383.77	330.47
384.15	322.56
384.53	329.57
384.91	342.22
385.29	357.14
385.67	347.42
386.049	337.7
386.429	360.53
386.809	346.97
387.189	363.24
387.568	338.83
387.948	335.44
388.328	355.56
388.707	346.29
389.087	368.66
389.466	367.98
389.846	362.79
390.225	371.6
390.605	360.3
390.984	364.14
391.363	376.12
391.743	364.82
392.122	390.13
392.501	370.24
392.881	386.06
393.26	382.67
393.639	381.54
394.018	378.83
394.397	382.22
394.776	368.89
395.155	392.16
395.534	385.61
395.913	389.91
396.292	396.91
396.671	368.66
397.05	399.62
397.429	400.07
397.808	414.54
398.186	414.54
398.565	393.75
398.944	410.24
399.323	402.56
399.701	428.32
400.08	393.97
400.458	430.81
400.837	405.72
401.215	418.38
401.594	406.85
401.972	419.73
402.351	446.85
402.729	412.05
403.107	403.92
403.486	425.38
403.864	425.84
404.242	433.52
404.62	431.26
404.999	448.89
405.377	455.21
405.755	446.4
406.133	455.21
406.511	464.93
406.889	465.38
407.267	451.15
407.645	461.54
408.023	474.2
408.401	493.41
408.779	473.74
409.156	505.16
409.534	507.87
409.912	503.35
410.29	517.81
410.667	527.75
411.045	523.91
411.422	536.79
411.8	523.91
412.178	553.74
412.555	556.91
412.933	565.27
413.31	594.65
413.687	558.04
414.065	570.92
414.442	605.49
414.819	589.45
415.197	602.78
415.574	633.97
415.951	619.28
416.328	649.11
416.705	630.12
417.082	640.75
417.46	644.59
417.837	648.88
418.214	663.12
418.591	653.85
418.967	678.26
419.344	674.87
419.721	679.16
420.098	678.94
420.475	719.39
420.852	727.75
421.228	725.49
421.605	759.39
421.982	748.09
422.358	763.91
422.735	754.19
423.111	747.64
423.488	780.63
423.864	804.81
424.241	785.83
424.617	780.63
424.994	807.75
425.37	829.44
425.746	824.24
426.123	807.75
426.499	824.47
426.875	836.67
427.251	878.93
427.627	878.03
428.003	870.34
428.379	904.02
428.756	916.22
429.132	915.31
429.507	924.13
429.883	944.69
430.259	946.27
430.635	961.19
431.011	938.37
431.387	969.78
431.763	986.95
432.138	990.12
432.514	997.57
432.89	1021.75
433.265	1030.57
433.641	1068.53
434.016	1055.42
434.392	1071.02
434.767	1102.65
435.143	1110.11
435.518	1118.7
435.894	1137.68
436.269	1143.56
436.644	1143.11
437.02	1173.39
437.395	1181.97
437.77	1200.51
438.145	1220.17
438.52	1258.36
438.895	1229.66
439.271	1234.18
439.646	1225.14
440.021	1254.06
440.395	1258.36
440.77	1286.38
441.145	1279.83
441.52	1310.78
441.895	1318.24
442.27	1329.77
442.645	1338.35
443.019	1319.82
443.394	1353.95
443.769	1345.13
444.143	1337.9
444.518	1385.59
444.892	1359.37
445.267	1378.81
445.641	1395.53
446.016	1409.54
446.39	1393.04
446.764	1412.25
447.139	1404.34
447.513	1433.49
447.887	1413.38
448.262	1437.11
448.636	1431.01
449.01	1459.93
449.384	1430.33
449.758	1465.13
450.132	1449.54
450.506	1491.12
450.88	1482.31
451.254	1480.27
451.628	1481.18
452.002	1507.16
452.376	1509.88
452.75	1531.12
453.123	1533.6
453.497	1534.06
453.871	1559.59
454.244	1618.8
454.618	1593.72
454.992	1592.59
455.365	1613.6
455.739	1644.79
456.112	1669.65
456.486	1630.32
456.859	1670.1
457.232	1696.09
457.606	1679.36
457.979	1672.81
458.352	1704.67
458.725	1725.24
459.099	1746.71
459.472	1775.63
459.845	1772.02
460.218	1791
460.591	1811.56
460.964	1795.74
461.337	1826.93
461.71	1874.84
462.083	1871.9
462.456	1849.08
462.829	1890.43
463.201	1913.48
463.574	1919.13
463.947	1955.51
464.32	1928.62
464.692	1998.45
465.065	2005.23
465.438	2032.57
465.81	2010.43
466.183	2028.28
466.555	2087.49
466.928	2048.39
467.3	2081.39
467.672	2131.33
468.045	2173.59
468.417	2138.11
468.789	2180.82
469.161	2181.27
469.534	2226.01
469.906	2266.01
470.278	2219.69
470.65	2283.64
471.022	2317.31
471.394	2348.72
471.766	2355.5
472.138	2352.34
472.51	2405.45
472.882	2420.36
473.253	2441.83
473.625	2466.69
473.997	2531.54
474.369	2521.37
474.74	2546.01
475.112	2558.89
475.484	2619.68
475.855	2620.35
476.227	2651.09
476.598	2722.73
476.97	2723.63
477.341	2789.39
477.713	2848.37
478.084	2797.3
478.455	2865.77
478.827	2856.51
479.198	3002.49
479.569	2964.98
479.94	3006.79
480.311	3046.33
480.682	3110.51
481.053	3148.93
481.424	3205.2
481.795	3190.51
482.166	3205.65
482.537	3255.37
482.908	3289.04
483.279	3270.06
483.65	3326.55
484.021	3405.19
484.391	3435.7
484.762	3474.57
485.133	3472.99
485.503	3536.94
485.874	3570.84
486.244	3564.96
486.615	3656.71
486.985	3713.21
487.356	3744.39
487.726	3772.64
488.097	3841.34
488.467	3795.01
488.837	3898.51
489.207	3910.04
489.578	3897.38
489.948	3968.57
490.318	4007.21
490.688	4022.8
491.058	4077.94
491.428	4146.42
491.798	4150.94
492.168	4237.04
492.538	4233.65
492.908	4249.92
493.278	4244.72
493.648	4289.92
494.017	4372.17
494.387	4346.64
494.757	4361.33
495.126	4444.04
495.496	4403.36
495.866	4426.64
496.235	4487.2
496.605	4500.08
496.974	4530.14
497.344	4548.44
497.713	4591.15
498.082	4601.77
498.452	4651.94
498.821	4652.17
499.19	4656.46
499.559	4689.9
499.928	4720.86
500.298	4741.43
500.667	4806.06
501.036	4771.26
501.405	4795.66
501.774	4775.1
502.143	4803.57
502.512	4835.66
502.88	4895.55
503.249	4826.4
503.618	4891.26
503.987	4912.95
504.356	4948.2
504.724	4936.68
505.093	4955.66
505.462	4993.85
505.83	5015.09
506.199	5071.14
506.567	5085.37
506.936	5055.09
507.304	5098.93
507.672	5143.23
508.041	5140.06
508.409	5140.97
508.777	5195.2
509.145	5198.59
509.514	5252.15
509.882	5246.95
510.25	5228.87
510.618	5195.43
510.986	5260.06
511.354	5313.84
511.722	5297.35
512.09	5350.9
512.458	5326.05
512.826	5386.16
513.193	5436.33
513.561	5447.85
513.929	5446.72
514.297	5485.59
514.664	5440.85
515.032	5460.28
515.4	5535.31
515.767	5510.22
516.135	5497.57
516.502	5519.71
516.869	5558.58
517.237	5539.37
517.604	5545.93
517.972	5599.49
518.339	5641.29
518.706	5644.23
519.073	5669.31
519.44	5665.25
519.808	5690.33
520.175	5711.35
520.542	5728.97
520.909	5767.62
521.276	5762.42
521.643	5803.77
522.009	5815.3
522.376	5802.64
522.743	5875.18
523.11	5894.85
523.477	5971.23
523.843	5944.79
524.21	6024.79
524.577	6012.13
524.943	6026.37
525.31	6072.24
525.676	6079.25
526.043	6093.48
526.409	6066.82
526.776	6189.75
527.142	6201.05
527.508	6177.78
527.874	6201.28
528.241	6249.19
528.607	6270.43
528.973	6316.08
529.339	6301.16
529.705	6392.69
530.071	6418.9
530.437	6439.92
530.803	6450.31
531.169	6483.3
531.535	6456.19
531.901	6466.13
532.267	6542.74
532.632	6536.86
532.998	6535.05
533.364	6537.54
533.73	6589.74
534.095	6653.47
534.461	6663.64
534.826	6654.83
535.192	6696.63
535.557	6700.47
535.923	6713.58
536.288	6767.82
536.653	6822.28
537.019	6740.47
537.384	6783.86
537.749	6793.58
538.114	6869.51
538.479	6903.18
538.845	6879.9
539.21	6880.36
539.575	6904.08
539.94	6912.22
540.305	7017.75
540.67	6965.33
541.034	7000.58
541.399	6996.06
541.764	7014.82
542.129	7027.92
542.494	7115.15
542.858	7145.43
543.223	7057.98
543.587	7179.56
543.952	7121.93
544.316	7176.39
544.681	7170.97
545.045	7184.53
545.41	7267.69
545.774	7239.22
546.138	7237.41
546.503	7274.24
546.867	7271.98
547.231	7337.07
547.595	7326.67
547.959	7405.09
548.324	7361.93
548.688	7335.49
549.052	7378.87
549.416	7398.08
549.779	7453.45
550.143	7438.53
550.507	7481.92
550.871	7513.79
551.235	7466.1
551.599	7491.41
551.962	7463.17
552.326	7582.48
552.689	7599.66
553.053	7534.8
553.417	7605.08
553.78	7662.93
554.143	7601.01
554.507	7649.6
554.87	7650.51
555.234	7721.01
555.597	7729.83
555.96	7723.27
556.323	7718.07
556.686	7759.43
557.05	7746.1
557.413	7799.88
557.776	7842.36
558.139	7857.28
558.502	7869.71
558.865	7859.31
559.228	7886.66
559.59	7877.17
559.953	7934.57
560.316	7975.47
560.679	7971.4
561.041	8031.51
561.404	8065.64
561.767	8121.23
562.129	8076.71
562.492	8076.71
562.854	8055.47
563.217	8080.32
563.579	8179.76
563.941	8198.97
564.304	8185.18
564.666	8236.7
565.028	8228.12
565.39	8280.77
565.753	8267.44
566.115	8328.68
566.477	8346.53
566.839	8361.45
567.201	8340.43
567.563	8431.05
567.925	8444.61
568.287	8565.74
568.648	8490.71
569.01	8562.57
569.372	8624.04
569.734	8598.28
570.095	8620.2
570.457	8696.81
570.819	8712.17
571.18	8733.19
571.542	8796.01
571.903	8777.71
572.265	8783.36
572.626	8876.01
572.987	8880.3
573.349	8962.56
573.71	8935.22
574.071	8983.35
574.432	9049.79
574.794	9053.18
575.155	9135.44
575.516	9126.85
575.877	9276.9
576.238	9235.1
576.599	9308.54
576.96	9336.56
577.32	9372.27
577.681	9483.9
578.042	9551.92
578.403	9459.95
578.763	9594.63
579.124	9595.99
579.485	9728.64
579.845	9779.04
580.206	9871.69
580.566	9942.2
580.927	9965.25
581.287	10069.88
581.648	10179.03
582.008	10288.4
582.368	10314.16
582.728	10415.4
583.089	10521.39
583.449	10538.56
583.809	10642.29
584.169	10769.52
584.529	10870.53
584.889	11101.04
585.249	11086.35
585.609	11111.43
585.969	11279.79
586.329	11352.33
586.688	11513.23
587.048	11611.53
587.408	11726.33
587.768	11831.86
588.127	12043.38
588.487	12093.78
588.846	12258.97
589.206	12346.43
589.565	12409.93
589.925	12696.02
590.284	12726.53
590.643	12893.08
591.003	13033.41
591.362	13180.76
591.721	13316.12
592.08	13432.27
592.44	13618.71
592.799	13739.16
593.158	13796.11
593.517	13988.64
593.876	14065.25
594.235	14147.06
594.593	14328.97
594.952	14630.89
595.311	14631.56
595.67	14855.51
596.029	15065.9
596.387	15065.68
596.746	15276.75
597.104	15218.22
597.463	15441.49
597.822	15627.47
598.18	15645.1
598.538	15787.92
598.897	16049.83
599.255	15951.08
599.613	16302.71
599.972	16207.57
600.33	16475.81
600.688	16530.5
601.046	16713.09
601.404	16833.99
601.762	16918.51
602.12	17159.86
602.478	17138.84
602.836	17284.15
603.194	17292.06
603.552	17402.79
603.91	17495.67
604.268	17626.74
604.625	17667.19
604.983	17780.18
605.341	17874.42
605.698	18046.39
606.056	18208.87
606.413	18210.68
606.771	18244.12
607.128	18391.69
607.485	18360.51
607.843	18471.69
608.2	18743.32
608.557	18735.19
608.914	18757.56
609.272	18942.41
609.629	19024.67
609.986	19143.99
610.343	19070.32
610.7	19339.46
611.057	19289.97
611.414	19271.22
611.771	19418.11
612.127	19559.8
612.484	19655.39
612.841	19767.7
613.198	19757.08
613.554	19722.73
613.911	19885.21
614.267	19986.68
614.624	20026.68
614.98	20049.73
615.337	20259.44
615.693	20108.03
616.05	20226.22
616.406	20250.17
616.762	20392.32
617.118	20376.05
617.475	20407.23
617.831	20442.26
618.187	20508.7
618.543	20590.73
618.899	20720.67
619.255	20727.22
619.611	20807.9
619.967	20892.42
620.323	20877.05
620.678	20819.88
621.034	20957.73
621.39	20919.08
621.746	20862.59
622.101	21114.78
622.457	21026.42
622.812	20998.18
623.168	21147.1
623.523	21144.16
623.879	21254.67
624.234	21041.79
624.589	21253.99
624.945	21276.81
625.3	21189.13
625.655	21180.54
626.01	21254.22
626.365	21301.9
626.72	21337.15
627.075	21401.56
627.43	21343.7
627.785	21340.77
628.14	21303.48
628.495	21415.11
628.85	21340.54
629.205	21312.29
629.559	21426.41
629.914	21322.01
630.269	21420.09
630.623	21390.48
630.978	21390.71
631.332	21439.07
631.687	21448.56
632.041	21295.12
632.396	21544.15
632.75	21325.4
633.104	21376.02
633.459	21335.12
633.813	21306.42
634.167	21341.44
634.521	21310.71
634.875	21360.65
635.229	21334.67
635.583	21155.91
635.937	21249.47
636.291	21192.07
636.645	21230.26
636.999	21186.87
637.352	21306.87
637.706	21112.07
638.06	21235.23
638.413	21083.37
638.767	21221.9
639.121	21115.24
639.474	21152.07
639.828	21050.38
640.181	21148.46
640.534	21170.6
640.888	21092.19
641.241	20959.53
641.594	21055.58
641.947	21108.23
642.301	21059.19
642.654	21142.35
643.007	20959.76
643.36	21096.48
643.713	21053.32
644.066	21081.56
644.419	20910.27
644.771	20814.9
645.124	20687.68
645.477	20607.45
645.83	20564.74
646.182	20367.91
646.535	20394.8
646.888	20470.51
647.24	20319.78
647.593	20352.54
647.945	20405.42
648.298	20388.48
648.65	20371.98
649.002	20232.1
649.355	20381.47
649.707	20361.58
650.059	20509.38
650.411	20632.08
650.763	20754.79
651.115	20896.26
651.467	20922.25
651.819	20805.41
652.171	20810.61
652.523	20858.75
652.875	20805.87
653.227	20796.15
653.578	20987.1
653.93	20912.98
654.282	20807.22
654.633	20699.2
654.985	20833.44
655.337	20832.08
655.688	20928.57
656.039	20884.28
656.391	20817.84
656.742	20796.83
657.094	20922.92
657.445	20914.11
657.796	20806.77
658.147	20894.9
658.498	20821.01
658.849	20872.08
659.2	20849.93
659.551	20830.95
659.902	20907.56
660.253	20878.63
660.604	20929.93
660.955	20745.08
661.306	20911.85
661.656	20797.5
662.007	20999.76
662.358	20894.22
662.708	20960.66
663.059	20907.78
663.409	20786.88
663.76	20924.73
664.11	20912.53
664.461	21010.15
664.811	20954.11
665.161	20908.69
665.511	20870.27
665.862	20873.43
666.212	21029.81
666.562	20946.43
666.912	20898.07
667.262	20916.82
667.612	20851.97
667.962	20937.84
668.312	20905.07
668.662	21015.58
669.011	21038.18
669.361	20882.47
669.711	20861.46
670.06	20787.56
670.41	20938.52
670.76	20818.07
671.109	20870.5
671.459	20823.04
671.808	20855.13
672.157	20836.83
672.507	20677.28
672.856	20756.15
673.205	20745.3
673.554	20876.37
673.904	20774
674.253	20879.54
674.602	20673.44
674.951	20415.59
675.3	20319.32
675.649	20766.77
675.998	20574.69
676.346	20611.29
676.695	20752.31
677.044	20543.5
677.393	20702.59
677.741	20656.26
678.09	20628.02
678.438	20598.64
678.787	20651.29
679.135	20614.68
679.484	20425.54
679.832	20538.75
680.181	20421.69
680.529	20414.69
680.877	20364.3
681.225	20293.34
681.573	20490.39
681.922	20205.88
682.27	20246.11
682.618	20323.84
682.966	20198.42
683.314	20123.85
683.661	20173.79
684.009	20113.23
684.357	19970.86
684.705	19982.61
685.053	20087.01
685.4	19953.91
685.748	19757.08
686.095	19850.18
686.443	19750.3
686.79	19741.03
687.138	19740.36
687.485	19695.61
687.832	19760.7
688.18	19696.52
688.527	19490.87
688.874	19493.13
689.221	19461.72
689.568	19459.91
689.915	19301.72
690.262	19308.5
690.609	19345.11
690.956	19177.89
691.303	19219.24
691.65	19034.16
691.997	19118.23
692.344	19057.89
692.69	18963.43
693.037	18882.3
693.383	18800.27
693.73	18844.56
694.077	18703.77
694.423	18615.64
694.769	18526.83
695.116	18525.47
695.462	18513.04
695.808	18465.81
696.155	18519.15
696.501	18288.19
696.847	18381.07
697.193	18243.22
697.539	18211.13
697.885	18112.83
698.231	18049.55
698.577	18123.68
698.923	17959.84
699.269	18041.87
699.614	17833.06
699.96	17803.68
700.306	17844.59
700.651	17671.26
700.997	17587.19
701.342	17546.06
701.688	17522.56
702.033	17483.47
702.379	17447.54
702.724	17349.23
703.069	17345.84
703.415	17194.43
703.76	17129.35
704.105	17111.05
704.45	17031.95
704.795	17083.48
705.14	16909.92
705.485	16872.86
705.83	16839.42
706.175	16842.13
706.52	16779.76
706.865	16740.21
707.209	16647.56
707.554	16721
707.899	16632.87
708.243	16496.15
708.588	16615.92
708.932	16362.59
709.277	16470.84
709.621	16455.25
709.966	16341.12
710.31	16328.69
710.654	16119.43
710.998	16196.95
711.342	16157.85
711.687	16133.9
712.031	16056.16
712.375	16017.74
712.719	16031.08
713.063	15955.15
713.407	16059.1
713.75	15897.29
714.094	15939.78
714.438	15859.1
714.782	15901.59
715.125	15832.21
715.469	15805.77
715.812	15707.92
716.156	15753.34
716.499	15611.65
716.843	15705.66
717.186	15539.11
717.53	15628.15
717.873	15653.46
718.216	15561.48
718.559	15475.61
718.902	15405.1
719.246	15473.35
719.589	15413.01
719.932	15364.88
720.275	15301.83
720.617	15370.08
720.96	15267.48
721.303	15329.17
721.646	15355.39
721.989	15286.46
722.331	15291.43
722.674	15210.76
723.016	15249.63
723.359	15250.31
723.701	15177.99
724.044	15061.84
724.386	15053.47
724.729	15098.22
725.071	15178.89
725.413	15102.06
725.755	15077.65
726.097	14923.99
726.439	14963.31
726.782	14947.71
727.124	15108.84
727.465	14942.74
727.807	14919.92
728.149	14898.9
728.491	14921.73
728.833	14936.19
729.175	14941.16
729.516	14827.49
729.858	14846.25
730.199	14878.56
730.541	14824.1
730.882	14832.92
731.224	14860.26
731.565	14756.76
731.906	14738.23
732.248	14859.36
732.589	14678.79
732.93	14711.56
733.271	14641.96
733.612	14742.52
733.953	14750.21
734.294	14719.25
734.635	14789.53
734.976	14831.33
735.317	14677.21
735.658	14793.82
735.999	14721.96
736.339	14759.24
736.68	14766.25
737.021	14704.78
737.361	14704.1
737.702	14805.57
738.042	14769.87
738.383	14717.44
738.723	14841.73
739.063	14664.78
739.404	14753.6
739.744	14796.31
740.084	14677.21
740.424	14805.8
740.764	14766.93
741.104	14868.62
741.444	14754.05
741.784	14728.51
742.124	14803.09
742.464	14834.95
742.804	14846.93
743.143	14869.3
743.483	14865.46
743.823	14870.2
744.162	14822.97
744.502	14968.96
744.841	14794.05
745.181	15077.43
745.52	15006.47
745.86	15056.41
746.199	15011.44
746.538	15202.4
746.877	15172.79
747.216	15258.89
747.556	15207.37
747.895	15324.88
748.234	15263.19
748.573	15366.46
748.911	15414.82
749.25	15475.16
749.589	15443.52
749.928	15636.06
750.267	15652.78
750.605	15760.12
750.944	15735.26
751.283	15796.28
751.621	15893.45
751.96	15927.58
752.298	16026.78
752.636	16097.51
752.975	16137.74
753.313	16184.52
753.651	16415.7
753.989	16416.38
754.327	16454.79
754.666	16511.29
755.004	16724.39
755.342	16770.27
755.679	16891.39
756.017	16927.78
756.355	17055.68
756.693	17112.63
757.031	17320.31
757.368	17278.73
757.706	17402.79
758.044	17572.05
758.381	17703.12
758.719	17773.18
759.056	17884.13
759.394	17953.96
759.731	17966.84
760.068	18038.93
760.405	18153.51
760.743	18268.3
761.08	18431.92
761.417	18462.88
761.754	18595.98
762.091	18627.39
762.428	18690.67
762.765	18745.13
763.102	18887.05
763.438	18972.92
763.775	18967.72
764.112	19066.7
764.449	19275.96
764.785	19228.05
765.122	19211.56
765.458	19235.06
765.795	19405.45
766.131	19475.73
766.467	19529.97
766.804	19533.81
767.14	19525.45
767.476	19665.1
767.812	19661.04
768.148	19733.58
768.485	19808.38
768.821	19703.52
769.157	19764.31
769.492	19887.02
769.828	19927.92
770.164	19738.55
770.5	19917.75
770.836	19912.78
771.171	19901.93
771.507	19928.6
771.842	19786.68
772.178	19937.87
772.513	19860.35
772.849	19858.09
773.184	19739.68
773.519	19944.87
773.855	19854.03
774.19	19837.08
774.525	19822.16
774.86	19883.18
775.195	19893.8
775.53	19791.2
775.865	19761.6
776.2	19583.98
776.535	19595.28
776.87	19663.97
777.205	19553.02
777.539	19506.24
777.874	19647.25
778.209	19423.3
778.543	19512.34
778.878	19366.58
779.212	19414.94
779.547	19299.01
779.881	19508.5
780.215	19372.91
780.55	19374.04
780.884	19270.31
781.218	19146.02
781.552	19212.23
781.886	19107.83
782.22	19005.23
782.554	19002.97
782.888	18859.7
783.222	18937.67
783.556	18843.43
783.889	18751.23
784.223	18705.36
784.557	18701.06
784.89	18751.46
785.224	18605.92
785.557	18496.55
785.891	18503.55
786.224	18426.04
786.558	18441.18
786.891	18320.28
787.224	18255.65
787.557	18290
787.891	18148.99
788.224	18198.7
788.557	18144.92
788.89	18226.27
789.223	18000.06
789.556	17919.16
789.888	17926.17
790.221	17950.12
790.554	17812.05
790.887	17805.49
791.219	17753.97
791.552	17683.91
791.884	17652.73
792.217	17651.15
792.549	17571.83
792.882	17448.67
793.214	17302.68
793.546	17465.61
793.879	17383.13
794.211	17214.1
794.543	17325.05
794.875	17185.62
795.207	17270.37
795.539	17132.52
795.871	17169.12
796.203	16979.3
796.535	16882.35
796.867	16950.6
797.198	16919.19
797.53	16868.34
797.862	16717.61
798.193	16832.86
798.525	16624.05
798.856	16716.03
799.188	16502.02
799.519	16505.41
799.85	16406.21
800.182	16425.87
800.513	16373.67
800.844	16243.95
801.175	16300.9
801.506	16323.05
801.837	16272.88
802.168	16174.35
802.499	16166.44
802.83	16024.3
803.161	16109.49
803.491	16017.97
803.822	15909.72
804.153	15897.07
804.483	15751.31
804.814	15735.04
805.145	15689.62
805.475	15720.58
805.805	15583.86
806.136	15676.06
806.466	15575.95
806.796	15642.61
807.126	15493.01
807.457	15413.01
807.787	15415.72
808.117	15305.22
808.447	15275.16
808.777	15322.85
809.107	15260.02
809.436	15229.29
809.766	15247.14
810.096	15115.85
810.426	15187.93
810.755	15078.56
811.085	15032.46
811.414	15045.79
811.744	14966.7
812.073	14925.34
812.403	14927.83
812.732	14783.2
813.061	14773.03
813.39	14671.11
813.719	14690.55
814.049	14820.71
814.378	14698.68
814.707	14589.08
815.036	14582.98
815.365	14535.3
815.693	14406.71
816.022	14442.19
816.351	14474.05
816.68	14304.79
817.008	14399.25
817.337	14238.58
817.665	14187.73
817.994	14362.42
818.322	14268.18
818.651	14192.71
818.979	14039.94
819.307	14294.62
819.636	14111.58
819.964	14067.74
820.292	14114.74
820.62	14139.15
820.948	14030.22
821.276	14044.91
821.604	14060.05
821.932	14092.82
822.259	14091.24
822.587	14111.8
822.915	14059.38
823.243	14003.33
823.57	14021.41
823.898	13978.93
824.225	13944.35
824.553	13945.25
824.88	13962.88
825.207	14041.3
825.535	14002.43
825.862	14004.01
826.189	13972.6
826.516	13999.26
826.843	14082.43
827.17	14030
827.497	14073.61
827.824	13974.18
828.151	13915.88
828.478	13942.77
828.805	14129.2
829.131	13970.79
829.458	13933.73
829.785	13907.52
830.111	13942.99
830.438	14012.82
830.764	13905.03
831.09	13985.03
831.417	13872.71
831.743	13993.84
832.069	13965.37
832.395	13846.05
832.722	13907.06
833.048	13885.14
833.374	13860.29
833.7	13817.35
834.026	13774.19
834.351	13800.63
834.677	13862.32
835.003	13811.7
835.329	13818.93
835.654	13757.46
835.98	13652.83
836.306	13728.09
836.631	13747.29
836.956	13743.9
837.282	13769.21
837.607	13656
837.932	13601.08
838.258	13641.53
838.583	13642.89
838.908	13554.53
839.233	13571.71
839.558	13593.63
839.883	13382.56
840.208	13449.22
840.533	13408.09
840.858	13388.66
841.182	13406.29
841.507	13477.92
841.832	13340.75
842.156	13433.63
842.481	13239.06
842.805	13293.07
843.13	13188.44
843.454	13162.9
843.778	13209.23
844.103	13172.17
844.427	13090.59
844.751	13179.17
845.075	13067.99
845.399	12995.9
845.723	12916.13
846.047	12900.31
846.371	12817.37
846.695	12846.98
847.019	12665.97
847.343	12677.49
847.666	12685.85
847.99	12550.72
848.313	12679.75
848.637	12540.77
848.96	12477.72
849.284	12388.01
849.607	12343.71
849.931	12289.48
850.254	12281.34
850.577	12175.58
850.9	12048.13
851.223	12077.28
851.546	12055.14
851.869	11897.63
852.192	12028.7
852.515	11870.06
852.838	11857.63
853.161	11967.91
853.483	11804.29
853.806	11714.8
854.129	11755.71
854.451	11691.98
854.774	11716.84
855.096	11644.75
855.419	11542.15
855.741	11607.24
856.063	11500.35
856.385	11496.73
856.708	11427.81
857.03	11375.6
857.352	11366.34
857.674	11395.27
857.996	11275.95
858.318	11232.78
858.64	11295.61
858.961	11202.73
859.283	11177.64
859.605	11146.46
859.926	11103.52
860.248	11102.17
860.57	11092.67
860.891	11065.78
861.212	10977.88
861.534	10962.96
861.855	10895.17
862.176	10926.35
862.498	10947.14
862.819	10874.38
863.14	10843.64
863.461	10857.2
863.782	10811.33
864.103	10822.63
864.424	10770.87
864.745	10726.36
865.065	10743.76
865.386	10672.35
865.707	10713.93
866.027	10661.73
866.348	10611.56
866.668	10681.61
866.989	10667.83
867.309	10506.7
867.63	10611.56
867.95	10548.06
868.27	10496.31
868.59	10590.77
868.91	10495.18
869.23	10471
869.55	10431.67
869.87	10509.41
870.19	10373.82
870.51	10494.95
870.83	10452.69
871.15	10286.82
871.469	10420.38
871.789	10324.11
872.109	10349.19
872.428	10288.85
872.748	10352.81
873.067	10292.7
873.386	10294.05
873.706	10234.84
874.025	10213.15
874.344	10260.83
874.663	10208.4
874.982	10172.25
875.301	10208.4
875.62	10092.7
875.939	10095.41
876.258	10155.07
876.577	10057.45
876.896	10099.71
877.214	10024
877.533	10083.21
877.852	10028.3
878.17	10039.14
878.489	10038.46
878.807	10003.44
879.125	9986.04
879.444	10013.61
879.762	9892.71
880.08	9833.72
880.398	9855.19
880.716	9874.4
881.034	9834.18
881.352	9875.98
881.67	9827.62
881.988	9850.67
882.306	9829.2
882.624	9812.03
882.941	9741.52
883.259	9654.75
883.577	9650.68
883.894	9687.51
884.212	9713.95
884.529	9676.89
884.846	9657.01
885.164	9597.12
885.481	9575.2
885.798	9564.81
886.115	9498.59
886.432	9506.95
886.75	9418.82
887.067	9464.02
887.383	9431.25
887.7	9473.28
888.017	9412.04
888.334	9444.58
888.651	9375.66
888.967	9301.08
889.284	9241.42
889.6	9240.52
889.917	9176.34
890.233	9226.28
890.55	9167.08
890.866	9139.73
891.182	9147.19
891.498	9024.71
891.815	9061.99
892.131	9027.64
892.447	9003.46
892.763	8980.87
893.079	8882.79
893.395	8933.86
893.71	8907.65
894.026	8839.17
894.342	8868.1
894.657	8807.08
894.973	8756.69
895.289	8767.76
895.604	8746.3
895.92	8692.74
896.235	8658.84
896.55	8641.44
896.865	8638.28
897.181	8558.05
897.496	8581.1
897.811	8536.58
898.126	8548.33
898.441	8490.93
898.756	8471.95
899.071	8425.17
899.386	8417.26
899.7	8381.79
900.015	8356.93
900.33	8230.6
900.644	8249.59
900.959	8292.3
901.273	8224.95
901.588	8180.21
901.902	8103.83
902.216	8133.88
902.531	8142.24
902.845	8038.29
903.159	8034.9
903.473	7995.58
903.787	7962.81
904.101	7888.01
904.415	7965.53
904.729	7846.43
905.042	7844.4
905.356	7831.29
905.67	7818.86
905.984	7748.13
906.297	7798.52
906.611	7709.71
906.924	7714.91
907.237	7651.18
907.551	7703.39
907.864	7592.43
908.177	7624.29
908.491	7555.14
908.804	7502.03
909.117	7450.28
909.43	7471.75
909.743	7417.06
910.056	7352.89
910.368	7348.14
910.681	7302.72
910.994	7290.51
911.307	7263.17
911.619	7214.81
911.932	7224.3
912.244	7168.94
912.557	7176.17
912.869	7093.91
913.181	7071.54
913.494	7055.72
913.806	7002.84
914.118	6951.09
914.43	6888.72
914.742	6959.68
915.054	6969.84
915.366	6917.19
915.678	6846.68
915.99	6779.79
916.302	6805.78
916.613	6795.61
916.925	6766.91
917.236	6753.81
917.548	6749.96
917.859	6669.51
918.171	6614.37
918.482	6563.08
918.794	6576.18
919.105	6579.8
919.416	6493.47
919.727	6535.96
920.038	6500.7
920.349	6392.23
920.66	6386.81
920.971	6468.62
921.282	6367.83
921.593	6354.27
921.903	6291.44
922.214	6292.57
922.525	6298.45
922.835	6259.36
923.146	6153.6
923.456	6161.05
923.767	6112.47
924.077	6118.12
924.387	6131.22
924.697	6051.45
925.008	6015.29
925.318	6023.43
925.628	5992.24
925.938	5977.33
926.248	5976.2
926.558	5863.66
926.867	5894.39
927.177	5865.47
927.487	5867.73
927.796	5794.06
928.106	5794.96
928.416	5733.95
928.725	5743.89
929.034	5726.94
929.344	5742.76
929.653	5683.78
929.962	5645.59
930.271	5608.75
930.581	5578.02
930.89	5610.78
931.199	5560.39
931.508	5516.55
931.817	5513.16
932.125	5484.69
932.434	5479.04
932.743	5390.45
933.051	5407.4
933.36	5441.3
933.669	5345.93
933.977	5317.69
934.286	5321.75
934.594	5286.95
934.902	5297.8
935.21	5295.54
935.519	5259.83
935.827	5189.55
936.135	5201.76
936.443	5144.58
936.751	5132.38
937.059	5110.91
937.367	5038.37
937.674	5052.38
937.982	5081.31
938.29	5068.2
938.597	5071.36
938.905	4958.15
939.213	4947.53
939.52	4965.83
939.827	4950.24
940.135	4914.76
940.442	4851.93
940.749	4853.74
941.056	4892.61
941.363	4800.86
941.67	4799.28
941.977	4794.76
942.284	4759.06
942.591	4769.22
942.898	4756.57
943.205	4702.56
943.511	4697.36
943.818	4687.19
944.125	4660.98
944.431	4629.79
944.738	4574.88
945.044	4579.17
945.35	4585.05
945.657	4548.21
945.963	4538.95
946.269	4521.1
946.575	4527.88
946.881	4469.57
947.187	4451.27
947.493	4418.5
947.799	4382.12
948.105	4383.47
948.41	4389.57
948.716	4315.45
949.022	4318.16
949.327	4340.31
949.633	4283.36
949.938	4283.14
950.244	4281.78
950.549	4207.43
950.854	4214.89
951.16	4216.02
951.465	4169.01
951.77	4129.02
952.075	4143.03
952.38	4148
952.685	4160.65
952.99	4019.87
953.294	4042.69
953.599	4070.49
953.904	4041.56
954.209	4005.18
954.513	4013.99
954.818	3974.44
955.122	3980.77
955.426	3937.61
955.731	3937.16
956.035	3886.76
956.339	3932.41
956.643	3901
956.948	3869.81
957.252	3863.26
957.556	3832.07
957.86	3815.58
958.163	3838.85
958.467	3784.62
958.771	3739.2
959.075	3759.53
959.378	3771.96
959.682	3736.94
959.985	3711.4
960.289	3708.01
960.592	3682.93
960.896	3668.46
961.199	3615.58
961.502	3604.51
961.805	3616.49
962.108	3602.02
962.411	3571.52
962.714	3543.27
963.017	3556.6
963.32	3574.91
963.623	3532.2
963.926	3531.52
964.228	3490.16
964.531	3502.14
964.833	3467.34
965.136	3430.28
965.438	3428.47
965.741	3415.14
966.043	3389.6
966.345	3351.64
966.648	3397.51
966.95	3336.95
967.252	3323.39
967.554	3354.8
967.856	3322.94
968.158	3282.71
968.46	3285.2
968.761	3260.34
969.063	3247.68
969.365	3272.99
969.666	3242.03
969.968	3215.37
970.269	3210.4
970.571	3197.74
970.872	3201.81
971.174	3144.41
971.475	3140.12
971.776	3108.25
972.077	3098.99
972.378	3123.17
972.679	3082.26
972.98	3059.21
973.281	3092.21
973.582	3076.61
973.883	3029.16
974.183	3000.68
974.484	3051.53
974.785	2975.15
975.085	2966.56
975.386	2938.31
975.686	2938.31
975.986	2924.53
976.287	2914.81
976.587	2907.13
976.887	2909.39
977.187	2923.17
977.487	2914.13
977.787	2868.03
978.087	2858.31
978.387	2831.42
978.687	2842.95
978.987	2791.42
979.286	2806.34
979.586	2788.94
979.885	2744.42
980.185	2804.53
980.484	2761.59
980.784	2768.83
981.083	2748.49
981.382	2736.74
981.682	2696.96
981.981	2688.83
982.28	2674.36
982.579	2657.42
982.878	2632.11
983.177	2610.41
983.475	2622.39
983.774	2636.85
984.073	2574.48
984.372	2614.71
984.67	2582.16
984.969	2608.15
985.267	2545.1
985.566	2562.05
985.864	2559.11
986.162	2539.68
986.461	2521.83
986.759	2529.96
987.057	2511.21
987.355	2454.03
987.653	2512.34
987.951	2496.52
988.249	2476.18
988.547	2456.29
988.844	2423.75
989.142	2423.52
989.44	2427.14
989.737	2400.02
990.035	2385.56
990.332	2400.93
990.63	2328.61
990.927	2355.5
991.224	2337.42
991.521	2348.5
991.819	2308.5
992.116	2319.12
992.413	2273.92
992.71	2287.26
993.006	2275.05
993.303	2235.96
993.6	2238.9
993.897	2233.47
994.193	2253.36
994.49	2241.38
994.787	2209.07
995.083	2185.11
995.379	2205
995.676	2191.21
995.972	2164.1
996.268	2179.46
996.565	2132.68
996.861	2094.27
997.157	2136.3
997.453	2095.85
997.749	2127.03
998.044	2100.14
998.34	2082.97
998.636	2096.75
998.932	2041.39
999.227	2069.86
999.523	2042.06
999.818	2015.62
1000.114	2010.2
1000.409	2046.36
1000.704	1990.54
1001	2006.36
1001.295	1977.21
1001.59	1951.45
1001.885	1956.64
1002.18	1953.93
1002.475	1938.11
1002.77	1939.02
1003.065	1936.31
1003.359	1912.8
1003.654	1901.05
1003.949	1895.18
1004.243	1882.52
1004.538	1870.54
1004.832	1870.77
1005.127	1843.88
1005.421	1837.55
1005.715	1818.57
1006.009	1801.85
1006.304	1808.17
1006.598	1812.24
1006.892	1769.08
1007.186	1801.17
1007.48	1775.41
1007.773	1743.54
1008.067	1771.34
1008.361	1752.13
1008.655	1733.37
1008.948	1723.43
1009.242	1725.01
1009.535	1706.93
1009.829	1706.48
1010.122	1664.9
1010.415	1673.04
1010.708	1668.06
1011.001	1640.27
1011.295	1635.07
1011.588	1628.06
1011.881	1641.4
1012.173	1605.01
1012.466	1606.14
1012.759	1610.66
1013.052	1616.99
1013.344	1619.93
1013.637	1587.39
1013.93	1569.31
1014.222	1554.85
1014.514	1531.12
1014.807	1525.02
1015.099	1530.44
1015.391	1512.14
1015.683	1533.83
1015.976	1499.71
1016.268	1512.36
1016.56	1463.32
1016.851	1453.83
1017.143	1456.54
1017.435	1459.93
1017.727	1439.82
1018.018	1457.67
1018.31	1437.34
1018.602	1431.91
1018.893	1411.12
1019.185	1394.17
1019.476	1372.25
1019.767	1396.66
1020.058	1368.18
1020.35	1363.66
1020.641	1337.22
1020.932	1360.95
1021.223	1329.54
1021.514	1336.77
1021.804	1293.38
1022.095	1292.71
1022.386	1293.38
1022.677	1290.45
1022.967	1296.55
1023.258	1272.37
1023.548	1285.02
1023.839	1252.03
1024.129	1262.2
1024.419	1248.41
1024.709	1237.79
1025	1259.71
1025.29	1215.19
1025.58	1189.21
1025.87	1198.02
1026.16	1179.04
1026.449	1177.45
1026.739	1208.87
1027.029	1180.17
1027.319	1167.74
1027.608	1124.12
1027.898	1161.86
1028.187	1130.9
1028.477	1161.64
1028.766	1129.32
1029.055	1128.64
1029.344	1111.47
1029.634	1096.55
1029.923	1086.84
1030.212	1101.98
1030.501	1067.63
1030.79	1086.38
1031.078	1082.99
1031.367	1056.78
1031.656	1061.75
1031.945	1033.73
1032.233	1055.88
1032.522	1056.55
1032.81	1029.44
1033.099	1023.11
1033.387	1001.19
1033.675	987.63
1033.963	1011.58
1034.251	982.21
1034.54	982.21
1034.828	1003.67
1035.116	981.53
1035.403	981.98
1035.691	974.3
1035.979	956.44
1036.267	987.18
1036.554	928.2
1036.842	975.65
1037.129	926.84
1037.417	933.62
1037.704	931.81
1037.992	925.26
1038.279	921.87
1038.566	918.7
1038.853	918.7
1039.14	918.7
