Data from hue_320_FLMS001491_31.txt Node
Date: Mon Feb 06 15:47:06 GMT 2017
User: dcchb
Spectrometer: FLMS00149
Trigger mode: 0
Integration Time (sec): 2.000000E-2
Scans to average: 10
Electric dark correction enabled: true
Nonlinearity correction enabled: false
Boxcar width: 0
XAxis mode: Wavelengths
Number of Pixels in Spectrum: 2048
>>>>>Begin Spectral Data<<<<<
341.393	-14.08
341.776	-14.08
342.16	-14.08
342.543	-84.36
342.927	-71.93
343.31	-63.12
343.693	-72.84
344.077	-57.92
344.46	-65.83
344.843	-34.19
345.226	-54.08
345.61	-17.7
345.993	-15.44
346.376	-2.33
346.759	-9.11
347.142	28.4
347.525	39.02
347.908	56.65
348.291	59.36
348.674	92.58
349.057	116.54
349.44	113.15
349.823	147.72
350.206	168.06
350.588	189.75
350.971	200.6
351.354	208.51
351.737	239.7
352.119	238.12
352.502	255.52
352.884	253.26
353.267	267.04
353.65	283.76
354.032	314.5
354.414	296.42
354.797	310.88
355.179	320.15
355.562	340.49
355.944	347.49
356.326	339.81
356.709	349.75
357.091	332.58
357.473	337.55
357.855	349.98
358.238	348.17
358.62	357.21
359.002	335.29
359.384	328.73
359.766	346.13
360.148	354.27
360.53	343.2
360.912	331.45
361.294	349.98
361.676	338.23
362.057	328.51
362.439	323.54
362.821	327.83
363.203	321.05
363.584	340.71
363.966	311.79
364.348	330.09
364.729	313.14
365.111	321.73
365.493	312.92
365.874	311.56
366.256	322.18
366.637	314.05
367.019	308.62
367.4	305.46
367.781	326.93
368.163	315.85
368.544	330.09
368.925	303.42
369.306	309.98
369.688	318.57
370.069	315.63
370.45	332.12
370.831	309.98
371.212	328.73
371.593	314.95
371.974	306.14
372.355	328.51
372.736	305.23
373.117	302.07
373.498	291.22
373.879	292.13
374.26	323.08
374.641	310.2
375.021	307.72
375.402	334.38
375.783	316.08
376.163	304.1
376.544	339.13
376.925	314.5
377.305	321.05
377.686	306.59
378.066	322.18
378.447	330.54
378.827	305.23
379.208	330.09
379.588	310.66
379.968	322.41
380.349	338
380.729	351.56
381.109	342.52
381.489	312.92
381.87	340.26
382.25	335.97
382.63	333.48
383.01	341.39
383.39	339.81
383.77	331.45
384.15	325.57
384.53	354.95
384.91	338.9
385.29	365.12
385.67	329.86
386.049	316.08
386.429	330.99
386.809	342.29
387.189	340.94
387.568	364.67
387.948	349.52
388.328	360.37
388.707	348.85
389.087	361.5
389.466	365.57
389.846	369.19
390.225	356.76
390.605	354.72
390.984	361.95
391.363	366.02
391.743	366.93
392.122	359.24
392.501	387.49
392.881	362.41
393.26	378.68
393.639	382.29
394.018	370.54
394.397	362.41
394.776	362.41
395.155	362.41
395.534	368.96
395.913	384.55
396.292	387.49
396.671	371.67
397.05	371.22
397.429	393.14
397.808	376.42
398.186	392.91
398.565	394.5
398.944	403.31
399.323	391.11
399.701	389.98
400.08	396.53
400.458	393.82
400.837	413.93
401.215	399.69
401.594	396.08
401.972	391.33
402.351	415.06
402.729	410.99
403.107	425.91
403.486	401.05
403.864	405.79
404.242	431.33
404.62	435.17
404.999	412.35
405.377	425.23
405.755	421.61
406.133	414.38
406.511	440.37
406.889	411.44
407.267	433.36
407.645	462.97
408.023	480.59
408.401	467.04
408.779	458
409.156	458.45
409.534	465.68
409.912	480.14
410.29	481.95
410.667	466.13
411.045	490.54
411.422	477.66
411.8	500.48
412.178	512.01
412.555	513.14
412.933	477.66
413.31	516.53
413.687	524.21
414.065	529.86
414.442	539.12
414.819	541.84
415.197	561.72
415.574	541.61
415.951	539.8
416.328	575.06
416.705	583.42
417.082	562.4
417.46	565.56
417.837	587.26
418.214	580.03
418.591	570.08
418.967	603.98
419.344	611.21
419.721	619.57
420.098	611.21
420.475	619.57
420.852	648.95
421.228	647.14
421.605	664.54
421.982	652.57
422.358	654.83
422.735	662.28
423.111	670.42
423.488	679.23
423.864	684.21
424.241	685.56
424.617	695.5
424.994	690.08
425.37	693.92
425.746	714.26
426.123	714.94
426.499	714.26
426.875	737.31
427.251	755.84
427.627	760.81
428.003	775.05
428.379	775.73
428.756	779.12
429.132	782.96
429.507	798.55
429.883	785.9
430.259	808.72
430.635	820.47
431.011	808.72
431.387	808.5
431.763	815.95
432.138	844.65
432.514	852.34
432.89	870.64
433.265	876.52
433.641	880.81
434.016	890.75
434.392	879.68
434.767	928.94
435.143	929.85
435.518	952.22
435.894	923.97
436.269	939.11
436.644	955.16
437.02	972.11
437.395	944.09
437.77	981.15
438.145	987.7
438.52	1004.87
438.895	1010.98
439.271	1003.29
439.646	1004.2
440.021	1011.65
440.395	1007.36
440.77	1036.06
441.145	1042.39
441.52	1056.62
441.895	1040.13
442.27	1065.66
442.645	1058.21
443.019	1067.92
443.394	1081.48
443.769	1109.05
444.143	1087.58
444.518	1107.24
444.892	1091.88
445.267	1095.95
445.641	1103.4
446.016	1110.86
446.39	1122.61
446.764	1151.54
447.139	1128.71
447.513	1137.98
447.887	1151.09
448.262	1131.65
448.636	1123.29
449.01	1150.18
449.384	1143.63
449.758	1133.23
450.132	1172.55
450.506	1173.23
450.88	1168.26
451.254	1143.4
451.628	1164.42
452.002	1184.53
452.376	1204.42
452.75	1201.48
453.123	1221.37
453.497	1213.91
453.871	1198.99
454.244	1278.31
454.618	1229.95
454.992	1283.06
455.365	1243.74
455.739	1278.31
456.112	1278.77
456.486	1314.25
456.859	1324.64
457.232	1311.76
457.606	1337.3
457.979	1326.67
458.352	1352.21
458.725	1351.76
459.099	1341.82
459.472	1344.07
459.845	1392.44
460.218	1401.7
460.591	1411.64
460.964	1381.36
461.337	1416.39
461.71	1432.89
462.083	1434.47
462.456	1468.59
462.829	1485.09
463.201	1486.67
463.574	1468.82
463.947	1492.55
464.32	1510.85
464.692	1546.78
465.065	1525.76
465.438	1535.03
465.81	1573.45
466.183	1551.08
466.555	1581.81
466.928	1620.45
467.3	1625.2
467.672	1598.31
468.045	1660.22
468.417	1643.73
468.789	1681.69
469.161	1689.38
469.534	1690.28
469.906	1716.27
470.278	1738.64
470.65	1766.21
471.022	1741.35
471.394	1785.65
471.766	1795.14
472.138	1811.41
472.51	1846.21
472.882	1834.46
473.253	1883.27
473.625	1896.38
473.997	1950.39
474.369	1921.91
474.74	1944.74
475.112	1977.96
475.484	2010.05
475.855	2019.76
476.227	2019.99
476.598	2060.67
476.97	2045.98
477.341	2116.94
477.713	2143.83
478.084	2120.1
478.455	2199.42
478.827	2183.6
479.198	2234.9
479.569	2230.61
479.94	2289.36
480.311	2315.12
480.682	2372.07
481.053	2410.04
481.424	2440.32
481.795	2412.75
482.166	2441
482.537	2449.13
482.908	2521.67
483.279	2539.3
483.65	2562.35
484.021	2616.13
484.391	2640.09
484.762	2650.48
485.133	2664.04
485.503	2689.58
485.874	2717.82
486.244	2760.31
486.615	2803.02
486.985	2814.09
487.356	2830.82
487.726	2885.96
488.097	2903.58
488.467	2908.78
488.837	2956.91
489.207	3027.42
489.578	3018.38
489.948	3076.23
490.318	3077.81
490.688	3070.13
491.058	3150.36
491.428	3201.2
491.798	3198.94
492.168	3229.45
492.538	3257.47
492.908	3287.3
493.278	3330.69
493.648	3299.73
494.017	3347.41
494.387	3374.08
494.757	3407.07
495.126	3436
495.496	3417.92
495.866	3426.73
496.235	3486.17
496.605	3482.78
496.974	3543.11
497.344	3541.76
497.713	3574.98
498.082	3586.95
498.452	3658.14
498.821	3617.01
499.19	3571.59
499.559	3676.89
499.928	3645.71
500.298	3715.76
500.667	3688.42
501.036	3681.19
501.405	3732.03
501.774	3749.89
502.143	3760.96
502.512	3809.32
502.88	3830.79
503.249	3790.79
503.618	3797.12
503.987	3797.8
504.356	3863.1
504.724	3890.9
505.093	3858.36
505.462	3866.27
505.83	3886.61
506.199	3919.6
506.567	3943.33
506.936	3958.92
507.304	3984.68
507.672	3988.98
508.041	4025.59
508.409	3993.27
508.777	4027.85
509.145	4061.74
509.514	4045.25
509.882	4088.64
510.25	4098.35
510.618	4130.67
510.986	4124.34
511.354	4136.54
511.722	4160.95
512.09	4177.67
512.458	4149.2
512.826	4224.45
513.193	4136.54
513.561	4208.41
513.929	4264.68
514.297	4321.17
514.664	4291.34
515.032	4258.57
515.4	4278.91
515.767	4314.62
516.135	4299.48
516.502	4277.11
516.869	4329.53
517.237	4311.45
517.604	4325.92
517.972	4378.12
518.339	4394.62
518.706	4406.82
519.073	4396.42
519.44	4382.19
519.808	4413.15
520.175	4442.98
520.542	4527.04
520.909	4489.3
521.276	4451.56
521.643	4488.17
522.009	4507.16
522.376	4546.7
522.743	4620.82
523.11	4605.01
523.477	4630.32
523.843	4632.12
524.21	4634.38
524.577	4644.55
524.943	4688.85
525.31	4673.25
525.676	4735.4
526.043	4794.38
526.409	4777.88
526.776	4774.27
527.142	4838.67
527.508	4859.46
527.874	4866.92
528.241	4889.52
528.607	4881.61
528.973	4951.21
529.339	5018.78
529.705	5012
530.071	5016.75
530.437	5060.59
530.803	5044.32
531.169	5133.35
531.535	5085.67
531.901	5148.49
532.267	5135.84
532.632	5153.69
532.998	5157.76
533.364	5141.26
533.73	5243.41
534.095	5273.46
534.461	5310.98
534.826	5283.18
535.192	5350.98
535.557	5343.52
535.923	5325.21
536.288	5385.1
536.653	5398.43
537.019	5431.2
537.384	5418.77
537.749	5479.11
538.114	5463.51
538.479	5475.04
538.845	5479.56
539.21	5468.49
539.575	5576.73
539.94	5594.36
540.305	5624.64
540.67	5586.68
541.034	5630.97
541.399	5673.23
541.764	5678.42
542.129	5684.98
542.494	5692.89
542.858	5709.38
543.223	5775.14
543.587	5824.18
543.952	5830.51
544.316	5842.94
544.681	5841.58
545.045	5912.99
545.41	5913.45
545.774	5924.29
546.138	5972.2
546.503	5974.91
546.867	5988.7
547.231	6017.62
547.595	6016.27
547.959	6088.13
548.324	6055.36
548.688	6069.6
549.052	6098.07
549.416	6176.94
549.779	6151.86
550.143	6137.62
550.507	6189.6
550.871	6247.45
551.235	6270.05
551.599	6272.31
551.962	6290.16
552.326	6294.23
552.689	6335.58
553.053	6299.88
553.417	6311.4
553.78	6419.87
554.143	6390.04
554.507	6439.76
554.87	6433.21
555.234	6459.42
555.597	6433.66
555.96	6487.67
556.323	6499.65
556.686	6543.26
557.05	6557.27
557.413	6513.88
557.776	6622.35
558.139	6578.74
558.502	6637.72
558.865	6633.43
559.228	6637.27
559.59	6709.13
559.953	6734.22
560.316	6757.27
560.679	6747.1
561.041	6775.34
561.404	6828.9
561.767	6814.21
562.129	6789.81
562.492	6889.92
562.854	6869.35
563.217	6838.62
563.579	6941.22
563.941	6956.58
564.304	6942.35
564.666	7018.05
565.028	7066.18
565.39	7100.31
565.753	7081.1
566.115	7109.8
566.477	7144.83
566.839	7141.89
567.201	7202
567.563	7180.53
567.925	7244.26
568.287	7291.94
568.648	7229.34
569.01	7359.06
569.372	7361.09
569.734	7347.08
570.095	7404.71
570.457	7463.01
570.819	7427.76
571.18	7446.74
571.542	7540.07
571.903	7568.32
572.265	7578.04
572.626	7632.5
572.987	7610.58
573.349	7710.91
573.71	7769.22
574.071	7779.16
574.432	7828.88
574.794	7945.94
575.155	7960.62
575.516	7960.17
575.877	8029.55
576.238	8151.81
576.599	8129.66
576.96	8286.49
577.32	8313.61
577.681	8379.82
578.042	8503.89
578.403	8528.52
578.763	8713.37
579.124	8811.22
579.485	8847.15
579.845	8909.3
580.206	8989.52
580.566	9124.21
580.927	9210.53
581.287	9395.16
581.648	9484.88
582.008	9648.72
582.368	9736.85
582.728	9913.12
583.089	9944.07
583.449	10156.05
583.809	10331.18
584.169	10520.56
584.529	10702.7
584.889	10904.5
585.249	11040.32
585.609	11186.08
585.969	11419.52
586.329	11648.44
586.688	11800.98
587.048	12011.59
587.408	12177.91
587.768	12444.8
588.127	12681.18
588.487	13000.49
588.846	13195.97
589.206	13339.24
589.565	13661.72
589.925	13918.66
590.284	14227.13
590.643	14420.34
591.003	14779.65
591.362	15037.73
591.721	15304.16
592.08	15524.49
592.44	15781.66
592.799	16137.81
593.158	16313.85
593.517	16599.72
593.876	16934.63
594.235	17248.74
594.593	17568.28
594.952	17966.69
595.311	18159
595.67	18403.06
596.029	18963.5
596.387	19117.84
596.746	19436.48
597.104	19609.13
597.463	19958.5
597.822	20306.06
598.18	20414.76
598.538	20816.11
598.897	21169.77
599.255	21395.07
599.613	21834.38
599.972	22029.86
600.33	22410.87
600.688	22541.26
601.046	22977.4
601.404	23276.38
601.762	23397.96
602.12	23887.66
602.478	24073.65
602.836	24419.63
603.194	24538.27
603.552	24794.08
603.91	24932.61
604.268	25388.64
604.625	25484.01
604.983	25931
605.341	26056.42
605.698	26330.31
606.056	26647.36
606.413	26887.81
606.771	27164.19
607.128	27300.68
607.485	27513.56
607.843	27848.01
608.2	28174.56
608.557	28393.08
608.914	28526.18
609.272	28782.22
609.629	29101.54
609.986	29247.3
610.343	29376.56
610.7	29824.23
611.057	29848.64
611.414	30161.17
611.771	30252.47
612.127	30574.49
612.484	30743.08
612.841	31005.44
613.198	31085.21
613.554	31223.52
613.911	31579.44
614.267	31739.21
614.624	31840.22
614.98	32104.85
615.337	32332.64
615.693	32417.38
616.05	32505.29
616.406	32929.91
616.762	32825.28
617.118	32981.21
617.475	33157.93
617.831	33258.72
618.187	33362.89
618.543	33655.77
618.899	33947.51
619.255	34034.51
619.611	34046.04
619.967	34336.88
620.323	34480.83
620.678	34422.3
621.034	34496.42
621.39	34620.71
621.746	34665.46
622.101	35200.13
622.457	35031.32
622.812	35078.33
623.168	35338.89
623.523	35416.17
623.879	35452.78
624.234	35405.55
624.589	35638.77
624.945	35717.18
625.3	35709.27
625.655	35863.62
626.01	35920.79
626.365	36030.17
626.72	36170.05
627.075	36121.24
627.43	36155.81
627.785	36348.35
628.14	36316.26
628.495	36377.73
628.85	36429.03
629.205	36318.07
629.559	36574.11
629.914	36532.53
630.269	36523.26
630.623	36499.31
630.978	36496.37
631.332	36845.06
631.687	36848.68
632.041	36820.2
632.396	36935.91
632.75	36788.34
633.104	36910.82
633.459	36713.99
633.813	36638.06
634.167	36810.49
634.521	36937.49
634.875	36990.14
635.229	36997.6
635.583	36757.38
635.937	36795.8
636.291	36819.53
636.645	36872.63
636.999	36835.8
637.352	36939.52
637.706	36790.6
638.06	36930.26
638.413	37057.03
638.767	36786.98
639.121	37019.29
639.474	36650.94
639.828	36718.51
640.181	36907.66
640.534	36819.3
640.888	36684.16
641.241	36776.59
641.594	36796.7
641.947	36856.59
642.301	36778.62
642.654	36725.07
643.007	36774.78
643.36	36753.31
643.713	36803.71
644.066	36998.5
644.419	36628.8
644.771	36376.37
645.124	36147.68
645.477	36158.98
645.83	35995.59
646.182	35738.42
646.535	35749.72
646.888	35741.14
647.24	35659.56
647.593	35894.58
647.945	35770.97
648.298	35679.9
648.65	35570.75
649.002	35458.21
649.355	35663.85
649.707	35625.66
650.059	35802.83
650.411	36095.7
650.763	36168.24
651.115	36668.57
651.467	36471.96
651.819	36509.03
652.171	36382.25
652.523	36245.3
652.875	36330.73
653.227	36261.12
653.578	36577.05
653.93	36231.29
654.282	36255.25
654.633	36063.84
654.985	36161.24
655.337	36271.97
655.688	36229.26
656.039	36262.7
656.391	36162.59
656.742	36083.27
657.094	36258.41
657.445	36239.43
657.796	36181.58
658.147	36087.57
658.498	36070.85
658.849	36236.26
659.2	36187
659.551	35915.6
659.902	36072.65
660.253	36103.84
660.604	36250.73
660.955	35987.01
661.306	36020.9
661.656	36002.82
662.007	36029.94
662.358	36006.21
662.708	36059.77
663.059	35951.75
663.409	35815.71
663.76	36105.65
664.11	36048.02
664.461	36002.82
664.811	36030.62
665.161	36017.74
665.511	36051.41
665.862	35985.2
666.212	36202.14
666.562	36118.08
666.912	35982.94
667.262	36047.8
667.612	36048.47
667.962	36048.93
668.312	35877.86
668.662	36131.41
669.011	35944.75
669.361	35853.9
669.711	35883.51
670.06	35873.79
670.41	35819.33
670.76	35668.82
671.109	35965.99
671.459	35829.5
671.808	35705.88
672.157	35836.05
672.507	35617.3
672.856	35595.15
673.205	35704.75
673.554	35801.02
673.904	35694.13
674.253	35732.78
674.602	35726.67
674.951	35250.53
675.3	35119.68
675.649	35624.98
675.998	35568.94
676.346	35650.07
676.695	35721.93
677.044	35472.67
677.393	35477.41
677.741	35637.18
678.09	35442.61
678.438	35370.52
678.787	35563.97
679.135	35547.92
679.484	35292.33
679.832	35519.45
680.181	35124.43
680.529	35353.8
680.877	35236.97
681.225	35190.87
681.573	35331.66
681.922	35077.2
682.27	35057.99
682.618	35015.05
682.966	34943.64
683.314	35056.41
683.661	34974.38
684.009	34669.75
684.357	34615.52
684.705	34730.54
685.053	34741.39
685.4	34558.57
685.748	34471.34
686.095	34375.97
686.443	34391.12
686.79	34302.53
687.138	34407.39
687.485	34409.42
687.832	34135.75
688.18	34185.92
688.527	34115.87
688.874	34114.96
689.221	34053.95
689.568	33852.15
689.915	33921.07
690.262	33837.68
690.609	33803.33
690.956	33624.36
691.303	33664.81
691.65	33478.6
691.997	33528.09
692.344	33174.2
692.69	33223.01
693.037	33263.01
693.383	32938.72
693.73	33211.71
694.077	32916.58
694.423	32942.79
694.769	32937.37
695.116	32716.36
695.462	32657.83
695.808	32698.05
696.155	32538.28
696.501	32290.83
696.847	32407.89
697.193	32194.34
697.539	32255.58
697.885	32124.73
698.231	32027.34
698.577	32035.25
698.923	32002.25
699.269	31823.73
699.614	31703.28
699.96	31595.48
700.306	31689.49
700.651	31530.4
700.997	31403.17
701.342	31405.43
701.688	31324.76
702.033	31258.54
702.379	31150.07
702.724	31104.87
703.069	31246.11
703.415	30831.21
703.76	30817.88
704.105	30853.13
704.45	30730.19
704.795	30537.21
705.14	30548.96
705.485	30486.36
705.83	30402.29
706.175	30406.36
706.52	30314.84
706.865	30294.73
707.209	30290.66
707.554	29993.04
707.899	30179.7
708.243	29932.7
708.588	29975.64
708.932	29715.76
709.277	29730
709.621	29802.76
709.966	29458.36
710.31	29647.96
710.654	29385.82
710.998	29374.07
711.342	29511.7
711.687	29312.15
712.031	29266.5
712.375	29044.36
712.719	29067.87
713.063	29130.91
713.407	29184.25
713.75	28970.47
714.094	28912.62
714.438	28753.75
714.782	28783.58
715.125	28643.92
715.469	28663.13
715.812	28570.7
716.156	28416.81
716.499	28470.14
716.843	28504.04
717.186	28363.48
717.53	28494.1
717.873	28465.17
718.216	28337.72
718.559	28164.61
718.902	28070.6
719.246	28113.31
719.589	28023.83
719.932	27993.54
720.275	27971.17
720.617	28004.39
720.96	27839.2
721.303	27873.55
721.646	27793.32
721.989	27508.81
722.331	27766.43
722.674	27585.19
723.016	27677.39
723.359	27655.02
723.701	27671.07
724.044	27387.01
724.386	27208.71
724.729	27478.75
725.071	27324.18
725.413	27287.57
725.755	27347.23
726.097	27152.89
726.439	27122.61
726.782	27044.64
727.124	27152.66
727.465	26968.71
727.807	27013.91
728.149	27005.55
728.491	26915.83
728.833	26899.34
729.175	26851.88
729.516	26752.9
729.858	26701.37
730.199	26713.35
730.541	26580.7
730.882	26626.57
731.224	26755.61
731.565	26475.62
731.906	26585.45
732.248	26611.66
732.589	26473.13
732.93	26304.32
733.271	26361.5
733.612	26302.74
733.953	26355.17
734.294	26180.94
734.635	26246.47
734.976	26306.58
735.317	26100.26
735.658	26129.86
735.999	26124.67
736.339	25985.23
736.68	26046.02
737.021	25911.11
737.361	25922.64
737.702	25978
738.042	25853.94
738.383	25884.45
738.723	25885.35
739.063	25642.19
739.404	25837.67
739.744	25665.7
740.084	25587.05
740.424	25717.9
740.764	25586.6
741.104	25608.52
741.444	25459.15
741.784	25466.38
742.124	25512.93
742.464	25389.09
742.804	25375.53
743.143	25244.24
743.483	25324.01
743.823	25135.99
744.162	25117.91
744.502	25233.16
744.841	25085.37
745.181	25271.58
745.52	25178.48
745.86	25060.51
746.199	25024.13
746.538	24942.1
746.877	25015.32
747.216	25072.04
747.556	24898.03
747.895	24814.42
748.234	24760.63
748.573	24815.55
748.911	24769.9
749.25	24672.5
749.589	24646.06
749.928	24590.24
750.267	24679.28
750.605	24592.28
750.944	24544.14
751.283	24409.91
751.621	24488.33
751.96	24441.55
752.298	24371.49
752.636	24441.55
752.975	24182.12
753.313	24056.47
753.651	24231.61
753.989	24072.29
754.327	24038.85
754.666	23929.47
755.004	24025.06
755.342	23925.18
755.679	23843.6
756.017	23754.79
756.355	23871.39
756.693	23797.95
757.031	23770.38
757.368	23625.07
757.706	23578.74
758.044	23480.67
758.381	23572.42
758.719	23488.8
759.056	23424.17
759.394	23324.74
759.731	23195.03
760.068	23120.23
760.405	22978.08
760.743	22903.51
761.08	23085.88
761.417	22880.91
761.754	22888.14
762.091	22708.48
762.428	22669.62
762.765	22663.74
763.102	22578.09
763.438	22486.34
763.775	22375.61
764.112	22395.05
764.449	22379
764.785	22282.06
765.122	22108.05
765.458	22049.75
765.795	22028.73
766.131	21985.11
766.467	21955.74
766.804	21849.52
767.14	21696.31
767.476	21661.28
767.812	21718.91
768.148	21610.43
768.485	21360.05
768.821	21482.08
769.157	21256.55
769.492	21272.36
769.828	21264.91
770.164	21009.09
770.5	20995.54
770.836	20964.35
771.171	20854.97
771.507	20853.84
771.842	20695.43
772.178	20724.58
772.513	20683
772.849	20545.38
773.184	20430.58
773.519	20485.04
773.855	20411.82
774.19	20338.38
774.525	20254.99
774.86	20201.43
775.195	20140.19
775.53	20097.25
775.865	20021.55
776.2	19848.22
776.535	19753.76
776.87	19675.57
777.205	19688
777.539	19572.75
777.874	19507.21
778.209	19414.79
778.543	19455.01
778.878	19221.57
779.212	19215.47
779.547	19166.43
779.881	19190.16
780.215	19021.12
780.55	19088.69
780.884	18946.1
781.218	18952.65
781.552	18839.89
781.886	18666.33
782.22	18621.36
782.554	18563.51
782.888	18417.3
783.222	18326.91
783.556	18330.52
783.889	18336.85
784.223	18165.33
784.557	18040.58
784.89	18190.19
785.224	17961.94
785.557	17880.59
785.891	17824.55
786.224	17900.7
786.558	17836.52
786.891	17648.28
787.224	17520.37
787.557	17509.75
787.891	17551.78
788.224	17526.47
788.557	17465.23
788.89	17413.26
789.223	17378.68
789.556	17253.04
789.888	17310.66
790.221	17132.36
790.554	17048.07
790.887	17033.15
791.219	16909.54
791.552	16993.38
791.884	16883.1
792.217	16820.73
792.549	16698.47
792.882	16629.32
793.214	16515.43
793.546	16570.79
793.879	16381.42
794.211	16385.71
794.543	16406.28
794.875	16262.78
795.207	16357.92
795.539	16258.94
795.871	16270.69
796.203	16022.11
796.535	16029.56
796.867	15938.49
797.198	15890.36
797.53	16049
797.862	15749.12
798.193	15895.33
798.525	15682.91
798.856	15788.67
799.188	15510.71
799.519	15592.74
799.85	15506.41
800.182	15535.34
800.513	15462.12
800.844	15339.19
801.175	15329.7
801.506	15339.87
801.837	15212.41
802.168	15300.77
802.499	15196.37
802.83	15092.19
803.161	15063.04
803.491	14941.68
803.822	14904.4
804.153	14893.78
804.483	14904.4
804.814	14804.74
805.145	14797.05
805.475	14770.84
805.805	14691.29
806.136	14708.24
806.466	14671.41
806.796	14608.81
807.126	14603.39
807.457	14436.16
807.787	14428.25
808.117	14450.4
808.447	14325.65
808.777	14387.8
809.107	14331.3
809.436	14260.12
809.766	14249.95
810.096	14139.44
810.426	14153.91
810.755	14183.51
811.085	14159.56
811.414	14037.53
811.744	13943.07
812.073	13993.69
812.403	13927.92
812.732	13740.59
813.061	13838.89
813.39	13826.46
813.719	13758.89
814.049	13810.64
814.378	13693.81
814.707	13614.03
815.036	13678.21
815.365	13569.29
815.693	13457.2
816.022	13563.87
816.351	13463.98
816.68	13335.4
817.008	13460.59
817.337	13301.73
817.665	13224.67
817.994	13267.6
818.322	13217.66
818.651	13205.01
818.979	13136.53
819.307	13294.72
819.636	13125.01
819.964	12958.46
820.292	13133.14
820.62	13122.75
820.948	12995.29
821.276	13077.1
821.604	13013.82
821.932	12973.15
822.259	13151.45
822.587	13025.58
822.915	12964.33
823.243	12980.61
823.57	12975.63
823.898	12932.47
824.225	12920.72
824.553	12972.92
824.88	12906.48
825.207	13019.02
825.535	12948.06
825.862	13017.44
826.189	12883.43
826.516	13051.34
826.843	12988.74
827.17	13036.65
827.497	12959.59
827.824	13030.77
828.151	12960.04
828.478	12960.72
828.805	12990.55
829.131	12929.53
829.458	12840.27
829.785	12973.37
830.111	12894.05
830.438	13014.95
830.764	12889.53
831.09	12931.11
831.417	12896.77
831.743	12959.36
832.069	12888.63
832.395	12870.1
832.722	12843.21
833.048	12857.44
833.374	12811.12
833.7	12776.54
834.026	12798.24
834.351	12760.5
834.677	12833.72
835.003	12867.61
835.329	12770.67
835.654	12731.8
835.98	12744.68
836.306	12763.89
836.631	12757.11
836.956	12722.98
837.282	12667.17
837.607	12574.97
837.932	12673.95
838.258	12622.2
838.583	12617.45
838.908	12537
839.233	12616.32
839.558	12455.42
839.883	12460.39
840.208	12496.55
840.533	12440.73
840.858	12479.15
841.182	12498.81
841.507	12422.88
841.832	12335.42
842.156	12279.83
842.481	12315.99
842.805	12232.38
843.13	12259.27
843.454	12187.86
843.778	12218.59
844.103	12092.94
844.427	12056.34
844.751	12064.92
845.075	12069.67
845.399	12006.39
845.723	11878.26
846.047	12049.56
846.371	11813.18
846.695	11902.89
847.019	11792.16
847.343	11727.3
847.666	11718.94
847.99	11603.24
848.313	11622.45
848.637	11545.84
848.96	11524.82
849.284	11531.83
849.607	11408.89
849.931	11424.94
850.254	11335.68
850.577	11269.24
850.9	11182.91
851.223	11151.05
851.546	11099.07
851.869	11072.86
852.192	11123.7
852.515	11031.05
852.838	10972.97
853.161	10894.11
853.483	10880.1
853.806	10907.67
854.129	10856.14
854.451	10806.2
854.774	10709.03
855.096	10733.88
855.419	10657.95
855.741	10611.85
856.063	10632.42
856.385	10627.9
856.708	10500.22
857.03	10533.66
857.352	10549.48
857.674	10474
857.996	10439.88
858.318	10332.77
858.64	10382.93
858.961	10309.26
859.283	10325.99
859.605	10198.98
859.926	10290.96
860.248	10212.77
860.57	10244.41
860.891	10142.49
861.212	10152.66
861.534	10095.94
861.855	10128.02
862.176	10108.14
862.498	10107.91
862.819	10087.57
863.14	10002.38
863.461	10034.02
863.782	9954.24
864.103	9930.97
864.424	9882.16
864.745	9916.28
865.065	9889.39
865.386	9873.57
865.707	9858.65
866.027	9885.09
866.348	9842.16
866.668	9866.56
866.989	9794.93
867.309	9711.76
867.63	9769.62
867.95	9782.27
868.27	9758.54
868.59	9779.11
868.91	9658.21
869.23	9740.24
869.55	9580.69
869.87	9688.71
870.19	9644.65
870.51	9589.73
870.83	9621.15
871.15	9538.44
871.469	9583.18
871.789	9589.06
872.109	9534.82
872.428	9492.34
872.748	9518.32
873.067	9547.25
873.386	9473.13
873.706	9532.33
874.025	9408.5
874.344	9418.44
874.663	9404.43
874.982	9407.82
875.301	9374.15
875.62	9373.02
875.939	9309.52
876.258	9352
876.577	9266.35
876.896	9289.18
877.214	9268.84
877.533	9288.5
877.852	9265.22
878.17	9269.06
878.489	9233.13
878.807	9202.63
879.125	9224.77
879.444	9250.99
879.762	9193.81
880.08	9206.92
880.398	9053.25
880.716	9130.31
881.034	9134.38
881.352	9094.61
881.67	9064.32
881.988	9015.74
882.306	9000.6
882.624	8961.05
882.941	8955.17
883.259	8958.56
883.577	8945.91
883.894	8873.14
884.212	8823.88
884.529	8871.33
884.846	8843.31
885.164	8764.9
885.481	8796.53
885.798	8830.43
886.115	8768.74
886.432	8724.67
886.75	8775.29
887.067	8734.16
887.383	8638.35
887.7	8653.26
888.017	8630.21
888.334	8648.29
888.651	8603.32
888.967	8571
889.284	8565.81
889.6	8521.29
889.917	8481.29
890.233	8533.72
890.55	8397
890.866	8418.24
891.182	8362.87
891.498	8423.89
891.815	8368.3
892.131	8337.79
892.447	8292.14
892.763	8288.07
893.079	8250.11
893.395	8242.65
893.71	8227.74
894.026	8249.66
894.342	8189.32
894.657	8134.18
894.973	8110.22
895.289	8078.14
895.604	8111.35
895.92	8009.89
896.235	8025.48
896.55	8021.87
896.865	7997.01
897.181	7945.26
897.496	7928.08
897.811	7856.9
898.126	7899.16
898.441	7828.42
898.756	7781.42
899.071	7748.43
899.386	7766.96
899.7	7683.8
900.015	7737.81
900.33	7639.95
900.644	7597.92
900.959	7606.74
901.273	7572.39
901.588	7617.58
901.902	7440.19
902.216	7470.24
902.531	7467.76
902.845	7409.23
903.159	7374.2
903.473	7389.79
903.787	7353.86
904.101	7290.59
904.415	7301.43
904.729	7289
905.042	7255.56
905.356	7237.25
905.67	7218.95
905.984	7200.19
906.297	7194.99
906.611	7124.04
906.924	7159.52
907.237	7068.9
907.551	7115.45
907.864	7031.83
908.177	7055.11
908.491	7004.04
908.804	6950.26
909.117	6915.23
909.43	6895.12
909.743	6820.54
910.056	6819.64
910.368	6765.85
910.681	6741
910.994	6748.9
911.307	6726.08
911.619	6633.88
911.932	6674.56
912.244	6677.49
912.557	6651.28
912.869	6585.52
913.181	6568.8
913.494	6594.78
913.806	6460.55
914.118	6464.17
914.43	6421.23
914.742	6432.75
915.054	6415.58
915.366	6371.29
915.678	6330.61
915.99	6333.32
916.302	6230.05
916.613	6255.81
916.925	6239.77
917.236	6261.69
917.548	6177.62
917.859	6166.09
918.171	6171.74
918.482	6095.36
918.794	6176.94
919.105	6067.57
919.416	6013.78
919.727	5995.03
920.038	6004.74
920.349	5950.28
920.66	5929.27
920.971	5948.7
921.282	5905.99
921.593	5847.46
921.903	5845.2
922.214	5894.01
922.525	5783.51
922.835	5778.53
923.146	5759.78
923.456	5762.49
923.767	5702.6
924.077	5684.98
924.387	5621.25
924.697	5649.72
925.008	5629.39
925.318	5609.05
925.628	5567.01
925.938	5531.54
926.248	5507.58
926.558	5421.26
926.867	5472.1
927.177	5491.31
927.487	5450.63
927.796	5393.46
928.106	5374.03
928.416	5331.54
928.725	5331.54
929.034	5294.25
929.344	5308.72
929.653	5271.66
929.962	5228.04
930.271	5178.1
930.581	5157.99
930.89	5159.12
931.199	5170.41
931.508	5134.94
931.817	5186.01
932.125	5047.25
932.434	5076.63
932.743	5029.4
933.051	5030.31
933.36	5038.44
933.669	4932.68
933.977	4955.51
934.286	4943.75
934.594	4931.55
934.902	4886.13
935.21	4863.53
935.519	4836.64
935.827	4883.42
936.135	4779.46
936.443	4768.62
936.751	4759.13
937.059	4709.18
937.367	4744.21
937.674	4675.96
937.982	4706.92
938.29	4653.14
938.597	4639.81
938.905	4575.18
939.213	4599.81
939.52	4593.71
939.827	4587.38
940.135	4579.7
940.442	4551
940.749	4539.02
941.056	4525.46
941.363	4433.71
941.67	4450.43
941.977	4408.4
942.284	4397.78
942.591	4364.33
942.898	4406.37
943.205	4370.44
943.511	4371.11
943.818	4287.27
944.125	4276.2
944.431	4317.33
944.738	4238.69
945.044	4241.63
945.35	4193.04
945.657	4206.82
945.963	4235.52
946.269	4187.62
946.575	4168.18
946.881	4154.4
947.187	4152.59
947.493	4066.49
947.799	4120.72
948.105	4099.71
948.41	4048.86
948.716	4069.2
949.022	4011.58
949.327	3997.56
949.633	3990.78
949.938	3968.64
950.244	3983.33
950.549	3956.89
950.854	3916.21
951.16	3918.7
951.465	3913.05
951.77	3871.01
952.075	3825.59
952.38	3813.16
952.685	3859.71
952.99	3790.79
953.294	3781.07
953.599	3773.39
953.904	3762.54
954.209	3726.16
954.513	3767.06
954.818	3675.54
955.122	3701.75
955.426	3692.71
955.731	3675.99
956.035	3664.92
956.339	3674.41
956.643	3601.42
956.948	3577.24
957.252	3599.61
957.556	3569.33
957.86	3536.33
958.163	3549.89
958.467	3541.31
958.771	3509.67
959.075	3478.48
959.378	3498.82
959.682	3536.33
959.985	3441.42
960.289	3451.36
960.592	3446.17
960.896	3390.12
961.199	3388.54
961.502	3380.18
961.805	3367.75
962.108	3338.6
962.411	3318.94
962.714	3348.99
963.017	3313.29
963.32	3331.14
963.623	3231.71
963.926	3259.96
964.228	3235.32
964.531	3260.86
964.833	3223.12
965.136	3176.12
965.438	3251.14
965.741	3188.77
966.043	3142.22
966.345	3142.67
966.648	3169.79
966.95	3158.94
967.252	3057.02
967.554	3107.19
967.856	3100.64
968.158	3044.14
968.46	3031.26
968.761	3050.7
969.063	2997.82
969.365	3021.32
969.666	3004.37
969.968	2963.69
970.269	2971.6
970.571	2930.7
970.872	2933.86
971.174	2958.95
971.475	2953.98
971.776	2938.38
972.077	2906.52
972.378	2887.76
972.679	2927.99
972.98	2850.25
973.281	2803.25
973.582	2856.58
973.883	2842.79
974.183	2829.23
974.484	2811.38
974.785	2807.54
975.085	2785.62
975.386	2779.52
975.686	2779.52
975.986	2774.32
976.287	2727.54
976.587	2692.74
976.887	2711.5
977.187	2686.64
977.487	2665.4
977.787	2667.2
978.087	2709.46
978.387	2642.8
978.687	2637.83
978.987	2638.96
979.286	2614.78
979.586	2595.57
979.885	2578.17
980.185	2619.3
980.484	2557.6
980.784	2554.89
981.083	2532.52
981.382	2535.23
981.682	2525.51
981.981	2492.07
982.28	2546.08
982.579	2444.84
982.878	2480.99
983.177	2469.69
983.475	2450.26
983.774	2448.23
984.073	2448.68
984.372	2417.72
984.67	2410.26
984.969	2398.28
985.267	2424.05
985.566	2391.05
985.864	2388.34
986.162	2384.05
986.461	2360.09
986.759	2349.92
987.057	2344.95
987.355	2304.05
987.653	2292.52
987.951	2300.89
988.249	2272.19
988.547	2295.91
988.844	2261.34
989.142	2268.8
989.44	2251.62
989.737	2231.51
990.035	2229.25
990.332	2164.84
990.63	2249.81
990.927	2180.44
991.224	2201.23
991.521	2187.89
991.819	2180.89
992.116	2160.78
992.413	2140.21
992.71	2167.56
993.006	2128.24
993.303	2159.65
993.6	2112.42
993.897	2118.52
994.193	2112.64
994.49	2109.25
994.787	2050.5
995.083	2060.44
995.379	2031.51
995.676	2047.33
995.972	2013.21
996.268	2034.9
996.565	2001.23
996.861	2015.02
997.157	1986.32
997.453	2005.07
997.749	2005.3
998.044	1984.28
998.34	1960.33
998.636	1958.75
998.932	1953.78
999.227	1927.11
999.523	1922.82
999.818	1919.65
1000.114	1907
1000.409	1908.13
1000.704	1882.14
1001	1882.59
1001.295	1867
1001.59	1861.12
1001.885	1835.14
1002.18	1852.76
1002.475	1822.71
1002.77	1813.67
1003.065	1792.2
1003.359	1801.69
1003.654	1794.23
1003.949	1781.58
1004.243	1796.49
1004.538	1762.14
1004.832	1782.26
1005.127	1711.75
1005.421	1756.27
1005.715	1723.73
1006.009	1698.42
1006.304	1711.52
1006.598	1697.06
1006.892	1690.73
1007.186	1696.38
1007.48	1690.96
1007.773	1662.48
1008.067	1641.02
1008.361	1632.2
1008.655	1643.28
1008.948	1647.57
1009.242	1600.34
1009.535	1601.92
1009.829	1584.97
1010.122	1587.01
1010.415	1596.27
1010.708	1570.06
1011.001	1575.71
1011.295	1581.81
1011.588	1548.82
1011.881	1548.14
1012.173	1518.53
1012.466	1522.6
1012.759	1500.68
1013.052	1489.38
1013.344	1515.14
1013.637	1498.65
1013.93	1459.78
1014.222	1462.04
1014.514	1455.26
1014.807	1428.82
1015.099	1429.5
1015.391	1417.75
1015.683	1454.35
1015.976	1435.37
1016.268	1416.39
1016.56	1391.98
1016.851	1402.83
1017.143	1408.93
1017.435	1413.45
1017.727	1357.86
1018.018	1363.28
1018.31	1339.33
1018.602	1338.88
1018.893	1350.63
1019.185	1329.84
1019.476	1306.56
1019.767	1317.86
1020.058	1308.82
1020.35	1261.37
1020.641	1286.22
1020.932	1268.82
1021.223	1291.19
1021.514	1232.67
1021.804	1245.32
1022.095	1249.61
1022.386	1242.61
1022.677	1238.54
1022.967	1211.87
1023.258	1197.86
1023.548	1204.42
1023.839	1206.23
1024.129	1227.92
1024.419	1202.38
1024.709	1189.73
1025	1196.51
1025.29	1170.75
1025.58	1168.94
1025.87	1178.2
1026.16	1142.95
1026.449	1131.65
1026.739	1163.97
1027.029	1116.06
1027.319	1109.05
1027.608	1108.83
1027.898	1105.89
1028.187	1079.9
1028.477	1102.95
1028.766	1086.23
1029.055	1079.45
1029.344	1057.53
1029.634	1063.18
1029.923	1053.91
1030.212	1062.95
1030.501	1033.57
1030.79	1010.07
1031.078	1035.83
1031.367	1033.57
1031.656	995.38
1031.945	1029.73
1032.233	1015.5
1032.522	988.83
1032.81	1003.74
1033.099	996.06
1033.387	977.53
1033.675	981.82
1033.963	972.33
1034.251	986.12
1034.54	976.17
1034.828	945.22
1035.116	938.66
1035.403	947.93
1035.691	912.45
1035.979	907.25
1036.267	938.66
1036.554	924.88
1036.842	940.02
1037.129	900.02
1037.417	883.3
1037.704	878.32
1037.992	890.75
1038.279	881.26
1038.566	874.71
1038.853	874.71
1039.14	874.71
