Data from hue_180_FLMS001491_00043.txt Node
Date: Tue Feb 07 16:47:02 GMT 2017
User: dcchb
Spectrometer: FLMS00149
Trigger mode: 0
Integration Time (sec): 2.000000E-2
Scans to average: 10
Electric dark correction enabled: true
Nonlinearity correction enabled: false
Boxcar width: 0
XAxis mode: Wavelengths
Number of Pixels in Spectrum: 2048
>>>>>Begin Spectral Data<<<<<
341.393	-17.95
341.776	-17.95
342.16	-17.95
342.543	-77.38
342.927	-54.56
343.31	-75.13
343.693	-75.58
344.077	-56.14
344.46	-35.13
344.843	-46.65
345.226	-38.06
345.61	-44.84
345.993	-1.91
346.376	-9.82
346.759	9.17
347.142	9.17
347.525	37.64
347.908	65.21
348.291	71.54
348.674	81.71
349.057	108.82
349.44	137.07
349.823	149.73
350.206	164.64
350.588	208.71
350.971	211.2
351.354	227.01
351.737	231.76
352.119	255.71
352.502	270.85
352.884	254.13
353.267	273.79
353.65	307.24
354.032	291.64
354.414	300.91
354.797	304.3
355.179	328.25
355.562	320.12
355.944	329.84
356.326	333.9
356.709	323.06
357.091	352.21
357.473	358.08
357.855	351.53
358.238	359.44
358.62	340.46
359.002	343.17
359.384	350.17
359.766	347.46
360.148	354.24
360.53	357.18
360.912	328.93
361.294	331.42
361.676	337.97
362.057	331.87
362.439	344.75
362.821	331.19
363.203	328.25
363.584	311.76
363.966	310.18
364.348	311.53
364.729	309.27
365.111	334.58
365.493	334.58
365.874	333.23
366.256	312.21
366.637	314.47
367.019	306.33
367.4	301.14
367.781	316.5
368.163	303.4
368.544	315.15
368.925	320.12
369.306	329.38
369.688	302.04
370.069	325.99
370.45	321.93
370.831	321.47
371.212	313.57
371.593	302.72
371.974	324.86
372.355	316.05
372.736	305.88
373.117	323.73
373.498	321.7
373.879	303.62
374.26	294.13
374.641	325.54
375.021	335.49
375.402	324.64
375.783	328.71
376.163	318.31
376.544	335.03
376.925	326.22
377.305	314.02
377.686	327.35
378.066	325.77
378.447	342.49
378.827	325.54
379.208	326.67
379.588	322.83
379.968	295.71
380.349	335.49
380.729	323.28
381.109	330.29
381.489	333.68
381.87	332.77
382.25	330.29
382.63	326.9
383.01	335.03
383.39	349.04
383.77	354.02
384.15	365.09
384.53	350.63
384.91	345.2
385.29	337.29
385.67	359.44
386.049	327.12
386.429	354.24
386.809	321.7
387.189	355.6
387.568	342.04
387.948	341.36
388.328	357.86
388.707	337.75
389.087	336.62
389.466	344.52
389.846	344.75
390.225	378.2
390.605	377.29
390.984	382.72
391.363	375.48
391.743	358.08
392.122	381.36
392.501	371.64
392.881	379.78
393.26	380.23
393.639	375.26
394.018	365.77
394.397	377.74
394.776	388.82
395.155	363.96
395.534	378.2
395.913	379.55
396.292	387.46
396.671	394.47
397.05	381.13
397.429	395.14
397.808	394.24
398.186	379.33
398.565	399.89
398.944	382.04
399.323	402.6
399.701	393.11
400.08	428.59
400.458	412.09
400.837	417.29
401.215	413
401.594	411.42
401.972	412.55
402.351	406.67
402.729	419.55
403.107	436.95
403.486	436.95
403.864	439.66
404.242	446.67
404.62	427.01
404.999	446.44
405.377	439.44
405.755	454.13
406.133	476.95
406.511	441.92
406.889	450.28
407.267	499.77
407.645	472.88
408.023	483.96
408.401	469.95
408.779	489.83
409.156	469.72
409.534	497.74
409.912	492.77
410.29	510.4
410.667	522.37
411.045	526.89
411.422	523.73
411.8	530.06
412.178	520.34
412.555	537.06
412.933	545.88
413.31	568.02
413.687	547.23
414.065	567.12
414.442	578.19
414.819	590.85
415.197	573.22
415.574	602.6
415.951	616.61
416.328	633.33
416.705	629.04
417.082	605.31
417.46	622.03
417.837	644.18
418.214	627.91
418.591	643.05
418.967	644.18
419.344	657.74
419.721	631.07
420.098	684.63
420.475	683.5
420.852	707.91
421.228	696.83
421.605	717.4
421.982	751.75
422.358	742.93
422.735	751.29
423.111	760.79
423.488	762.14
423.864	759.66
424.241	784.51
424.617	820.67
424.994	811.86
425.37	825.19
425.746	822.03
426.123	840.33
426.499	855.47
426.875	862.93
427.251	859.54
427.627	892.08
428.003	885.08
428.379	880.56
428.756	918.3
429.132	902.02
429.507	936.37
429.883	952.19
430.259	991.97
430.635	958.97
431.011	973.89
431.387	998.74
431.763	1011.63
432.138	1017.95
432.514	1038.29
432.89	1020.21
433.265	1045.07
433.641	1073.32
434.016	1077.84
434.392	1099.99
434.767	1130.27
435.143	1140.44
435.518	1153.09
435.894	1163.26
436.269	1179.08
436.644	1187.44
437.02	1226.54
437.395	1264.27
437.77	1252.07
438.145	1278.51
438.52	1291.17
438.895	1321
439.271	1336.82
439.646	1341.79
440.021	1390.37
440.395	1389.02
440.77	1367.32
441.145	1406.87
441.52	1440.77
441.895	1440.54
442.27	1447.77
442.645	1465.4
443.019	1476.92
443.394	1488.9
443.769	1503.82
444.143	1518.05
444.518	1550.37
444.892	1579.97
445.267	1580.42
445.641	1598.28
446.016	1588.11
446.39	1620.2
446.764	1635.34
447.139	1598.28
447.513	1628.33
447.887	1662.68
448.262	1630.82
448.636	1671.95
449.01	1700.87
449.384	1703.59
449.758	1736.13
450.132	1735.9
450.506	1768.22
450.88	1779.97
451.254	1756.01
451.628	1761.66
452.002	1826.75
452.376	1814.54
452.75	1845.28
453.123	1856.35
453.497	1907.2
453.871	1888.21
454.244	1942.9
454.618	1970.92
454.992	1988.1
455.365	1986.06
455.739	2065.84
456.112	2059.73
456.486	2079.85
456.859	2108.55
457.232	2122.11
457.606	2149.9
457.979	2162.1
458.352	2183.57
458.725	2250.69
459.099	2248.88
459.472	2317.81
459.845	2313.29
460.218	2328.2
460.591	2357.58
460.964	2395.77
461.337	2421.31
461.71	2458.59
462.083	2475.32
462.456	2490.91
462.829	2529.55
463.201	2591.47
463.574	2578.14
463.947	2673.28
464.32	2659.49
464.692	2699.27
465.065	2700.62
465.438	2773.16
465.81	2837.79
466.183	2852.93
466.555	2845.93
466.928	2914.17
467.3	2958.92
467.672	2974.29
468.045	3063.55
468.417	3070.78
468.789	3123.43
469.161	3143.1
469.534	3206.14
469.906	3291.79
470.278	3322.3
470.65	3360.26
471.022	3434.39
471.394	3510.32
471.766	3532.01
472.138	3565.91
472.51	3688.17
472.882	3696.53
473.253	3782.63
473.625	3797.99
473.997	3915.05
474.369	3906.69
474.74	4004.32
475.112	4095.61
475.484	4172.67
475.855	4245.67
476.227	4281.14
476.598	4394.59
476.97	4428.26
477.341	4536.28
477.713	4608.37
478.084	4674.35
478.455	4790.06
478.827	4859.43
479.198	4992.54
479.569	5012.2
479.94	5166.32
480.311	5225.98
480.682	5358.63
481.053	5475.46
481.424	5590.49
481.795	5663.03
482.166	5782.57
482.537	5850.37
482.908	5999.07
483.279	5998.61
483.65	6161.32
484.021	6284.93
484.391	6394.54
484.762	6440.86
485.133	6581.87
485.503	6636.34
485.874	6759.05
486.244	6837.91
486.615	7030.45
486.985	7062.99
487.356	7213.72
487.726	7272.25
488.097	7498.01
488.467	7477.9
488.837	7691.22
489.207	7785.01
489.578	7937.55
489.948	8043.31
490.318	8121.95
490.688	8133.92
491.058	8297.31
491.428	8437.19
491.798	8459.79
492.168	8621.37
492.538	8672.67
492.908	8793.12
493.278	8864.3
493.648	8942.94
494.017	9048.7
494.387	9117.63
494.757	9219.09
495.126	9294.35
495.496	9348.13
495.866	9421.12
496.235	9539.76
496.605	9621.12
496.974	9694.11
497.344	9736.14
497.713	9822.92
498.082	9834.22
498.452	9916.25
498.821	9954.67
499.19	10057.04
499.559	10127.77
499.928	10190.82
500.298	10258.61
500.667	10302
501.036	10261.1
501.405	10325.28
501.774	10360.76
502.143	10450.47
502.512	10455.45
502.88	10554.2
503.249	10570.7
503.618	10614.31
503.987	10600.75
504.356	10693.86
504.724	10777.47
505.093	10711.94
505.462	10798.49
505.83	10878.49
506.199	10963.23
506.567	11014.07
506.936	10968.43
507.304	11124.13
507.672	11201.41
508.041	11178.59
508.409	11195.09
508.777	11300.17
509.145	11287.97
509.514	11248.64
509.882	11289.1
510.25	11364.12
510.618	11433.72
510.986	11404.8
511.354	11485.25
511.722	11527.06
512.09	11580.61
512.458	11506.27
512.826	11670.1
513.193	11675.07
513.561	11597.11
513.929	11704.23
514.297	11714.4
514.664	11773.6
515.032	11730.67
515.4	11854.96
515.767	11801.85
516.135	11845.01
516.502	11769.99
516.869	11875.52
517.237	11909.19
517.604	11826.26
517.972	11955.07
518.339	11875.07
518.706	11946.03
519.073	11942.64
519.44	11889.76
519.808	12035.97
520.175	11957.55
520.542	12107.83
520.909	12078
521.276	12085.01
521.643	12114.84
522.009	12118.23
522.376	12125.23
522.743	12236.64
523.11	12234.38
523.477	12249.07
523.843	12287.71
524.21	12306.92
524.577	12335.4
524.943	12343.53
525.31	12415.85
525.676	12407.48
526.043	12394.15
526.409	12407.94
526.776	12419.91
527.142	12422.4
527.508	12393.02
527.874	12501.27
528.241	12326.36
528.607	12417.88
528.973	12448.84
529.339	12382.4
529.705	12416.52
530.071	12483.64
530.437	12372.46
530.803	12417.43
531.169	12449.74
531.535	12365.23
531.901	12406.81
532.267	12256.98
532.632	12330.42
532.998	12304.44
533.364	12268.96
533.73	12282.74
534.095	12315.51
534.461	12218.11
534.826	12214.95
535.192	12237.09
535.557	12248.62
535.923	12128.85
536.288	12060.83
536.653	12098.57
537.019	12032.13
537.384	12019.02
537.749	12009.53
538.114	11930.43
538.479	11770.44
538.845	11835.52
539.21	11733.83
539.575	11774.51
539.94	11662.19
540.305	11726.82
540.67	11624.91
541.034	11605.25
541.399	11626.94
541.764	11596.66
542.129	11514.85
542.494	11489.54
542.858	11393.5
543.223	11361.64
543.587	11423.56
543.952	11278.02
544.316	11221.3
544.681	11212.71
545.045	11196.89
545.41	11165.48
545.774	11122.77
546.138	11062.66
546.503	11052.72
546.867	10927.07
547.231	10930.69
547.595	10816.34
547.959	10931.37
548.324	10851.82
548.688	10763.46
549.052	10654.54
549.416	10674.87
549.779	10642.11
550.143	10576.35
550.507	10577.7
550.871	10550.81
551.235	10532.51
551.599	10523.47
551.962	10457.25
552.326	10403.92
552.689	10398.5
553.053	10342.91
553.417	10254.77
553.78	10298.39
554.143	10233.76
554.507	10234.89
554.87	10235.56
555.234	10264.94
555.597	10133.42
555.96	10144.95
556.323	10122.35
556.686	10058.39
557.05	10030.15
557.413	10107.43
557.776	9885.97
558.139	10027.66
558.502	9925.97
558.865	9971.16
559.228	9966.64
559.59	9923.71
559.953	9893.43
560.316	9940.66
560.679	9930.71
561.041	9924.61
561.404	9926.42
561.767	9939.75
562.129	9798.29
562.492	9925.97
562.854	9814.33
563.217	9804.84
563.579	9886.87
563.941	9873.31
564.304	9835.8
564.666	9851.39
565.028	9786.76
565.39	9735.69
565.753	9901.79
566.115	9772.53
566.477	9784.73
566.839	9806.42
567.201	9841.9
567.563	9846.42
567.925	9864.95
568.287	9893.2
568.648	9714.67
569.01	9829.25
569.372	9886.87
569.734	9782.24
570.095	9855.69
570.457	9735.69
570.819	9824.05
571.18	9831.73
571.542	9772.53
571.903	9791.96
572.265	9871.51
572.626	9818.63
572.987	9787.44
573.349	9812.75
573.71	9863.82
574.071	9820.89
574.432	9839.87
574.794	9869.92
575.155	9829.93
575.516	9872.86
575.877	9860.66
576.238	9810.49
576.599	9864.27
576.96	9809.36
577.32	9840.09
577.681	9853.88
578.042	9835.8
578.403	9818.17
578.763	9848
579.124	9901.56
579.485	9831.28
579.845	9812.98
580.206	9836.03
580.566	9828.8
580.927	9874.44
581.287	9825.18
581.648	9754.67
582.008	9833.77
582.368	9795.8
582.728	9847.55
583.089	9812.07
583.449	9715.35
583.809	9722.81
584.169	9776.37
584.529	9677.84
584.889	9773.88
585.249	9725.97
585.609	9681
585.969	9663.6
586.329	9686.2
586.688	9718.97
587.048	9683.94
587.408	9645.75
587.768	9651.85
588.127	9609.14
588.487	9632.42
588.846	9634.9
589.206	9674.67
589.565	9629.03
589.925	9674.22
590.284	9619.54
590.643	9603.94
591.003	9605.52
591.362	9626.77
591.721	9546.77
592.08	9464.51
592.44	9609.59
592.799	9554.9
593.158	9506.32
593.517	9485.3
593.876	9584.28
594.235	9459.09
594.593	9520.55
594.952	9438.3
595.311	9494.57
595.67	9459.31
596.029	9488.69
596.387	9513.55
596.746	9542.02
597.104	9481.69
597.463	9454.79
597.822	9462.25
598.18	9428.35
598.538	9447.56
598.897	9394.46
599.255	9370.05
599.613	9516.26
599.972	9410.73
600.33	9493.44
600.688	9411.18
601.046	9401.46
601.404	9478.97
601.762	9395.36
602.12	9459.77
602.478	9416.15
602.836	9408.47
603.194	9407.34
603.552	9429.03
603.91	9360.33
604.268	9435.13
604.625	9394
604.983	9378.86
605.341	9384.51
605.698	9382.48
606.056	9398.98
606.413	9458.64
606.771	9457.73
607.128	9422.03
607.485	9379.54
607.843	9396.72
608.2	9424.74
608.557	9428.13
608.914	9355.36
609.272	9428.81
609.629	9441.01
609.986	9511.06
610.343	9419.31
610.7	9512.42
611.057	9467.67
611.414	9431.74
611.771	9445.3
612.127	9450.73
612.484	9452.99
612.841	9502.02
613.198	9492.98
613.554	9490.95
613.911	9454.79
614.267	9507.9
614.624	9553.32
614.98	9491.63
615.337	9578.86
615.693	9558.52
616.05	9497.5
616.406	9556.94
616.762	9486.43
617.118	9552.19
617.475	9555.13
617.831	9577.28
618.187	9622.7
618.543	9567.11
618.899	9649.36
619.255	9575.02
619.611	9576.82
619.967	9603.04
620.323	9590.61
620.678	9608.01
621.034	9513.1
621.39	9577.95
621.746	9589.48
622.101	9732.07
622.457	9608.24
622.812	9595.36
623.168	9698.18
623.523	9606.2
623.879	9717.16
624.234	9483.72
624.589	9580.89
624.945	9652.08
625.3	9647.11
625.655	9601.46
626.01	9607.78
626.365	9601.23
626.72	9577.73
627.075	9596.26
627.43	9613.89
627.785	9561.01
628.14	9583.6
628.495	9591.97
628.85	9540.89
629.205	9504.28
629.559	9619.08
629.914	9553.77
630.269	9549.93
630.623	9508.35
630.978	9441.46
631.332	9478.75
631.687	9616.15
632.041	9462.48
632.396	9497.96
632.75	9445.08
633.104	9523.04
633.459	9479.65
633.813	9398.98
634.167	9423.61
634.521	9406.89
634.875	9423.61
635.229	9385.42
635.583	9397.17
635.937	9343.84
636.291	9352.65
636.645	9349.49
636.999	9317.4
637.352	9319.88
637.706	9227.91
638.06	9255.7
638.413	9262.93
638.767	9221.13
639.121	9249.6
639.474	9180
639.828	9244.18
640.181	9194.46
640.534	9237.85
640.888	9205.53
641.241	9162.82
641.594	9231.3
641.947	9185.2
642.301	9201.47
642.654	9212.54
643.007	9198.08
643.36	9197.63
643.713	9165.54
644.066	9181.35
644.419	9142.94
644.771	9000.12
645.124	9073.79
645.477	8986.33
645.83	8911.53
646.182	8896.84
646.535	8861.59
646.888	8874.92
647.24	8788.14
647.593	8900.91
647.945	8847.13
648.298	8813.23
648.65	8769.16
649.002	8765.77
649.355	8811.19
649.707	8799.67
650.059	8877.18
650.411	8988.37
650.763	8998.76
651.115	9043.96
651.467	9074.92
651.819	9115.14
652.171	9071.3
652.523	9010.74
652.875	9059.55
653.227	8987.46
653.578	9079.89
653.93	9056.16
654.282	9020.68
654.633	9060.45
654.985	9020.91
655.337	9019.32
655.688	9029.49
656.039	9102.71
656.391	8999.66
656.742	9003.51
657.094	9057.06
657.445	9056.16
657.796	9007.35
658.147	9031.08
658.498	9019.55
658.849	9040.57
659.2	9145.65
659.551	9029.49
659.902	9073.33
660.253	9031.98
660.604	9112.43
660.955	9100.45
661.306	9056.39
661.656	9080.11
662.007	9082.83
662.358	9065.43
662.708	9112.88
663.059	9047.8
663.409	9071.53
663.76	9130.06
664.11	9151.98
664.461	9133.45
664.811	9074.92
665.161	9086.67
665.511	9125.31
665.862	9143.39
666.212	9140.45
666.562	9195.82
666.912	9141.58
667.262	9191.98
667.612	9136.61
667.962	9193.56
668.312	9074.69
668.662	9193.78
669.011	9147.23
669.361	9111.3
669.711	9146.33
670.06	9104.29
670.41	9072.43
670.76	9034.92
671.109	9149.27
671.459	9097.97
671.808	9069.72
672.157	9073.11
672.507	9105.2
672.856	9010.96
673.205	9034.69
673.554	9067.46
673.904	9040.12
674.253	9083.96
674.602	9098.42
674.951	8913.57
675.3	8875.15
675.649	9021.13
675.998	9023.62
676.346	9021.81
676.695	9014.58
677.044	8937.07
677.393	9022.94
677.741	8986.78
678.09	8958.76
678.438	8901.59
678.787	8926.45
679.135	8969.38
679.484	8871.98
679.832	8936.84
680.181	8845.32
680.529	8894.13
680.877	8824.53
681.225	8765.55
681.573	8845.54
681.922	8807.81
682.27	8767.81
682.618	8812.78
682.966	8756.28
683.314	8787.01
683.661	8740.69
684.009	8743.4
684.357	8671.99
684.705	8645.78
685.053	8671.99
685.4	8625.44
685.748	8570.98
686.095	8613.23
686.443	8568.49
686.79	8511.09
687.138	8607.36
687.485	8522.16
687.832	8517.42
688.18	8513.12
688.527	8443.29
688.874	8460.92
689.221	8413.92
689.568	8354.48
689.915	8384.31
690.262	8323.52
690.609	8300.7
690.956	8270.64
691.303	8255.73
691.65	8220.48
691.997	8213.7
692.344	8175.05
692.69	8116.3
693.037	8154.26
693.383	8061.38
693.73	8083.76
694.077	7968.51
694.423	8018.9
694.769	8011.89
695.116	7912.24
695.462	7957.21
695.808	7921.27
696.155	7898.68
696.501	7832.92
696.847	7815.06
697.193	7742.3
697.539	7781.17
697.885	7644.45
698.231	7701.85
698.577	7685.8
698.923	7730.77
699.269	7625.24
699.614	7522.87
699.96	7571
700.306	7539.82
700.651	7491.46
700.997	7467.05
701.342	7428.86
701.688	7432.47
702.033	7378.24
702.379	7386.37
702.724	7344.11
703.069	7357.67
703.415	7279.48
703.76	7255.3
704.105	7254.85
704.45	7288.3
704.795	7118.81
705.14	7151.13
705.485	7182.31
705.83	7074.74
706.175	7153.16
706.52	7088.53
706.865	7016.44
707.209	7057.12
707.554	7005.14
707.899	7024.8
708.243	6989.77
708.588	6921.75
708.932	6927.4
709.277	6925.14
709.621	6881.3
709.966	6837.69
710.31	6866.39
710.654	6849.66
710.998	6801.76
711.342	6779.16
711.687	6765.6
712.031	6782.77
712.375	6698.93
712.719	6676.56
713.063	6692.38
713.407	6721.31
713.75	6627.3
714.094	6647.18
714.438	6593.63
714.782	6700.97
715.125	6605.6
715.469	6647.64
715.812	6608.54
716.156	6644.47
716.499	6541.42
716.843	6597.69
717.186	6572.61
717.53	6540.52
717.873	6616.68
718.216	6533.06
718.559	6493.97
718.902	6463.01
719.246	6537.58
719.589	6489.67
719.932	6463.23
720.275	6452.61
720.617	6418.72
720.96	6490.8
721.303	6481.54
721.646	6517.24
721.989	6436.12
722.331	6499.17
722.674	6432.27
723.016	6361.54
723.359	6457.36
723.701	6418.72
724.044	6369
724.386	6346.85
724.729	6356.8
725.071	6361.32
725.413	6362.22
725.755	6417.13
726.097	6354.54
726.439	6360.41
726.782	6334.65
727.124	6340.3
727.465	6281.54
727.807	6350.47
728.149	6299.4
728.491	6325.16
728.833	6299.85
729.175	6307.53
729.516	6289.91
729.858	6297.14
730.199	6305.72
730.541	6295.78
730.882	6338.94
731.224	6288.1
731.565	6300.07
731.906	6334.42
732.248	6330.13
732.589	6265.05
732.93	6257.36
733.271	6283.35
733.612	6330.13
733.953	6337.36
734.294	6305.95
734.635	6298.72
734.976	6350.24
735.317	6261.43
735.658	6329.9
735.999	6309.57
736.339	6377.13
736.68	6387.08
737.021	6338.27
737.361	6345.05
737.702	6381.65
738.042	6364.93
738.383	6369.23
738.723	6380.75
739.063	6342.56
739.404	6418.72
739.744	6435.89
740.084	6384.14
740.424	6452.84
740.764	6432.5
741.104	6469.34
741.444	6434.99
741.784	6446.74
742.124	6507.53
742.464	6479.96
742.804	6523.8
743.143	6560.63
743.483	6513.18
743.823	6570.12
744.162	6590.69
744.502	6681.08
744.841	6664.13
745.181	6670.91
745.52	6753.62
745.86	6775.54
746.199	6764.47
746.538	6837.01
746.877	6853.73
747.216	6958.36
747.556	6928.98
747.895	6953.16
748.234	7035.42
748.573	7079.71
748.911	7080.62
749.25	7142.09
749.589	7252.82
749.928	7301.18
750.267	7392.48
750.605	7503.21
750.944	7472.47
751.283	7568.29
751.621	7655.52
751.96	7733.71
752.298	7828.85
752.636	7959.69
752.975	8063.64
753.313	8097.99
753.651	8292.11
753.989	8312.68
754.327	8419.11
754.666	8527.59
755.004	8676.51
755.342	8772.55
755.679	8922.83
756.017	9005.99
756.355	9201.47
756.693	9335.25
757.031	9441.91
757.368	9592.42
757.706	9666.99
758.044	9819.76
758.381	9992.41
758.719	10098.17
759.056	10318.73
759.394	10410.02
759.731	10610.47
760.068	10743.57
760.405	10879.16
760.743	11096.78
761.08	11259.94
761.417	11363.67
761.754	11543.33
762.091	11693.15
762.428	11925.92
762.765	12027.61
763.102	12260.6
763.438	12318.67
763.775	12560.47
764.112	12745.1
764.449	12934.02
764.785	13087.92
765.122	13149.39
765.458	13355.03
765.795	13510.51
766.131	13611.75
766.467	13821.91
766.804	13968.8
767.14	14084.73
767.476	14223.26
767.812	14355.23
768.148	14514.32
768.485	14629.35
768.821	14797.25
769.157	14910.7
769.492	14997.7
769.828	15121.31
770.164	15225.94
770.5	15312.27
770.836	15533.05
771.171	15561.53
771.507	15599.04
771.842	15698.25
772.178	15841.29
772.513	15933.27
772.849	16007.39
773.184	16133.26
773.519	16198.8
773.855	16291.45
774.19	16372.8
774.525	16298.91
774.86	16469.07
775.195	16635.4
775.53	16639.24
775.865	16654.15
776.2	16758.33
776.535	16662.06
776.87	16869.51
777.205	16788.61
777.539	16792
777.874	16985.67
778.209	16852.79
778.543	16899.57
778.878	16933.02
779.212	16933.02
779.547	17063.86
779.881	17117.42
780.215	17089.17
780.55	17164.65
780.884	17085.78
781.218	17157.19
781.552	17274.48
781.886	17161.71
782.22	17205.32
782.554	17123.52
782.888	17051.2
783.222	17134.14
783.556	17019.11
783.889	17219.56
784.223	17060.92
784.557	17093.69
784.89	17207.36
785.224	17053.46
785.557	17091.88
785.891	17058.44
786.224	17060.47
786.558	17072.67
786.891	17011.21
787.224	16984.31
787.557	17004.43
787.891	16961.26
788.224	16951.77
788.557	17002.17
788.89	16969.85
789.223	16937.76
789.556	16899.57
789.888	16901.15
790.221	16922.62
790.554	16748.61
790.887	16885.33
791.219	16738.22
791.552	16831.1
791.884	16777.31
792.217	16728.05
792.549	16707.48
792.882	16681.95
793.214	16532.57
793.546	16600.82
793.879	16505.46
794.211	16506.36
794.543	16553.36
794.875	16538.68
795.207	16516.75
795.539	16360.6
795.871	16388.17
796.203	16363.76
796.535	16281.96
796.867	16296.87
797.198	16289.64
797.53	16210.32
797.862	16093.04
798.193	16205.12
798.525	16028.86
798.856	16191.79
799.188	16006.71
799.519	15853.72
799.85	15881.74
800.182	15900.95
800.513	15951.8
800.844	15722.43
801.175	15958.13
801.506	15881.07
801.837	15844
802.168	15753.84
802.499	15720.62
802.83	15611.47
803.161	15613.5
803.491	15620.96
803.822	15562.43
804.153	15513.17
804.483	15453.96
804.814	15425.26
805.145	15388.42
805.475	15387.07
805.805	15352.49
806.136	15295.09
806.466	15396.11
806.796	15222.33
807.126	15214.87
807.457	15199.5
807.787	15224.36
808.117	15091.71
808.447	15024.36
808.777	15199.73
809.107	15058.04
809.436	14953.18
809.766	15004.25
810.096	14904.14
810.426	14909.57
810.755	14956.12
811.085	14845.84
811.414	14888.55
811.744	14820.98
812.073	14773.52
812.403	14818.49
812.732	14611.04
813.061	14710.47
813.39	14619.4
813.719	14513.87
814.049	14698.27
814.378	14570.59
814.707	14575.34
815.036	14496.47
815.365	14472.51
815.693	14312.52
816.022	14416.02
816.351	14387.09
816.68	14247.89
817.008	14283.59
817.337	14149.81
817.665	14131.73
817.994	14224.39
818.322	14187.1
818.651	14180.55
818.979	14158.62
819.307	14222.35
819.636	14173.09
819.964	14072.07
820.292	14134.44
820.62	14124.05
820.948	14121.56
821.276	14091.73
821.604	14017.16
821.932	14086.31
822.259	14093.77
822.587	14000.89
822.915	13934.22
823.243	14065.07
823.57	13988.23
823.898	13942.59
824.225	14034.33
824.553	14042.02
824.88	14018.52
825.207	14037.95
825.535	14058.06
825.862	14094.9
826.189	14003.37
826.516	14160.88
826.843	14071.17
827.17	14087.89
827.497	14102.81
827.824	14011.06
828.151	14057.16
828.478	14029.59
828.805	14136.25
829.131	14038.4
829.458	14067.55
829.785	14038.4
830.111	14119.53
830.438	14101.9
830.764	14107.55
831.09	14135.35
831.417	14052.86
831.743	14055.58
832.069	14037.95
832.395	14031.62
832.722	13987.56
833.048	13948.46
833.374	13965.86
833.7	13964.05
834.026	13922.92
834.351	13953.43
834.677	13949.59
835.003	13935.81
835.329	13872.53
835.654	13948.91
835.98	13920.44
836.306	13865.07
836.631	13784.4
836.956	13954.56
837.282	13873.66
837.607	13909.14
837.932	13723.83
838.258	13753.21
838.583	13811.74
838.908	13638.86
839.233	13721.8
839.558	13727.45
839.883	13553.22
840.208	13642.48
840.533	13597.96
840.858	13662.37
841.182	13586.66
841.507	13567.23
841.832	13487
842.156	13488.13
842.481	13467.12
842.805	13524.74
843.13	13449.49
843.454	13396.39
843.778	13413.33
844.103	13306.44
844.427	13284.52
844.751	13303.05
845.075	13197.07
845.399	13214.69
845.723	13117.52
846.047	13133.57
846.371	13017.64
846.695	12987.81
847.019	12916.85
847.343	12858.09
847.666	12790.75
847.99	12728.83
848.313	12749.62
848.637	12712.34
848.96	12729.96
849.284	12636.41
849.607	12602.73
849.931	12451.78
850.254	12478.9
850.577	12374.04
850.9	12314.83
851.223	12265.57
851.546	12254.27
851.869	12063.31
852.192	12224.21
852.515	12074.84
852.838	12080.71
853.161	12028.29
853.483	12033.93
853.806	11961.62
854.129	11786.48
854.451	11862.19
854.774	11753.26
855.096	11788.52
855.419	11666.49
855.741	11737.22
856.063	11646.83
856.385	11639.6
856.708	11617
857.03	11598.47
857.352	11545.13
857.674	11508.75
857.996	11502.42
858.318	11421.97
858.64	11379.94
858.961	11374.29
859.283	11366.16
859.605	11270.57
859.926	11312.37
860.248	11235.99
860.57	11184.47
860.891	11249.1
861.212	11167.07
861.534	11079.38
861.855	11090.23
862.176	11131.13
862.498	11050.91
862.819	11124.35
863.14	11022.21
863.461	11019.95
863.782	10960.06
864.103	11000.29
864.424	10944.25
864.745	11001.87
865.065	10929.56
865.386	10897.92
865.707	10849.79
866.027	10866.28
866.348	10803.01
866.668	10858.82
866.989	10816.79
867.309	10774.31
867.63	10782.22
867.95	10848.43
868.27	10665.61
868.59	10701.77
868.91	10686.85
869.23	10627.64
869.55	10654.54
869.87	10740.64
870.19	10636.46
870.51	10687.3
870.83	10563.01
871.15	10591.49
871.469	10558.49
871.789	10567.53
872.109	10554.88
872.428	10543.13
872.748	10526.4
873.067	10451.15
873.386	10467.87
873.706	10453.86
874.025	10373.64
874.344	10389.46
874.663	10353.75
874.982	10276.24
875.301	10356.92
875.62	10313.3
875.939	10318.5
876.258	10281.66
876.577	10312.62
876.896	10276.24
877.214	10232.17
877.533	10315.34
877.852	10244.6
878.17	10224.04
878.489	10254.55
878.807	10186.3
879.125	10227.88
879.444	10220.65
879.762	10160.09
880.08	10038.73
880.398	10045.06
880.716	10131.84
881.034	10079.86
881.352	10031.05
881.67	9935.69
881.988	10017.49
882.306	9956.7
882.624	9961.9
882.941	9881
883.259	9900.43
883.577	9810.04
883.894	9822.69
884.212	9814.56
884.529	9897.04
884.846	9788.12
885.164	9732.53
885.481	9756.71
885.798	9755.58
886.115	9643.26
886.432	9648.46
886.75	9679.19
887.067	9634.68
887.383	9583.6
887.7	9575.47
888.017	9553.1
888.334	9516.49
888.651	9474
888.967	9543.6
889.284	9410.5
889.6	9410.73
889.917	9337.96
890.233	9332.76
890.55	9314.91
890.866	9362.82
891.182	9289.6
891.498	9344.06
891.815	9322.82
892.131	9162.37
892.447	9210.73
892.763	9112.43
893.079	9223.84
893.395	9109.04
893.71	9079.89
894.026	9122.37
894.342	9001.02
894.657	8997.86
894.973	8921.02
895.289	8946.78
895.604	8897.97
895.92	8819.56
896.235	8829.27
896.55	8761.25
896.865	8815.04
897.181	8822.27
897.496	8754.02
897.811	8797.41
898.126	8636.28
898.441	8707.24
898.756	8649.39
899.071	8598.32
899.386	8603.06
899.7	8527.36
900.015	8474.25
900.33	8363.97
900.644	8416.4
900.959	8413.01
901.273	8336.41
901.588	8373.69
901.902	8315.39
902.216	8335.05
902.531	8286.69
902.845	8193.36
903.159	8154.71
903.473	8188.84
903.787	8062.06
904.101	8048.73
904.415	8042.63
904.729	8017.32
905.042	7967.38
905.356	7961.5
905.67	7923.53
905.984	7947.26
906.297	7906.81
906.611	7806.25
906.924	7832.24
907.237	7822.52
907.551	7765.35
907.864	7707.5
908.177	7716.31
908.491	7670.43
908.804	7638.12
909.117	7542.75
909.43	7543.43
909.743	7494.39
910.056	7394.51
910.368	7399.25
910.681	7437.67
910.994	7351.8
911.307	7388.86
911.619	7287.39
911.932	7315.41
912.244	7262.31
912.557	7224.34
912.869	7161.07
913.181	7178.92
913.494	7214.4
913.806	7115.42
914.118	7071.13
914.43	7034.52
914.742	7020.73
915.054	7008.53
915.366	6957.91
915.678	6916.56
915.99	6894.64
916.302	6817.35
916.613	6852.6
916.925	6860.29
917.236	6839.95
917.548	6818.93
917.859	6761.08
918.171	6680.4
918.482	6696
918.794	6676.11
919.105	6668.65
919.416	6666.62
919.727	6587.98
920.038	6578.94
920.349	6557.02
920.66	6510.92
920.971	6510.69
921.282	6438.15
921.593	6432.05
921.903	6389.56
922.214	6398.6
922.525	6378.26
922.835	6331.49
923.146	6265.95
923.456	6316.8
923.767	6265.05
924.077	6285.84
924.387	6199.74
924.697	6225.05
925.008	6151.15
925.318	6145.28
925.628	6087.42
925.938	6090.14
926.248	6043.58
926.558	6002.91
926.867	6018.95
927.177	5969.69
927.487	5956.13
927.796	5913.87
928.106	5922.01
928.416	5880.65
928.725	5840.2
929.034	5861.22
929.344	5799.52
929.653	5817.38
929.962	5761.78
930.271	5798.62
930.581	5763.37
930.89	5635.46
931.199	5669.36
931.508	5650.15
931.817	5612.86
932.125	5626.65
932.434	5602.69
932.743	5503.49
933.051	5574.44
933.36	5528.34
933.669	5444.96
933.977	5463.94
934.286	5417.39
934.594	5457.16
934.902	5379.87
935.21	5356.6
935.519	5325.86
935.827	5368.12
936.135	5270.05
936.443	5285.41
936.751	5251.29
937.059	5256.71
937.367	5226.2
937.674	5211.29
937.982	5217.84
938.29	5105.98
938.597	5175.36
938.905	5070.28
939.213	5057.4
939.52	5097.62
939.827	5075.25
940.135	5062.14
940.442	5020.11
940.749	4978.53
941.056	4974.46
941.363	4958.41
941.67	4964.29
941.977	4895.82
942.284	4891.3
942.591	4837.29
942.898	4851.07
943.205	4846.1
943.511	4837.51
943.818	4777.85
944.125	4776.27
944.431	4788.25
944.738	4755.93
945.044	4680
945.35	4705.54
945.657	4690.63
945.963	4620.12
946.269	4610.85
946.575	4633.9
946.881	4599.78
947.187	4593.9
947.493	4562.04
947.799	4488.82
948.105	4495.38
948.41	4494.92
948.716	4474.36
949.022	4435.26
949.327	4453.57
949.633	4398.88
949.938	4411.99
950.244	4433
950.549	4347.81
950.854	4332.67
951.16	4337.87
951.465	4289.28
951.77	4272.78
952.075	4292.67
952.38	4236.4
952.685	4186.23
952.99	4243.18
953.294	4202.95
953.599	4150.75
953.904	4140.13
954.209	4154.37
954.513	4113.47
954.818	4094.71
955.122	4071.88
955.426	4094.26
955.731	4062.62
956.035	4037.54
956.339	4051.77
956.643	4023.07
956.948	4002.73
957.252	4000.7
957.556	3937.65
957.86	3962.06
958.163	3913.7
958.467	3912.34
958.771	3861.95
959.075	3885.45
959.378	3848.16
959.682	3829.63
959.985	3785.11
960.289	3797.54
960.592	3781.5
960.896	3792.57
961.199	3729.29
961.502	3731.1
961.805	3699.92
962.108	3747.37
962.411	3649.52
962.714	3687.94
963.017	3700.14
963.32	3659.69
963.623	3616.98
963.926	3587.6
964.228	3602.52
964.531	3596.19
964.833	3552.58
965.136	3515.74
965.438	3536.76
965.741	3536.31
966.043	3489.07
966.345	3513.71
966.648	3457.89
966.95	3444.78
967.252	3451.79
967.554	3454.5
967.856	3421.73
968.158	3400.26
968.46	3406.82
968.761	3383.31
969.063	3351.9
969.365	3388.51
969.666	3341.51
969.968	3306.71
970.269	3298.8
970.571	3318.68
970.872	3299.02
971.174	3229.65
971.475	3249.31
971.776	3240.95
972.077	3189.65
972.378	3205.69
972.679	3210.21
972.98	3179.03
973.281	3151.23
973.582	3136.54
973.883	3132.93
974.183	3114.62
974.484	3116.2
974.785	3112.14
975.085	3086.15
975.386	3112.59
975.686	3056.09
975.986	3024.23
976.287	3019.26
976.587	3000.5
976.887	2950.11
977.187	3012.93
977.487	2934.51
977.787	2991.01
978.087	2932.48
978.387	2930.67
978.687	2900.39
978.987	2908.07
979.286	2874.4
979.586	2860.62
979.885	2851.58
980.185	2857.23
980.484	2831.92
980.784	2835.08
981.083	2790.79
981.382	2832.37
981.682	2788.98
981.981	2768.19
982.28	2746.04
982.579	2745.59
982.878	2711.92
983.177	2728.42
983.475	2747.4
983.774	2694.97
984.073	2682.77
984.372	2684.35
984.67	2702.2
984.969	2649.55
985.267	2626.95
985.566	2638.48
985.864	2606.16
986.162	2591.02
986.461	2591.47
986.759	2580.17
987.057	2623.79
987.355	2578.59
987.653	2552.6
987.951	2539.5
988.249	2537.24
988.547	2499.72
988.844	2515.09
989.142	2493.85
989.44	2494.52
989.737	2446.84
990.035	2462.66
990.332	2456.11
990.63	2446.84
990.927	2438.48
991.224	2408.88
991.521	2414.53
991.819	2399.84
992.116	2390.8
992.413	2370.91
992.71	2333.63
993.006	2354.64
993.303	2331.37
993.6	2306.06
993.897	2310.57
994.193	2306.73
994.49	2307.86
994.787	2278.03
995.083	2262.89
995.379	2257.92
995.676	2246.62
995.972	2242.78
996.268	2200.97
996.565	2203.23
996.861	2206.4
997.157	2180.18
997.453	2187.19
997.749	2172.27
998.044	2183.12
998.34	2158.26
998.636	2133.63
998.932	2109
999.227	2119.39
999.523	2111.48
999.818	2093.63
1000.114	2097.02
1000.409	2081.43
1000.704	2087.76
1001	2035.1
1001.295	2062.67
1001.59	2071.26
1001.885	2013.18
1002.18	1995.55
1002.475	1998.72
1002.77	1992.17
1003.065	1987.19
1003.359	1978.38
1003.654	1974.99
1003.949	1934.54
1004.243	1943.13
1004.538	1886.63
1004.832	1944.26
1005.127	1912.85
1005.421	1890.92
1005.715	1858.38
1006.009	1881.43
1006.304	1850.7
1006.598	1854.99
1006.892	1838.72
1007.186	1832.17
1007.48	1810.47
1007.773	1805.28
1008.067	1796.69
1008.361	1773.19
1008.655	1764.15
1008.948	1745.62
1009.242	1745.62
1009.535	1764.6
1009.829	1750.36
1010.122	1737.71
1010.415	1736.58
1010.708	1696.58
1011.001	1701.33
1011.295	1710.82
1011.588	1692.96
1011.881	1685.51
1012.173	1669.46
1012.466	1670.59
1012.759	1644.6
1013.052	1651.16
1013.344	1626.3
1013.637	1614.32
1013.93	1610.03
1014.222	1620.2
1014.514	1594.66
1014.807	1568.9
1015.099	1564.61
1015.391	1550.14
1015.683	1560.09
1015.976	1561.44
1016.268	1555.34
1016.56	1526.87
1016.851	1522.12
1017.143	1525.74
1017.435	1494.78
1017.727	1505.85
1018.018	1473.31
1018.31	1483.25
1018.602	1455
1018.893	1437.38
1019.185	1414.78
1019.476	1445.96
1019.767	1425.4
1020.058	1435.34
1020.35	1417.26
1020.641	1403.03
1020.932	1388.11
1021.223	1381.11
1021.514	1377.49
1021.804	1367.32
1022.095	1353.76
1022.386	1339.07
1022.677	1359.19
1022.967	1325.29
1023.258	1306.53
1023.548	1323.03
1023.839	1307.89
1024.129	1296.14
1024.419	1264.5
1024.709	1299.98
1025	1263.82
1025.29	1248.91
1025.58	1256.14
1025.87	1231.96
1026.16	1248.46
1026.449	1233.09
1026.739	1223.6
1027.029	1190.15
1027.319	1238.51
1027.608	1196.25
1027.898	1193.32
1028.187	1185.41
1028.477	1209.13
1028.766	1172.75
1029.055	1149.25
1029.344	1147.44
1029.634	1158.74
1029.923	1152.87
1030.212	1116.93
1030.501	1153.77
1030.79	1113.77
1031.078	1115.13
1031.367	1090.72
1031.656	1113.32
1031.945	1085.07
1032.233	1096.14
1032.522	1061.12
1032.81	1072.42
1033.099	1064.96
1033.387	1062.92
1033.675	1057.05
1033.963	1054.56
1034.251	1051.17
1034.54	1030.61
1034.828	1011.63
1035.116	997.16
1035.403	1005.52
1035.691	1035.13
1035.979	979.76
1036.267	983.83
1036.554	995.36
1036.842	989.25
1037.129	967.79
1037.417	977.95
1037.704	968.24
1037.992	935.92
1038.279	943.38
1038.566	949.93
1038.853	949.93
1039.14	949.93
