Data from hue_250_FLMS001491_00099.txt Node
Date: Tue Feb 07 16:01:46 GMT 2017
User: dcchb
Spectrometer: FLMS00149
Trigger mode: 0
Integration Time (sec): 2.000000E-2
Scans to average: 10
Electric dark correction enabled: true
Nonlinearity correction enabled: false
Boxcar width: 0
XAxis mode: Wavelengths
Number of Pixels in Spectrum: 2048
>>>>>Begin Spectral Data<<<<<
341.393	-14.38
341.776	-14.38
342.16	-14.38
342.543	-57.99
342.927	-59.8
343.31	-64.09
343.693	-72
344.077	-72
344.46	-50.99
344.843	-46.24
345.226	-51.67
345.61	-30.42
345.993	-23.64
346.376	-1.72
346.759	22.23
347.142	27.43
347.525	39.63
347.908	59.52
348.291	57.71
348.674	106.75
349.057	99.52
349.44	123.92
349.823	154.88
350.206	158.5
350.588	189.46
350.971	196.92
351.354	204.37
351.737	191.49
352.119	243.69
352.502	250.93
352.884	266.74
353.267	254.99
353.65	296.12
354.032	272.85
354.414	276.69
354.797	292.28
355.179	308.1
355.562	317.36
355.944	320.3
356.326	319.4
356.709	316.01
357.091	308.1
357.473	330.7
357.855	329.79
358.238	321.21
358.62	327.53
359.002	345.84
359.384	318.27
359.766	327.08
360.148	315.78
360.53	325.73
360.912	306.97
361.294	313.97
361.676	306.52
362.057	331.83
362.439	316.69
362.821	314.2
363.203	322.56
363.584	321.88
363.966	315.56
364.348	317.82
364.729	323.24
365.111	320.98
365.493	334.09
365.874	323.69
366.256	303.58
366.637	312.84
367.019	320.08
367.4	317.59
367.781	320.3
368.163	297.48
368.544	309.46
368.925	315.33
369.306	305.84
369.688	290.25
370.069	297.25
370.45	313.75
370.831	306.52
371.212	310.13
371.593	285.05
371.974	291.38
372.355	287.53
372.736	299.51
373.117	288.89
373.498	318.72
373.879	307.42
374.26	296.57
374.641	313.97
375.021	297.03
375.402	287.99
375.783	318.27
376.163	333.86
376.544	315.56
376.925	304.26
377.305	315.56
377.686	309.46
378.066	304.48
378.447	300.64
378.827	322.56
379.208	312.39
379.588	337.03
379.968	307.65
380.349	314.88
380.729	308.78
381.109	321.43
381.489	345.61
381.87	311.94
382.25	321.21
382.63	324.14
383.01	326.63
383.39	343.58
383.77	326.86
384.15	324.37
384.53	323.01
384.91	339.06
385.29	345.84
385.67	347.87
386.049	340.19
386.429	341.09
386.809	351.26
387.189	340.41
387.568	349.68
387.948	332.96
388.328	335.9
388.707	328.44
389.087	330.7
389.466	346.97
389.846	367.08
390.225	339.06
390.605	345.61
390.984	348.32
391.363	343.35
391.743	360.08
392.122	367.08
392.501	347.65
392.881	361.43
393.26	379.74
393.639	343.35
394.018	394.2
394.397	360.08
394.776	366.4
395.155	379.96
395.534	370.02
395.913	396.01
396.292	387.19
396.671	365.27
397.05	385.61
397.429	376.12
397.808	402.11
398.186	371.37
398.565	389.91
398.944	400.53
399.323	369.11
399.701	384.93
400.08	403.69
400.458	413.41
400.837	406.63
401.215	418.6
401.594	414.09
401.972	406.63
402.351	402.11
402.729	412.96
403.107	398.72
403.486	411.15
403.864	424.93
404.242	419.28
404.62	432.62
404.999	408.44
405.377	429.45
405.755	425.16
406.133	433.75
406.511	442.33
406.889	456.34
407.267	454.08
407.645	450.24
408.023	444.37
408.401	460.19
408.779	453.41
409.156	474.65
409.534	494.08
409.912	471.71
410.29	516.23
410.667	487.08
411.045	490.24
411.422	493.86
411.8	513.07
412.178	500.18
412.555	513.74
412.933	532.27
413.31	525.04
413.687	525.49
414.065	534.53
414.442	543.35
414.819	533.18
415.197	557.81
415.574	555.55
415.951	564.36
416.328	579.28
416.705	559.84
417.082	573.18
417.46	591.71
417.837	593.97
418.214	631.71
418.591	610.69
418.967	616.34
419.344	624.7
419.721	620.86
420.098	666.96
420.475	645.94
420.852	660.41
421.228	672.84
421.605	691.14
421.982	664.02
422.358	664.02
422.735	695.43
423.111	699.73
423.488	732.04
423.864	704.25
424.241	744.02
424.617	725.72
424.994	747.86
425.37	768.65
425.746	760.52
426.123	758.71
426.499	792.15
426.875	803.68
427.251	803.45
427.627	827.86
428.003	816.11
428.379	843.45
428.756	832.15
429.132	844.13
429.507	840.29
429.883	867.41
430.259	880.51
430.635	885.71
431.011	883.9
431.387	932.49
431.763	912.83
432.138	928.2
432.514	960.96
432.89	953.73
433.265	993.28
433.641	989.21
434.016	994.41
434.392	1027.85
434.767	1038.7
435.143	1048.42
435.518	1034.18
435.894	1070.34
436.269	1073.28
436.644	1131.58
437.02	1091.36
437.395	1128.64
437.77	1152.14
438.145	1174.29
438.52	1198.47
438.895	1190.79
439.271	1169.09
439.646	1230.79
440.021	1247.96
440.395	1249.77
440.77	1252.48
441.145	1284.34
441.52	1282.76
441.895	1321.86
442.27	1304.46
442.645	1325.02
443.019	1320.05
443.394	1349.43
443.769	1361.4
444.143	1337
444.518	1373.61
444.892	1359.82
445.267	1381.97
445.641	1382.87
446.016	1411.35
446.39	1440.72
446.764	1403.21
447.139	1411.8
447.513	1451.12
447.887	1461.52
448.262	1449.76
448.636	1459.71
449.01	1487.05
449.384	1502.19
449.758	1504.23
450.132	1507.16
450.506	1545.58
450.88	1531.12
451.254	1546.26
451.628	1585.35
452.002	1568.63
452.376	1576.77
452.75	1625.58
453.123	1610.21
453.497	1632.81
453.871	1651.34
454.244	1666.48
454.618	1674.17
454.992	1738.34
455.365	1724.79
455.739	1763.65
456.112	1750.55
456.486	1777.67
456.859	1815.63
457.232	1810.88
457.606	1792.58
457.979	1851.56
458.352	1870.54
458.725	1903.76
459.099	1923.42
459.472	1929.75
459.845	1976.53
460.218	1985.57
460.591	1965
460.964	1995.06
461.337	2009.07
461.71	2062.4
462.083	2066.02
462.456	2062.18
462.829	2093.36
463.201	2127.26
463.574	2168.62
463.947	2162.74
464.32	2176.75
464.692	2211.1
465.065	2254.94
465.438	2311.66
465.81	2314.6
466.183	2307.59
466.555	2368.84
466.928	2342.62
467.3	2368.38
467.672	2388.27
468.045	2448.38
468.417	2460.36
468.789	2489.06
469.161	2512.56
469.534	2551.43
469.906	2565.22
470.278	2595.72
470.65	2641.6
471.022	2682.73
471.394	2734.7
471.766	2733.35
472.138	2763.18
472.51	2825.55
472.882	2843.4
473.253	2884.08
473.625	2895.6
473.997	2950.52
474.369	2971.98
474.74	3010.85
475.112	3062.6
475.484	3059.21
475.855	3162.94
476.227	3173.33
476.598	3191.19
476.97	3298.53
477.341	3295.37
477.713	3382.37
478.084	3355.25
478.455	3494.23
478.827	3425.76
479.198	3550.27
479.569	3574.45
479.94	3649.71
480.311	3687.67
480.682	3728.8
481.053	3778.74
481.424	3866.42
481.795	3895.58
482.166	3952.07
482.537	3995.69
482.908	4032.07
483.279	4085.4
483.65	4150.94
484.021	4251.5
484.391	4243.14
484.762	4316.36
485.133	4362
485.503	4381.44
485.874	4489.91
486.244	4457.14
486.615	4556.8
486.985	4628.66
487.356	4712.05
487.726	4675.44
488.097	4750.02
488.467	4791.37
488.837	4893.29
489.207	4946.17
489.578	5007.64
489.948	5040.86
490.318	5052.38
490.688	5080.18
491.058	5138.93
491.428	5234.75
491.798	5289.21
492.168	5345.25
492.538	5388.87
492.908	5401.52
493.278	5449.21
493.648	5484.23
494.017	5564.23
494.387	5526.95
494.757	5627.51
495.126	5631.58
495.496	5688.52
495.866	5683.78
496.235	5743.89
496.605	5765.58
496.974	5793.83
497.344	5843.55
497.713	5896.65
498.082	5883.55
498.452	5933.94
498.821	6018.23
499.19	5965.58
499.559	6005.58
499.928	6052.13
500.298	6113.6
500.667	6117.44
501.036	6128.51
501.405	6175.29
501.774	6152.24
502.143	6210.54
502.512	6246.25
502.88	6306.36
503.249	6266.59
503.618	6301.16
503.987	6348.62
504.356	6309.3
504.724	6387.49
505.093	6382.97
505.462	6385.23
505.83	6446.02
506.199	6407.37
506.567	6539.57
506.936	6494.83
507.304	6547.94
507.672	6611.21
508.041	6639.01
508.409	6636.52
508.777	6650.08
509.145	6713.13
509.514	6714.26
509.882	6727.14
510.25	6731.43
510.618	6690.98
510.986	6752.9
511.354	6768.72
511.722	6836.29
512.09	6860.7
512.458	6823.18
512.826	6866.34
513.193	6917.42
513.561	6851.43
513.929	6949.28
514.297	6973.01
514.664	6997.64
515.032	6990.18
515.4	7022.72
515.767	6958.77
516.135	7045.78
516.502	6962.61
516.869	7110.41
517.237	7044.42
517.604	7030.86
517.972	7096.17
518.339	7115.15
518.706	7131.87
519.073	7179.11
519.44	7168.94
519.808	7189.73
520.175	7158.09
520.542	7214.13
520.909	7213.68
521.276	7235.37
521.643	7307.24
522.009	7295.94
522.376	7353.56
522.743	7304.53
523.11	7383.17
523.477	7414.58
523.843	7439.89
524.21	7508.59
524.577	7476.95
524.943	7495.25
525.31	7441.25
525.676	7495.93
526.043	7602.37
526.409	7527.8
526.776	7586.55
527.142	7549.49
527.508	7583.16
527.874	7629.71
528.241	7646.66
528.607	7668.58
528.973	7627
529.339	7625.19
529.705	7709.71
530.071	7704.29
530.437	7693.22
530.803	7743.16
531.169	7711.97
531.535	7638.75
531.901	7700.45
532.267	7747.9
532.632	7750.39
532.998	7683.27
533.364	7717.4
533.73	7694.8
534.095	7744.06
534.461	7763.72
534.826	7795.81
535.192	7718.75
535.557	7778.19
535.923	7719.43
536.288	7749.03
536.653	7745.42
537.019	7727.79
537.384	7744.29
537.749	7724.63
538.114	7774.34
538.479	7710.84
538.845	7755.36
539.21	7716.49
539.575	7682.82
539.94	7656.15
540.305	7758.3
540.67	7677.17
541.034	7669.04
541.399	7759.65
541.764	7726.89
542.129	7654.8
542.494	7663.39
542.858	7689.6
543.223	7659.54
543.587	7699.77
543.952	7688.92
544.316	7664.52
544.681	7670.62
545.045	7667.91
545.41	7686.44
545.774	7634.69
546.138	7640.56
546.503	7618.87
546.867	7592.65
547.231	7677.17
547.595	7571.86
547.959	7593.33
548.324	7601.01
548.688	7578.87
549.052	7634.01
549.416	7545.65
549.779	7504.07
550.143	7525.08
550.507	7551.07
550.871	7554.46
551.235	7499.32
551.599	7547.23
551.962	7597.4
552.326	7530.28
552.689	7497.97
553.053	7518.76
553.417	7510.62
553.78	7551.75
554.143	7503.39
554.507	7513.79
554.87	7527.12
555.234	7601.69
555.597	7478.76
555.96	7536.38
556.323	7537.29
556.686	7521.47
557.05	7604.86
557.413	7547.23
557.776	7551.75
558.139	7542.94
558.502	7571.41
558.865	7527.34
559.228	7577.29
559.59	7533.22
559.953	7650.96
560.316	7622.26
560.679	7630.62
561.041	7626.55
561.404	7674.23
561.767	7690.28
562.129	7653.67
562.492	7711.52
562.854	7622.71
563.217	7666.55
563.579	7703.16
563.941	7763.72
564.304	7766.89
564.666	7784.06
565.028	7797.62
565.39	7825.87
565.753	7771.63
566.115	7844.85
566.477	7849.6
566.839	7835.81
567.201	7903.61
567.563	7906.09
567.925	7957.62
568.287	7918.75
568.648	7948.12
569.01	7973.21
569.372	8032.87
569.734	7965.53
570.095	7967.33
570.457	8027.22
570.819	8021.79
571.18	8019.53
571.542	8089.59
571.903	8059.99
572.265	8079.42
572.626	8162.13
572.987	8176.59
573.349	8143.37
573.71	8170.04
574.071	8188.12
574.432	8189.02
574.794	8245.74
575.155	8197.38
575.516	8127.33
575.877	8251.85
576.238	8271.28
576.599	8304.05
576.96	8292.07
577.32	8344.05
577.681	8354.44
578.042	8366.42
578.403	8372.52
578.763	8375.23
579.124	8372.07
579.485	8401.67
579.845	8484.61
580.206	8439.86
580.566	8511.73
580.927	8445.06
581.287	8520.76
581.648	8530.71
582.008	8493.65
582.368	8480.77
582.728	8563.25
583.089	8451.16
583.449	8557.83
583.809	8595.79
584.169	8568.67
584.529	8550.82
584.889	8657.03
585.249	8655.22
585.609	8589.46
585.969	8677.14
586.329	8645.28
586.688	8729.8
587.048	8720.08
587.408	8699.74
587.768	8682.79
588.127	8668.33
588.487	8687.99
588.846	8805.05
589.206	8732.96
589.565	8797.14
589.925	8793.3
590.284	8723.7
590.643	8802.57
591.003	8811.6
591.362	8825.84
591.721	8770.02
592.08	8747.88
592.44	8814.54
592.799	8856.58
593.158	8857.48
593.517	8816.8
593.876	8848.44
594.235	8908.78
594.593	8871.49
594.952	8887.99
595.311	8886.4
595.67	8874.88
596.029	8881.89
596.387	8872.17
596.746	8913.07
597.104	8887.08
597.463	8857.03
597.822	8964.37
598.18	8902.22
598.538	8904.71
598.897	8913.97
599.255	8874.43
599.613	9047.53
599.972	8998.72
600.33	8977.48
600.688	8992.62
601.046	8927.53
601.404	8992.84
601.762	9021.32
602.12	9047.3
602.478	9027.64
602.836	9058.15
603.194	8967.76
603.552	9048.66
603.91	8977.25
604.268	9054.54
604.625	8986.74
604.983	9055.44
605.341	8964.59
605.698	9024.25
606.056	9086.17
606.413	9038.27
606.771	9076.68
607.128	9098.38
607.485	9029.45
607.843	9078.94
608.2	9090.02
608.557	9143.12
608.914	9068.55
609.272	9174.53
609.629	9106.06
609.986	9183.57
610.343	9184.48
610.7	9229.9
611.057	9124.82
611.414	9247.98
611.771	9158.71
612.127	9250.46
612.484	9212.05
612.841	9285.72
613.198	9199.39
613.554	9155.55
613.911	9294.3
614.267	9286.17
614.624	9217.92
614.98	9240.52
615.337	9313.06
615.693	9194.87
616.05	9311.7
616.406	9317.58
616.762	9266.73
617.118	9285.26
617.475	9258.15
617.831	9325.26
618.187	9292.04
618.543	9330.01
618.899	9369.78
619.255	9285.49
619.611	9381.76
619.967	9374.3
620.323	9449.1
620.678	9381.08
621.034	9408.65
621.39	9362.55
621.746	9360.74
622.101	9471.47
622.457	9416.33
622.812	9404.13
623.168	9371.82
623.523	9359.84
623.879	9435.99
624.234	9347.64
624.589	9406.84
624.945	9404.81
625.3	9416.56
625.655	9354.19
626.01	9456.56
626.365	9398.26
626.72	9341.99
627.075	9360.97
627.43	9358.26
627.785	9357.13
628.14	9382.44
628.495	9317.13
628.85	9410.46
629.205	9341.08
629.559	9374.3
629.914	9308.77
630.269	9311.03
630.623	9363.45
630.978	9261.08
631.332	9284.36
631.687	9330.23
632.041	9287.3
632.396	9328.2
632.75	9270.8
633.104	9259.28
633.459	9234.42
633.813	9180.18
634.167	9255.21
634.521	9196.23
634.875	9213.63
635.229	9236.23
635.583	9182.89
635.937	9139.96
636.291	9185.38
636.645	9174.08
636.999	9135.89
637.352	9108.77
637.706	9104.48
638.06	9059.96
638.413	9152.84
638.767	9093.86
639.121	9111.26
639.474	9017.93
639.828	9022.22
640.181	9087.3
640.534	9027.42
640.888	8997.36
641.241	8899.06
641.594	8957.36
641.947	8968.89
642.301	9003.01
642.654	8982
643.007	8983.8
643.36	8943.8
643.713	8902.45
644.066	8936.57
644.419	8912.17
644.771	8878.95
645.124	8815.45
645.477	8751.95
645.83	8776.35
646.182	8758.95
646.535	8640.08
646.888	8670.82
647.24	8621.1
647.593	8648.22
647.945	8650.25
648.298	8614.1
648.65	8592.4
649.002	8556.92
649.355	8645.73
649.707	8640.76
650.059	8663.36
650.411	8722.34
650.763	8767.31
651.115	8839.63
651.467	8838.27
651.819	8800.08
652.171	8785.84
652.523	8764.15
652.875	8763.7
653.227	8784.71
653.578	8806.18
653.93	8775.45
654.282	8761.66
654.633	8735.9
654.985	8715.34
655.337	8771.38
655.688	8778.39
656.039	8842.11
656.391	8778.39
656.742	8722.34
657.094	8734.77
657.445	8763.24
657.796	8805.5
658.147	8708.78
658.498	8807.99
658.849	8775.9
659.2	8778.39
659.551	8785.16
659.902	8747.88
660.253	8803.47
660.604	8766.63
660.955	8759.4
661.306	8810.7
661.656	8753.3
662.007	8825.62
662.358	8800.53
662.708	8771.38
663.059	8774.77
663.409	8735.22
663.76	8785.62
664.11	8795.11
664.461	8707.65
664.811	8758.95
665.161	8761.66
665.511	8709.01
665.862	8783.36
666.212	8840.98
666.562	8763.02
666.912	8751.49
667.262	8814.99
667.612	8717.6
667.962	8778.84
668.312	8746.97
668.662	8796.92
669.011	8849.12
669.361	8802.79
669.711	8781.55
670.06	8715.11
670.41	8802.57
670.76	8722.34
671.109	8797.82
671.459	8725.05
671.808	8682.34
672.157	8746.07
672.507	8713.53
672.856	8683.7
673.205	8732.06
673.554	8752.4
673.904	8619.29
674.253	8718.27
674.602	8664.49
674.951	8516.7
675.3	8511.27
675.649	8602.12
675.998	8611.61
676.346	8589.92
676.695	8651.38
677.044	8520.76
677.393	8637.15
677.741	8612.97
678.09	8595.79
678.438	8566.64
678.787	8586.53
679.135	8606.19
679.484	8545.62
679.832	8561.44
680.181	8457.04
680.529	8503.82
680.877	8491.16
681.225	8421.11
681.573	8550.14
681.922	8452.52
682.27	8405.51
682.618	8439.64
682.966	8450.03
683.314	8404.38
683.661	8370.03
684.009	8386.3
684.357	8311.28
684.705	8313.54
685.053	8330.04
685.4	8284.16
685.748	8253.43
686.095	8277.38
686.443	8222.47
686.79	8139.53
687.138	8218.85
687.485	8161
687.832	8179.3
688.18	8236.93
688.527	8174.56
688.874	8112.19
689.221	8114.45
689.568	8058.86
689.915	8071.96
690.262	8032.19
690.609	7978.41
690.956	8019.08
691.303	7957.39
691.65	7980.89
691.997	7899.99
692.344	7915.81
692.69	7830.16
693.037	7895.02
693.383	7804.63
693.73	7820.67
694.077	7753.33
694.423	7745.87
694.769	7728.92
695.116	7718.3
695.462	7688.02
695.808	7623.39
696.155	7708.81
696.501	7624.97
696.847	7578.19
697.193	7521.24
697.539	7532.99
697.885	7474.69
698.231	7477.4
698.577	7442.6
698.923	7423.84
699.269	7345.65
699.614	7390.4
699.96	7334.58
700.306	7360.12
700.651	7266.33
700.997	7245.54
701.342	7236.5
701.688	7263.85
702.033	7227.47
702.379	7180.91
702.724	7168.03
703.069	7144.76
703.415	7079.9
703.76	7107.69
704.105	7103.4
704.45	7101.82
704.795	7082.84
705.14	6999.45
705.485	6969.39
705.83	6940.02
706.175	6943.63
706.52	6928.49
706.865	6938.43
707.209	6878.32
707.554	6883.29
707.899	6874.93
708.243	6782.96
708.588	6788.61
708.932	6806.46
709.277	6765.78
709.621	6766.91
709.966	6755.16
710.31	6689.17
710.654	6675.16
710.998	6669.97
711.342	6697.08
711.687	6617.99
712.031	6653.7
712.375	6654.83
712.719	6618.22
713.063	6653.02
713.407	6584.77
713.75	6607.14
714.094	6563.3
714.438	6549.74
714.782	6527.14
715.125	6516.98
715.469	6495.06
715.812	6449.18
716.156	6472
716.499	6453.02
716.843	6419.35
717.186	6398.56
717.53	6445.79
717.873	6457.54
718.216	6425.23
718.559	6436.75
718.902	6321.05
719.246	6356.75
719.589	6337.09
719.932	6352.69
720.275	6326.02
720.617	6360.82
720.96	6332.12
721.303	6331.9
721.646	6328.73
721.989	6317.43
722.331	6299.13
722.674	6259.13
723.016	6288.28
723.359	6330.99
723.701	6348.62
724.044	6247.6
724.386	6218.68
724.729	6211.67
725.071	6240.37
725.413	6222.97
725.755	6262.97
726.097	6219.13
726.439	6181.62
726.782	6197.66
727.124	6193.59
727.465	6224.55
727.807	6190.2
728.149	6173.26
728.491	6180.49
728.833	6198.34
729.175	6171.22
729.516	6108.62
729.858	6146.14
730.199	6117.89
730.541	6164.67
730.882	6128.51
731.224	6187.04
731.565	6121.51
731.906	6144.33
732.248	6156.31
732.589	6154.05
732.93	6151.11
733.271	6148.4
733.612	6170.77
733.953	6151.11
734.294	6109.08
734.635	6127.16
734.976	6112.92
735.317	6121.28
735.658	6123.77
735.999	6163.76
736.339	6110.21
736.68	6119.47
737.021	6112.01
737.361	6121.28
737.702	6129.64
738.042	6135.06
738.383	6147.72
738.723	6133.71
739.063	6114.5
739.404	6156.31
739.744	6161.73
740.084	6112.92
740.424	6148.17
740.764	6126.7
741.104	6209.19
741.444	6140.94
741.784	6160.37
742.124	6159.24
742.464	6203.54
742.804	6193.37
743.143	6190.43
743.483	6243.31
743.823	6215.74
744.162	6261.84
744.502	6184.1
744.841	6232.46
745.181	6283.08
745.52	6339.35
745.86	6355.4
746.199	6350.2
746.538	6415.06
746.877	6422.51
747.216	6391.33
747.556	6420.48
747.895	6505.22
748.234	6513.59
748.573	6568.05
748.911	6535.96
749.25	6612.57
749.589	6593.13
749.928	6692.11
750.267	6781.83
750.605	6754.71
750.944	6855.95
751.283	6839.9
751.621	6915.16
751.96	6983.4
752.298	7011.88
752.636	7090.07
752.975	7113.34
753.313	7154.7
753.651	7256.17
753.989	7272.44
754.327	7392.66
754.666	7430.85
755.004	7532.09
755.342	7662.26
755.679	7706.32
756.017	7713.1
756.355	7878.75
756.693	7927.56
757.031	8054.79
757.368	8117.61
757.706	8159.19
758.044	8313.31
758.381	8353.99
758.719	8481.9
759.056	8619.52
759.394	8658.84
759.731	8748.1
760.068	8831.04
760.405	8902.22
760.743	9023.58
761.08	9094.31
761.417	9196.23
761.754	9297.24
762.091	9392.61
762.428	9478.48
762.765	9577.01
763.102	9745.59
763.438	9828.75
763.775	9898.58
764.112	9989.65
764.449	10119.59
764.785	10141.51
765.122	10216.09
765.458	10310.32
765.795	10389.87
766.131	10543.99
766.467	10612.91
766.804	10686.58
767.14	10815.62
767.476	10949.85
767.812	10911.21
768.148	11060.81
768.485	11048.61
768.821	11102.39
769.157	11239.79
769.492	11279.34
769.828	11318.43
770.164	11376.06
770.5	11443.85
770.836	11531.08
771.171	11543.96
771.507	11564.07
771.842	11557.52
772.178	11622.6
772.513	11720.91
772.849	11813.11
773.184	11795.25
773.519	11890.62
773.855	11896.5
774.19	11845.87
774.525	11983.05
774.86	11928.13
775.195	11997.96
775.53	11977.85
775.865	11973.78
776.2	12047.23
776.535	12012.42
776.87	12112.53
777.205	11981.69
777.539	12023.95
777.874	12137.17
778.209	12086.77
778.543	12152.31
778.878	12065.76
779.212	12089.03
779.547	12054.01
779.881	12159.77
780.215	12103.04
780.55	12135.81
780.884	12178.52
781.218	12101.24
781.552	12150.27
781.886	12094
782.22	12122.7
782.554	12191.63
782.888	12019.43
783.222	12066.66
783.556	11990.73
783.889	12041.12
784.223	11951.86
784.557	11856.95
784.89	12013.1
785.224	11967.45
785.557	11915.48
785.891	11993.89
786.224	11954.57
786.558	11891.75
786.891	11837.29
787.224	11802.26
787.557	11757.52
787.891	11890.85
788.224	11742.83
788.557	11814.92
788.89	11751.19
789.223	11841.13
789.556	11745.09
789.888	11713.45
790.221	11768.36
790.554	11602.04
790.887	11679.1
791.219	11588.03
791.552	11577.18
791.884	11644.52
792.217	11571.76
792.549	11545.32
792.882	11424.64
793.214	11434.13
793.546	11476.62
793.879	11394.81
794.211	11310.75
794.543	11404.53
794.875	11387.81
795.207	11413.8
795.539	11353.68
795.871	11351.65
796.203	11241.37
796.535	11192.78
796.867	11177.42
797.198	11178.77
797.53	11140.13
797.862	11061.71
798.193	11184.42
798.525	11050.64
798.856	11085.44
799.188	10964.99
799.519	10969.29
799.85	10983.98
800.182	10978.55
800.513	10899.91
800.844	10830.53
801.175	10881.61
801.506	10953.47
801.837	10823.53
802.168	10817.65
802.499	10710.76
802.83	10730.42
803.161	10638.9
803.491	10714.61
803.822	10643.42
804.153	10636.42
804.483	10630.09
804.814	10509.86
805.145	10599.58
805.475	10548.28
805.805	10511.9
806.136	10478.23
806.466	10456.08
806.796	10486.59
807.126	10392.35
807.457	10396.2
807.787	10337.21
808.117	10339.02
808.447	10313.71
808.777	10348.51
809.107	10240.95
809.436	10259.02
809.766	10298.57
810.096	10234.39
810.426	10153.26
810.755	10245.01
811.085	10169.53
811.414	10148.29
811.744	10148.07
812.073	10099.03
812.403	10065.58
812.732	9974.96
813.061	10074.62
813.39	9974.29
813.719	9971.8
814.049	10054.51
814.378	9916.21
814.707	9865.36
815.036	9930.9
815.365	9838.47
815.693	9757.34
816.022	9834.85
816.351	9741.3
816.68	9787.4
817.008	9748.3
817.337	9736.1
817.665	9711.02
817.994	9750.11
818.322	9662.88
818.651	9645.93
818.979	9583.79
819.307	9647.74
819.636	9627.4
819.964	9558.25
820.292	9609.78
820.62	9554.64
820.948	9589.89
821.276	9628.08
821.604	9516.9
821.932	9576.1
822.259	9581.98
822.587	9565.93
822.915	9551.92
823.243	9568.87
823.57	9552.38
823.898	9565.26
824.225	9474.41
824.553	9526.84
824.88	9513.51
825.207	9568.19
825.535	9581.3
825.862	9571.36
826.189	9516.67
826.516	9547.18
826.843	9617.46
827.17	9527.74
827.497	9596.67
827.824	9571.36
828.151	9567.29
828.478	9602.32
828.805	9614.07
829.131	9526.84
829.458	9562.77
829.785	9548.08
830.111	9534.52
830.438	9609.78
830.764	9546.5
831.09	9551.25
831.417	9538.37
831.743	9539.49
832.069	9544.01
832.395	9533.17
832.722	9563.45
833.048	9511.7
833.374	9579.04
833.7	9459.5
834.026	9523
834.351	9538.59
834.677	9426.5
835.003	9455.2
835.329	9483
835.654	9467.18
835.98	9478.93
836.306	9413.85
836.631	9388.99
836.956	9454.3
837.282	9424.47
837.607	9360.29
837.932	9345.15
838.258	9391.48
838.583	9348.54
838.908	9299.95
839.233	9250.46
839.558	9284.59
839.883	9273.51
840.208	9224.02
840.533	9253.85
840.858	9254.53
841.182	9268.09
841.507	9171.6
841.832	9177.7
842.156	9121.2
842.481	9181.76
842.805	9088.21
843.13	9124.59
843.454	9156.91
843.778	9050.24
844.103	9117.36
844.427	9001.2
844.751	9024.25
845.075	9025.16
845.399	8939.96
845.723	8974.76
846.047	9029.9
846.371	8860.87
846.695	8918.04
847.019	8798.27
847.343	8753.07
847.666	8769.57
847.99	8666.07
848.313	8713.3
848.637	8660.2
848.96	8657.03
849.284	8628.56
849.607	8527.09
849.931	8502.01
850.254	8447.09
850.577	8404.38
850.9	8336.59
851.223	8417.94
851.546	8313.76
851.869	8309.24
852.192	8297.72
852.515	8192.64
852.838	8226.08
853.161	8168.68
853.483	8209.59
853.806	8173.2
854.129	8158.29
854.451	8095.92
854.774	8082.36
855.096	8016.82
855.419	8017.95
855.741	7998.07
856.063	7964.17
856.385	7986.99
856.708	7965.75
857.03	7911.29
857.352	7916.49
857.674	7845.98
857.996	7859.77
858.318	7792.65
858.64	7757.39
858.961	7798.07
859.283	7715.59
859.605	7676.27
859.926	7740.9
860.248	7699.09
860.57	7698.19
860.891	7675.82
861.212	7601.24
861.534	7574.8
861.855	7580.45
862.176	7560.56
862.498	7608.25
862.819	7587.91
863.14	7549.94
863.461	7551.3
863.782	7511.53
864.103	7464.75
864.424	7505.42
864.745	7542.94
865.065	7465.2
865.386	7438.99
865.707	7390.62
866.027	7388.59
866.348	7452.32
866.668	7417.06
866.989	7398.53
867.309	7345.65
867.63	7373.68
867.95	7337.29
868.27	7270.63
868.59	7285.77
868.91	7324.19
869.23	7340.91
869.55	7257.75
869.87	7333.9
870.19	7243.51
870.51	7273.57
870.83	7278.09
871.15	7263.4
871.469	7220.01
871.789	7210.52
872.109	7278.09
872.428	7151.08
872.748	7210.74
873.067	7176.62
873.386	7175.26
873.706	7167.13
874.025	7121.71
874.344	7115.38
874.663	7114.02
874.982	7127.35
875.301	7090.52
875.62	7086.68
875.939	7042.61
876.258	7007.58
876.577	7050.75
876.896	7096.62
877.214	7001.26
877.533	7006
877.852	7039.22
878.17	7036.28
878.489	7006.23
878.807	6982.73
879.125	6958.77
879.444	6924.42
879.762	6952.44
880.08	6934.37
880.398	6953.8
880.716	6882.84
881.034	6886.01
881.352	6891.88
881.67	6870.19
881.988	6880.13
882.306	6834.71
882.624	6803.3
882.941	6767.59
883.259	6760.81
883.577	6763.52
883.894	6723.3
884.212	6741.15
884.529	6718.55
884.846	6657.08
885.164	6694.37
885.481	6678.55
885.798	6642.17
886.115	6642.4
886.432	6684.65
886.75	6588.84
887.067	6622.28
887.383	6629.06
887.7	6585.67
888.017	6543.64
888.334	6540.03
888.651	6543.64
888.967	6518.78
889.284	6479.69
889.6	6474.49
889.917	6427.03
890.233	6443.08
890.55	6369.18
890.866	6400.37
891.182	6366.25
891.498	6377.09
891.815	6374.38
892.131	6303.87
892.447	6306.13
892.763	6319.01
893.079	6267.04
893.395	6274.5
893.71	6225.46
894.026	6206.25
894.342	6207.38
894.657	6146.82
894.973	6158.11
895.289	6166.7
895.604	6165.8
895.92	6087.16
896.235	6089.64
896.55	6053.26
896.865	6087.16
897.181	6055.52
897.496	5985.46
897.811	6006.25
898.126	5949.31
898.441	5967.61
898.756	5940.04
899.071	5933.94
899.386	5887.39
899.7	5872.7
900.015	5870.89
900.33	5872.47
900.644	5750.89
900.959	5786.37
901.273	5804.45
901.588	5754.96
901.902	5756.54
902.216	5748.18
902.531	5680.84
902.845	5692.59
903.159	5667.51
903.473	5593.61
903.787	5620.73
904.101	5550.45
904.415	5519.49
904.729	5549.77
905.042	5464.35
905.356	5531.92
905.67	5479.04
905.984	5543.44
906.297	5455.99
906.611	5395.65
906.924	5425.7
907.237	5400.17
907.551	5359.27
907.864	5377.12
908.177	5394.97
908.491	5333.73
908.804	5291.7
909.117	5290.57
909.43	5191.36
909.743	5215.99
910.056	5194.75
910.368	5182.77
910.681	5139.84
910.994	5117.69
911.307	5142.55
911.619	5092.38
911.932	5070.91
912.244	5054.19
912.557	5055.09
912.869	4992.5
913.181	4996.11
913.494	4999.5
913.806	4943.01
914.118	4918.15
914.43	4886.06
914.742	4875.66
915.054	4905.49
915.366	4838.6
915.678	4831.6
915.99	4794.53
916.302	4754.76
916.613	4778.49
916.925	4789.56
917.236	4764.25
917.548	4726.51
917.859	4683.13
918.171	4658.04
918.482	4646.74
918.794	4679.06
919.105	4657.82
919.416	4586.4
919.727	4604.94
920.038	4562
920.349	4535.56
920.66	4520.42
920.971	4530.81
921.282	4493.98
921.593	4504.37
921.903	4498.05
922.214	4416.24
922.525	4423.7
922.835	4432.74
923.146	4404.26
923.456	4438.61
923.767	4356.13
924.077	4371.5
924.387	4358.84
924.697	4309.8
925.008	4316.36
925.318	4309.8
925.628	4277.94
925.938	4195
926.248	4211.73
926.558	4211.95
926.867	4169.47
927.177	4150.26
927.487	4161.33
927.796	4144.61
928.106	4114.33
928.416	4129.02
928.725	4140.31
929.034	4088.11
929.344	4099.19
929.653	4050.37
929.962	4012.86
930.271	4043.37
930.581	3998.4
930.89	3981.67
931.199	3980.77
931.508	3943.26
931.817	3948
932.125	3928.34
932.434	3943.26
932.743	3910.26
933.051	3884.28
933.36	3869.81
933.669	3826.2
933.977	3826.42
934.286	3844.05
934.594	3797.5
934.902	3770.61
935.21	3755.69
935.519	3766.99
935.827	3729.25
936.135	3703.49
936.443	3698.52
936.751	3669.82
937.059	3693.77
937.367	3673.66
937.674	3664.62
937.982	3643.6
938.29	3617.16
938.597	3615.13
938.905	3592.76
939.213	3563.38
939.52	3558.64
939.827	3581.23
940.135	3539.65
940.442	3493.78
940.749	3499.2
941.056	3468.92
941.363	3484.06
941.67	3444.74
941.977	3428.02
942.284	3410.84
942.591	3404.97
942.898	3404.52
943.205	3410.84
943.511	3341.24
943.818	3367.45
944.125	3340.56
944.431	3344.86
944.738	3341.47
945.044	3318.87
945.35	3282.48
945.657	3291.98
945.963	3216.27
946.269	3201.36
946.575	3253.11
946.881	3206.1
947.187	3199.32
947.493	3207.01
947.799	3179.89
948.105	3195.71
948.41	3167.69
948.716	3136.5
949.022	3136.73
949.327	3094.69
949.633	3096.95
949.938	3098.31
950.244	3114.58
950.549	3087.46
950.854	3056.5
951.16	3060.8
951.465	3058.76
951.77	3038.2
952.075	3016.5
952.38	2994.58
952.685	2962.27
952.99	2981.02
953.294	2956.39
953.599	2906.9
953.904	2936.73
954.209	2925.21
954.513	2916.62
954.818	2884.08
955.122	2902.61
955.426	2898.54
955.731	2845.89
956.035	2849.95
956.339	2835.94
956.643	2840.24
956.948	2793.23
957.252	2776.51
957.556	2734.7
957.86	2765.66
958.163	2778.99
958.467	2774.93
958.771	2724.53
959.075	2757.98
959.378	2729.5
959.682	2735.15
959.985	2727.92
960.289	2720.24
960.592	2686.57
960.896	2645.89
961.199	2656.96
961.502	2660.13
961.805	2626.46
962.108	2614.25
962.411	2595.04
962.714	2589.62
963.017	2590.07
963.32	2571.99
963.623	2556.18
963.926	2579.23
964.228	2554.37
964.531	2504.43
964.833	2570.19
965.136	2512.56
965.438	2510.3
965.741	2461.26
966.043	2451.77
966.345	2462.62
966.648	2472.11
966.95	2487.93
967.252	2440.92
967.554	2444.99
967.856	2450.19
968.158	2424.2
968.46	2414.03
968.761	2394.37
969.063	2404.99
969.365	2389.4
969.666	2349.63
969.968	2338.1
970.269	2368.84
970.571	2366.58
970.872	2318.22
971.174	2331.55
971.475	2330.42
971.776	2307.14
972.077	2321.83
972.378	2311.89
972.679	2280.02
972.98	2260.14
973.281	2248.16
973.582	2257.2
973.883	2246.35
974.183	2229.63
974.484	2239.35
974.785	2203.87
975.085	2208.16
975.386	2215.39
975.686	2197.32
975.986	2156.19
976.287	2160.48
976.587	2166.36
976.887	2153.93
977.187	2165.23
977.487	2119.35
977.787	2111.44
978.087	2097.2
978.387	2070.31
978.687	2091.1
978.987	2088.62
979.286	2080.48
979.586	2068.5
979.885	2028.51
980.185	2059.01
980.484	2059.47
980.784	2010.88
981.083	1998.9
981.382	2022.63
981.682	2007.94
981.981	2000.48
982.28	1994.83
982.579	1960.26
982.878	1983.54
983.177	1977.66
983.475	2003.65
983.774	1916.64
984.073	1925.91
984.372	1926.36
984.67	1932.46
984.969	1924.33
985.267	1923.65
985.566	1919.13
985.864	1892.69
986.162	1884.78
986.461	1857.21
986.759	1886.81
987.057	1851.34
987.355	1836.42
987.653	1851.34
987.951	1848.85
988.249	1870.09
988.547	1847.04
988.844	1822.18
989.142	1812.24
989.44	1833.03
989.737	1821.96
990.035	1803.88
990.332	1791.22
990.63	1784.22
990.927	1781.28
991.224	1745.58
991.521	1785.57
991.819	1757.33
992.116	1723.2
992.413	1732.47
992.71	1690.89
993.006	1704.9
993.303	1682.75
993.6	1715.29
993.897	1703.54
994.193	1689.31
994.49	1655.41
994.787	1677.55
995.083	1662.64
995.379	1677.78
995.676	1639.36
995.972	1630.78
996.268	1608.4
996.565	1624.22
996.861	1595.75
997.157	1593.49
997.453	1598.23
997.749	1570.21
998.044	1577.44
998.34	1587.84
998.636	1545.13
998.932	1570.44
999.227	1558.01
999.523	1551
999.818	1540.84
1000.114	1531.34
1000.409	1525.47
1000.704	1498.58
1001	1515.3
1001.295	1520.72
1001.59	1505.13
1001.885	1509.88
1002.18	1417.67
1002.475	1473.72
1002.77	1433.04
1003.065	1446.15
1003.359	1460.61
1003.654	1435.98
1003.949	1437.56
1004.243	1428.07
1004.538	1408.64
1004.832	1424.23
1005.127	1411.8
1005.421	1409.54
1005.715	1381.74
1006.009	1363.66
1006.304	1373.83
1006.598	1366.38
1006.892	1384.23
1007.186	1360.27
1007.48	1355.3
1007.773	1339.94
1008.067	1361.63
1008.361	1313.04
1008.655	1303.55
1008.948	1307.85
1009.242	1289.54
1009.535	1290.9
1009.829	1279.15
1010.122	1304.23
1010.415	1286.83
1010.708	1275.53
1011.001	1261.29
1011.295	1268.53
1011.588	1233.05
1011.881	1260.62
1012.173	1242.09
1012.466	1246.83
1012.759	1220.39
1013.052	1208.64
1013.344	1218.81
1013.637	1227.62
1013.93	1187.17
1014.222	1185.14
1014.514	1196.44
1014.807	1182.2
1015.099	1142.43
1015.391	1168.87
1015.683	1167.06
1015.976	1117.34
1016.268	1140.62
1016.56	1154.18
1016.851	1140.39
1017.143	1123.22
1017.435	1153.95
1017.727	1109.43
1018.018	1118.25
1018.31	1099.49
1018.602	1095.88
1018.893	1095.42
1019.185	1095.65
1019.476	1063.56
1019.767	1090.68
1020.058	1088.42
1020.35	1044.8
1020.641	1039.83
1020.932	1025.59
1021.223	1041.41
1021.514	1022.2
1021.804	1048.19
1022.095	1024.92
1022.386	1018.59
1022.677	1012.26
1022.967	1010.45
1023.258	999.38
1023.548	994.18
1023.839	984.24
1024.129	1010
1024.419	1003.9
1024.709	965.71
1025	993.5
1025.29	963.45
1025.58	974.75
1025.87	971.13
1026.16	926.84
1026.449	967.29
1026.739	945.82
1027.029	911.47
1027.319	910.34
1027.608	923.68
1027.898	924.35
1028.187	897.24
1028.477	894.3
1028.766	908.08
1029.055	898.82
1029.344	885.94
1029.634	883.45
1029.923	889.1
1030.212	874.19
1030.501	859.05
1030.79	876.67
1031.078	863.34
1031.367	853.17
1031.656	844.13
1031.945	849.78
1032.233	846.84
1032.522	863.34
1032.81	828.31
1033.099	800.52
1033.387	827.18
1033.675	814.07
1033.963	816.33
1034.251	793.06
1034.54	805.04
1034.828	777.01
1035.116	796.45
1035.403	779.95
1035.691	803
1035.979	775.43
1036.267	796.67
1036.554	742.66
1036.842	758.48
1037.129	777.69
1037.417	758.48
1037.704	767.52
1037.992	746.73
1038.279	769.33
1038.566	739.95
1038.853	739.95
1039.14	739.95
