Data from hue_160_FLMS001491_00087.txt Node
Date: Tue Feb 07 16:51:49 GMT 2017
User: dcchb
Spectrometer: FLMS00149
Trigger mode: 0
Integration Time (sec): 2.000000E-2
Scans to average: 10
Electric dark correction enabled: true
Nonlinearity correction enabled: false
Boxcar width: 0
XAxis mode: Wavelengths
Number of Pixels in Spectrum: 2048
>>>>>Begin Spectral Data<<<<<
341.393	1.81
341.776	1.81
342.16	1.81
342.543	-55.14
342.927	-65.31
343.31	-63.73
343.693	-86.78
344.077	-61.02
344.46	-58.53
344.843	-57.63
345.226	-34.58
345.61	-34.8
345.993	-20.34
346.376	0
346.759	10.62
347.142	29.15
347.525	40.9
347.908	49.49
348.291	84.29
348.674	92.88
349.057	110.05
349.44	135.14
349.823	131.52
350.206	155.7
350.588	182.82
350.971	207.23
351.354	198.41
351.737	211.97
352.119	244.74
352.502	246.32
352.884	277.51
353.267	274.8
353.65	280.22
354.032	307.34
354.414	288.81
354.797	298.3
355.179	319.54
355.562	312.31
355.944	340.78
356.326	314.79
356.709	333.78
357.091	337.39
357.473	343.27
357.855	328.58
358.238	345.75
358.62	329.71
359.002	357.96
359.384	351.63
359.766	337.17
360.148	332.65
360.53	356.83
360.912	334.68
361.294	321.57
361.676	337.62
362.057	306.66
362.439	318.41
362.821	336.04
363.203	311.63
363.584	334.68
363.966	337.84
364.348	326.09
364.729	320.9
365.111	346.66
365.493	322.7
365.874	327
366.256	307.34
366.637	311.86
367.019	307.56
367.4	308.92
367.781	294.91
368.163	300.11
368.544	313.44
368.925	295.59
369.306	324.51
369.688	315.92
370.069	327.22
370.45	321.57
370.831	310.73
371.212	317.28
371.593	335.13
371.974	301.69
372.355	316.15
372.736	312.08
373.117	335.36
373.498	313.21
373.879	316.38
374.26	299.65
374.641	295.81
375.021	334.68
375.402	303.04
375.783	338.52
376.163	322.7
376.544	324.51
376.925	319.31
377.305	329.48
377.686	344.17
378.066	315.92
378.447	330.61
378.827	310.95
379.208	330.39
379.588	324.29
379.968	344.62
380.349	330.61
380.729	313.66
381.109	323.83
381.489	332.65
381.87	338.07
382.25	340.78
382.63	326.55
383.01	356.6
383.39	348.47
383.77	349.37
384.15	354.79
384.53	343.04
384.91	369.71
385.29	339.43
385.67	356.83
386.049	334.45
386.429	368.35
386.809	362.93
387.189	349.37
387.568	347.79
387.948	341.46
388.328	361.12
388.707	357.05
389.087	343.04
389.466	343.27
389.846	378.75
390.225	367.67
390.605	362.93
390.984	363.83
391.363	350.5
391.743	363.15
392.122	373.78
392.501	369.93
392.881	388.92
393.26	381.68
393.639	368.58
394.018	377.39
394.397	387.56
394.776	391.63
395.155	395.92
395.534	376.26
395.913	374.68
396.292	386.43
396.671	388.01
397.05	378.3
397.429	384.62
397.808	398.18
398.186	394.79
398.565	369.26
398.944	410.84
399.323	383.94
399.701	406.09
400.08	413.55
400.458	388.46
400.837	398.86
401.215	420.1
401.594	416.71
401.972	429.14
402.351	420.33
402.729	422.36
403.107	403.38
403.486	414.68
403.864	410.61
404.242	420.78
404.62	420.1
404.999	421.91
405.377	443.15
405.755	438.18
406.133	445.19
406.511	446.54
406.889	422.36
407.267	441.34
407.645	442.25
408.023	446.99
408.401	444.96
408.779	433.66
409.156	440.89
409.534	439.31
409.912	456.94
410.29	458.07
410.667	489.48
411.045	467.33
411.422	464.85
411.8	456.94
412.178	485.18
412.555	503.49
412.933	488.35
413.31	490.16
413.687	478.18
414.065	486.54
414.442	503.49
414.819	511.62
415.197	499.2
415.574	498.52
415.951	517.05
416.328	524.28
416.705	531.29
417.082	529.93
417.46	519.76
417.837	523.83
418.214	526.99
418.591	531.74
418.967	528.57
419.344	558.4
419.721	541.68
420.098	544.39
420.475	545.97
420.852	549.59
421.228	568.12
421.605	585.52
421.982	567.89
422.358	599.98
422.735	578.06
423.111	569.25
423.488	605.86
423.864	576.93
424.241	598.18
424.617	588.91
424.994	590.27
425.37	609.25
425.746	598.18
426.123	616.48
426.499	627.78
426.875	634.11
427.251	640.89
427.627	621.45
428.003	612.64
428.379	643.37
428.756	653.54
429.132	646.31
429.507	661.23
429.883	660.32
430.259	672.98
430.635	674.33
431.011	678.4
431.387	688.12
431.763	684.05
432.138	685.18
432.514	689.47
432.89	706.87
433.265	728.57
433.641	715.46
434.016	718.63
434.392	755.91
434.767	764.05
435.143	751.17
435.518	764.95
435.894	768.57
436.269	759.3
436.644	792.75
437.02	791.17
437.395	766.53
437.77	818.51
438.145	799.75
438.52	833.2
438.895	837.27
439.271	809.24
439.646	836.14
440.021	841.56
440.395	840.43
440.77	849.02
441.145	861.45
441.52	862.58
441.895	874.55
442.27	882.46
442.645	892.18
443.019	898.06
443.394	892.86
443.769	922.24
444.143	883.37
444.518	938.05
444.892	940.54
445.267	936.25
445.641	939.86
446.016	928.11
446.39	938.51
446.764	966.75
447.139	952.29
447.513	937.6
447.887	969.92
448.262	972.18
448.636	992.74
449.01	1007.43
449.384	985.51
449.758	1002.69
450.132	1000.65
450.506	995.68
450.88	1019.18
451.254	1038.39
451.628	1027.54
452.002	1075.23
452.376	1067.54
452.75	1089.46
453.123	1073.42
453.497	1084.94
453.871	1086.3
454.244	1135.34
454.618	1141.89
454.992	1155.22
455.365	1149.8
455.739	1152.29
456.112	1169.91
456.486	1181.66
456.859	1190.25
457.232	1194.77
457.606	1217.6
457.979	1243.58
458.352	1282
458.725	1304.82
459.099	1293.07
459.472	1317.48
459.845	1320.64
460.218	1329.46
460.591	1342.79
460.964	1369.23
461.337	1387.31
461.71	1398.83
462.083	1422.56
462.456	1443.8
462.829	1451.94
463.201	1480.64
463.574	1472.73
463.947	1521.09
464.32	1528.1
464.692	1540.75
465.065	1592.95
465.438	1591.14
465.81	1607.64
466.183	1648.54
466.555	1693.29
466.928	1705.49
467.3	1691.71
467.672	1721.54
468.045	1780.97
468.417	1797.92
468.789	1818.48
469.161	1832.72
469.534	1868.2
469.906	1916.56
470.278	1943.23
470.65	1999.72
471.022	2035.2
471.394	2025.26
471.766	2111.81
472.138	2109.1
472.51	2204.01
472.882	2237.68
473.253	2259.6
473.625	2319.49
473.997	2339.15
474.369	2364.46
474.74	2434.51
475.112	2492.59
475.484	2571.23
475.855	2606.94
476.227	2645.58
476.598	2717.89
476.97	2826.59
477.341	2868.17
477.713	2935.52
478.084	2977.77
478.455	3065.23
478.827	3139.58
479.198	3250.99
479.569	3318.33
479.94	3375.96
480.311	3455.73
480.682	3567.82
481.053	3654.14
481.424	3742.05
481.795	3824.08
482.166	3909.95
482.537	4025.43
482.908	4137.74
483.279	4237.63
483.65	4318.08
484.021	4408.47
484.391	4567.56
484.762	4625.42
485.133	4699.76
485.503	4802.13
485.874	5012.75
486.244	5079.64
486.615	5224.04
486.985	5342.68
487.356	5498.61
487.726	5578.84
488.097	5700.87
488.467	5736.57
488.837	5960.75
489.207	6120.07
489.578	6171.14
489.948	6367.06
490.318	6437.57
490.688	6588.53
491.058	6698.81
491.428	6821.29
491.798	6958.91
492.168	7146.25
492.538	7205.01
492.908	7346.47
493.278	7470.54
493.648	7528.62
494.017	7726.12
494.387	7873.24
494.757	7950.53
495.126	8092.22
495.496	8113.46
495.866	8328.14
496.235	8409.27
496.605	8552.54
496.974	8568.14
497.344	8740.56
497.713	8839.99
498.082	8970.39
498.452	9047.45
498.821	9169.02
499.19	9195.92
499.559	9345.52
499.928	9424.84
500.298	9529.01
500.667	9675.9
501.036	9686.98
501.405	9706.41
501.774	9790.7
502.143	9946.18
502.512	10041.54
502.88	10130.36
503.249	10079.06
503.618	10205.83
503.987	10277.7
504.356	10391.14
504.724	10436.34
505.093	10517.92
505.462	10571.7
505.83	10676.56
506.199	10792.71
506.567	10860.96
506.936	10887.62
507.304	11003.78
507.672	11061.4
508.041	11065.7
508.409	11184.56
508.777	11230.67
509.145	11296.2
509.514	11296.88
509.882	11448.51
510.25	11486.25
510.618	11531.45
510.986	11532.8
511.354	11570.09
511.722	11655.29
512.09	11806.02
512.458	11760.14
512.826	11933.92
513.193	11884.89
513.561	11902.96
513.929	11968.05
514.297	12003.98
514.664	12066.35
515.032	12127.82
515.4	12166.23
515.767	12174.6
516.135	12184.76
516.502	12200.13
516.869	12345.44
517.237	12302.28
517.604	12330.07
517.972	12430.18
518.339	12415.94
518.706	12411.65
519.073	12441.25
519.44	12434.93
519.808	12585.21
520.175	12513.57
520.542	12629.27
520.909	12683.51
521.276	12624.3
521.643	12691.87
522.009	12749.5
522.376	12813.67
522.743	12852.09
523.11	12899.55
523.477	12956.72
523.843	12934.35
524.21	13007.34
524.577	13127.11
524.943	13085.98
525.31	13181.35
525.676	13158.52
526.043	13180.67
526.409	13264.28
526.776	13256.15
527.142	13309.48
527.508	13292.08
527.874	13258.63
528.241	13271.74
528.607	13322.36
528.973	13371.4
529.339	13329.59
529.705	13411.62
530.071	13353.55
530.437	13414.11
530.803	13415.24
531.169	13471.96
531.535	13419.31
531.901	13326.88
532.267	13317.16
532.632	13366.2
532.998	13279.2
533.364	13393.32
533.73	13326.66
534.095	13386.77
534.461	13413.88
534.826	13298.86
535.192	13383.83
535.557	13359.2
535.923	13285.53
536.288	13311.74
536.653	13324.62
537.019	13222.7
537.384	13239.2
537.749	13191.97
538.114	13190.61
538.479	13181.8
538.845	13165.98
539.21	13148.35
539.575	13084.85
539.94	13029.71
540.305	13083.05
540.67	13008.92
541.034	13011.64
541.399	12992.65
541.764	12975.03
542.129	12911.52
542.494	12848.93
542.858	12895.03
543.223	12887.34
543.587	12902.49
543.952	12706.56
544.316	12745.88
544.681	12797.4
545.045	12672.44
545.41	12684.86
545.774	12685.32
546.138	12625.43
546.503	12582.04
546.867	12609.39
547.231	12612.1
547.595	12533
547.959	12505.43
548.324	12430.41
548.688	12389.05
549.052	12405.32
549.416	12368.71
549.779	12389.96
550.143	12278.1
550.507	12350.64
550.871	12303.18
551.235	12255.95
551.599	12259.56
551.962	12243.07
552.326	12257.98
552.689	12218.44
553.053	12164.65
553.417	12148.16
553.78	12230.41
554.143	12135.05
554.507	12001.49
554.87	12105.22
555.234	12085.11
555.597	12059.8
555.96	12062.28
556.323	12121.94
556.686	11927.82
557.05	12012.34
557.413	12012.79
557.776	11968.27
558.139	12031.32
558.502	11932.57
558.865	11949.29
559.228	11947.03
559.59	11969.4
559.953	11972.79
560.316	12060.25
560.679	12027.03
561.041	11987.93
561.404	12040.14
561.767	12086.01
562.129	11947.26
562.492	12018.22
562.854	11993.13
563.217	12048.5
563.579	12064.54
563.941	12017.09
564.304	12123.98
564.666	12071.32
565.028	12047.14
565.39	12088.27
565.753	12109.06
566.115	12110.19
566.477	12159.68
566.839	12134.6
567.201	12106.35
567.563	12128.95
567.925	12244.88
568.287	12262.73
568.648	12164.65
569.01	12195.39
569.372	12283.97
569.734	12112.68
570.095	12248.94
570.457	12312.44
570.819	12334.59
571.18	12305.89
571.542	12232.9
571.903	12230.41
572.265	12291.43
572.626	12330.75
572.987	12271.32
573.349	12292.33
573.71	12340.47
574.071	12378.88
574.432	12358.77
574.794	12495.49
575.155	12412.78
575.516	12397.64
575.877	12386.34
576.238	12422.05
576.599	12446
576.96	12445.32
577.32	12397.19
577.681	12474.02
578.042	12500.91
578.403	12481.25
578.763	12460.46
579.124	12497.07
579.485	12464.98
579.845	12500.91
580.206	12487.58
580.566	12515.83
580.927	12411.88
581.287	12444.64
581.648	12368.49
582.008	12504.76
582.368	12422.05
582.728	12450.97
583.089	12488.03
583.449	12445.55
583.809	12470.63
584.169	12459.79
584.529	12418.88
584.889	12473.34
585.249	12402.61
585.609	12290.52
585.969	12488.49
586.329	12348.83
586.688	12326.23
587.048	12361.71
587.408	12319.45
587.768	12366.68
588.127	12351.54
588.487	12311.54
588.846	12419.33
589.206	12301.37
589.565	12317.64
589.925	12336.4
590.284	12268.83
590.643	12201.26
591.003	12260.69
591.362	12314.93
591.721	12303.41
592.08	12183.18
592.44	12235.38
592.799	12287.81
593.158	12213.46
593.517	12197.42
593.876	12268.6
594.235	12242.62
594.593	12234.48
594.952	12252.79
595.311	12149.51
595.67	12209.85
596.029	12274.03
596.387	12237.42
596.746	12208.94
597.104	12132.34
597.463	12170.98
597.822	12197.19
598.18	12208.27
598.538	12120.81
598.897	12180.92
599.255	12156.74
599.613	12253.01
599.972	12147.03
600.33	12228.15
600.688	12099.57
601.046	12158.1
601.404	12238.1
601.762	12226.57
602.12	12256.85
602.478	12246.23
602.836	12185.67
603.194	12146.35
603.552	12203.97
603.91	12124.65
604.268	12152.9
604.625	12134.14
604.983	12106.8
605.341	12135.95
605.698	12146.8
606.056	12194.71
606.413	12171.66
606.771	12170.75
607.128	12188.38
607.485	12127.59
607.843	12182.05
608.2	12214.14
608.557	12231.54
608.914	12198.55
609.272	12301.37
609.629	12255.72
609.986	12328.26
610.343	12240.81
610.7	12303.86
611.057	12317.42
611.414	12233.35
611.771	12356.06
612.127	12259.11
612.484	12409.17
612.841	12414.59
613.198	12290.75
613.554	12329.39
613.911	12413.23
614.267	12402.16
614.624	12366.91
614.98	12377.3
615.337	12423.63
615.693	12451.42
616.05	12447.81
616.406	12523.29
616.762	12450.29
617.118	12441.93
617.475	12514.93
617.831	12533.68
618.187	12676.5
618.543	12500.46
618.899	12613.68
619.255	12496.85
619.611	12519.9
619.967	12608.26
620.323	12601.48
620.678	12537.52
621.034	12478.09
621.39	12491.87
621.746	12518.31
622.101	12554.7
622.457	12507.47
622.812	12540.24
623.168	12566.9
623.523	12511.08
623.879	12631.76
624.234	12489.62
624.589	12576.84
624.945	12493.46
625.3	12505.43
625.655	12514.93
626.01	12521.03
626.365	12534.59
626.72	12519.67
627.075	12539.33
627.43	12531.42
627.785	12531.42
628.14	12516.73
628.495	12508.82
628.85	12470.41
629.205	12500.46
629.559	12500.46
629.914	12377.98
630.269	12452.55
630.623	12401.48
630.978	12435.15
631.332	12430.63
631.687	12490.07
632.041	12401.71
632.396	12404.65
632.75	12405.78
633.104	12376.4
633.459	12289.62
633.813	12342.05
634.167	12361.26
634.521	12251.43
634.875	12316.51
635.229	12316.29
635.583	12238.55
635.937	12210.98
636.291	12225.89
636.645	12222.73
636.999	12144.54
637.352	12170.53
637.706	12080.59
638.06	12266.12
638.413	12083.07
638.767	12098.21
639.121	12126.23
639.474	12049.17
639.828	12145.44
640.181	12089.17
640.534	12137.08
640.888	12107.03
641.241	11968.5
641.594	12013.92
641.947	12039.01
642.301	11976.18
642.654	12075.61
643.007	12004.2
643.36	12047.59
643.713	12020.02
644.066	11992.23
644.419	11989.52
644.771	11859.8
645.124	11799.46
645.477	11719.92
645.83	11674.95
646.182	11701.84
646.535	11642.86
646.888	11648.06
647.24	11588.62
647.593	11658.45
647.945	11543.43
648.298	11528.74
648.65	11564.67
649.002	11525.8
649.355	11623.65
649.707	11569.87
650.059	11599.02
650.411	11765.57
650.763	11784.77
651.115	11897.31
651.467	11842.17
651.819	11907.48
652.171	11857.32
652.523	11756.98
652.875	11727.6
653.227	11751.56
653.578	11817.77
653.93	11822.29
654.282	11755.62
654.633	11765.57
654.985	11754.72
655.337	11794.49
655.688	11804.89
656.039	11837.88
656.391	11623.2
656.742	11778.45
657.094	11760.82
657.445	11786.36
657.796	11867.48
658.147	11781.61
658.498	11798.56
658.849	11815.96
659.2	11785.9
659.551	11715.85
659.902	11827.49
660.253	11761.05
660.604	11815.96
660.955	11716.53
661.306	11793.59
661.656	11787.71
662.007	11858.9
662.358	11843.76
662.708	11841.04
663.059	11817.77
663.409	11803.76
663.76	11842.17
664.11	11877.88
664.461	11858.67
664.811	11874.49
665.161	11797.88
665.511	11845.34
665.862	11753.59
666.212	11904.09
666.562	11895.51
666.912	11840.59
667.262	11803.76
667.612	11782.74
667.962	11916.3
668.312	11800.82
668.662	11911.55
669.011	11875.17
669.361	11834.72
669.711	11802.4
670.06	11798.33
670.41	11804.21
670.76	11731.89
671.109	11746.58
671.459	11791.78
671.808	11829.52
672.157	11722.63
672.507	11770.09
672.856	11662.74
673.205	11752.91
673.554	11726.25
673.904	11749.07
674.253	11780.26
674.602	11710.88
674.951	11526.25
675.3	11507.95
675.649	11710.88
675.998	11679.24
676.346	11675.85
676.695	11661.39
677.044	11552.46
677.393	11622.29
677.741	11704.33
678.09	11555.85
678.438	11527.15
678.787	11576.19
679.135	11573.93
679.484	11517.21
679.832	11577.77
680.181	11505.01
680.529	11466.14
680.877	11398.8
681.225	11444.44
681.573	11465.69
681.922	11450.55
682.27	11394.28
682.618	11382.53
682.966	11322.19
683.314	11346.37
683.661	11291.45
684.009	11223.21
684.357	11179.82
684.705	11223.21
685.053	11262.98
685.4	11179.59
685.748	11187.95
686.095	11173.04
686.443	11123.78
686.79	11150.22
687.138	11183.66
687.485	11092.14
687.832	11035.19
688.18	11031.35
688.527	10983.89
688.874	10959.49
689.221	11002.87
689.568	10952.48
689.915	10866.83
690.262	10858.25
690.609	10866.83
690.956	10752.94
691.303	10787.51
691.65	10667.97
691.997	10713.39
692.344	10651.25
692.69	10660.74
693.037	10652.38
693.383	10523.34
693.73	10563.56
694.077	10479.27
694.423	10476.11
694.769	10411.48
695.116	10408.54
695.462	10387.52
695.808	10337.58
696.155	10246.51
696.501	10252.84
696.847	10266.17
697.193	10161.54
697.539	10134.2
697.885	10148.66
698.231	10085.16
698.577	10074.99
698.923	10046.74
699.269	9995.9
699.614	9895.78
699.96	9796.8
700.306	9867.99
700.651	9847.2
700.997	9822.79
701.342	9758.16
701.688	9755
702.033	9737.15
702.379	9692.85
702.724	9719.97
703.069	9635.23
703.415	9532.86
703.76	9610.59
704.105	9559.75
704.45	9577.83
704.795	9484.72
705.14	9386.87
705.485	9435.46
705.83	9398.4
706.175	9364.05
706.52	9327.21
706.865	9333.09
707.209	9268.46
707.554	9293.09
707.899	9335.57
708.243	9222.81
708.588	9235.92
708.932	9092.42
709.277	9074.34
709.621	9081.8
709.966	9015.36
710.31	9062.36
710.654	8984.17
710.998	8948.24
711.342	9035.47
711.687	8888.13
712.031	8854.91
712.375	8888.81
712.719	8917.28
713.063	8853.78
713.407	8861.91
713.75	8859.43
714.094	8844.06
714.438	8779.88
714.782	8862.59
715.125	8771.75
715.469	8754.12
715.812	8752.99
716.156	8679.09
716.499	8711.86
716.843	8661.92
717.186	8607.91
717.53	8635.25
717.873	8717.06
718.216	8635.03
718.559	8590.96
718.902	8573.33
719.246	8614.01
719.589	8548.02
719.932	8604.52
720.275	8451.3
720.617	8520.45
720.96	8494.69
721.303	8492.66
721.646	8507.35
721.989	8417.41
722.331	8517.97
722.674	8439.78
723.016	8523.39
723.359	8463.05
723.701	8486.78
724.044	8461.7
724.386	8425.54
724.729	8440.46
725.071	8409.72
725.413	8381.93
725.755	8360.23
726.097	8372.89
726.439	8358.88
726.782	8398.88
727.124	8352.55
727.465	8308.26
727.807	8347.13
728.149	8366.11
728.491	8341.25
728.833	8314.36
729.175	8359.33
729.516	8330.85
729.858	8278.88
730.199	8286.34
730.541	8317.97
730.882	8318.43
731.224	8291.08
731.565	8292.66
731.906	8344.87
732.248	8352.32
732.589	8235.94
732.93	8281.82
733.271	8234.36
733.612	8317.07
733.953	8284.3
734.294	8284.53
734.635	8283.4
734.976	8267.58
735.317	8223.96
735.658	8300.12
735.999	8249.5
736.339	8276.84
736.68	8261.25
737.021	8259.44
737.361	8277.75
737.702	8313
738.042	8344.64
738.383	8256.05
738.723	8310.29
739.063	8336.28
739.404	8369.05
739.744	8299.89
740.084	8349.16
740.424	8421.47
740.764	8353.9
741.104	8428.25
741.444	8414.24
741.784	8316.39
742.124	8412.43
742.464	8461.92
742.804	8448.82
743.143	8495.37
743.483	8478.65
743.823	8436.61
744.162	8472.32
744.502	8501.7
744.841	8561.81
745.181	8600.9
745.52	8621.69
745.86	8618.76
746.199	8656.72
746.538	8708.47
746.877	8724.52
747.216	8828.92
747.556	8851.74
747.895	8844.29
748.234	8885.19
748.573	8922.93
748.911	8986.66
749.25	9021.46
749.589	9094.22
749.928	9164.05
750.267	9227.55
750.605	9325.86
750.944	9372.18
751.283	9425.97
751.621	9560.2
751.96	9538.05
752.298	9675.9
752.636	9752.51
752.975	9739.86
753.313	9870.7
753.651	9991.15
753.989	10078.15
754.327	10133.29
754.666	10227.3
755.004	10348.43
755.342	10513.85
755.679	10637.91
756.017	10663.67
756.355	10855.99
756.693	10916.32
757.031	11194.06
757.368	11174.85
757.706	11331.45
758.044	11497.1
758.381	11596.98
758.719	11735.96
759.056	11933.7
759.394	12036.97
759.731	12104.77
760.068	12229.73
760.405	12435.83
760.743	12585.66
761.08	12742.94
761.417	12896.84
761.754	13034.01
762.091	13243.49
762.428	13310.61
762.765	13497.27
763.102	13641.22
763.438	13684.61
763.775	13973.19
764.112	14125.5
764.449	14285.73
764.785	14461.99
765.122	14464.7
765.458	14649.11
765.795	14755.09
766.131	14956.67
766.467	15012.26
766.804	15236.66
767.14	15197.11
767.476	15466.03
767.812	15554.39
768.148	15816.31
768.485	15769.98
768.821	15892.24
769.157	15994.83
769.492	16098.11
769.828	16264.88
770.164	16275.5
770.5	16494.26
770.836	16415.84
771.171	16527.25
771.507	16657.64
771.842	16595.04
772.178	16813.57
772.513	16962.27
772.849	17028.93
773.184	17049.95
773.519	17187.8
773.855	17199.55
774.19	17193.67
774.525	17340.34
774.86	17459.2
775.195	17518.41
775.53	17476.38
775.865	17463.95
776.2	17398.41
776.535	17465.08
776.87	17601.12
777.205	17616.71
777.539	17612.42
777.874	17734.22
778.209	17749.82
778.543	17655.35
778.878	17768.12
779.212	17804.73
779.547	17776.71
779.881	17978.51
780.215	17817.61
780.55	17904.39
780.884	17904.84
781.218	17823.71
781.552	17939.64
781.886	17947.1
782.22	17884.28
782.554	17850.38
782.888	17794.11
783.222	17704.39
783.556	17840.43
783.889	17871.85
784.223	17768.57
784.557	17820.32
784.89	17809.48
785.224	17703.94
785.557	17726.54
785.891	17663.49
786.224	17672.98
786.558	17673.66
786.891	17627.56
787.224	17615.36
787.557	17565.19
787.891	17591.85
788.224	17652.19
788.557	17543.95
788.89	17688.8
789.223	17652.87
789.556	17448.81
789.888	17498.75
790.221	17482.48
790.554	17271.64
790.887	17380.11
791.219	17254.46
791.552	17282.03
791.884	17239.32
792.217	17263.05
792.549	17222.82
792.882	17163.39
793.214	17014.02
793.546	17105.54
793.879	17132.88
794.211	16864.19
794.543	17031.87
794.875	16944.41
795.207	16985.99
795.539	16947.8
795.871	17003.17
796.203	16895.83
796.535	16795.04
796.867	16733.57
797.198	16760.69
797.53	16753.68
797.862	16611.77
798.193	16720.46
798.525	16580.35
798.856	16588.26
799.188	16482.28
799.519	16370.87
799.85	16290.87
800.182	16302.62
800.513	16364.99
800.844	16236.86
801.175	16257.65
801.506	16368.38
801.837	16208.61
802.168	16225.34
802.499	16108.95
802.83	16087.03
803.161	16019.24
803.491	16091.78
803.822	16006.13
804.153	15880.26
804.483	15881.39
804.814	15743.31
805.145	15762.3
805.475	15772.92
805.805	15766.82
806.136	15631.91
806.466	15702.41
806.796	15616.76
807.126	15602.98
807.457	15528.18
807.787	15518.01
808.117	15478.01
808.447	15358.69
808.777	15403.44
809.107	15400.73
809.436	15363.21
809.766	15297.45
810.096	15223.78
810.426	15146.04
810.755	15297.45
811.085	15336.77
811.414	15208.19
811.744	15048.19
812.073	15035.99
812.403	15081.86
812.732	14988.31
813.061	15047.97
813.39	14988.98
813.719	14877.12
814.049	15011.36
814.378	14890.68
814.707	14793.28
815.036	14858.37
815.365	14704.7
815.693	14666.06
816.022	14658.6
816.351	14727.07
816.68	14546.74
817.008	14661.31
817.337	14502.22
817.665	14482.33
817.994	14612.72
818.322	14471.71
818.651	14461.54
818.979	14360.75
819.307	14445.27
819.636	14429.9
819.964	14440.75
820.292	14419.06
820.62	14396.46
820.948	14318.95
821.276	14376.8
821.604	14369.79
821.932	14332.28
822.259	14354.42
822.587	14272.17
822.915	14295.67
823.243	14415.67
823.57	14279.4
823.898	14280.98
824.225	14226.29
824.553	14244.15
824.88	14266.74
825.207	14347.19
825.535	14329.57
825.862	14342
826.189	14285.73
826.516	14421.77
826.843	14355.1
827.17	14395.33
827.497	14374.54
827.824	14389.45
828.151	14339.51
828.478	14305.61
828.805	14356.01
829.131	14382.45
829.458	14346.74
829.785	14249.79
830.111	14291.38
830.438	14425.84
830.764	14340.19
831.09	14424.03
831.417	14302.22
831.743	14408.89
832.069	14301.54
832.395	14305.16
832.722	14397.14
833.048	14157.82
833.374	14256.57
833.7	14241.21
834.026	14210.02
834.351	14316.01
834.677	14177.25
835.003	14198.27
835.329	14135.67
835.654	14191.27
835.98	14140.42
836.306	14111.95
836.631	14083.47
836.956	14132.28
837.282	14146.07
837.607	14113.75
837.932	14034.21
838.258	14001.44
838.583	14003.7
838.908	13856.58
839.233	14023.36
839.558	13947.2
839.883	13844.83
840.208	13813.65
840.533	13932.29
840.858	13825.85
841.182	13816.13
841.507	13803.03
841.832	13725.29
842.156	13739.07
842.481	13759.41
842.805	13709.24
843.13	13623.37
843.454	13668.34
843.778	13588.8
844.103	13569.13
844.427	13555.35
844.751	13506.76
845.075	13518.97
845.399	13433.55
845.723	13376.37
846.047	13382.47
846.371	13238.52
846.695	13242.36
847.019	13156.94
847.343	13091.86
847.666	13052.09
847.99	12999.66
848.313	12932.09
848.637	12920.11
848.96	12890.06
849.284	12888.7
849.607	12735.48
849.931	12778.42
850.254	12675.6
850.577	12633.79
850.9	12424.53
851.223	12517.41
851.546	12490.75
851.869	12441.71
852.192	12458.66
852.515	12329.17
852.838	12274.93
853.161	12307.7
853.483	12267.25
853.806	12147.03
854.129	12150.87
854.451	12098.66
854.774	12021.15
855.096	11895.51
855.419	12015.96
855.741	11958.78
856.063	11855.06
856.385	11840.37
856.708	11846.47
857.03	11815.96
857.352	11753.36
857.674	11673.14
857.996	11643.76
858.318	11544.78
858.64	11543.65
858.961	11550.66
859.283	11511.79
859.605	11490.77
859.926	11469.75
860.248	11467.04
860.57	11359.48
860.891	11426.82
861.212	11314.28
861.534	11262.3
861.855	11229.54
862.176	11336.88
862.498	11317.89
862.819	11266.82
863.14	11268.86
863.461	11164
863.782	11177.56
864.103	11211
864.424	11139.14
864.745	11175.3
865.065	11035.42
865.386	11083.1
865.707	11126.49
866.027	11102.31
866.348	10968.53
866.668	11072.93
866.989	10931.92
867.309	10879.94
867.63	10847.62
867.95	10914.29
868.27	10879.49
868.59	10918.81
868.91	10900.05
869.23	10865.03
869.55	10768.76
869.87	10884.23
870.19	10820.51
870.51	10841.3
870.83	10779.83
871.15	10695.54
871.469	10761.07
871.789	10743.9
872.109	10737.34
872.428	10622.32
872.748	10689.66
873.067	10622.32
873.386	10646.5
873.706	10671.36
874.025	10541.42
874.344	10532.83
874.663	10568.76
874.982	10564.92
875.301	10495.32
875.62	10463.91
875.939	10498.26
876.258	10521.98
876.577	10389.11
876.896	10453.28
877.214	10383.46
877.533	10390.69
877.852	10335.77
878.17	10331.93
878.489	10393.85
878.807	10363.12
879.125	10271.82
879.444	10361.99
879.762	10338.49
880.08	10369.44
880.398	10230.24
880.716	10212.61
881.034	10166.29
881.352	10188.21
881.67	10143.69
881.988	10178.49
882.306	10165.38
882.624	10110.24
882.941	10077.48
883.259	10030.7
883.577	10004.71
883.894	10018.27
884.212	10012.84
884.529	9978.49
884.846	10004.93
885.164	9908.67
885.481	9909.12
885.798	9881.77
886.115	9810.14
886.432	9798.16
886.75	9782.79
887.067	9781.21
887.383	9763.81
887.7	9738.05
888.017	9681.1
888.334	9728.33
888.651	9650.82
888.967	9651.5
889.284	9597.94
889.6	9592.74
889.917	9564.95
890.233	9568.79
890.55	9473.65
890.866	9527.21
891.182	9423.48
891.498	9392.52
891.815	9374.67
892.131	9352.07
892.447	9378.28
892.763	9229.14
893.079	9275.46
893.395	9284.28
893.71	9260.1
894.026	9169.7
894.342	9138.06
894.657	9130.38
894.973	9098.52
895.289	9148.69
895.604	9044.96
895.92	9023.04
896.235	8948.92
896.55	8991.85
896.865	8917.73
897.181	8928.13
897.496	8873.44
897.811	8807.45
898.126	8826.89
898.441	8722.93
898.756	8704.86
899.071	8692.43
899.386	8673.67
899.7	8628.25
900.015	8534.92
900.33	8544.63
900.644	8477.97
900.959	8520.68
901.273	8520.45
901.588	8395.03
901.902	8425.54
902.216	8383.51
902.531	8341.7
902.845	8310.97
903.159	8267.58
903.473	8275.94
903.787	8237.75
904.101	8246.34
904.415	8192.1
904.729	8127.47
905.042	8059.68
905.356	8122.05
905.67	8034.37
905.984	8063.97
906.297	7993.24
906.611	7974.03
906.924	7921.15
907.237	7935.61
907.551	7851.54
907.864	7897.65
908.177	7821.26
908.491	7792.34
908.804	7744.88
909.117	7656.52
909.43	7607.71
909.743	7624.21
910.056	7588.05
910.368	7630.99
910.681	7460.82
910.994	7489.29
911.307	7475.96
911.619	7423.31
911.932	7428.28
912.244	7352.35
912.557	7366.81
912.869	7370.65
913.181	7300.37
913.494	7298.79
913.806	7210.88
914.118	7209.3
914.43	7159.81
914.742	7105.12
915.054	7174.73
915.366	7086.14
915.678	7056.76
915.99	7010.44
916.302	7014.5
916.613	6956.88
916.925	6943.55
917.236	6884.34
917.548	6914.62
917.859	6901.97
918.171	6871.91
918.482	6793.27
918.794	6806.83
919.105	6704
919.416	6704.23
919.727	6724.79
920.038	6668.53
920.349	6630.33
920.66	6568.41
920.971	6630.33
921.282	6630.79
921.593	6517.12
921.903	6523.22
922.214	6506.72
922.525	6428.08
922.835	6452.71
923.146	6385.82
923.456	6385.59
923.767	6344.92
924.077	6302.43
924.387	6348.76
924.697	6325.03
925.008	6249.33
925.318	6247.97
925.628	6226.28
925.938	6200.06
926.248	6113.96
926.558	6123.68
926.867	6083.91
927.177	6127.3
927.487	6065.6
927.796	5950.58
928.106	6024.93
928.416	5991.25
928.725	5948.09
929.034	5859.28
929.344	5949
929.653	5876.68
929.962	5819.96
930.271	5851.82
930.581	5791.03
930.89	5792.39
931.199	5775.22
931.508	5748.32
931.817	5741.77
932.125	5696.8
932.434	5688.89
932.743	5632.62
933.051	5605.28
933.36	5593.75
933.669	5544.49
933.977	5570.02
934.286	5469.23
934.594	5498.84
934.902	5518.05
935.21	5447.99
935.519	5442.57
935.827	5455.68
936.135	5428.56
936.443	5368.22
936.751	5366.41
937.059	5356.47
937.367	5331.84
937.674	5340.65
937.982	5294.78
938.29	5246.87
938.597	5257.94
938.905	5163.71
939.213	5186.76
939.52	5113.54
939.827	5156.47
940.135	5112.63
940.442	5072.63
940.749	5073.54
941.056	5062.92
941.363	5027.89
941.67	5011.62
941.977	4994.44
942.284	4927.33
942.591	4923.49
942.898	4913.09
943.205	4916.03
943.511	4869.48
943.818	4883.94
944.125	4791.74
944.431	4790.61
944.738	4840.55
945.044	4776.6
945.35	4741.34
945.657	4691.18
945.963	4745.86
946.269	4664.28
946.575	4681.23
946.881	4611.63
947.187	4662.02
947.493	4608.69
947.799	4579.99
948.105	4550.61
948.41	4543.84
948.716	4566.21
949.022	4496.6
949.327	4519.43
949.633	4427.68
949.938	4460.22
950.244	4497.96
950.549	4388.59
950.854	4386.1
951.16	4378.19
951.465	4386.1
951.77	4352.88
952.075	4341.81
952.38	4319.43
952.685	4271.75
952.99	4253.45
953.294	4259.55
953.599	4158.76
953.904	4210.28
954.209	4196.5
954.513	4197.63
954.818	4149.04
955.122	4171.64
955.426	4140.46
955.731	4092.55
956.035	4102.72
956.339	4080.8
956.643	4045.54
956.948	4033.34
957.252	4006.67
957.556	3996.51
957.86	4023.62
958.163	3966.45
958.467	3989.95
958.771	3914.93
959.075	3894.59
959.378	3869.28
959.682	3876.06
959.985	3875.6
960.289	3853.23
960.592	3848.03
960.896	3808.26
961.199	3848.71
961.502	3800.13
961.805	3796.28
962.108	3727.36
962.411	3727.13
962.714	3698.43
963.017	3708.15
963.32	3717.19
963.623	3674.93
963.926	3667.93
964.228	3647.36
964.531	3626.12
964.833	3642.62
965.136	3605.33
965.438	3580.02
965.741	3559
966.043	3545.9
966.345	3529.62
966.648	3507.03
966.95	3483.75
967.252	3474.48
967.554	3480.81
967.856	3474.48
968.158	3426.12
968.46	3445.79
968.761	3403.3
969.063	3364.88
969.365	3390.65
969.666	3322.4
969.968	3367.82
970.269	3367.37
970.571	3357.43
970.872	3297.54
971.174	3311.78
971.475	3291.44
971.776	3250.76
972.077	3236.75
972.378	3242.63
972.679	3240.59
972.98	3203.08
973.281	3207.37
973.582	3201.72
973.883	3168.5
974.183	3173.93
974.484	3114.04
974.785	3088.96
975.085	3119.01
975.386	3129.86
975.686	3090.54
975.986	3101.16
976.287	3074.95
976.587	3048.06
976.887	3048.06
977.187	3008.73
977.487	2989.3
977.787	2973.71
978.087	2988.62
978.387	2992.01
978.687	2950.66
978.987	2928.06
979.286	2925.57
979.586	2931.45
979.885	2891
980.185	2895.52
980.484	2899.36
980.784	2876.99
981.083	2865.24
981.382	2843.54
981.682	2814.84
981.981	2823.65
982.28	2812.58
982.579	2821.62
982.878	2755.18
983.177	2766.25
983.475	2788.18
983.774	2741.17
984.073	2710.66
984.372	2745.24
984.67	2696.88
984.969	2679.48
985.267	2680.38
985.566	2664.56
985.864	2622.08
986.162	2639.93
986.461	2666.37
986.759	2605.58
987.057	2561.97
987.355	2586.82
987.653	2598.58
987.951	2546.83
988.249	2542.76
988.547	2549.76
988.844	2535.98
989.142	2540.27
989.44	2538.69
989.737	2517
990.035	2489.65
990.332	2492.36
990.63	2451.69
990.927	2444.91
991.224	2458.47
991.521	2431.35
991.819	2432.48
992.116	2431.12
992.413	2357.68
992.71	2375.98
993.006	2387.06
993.303	2360.16
993.6	2352.93
993.897	2342.31
994.193	2352.03
994.49	2309.09
994.787	2340.28
995.083	2280.39
995.379	2283.1
995.676	2299.15
995.972	2288.75
996.268	2231.58
996.565	2217.57
996.861	2227.74
997.157	2166.27
997.453	2240.62
997.749	2175.08
998.044	2196.33
998.34	2145.48
998.636	2148.19
998.932	2155.2
999.227	2145.71
999.523	2162.65
999.818	2154.97
1000.114	2103.67
1000.409	2093.28
1000.704	2062.54
1001	2103.67
1001.295	2073.62
1001.59	2074.07
1001.885	2041.53
1002.18	2048.99
1002.475	2032.04
1002.77	2001.98
1003.065	2015.31
1003.359	1989.33
1003.654	1967.41
1003.949	1993.39
1004.243	1956.56
1004.538	1959.72
1004.832	1947.52
1005.127	1927.63
1005.421	1908.42
1005.715	1909.1
1006.009	1907.52
1006.304	1881.53
1006.598	1860.97
1006.892	1852.15
1007.186	1855.77
1007.48	1839.73
1007.773	1829.1
1008.067	1821.87
1008.361	1772.16
1008.655	1806.96
1008.948	1779.16
1009.242	1781.65
1009.535	1782.55
1009.829	1769.45
1010.122	1744.13
1010.415	1735.1
1010.708	1744.13
1011.001	1743.46
1011.295	1723.8
1011.588	1707.75
1011.881	1697.13
1012.173	1700.07
1012.466	1666.4
1012.759	1692.16
1013.052	1664.14
1013.344	1636.12
1013.637	1650.8
1013.93	1645.38
1014.222	1611.48
1014.514	1571.26
1014.807	1585.5
1015.099	1579.85
1015.391	1593.18
1015.683	1576.23
1015.976	1565.83
1016.268	1544.37
1016.56	1541.88
1016.851	1560.86
1017.143	1546.85
1017.435	1512.28
1017.727	1494.42
1018.018	1469.79
1018.31	1479.28
1018.602	1477.93
1018.893	1475.67
1019.185	1443.8
1019.476	1437.25
1019.767	1463.69
1020.058	1433.63
1020.35	1426.4
1020.641	1393.86
1020.932	1391.83
1021.223	1383.01
1021.514	1360.19
1021.804	1369.91
1022.095	1346.86
1022.386	1343.47
1022.677	1382.79
1022.967	1363.81
1023.258	1352.05
1023.548	1338.72
1023.839	1308.89
1024.129	1291.04
1024.419	1298.04
1024.709	1271.6
1025	1294.43
1025.29	1275.67
1025.58	1265.96
1025.87	1263.02
1026.16	1256.46
1026.449	1268.67
1026.739	1213.3
1027.029	1213.98
1027.319	1226.18
1027.608	1227.31
1027.898	1220.31
1028.187	1184.15
1028.477	1208.78
1028.766	1187.09
1029.055	1146.18
1029.344	1193.64
1029.634	1174.88
1029.923	1143.92
1030.212	1150.7
1030.501	1140.99
1030.79	1112.97
1031.078	1125.85
1031.367	1088.33
1031.656	1075.23
1031.945	1093.76
1032.233	1117.26
1032.522	1076.58
1032.81	1052.85
1033.099	1057.83
1033.387	1088.11
1033.675	1058.28
1033.963	1054.21
1034.251	1052.85
1034.54	1028
1034.828	1023.02
1035.116	1017.37
1035.403	1017.15
1035.691	1017.37
1035.979	1004.49
1036.267	1008.11
1036.554	1007.21
1036.842	976.02
1037.129	966.3
1037.417	958.84
1037.704	950.48
1037.992	957.71
1038.279	964.72
1038.566	937.15
1038.853	937.15
1039.14	937.15
