Data from hue_34_FLMS001491_00013.txt Node
Date: Tue Feb 07 17:25:15 GMT 2017
User: dcchb
Spectrometer: FLMS00149
Trigger mode: 0
Integration Time (sec): 2.000000E-2
Scans to average: 10
Electric dark correction enabled: true
Nonlinearity correction enabled: false
Boxcar width: 0
XAxis mode: Wavelengths
Number of Pixels in Spectrum: 2048
>>>>>Begin Spectral Data<<<<<
341.393	-27.64
341.776	-27.64
342.16	-27.64
342.543	-44.82
342.927	-71.48
343.31	-72.16
343.693	-60.41
344.077	-48.2
344.46	-59.5
344.843	-69
345.226	-42.33
345.61	-25.61
345.993	-2.1
346.376	-18.6
346.759	3.09
347.142	27.73
347.525	42.64
347.908	67.05
348.291	91.9
348.674	66.37
349.057	99.14
349.44	116.31
349.823	142.07
350.206	173.03
350.588	181.62
350.971	196.08
351.354	216.42
351.737	225.46
352.119	259.13
352.502	249.19
352.884	274.27
353.267	298.23
353.65	292.8
354.032	316.76
354.414	310.43
354.797	306.14
355.179	321.05
355.562	327.6
355.944	335.06
356.326	331.45
356.709	333.93
357.091	327.83
357.473	342.97
357.855	335.74
358.238	365.34
358.62	347.26
359.002	351.33
359.384	314.72
359.766	331.67
360.148	332.12
360.53	338.68
360.912	338.68
361.294	336.64
361.676	325.12
362.057	341.84
362.439	333.03
362.821	336.64
363.203	340.03
363.584	332.8
363.966	328.06
364.348	339.81
364.729	333.03
365.111	337.55
365.493	314.95
365.874	310.66
366.256	314.5
366.637	318.57
367.019	324.67
367.4	311.11
367.781	336.64
368.163	315.18
368.544	307.94
368.925	313.14
369.306	337.32
369.688	298.23
370.069	326.25
370.45	328.06
370.831	334.38
371.212	314.27
371.593	314.05
371.974	316.08
372.355	301.39
372.736	320.6
373.117	330.54
373.498	315.4
373.879	298.23
374.26	319.24
374.641	292.35
375.021	308.62
375.402	319.47
375.783	328.73
376.163	322.63
376.544	323.08
376.925	332.58
377.305	333.93
377.686	314.05
378.066	332.8
378.447	330.32
378.827	343.65
379.208	320.82
379.588	344.55
379.968	339.36
380.349	344.55
380.729	318.34
381.109	361.73
381.489	341.62
381.87	359.24
382.25	322.41
382.63	353.37
383.01	320.37
383.39	349.3
383.77	349.52
384.15	347.72
384.53	341.62
384.91	348.39
385.29	323.76
385.67	371.45
386.049	362.41
386.429	350.43
386.809	346.13
387.189	327.83
387.568	350.43
387.948	361.73
388.328	365.8
388.707	363.08
389.087	342.97
389.466	340.49
389.846	350.88
390.225	349.07
390.605	349.3
390.984	368.73
391.363	363.31
391.743	344.55
392.122	378
392.501	368.06
392.881	381.84
393.26	355.85
393.639	375.51
394.018	387.72
394.397	403.08
394.776	389.52
395.155	380.03
395.534	380.26
395.913	391.78
396.292	385.23
396.671	391.78
397.05	395.85
397.429	372.57
397.808	381.39
398.186	397.66
398.565	390.2
398.944	392.01
399.323	412.35
399.701	385.23
400.08	378
400.458	408.28
400.837	401.95
401.215	397.89
401.594	413.48
401.972	416.42
402.351	409.86
402.729	396.53
403.107	416.19
403.486	439.24
403.864	429.52
404.242	428.84
404.62	408.73
404.999	424.55
405.377	429.75
405.755	422.97
406.133	446.47
406.511	422.97
406.889	438.79
407.267	439.01
407.645	420.03
408.023	426.58
408.401	442.4
408.779	439.69
409.156	437.88
409.534	438.34
409.912	456.64
410.29	449.64
410.667	426.81
411.045	472.46
411.422	459.8
411.8	488.96
412.178	468.62
412.555	474.04
412.933	489.18
413.31	474.95
413.687	475.85
414.065	482.85
414.442	490.09
414.819	477.66
415.197	503.87
415.574	489.63
415.951	504.1
416.328	478.11
416.705	500.93
417.082	503.64
417.46	503.87
417.837	535.06
418.214	497.32
418.591	513.36
418.967	491.44
419.344	535.96
419.721	529.41
420.098	498.22
420.475	535.28
420.852	534.38
421.228	545.68
421.605	523.31
421.982	545
422.358	533.7
422.735	540.25
423.111	539.58
423.488	550.65
423.864	564.89
424.241	558.33
424.617	547.71
424.994	568.95
425.37	567.15
425.746	563.08
426.123	553.36
426.499	591.55
426.875	570.31
427.251	588.61
427.627	593.13
428.003	595.85
428.379	608.27
428.756	584.09
429.132	589.74
429.507	620.48
429.883	606.69
430.259	610.31
430.635	607.6
431.011	611.66
431.387	633.13
431.763	625.22
432.138	632.91
432.514	643.75
432.89	649.63
433.265	657.09
433.641	644.66
434.016	639.91
434.392	679.91
434.767	691.89
435.143	695.96
435.518	686.01
435.894	685.34
436.269	697.54
436.644	709.29
437.02	731.21
437.395	702.51
437.77	706.8
438.145	725.79
438.52	724.2
438.895	720.14
439.271	734.83
439.646	735.96
440.021	754.71
440.395	770.08
440.77	765.33
441.145	771.89
441.52	767.59
441.895	761.04
442.27	778.44
442.645	777.99
443.019	812.34
443.394	786.35
443.769	777.99
444.143	782.06
444.518	799.68
444.892	802.85
445.267	796.07
445.641	818.89
446.016	799.68
446.39	837.42
446.764	824.77
447.139	824.99
447.513	811.66
447.887	825.67
448.262	829.96
448.636	821.15
449.01	842.39
449.384	854.14
449.758	871.54
450.132	874.71
450.506	885.1
450.88	902.96
451.254	898.66
451.628	878.32
452.002	891.66
452.376	905.22
452.75	891.43
453.123	890.3
453.497	916.06
453.871	949.73
454.244	953.58
454.618	958.32
454.992	966.68
455.365	991.09
455.739	982.5
456.112	1003.74
456.486	1006.91
456.859	988.38
457.232	1027.25
457.606	992.22
457.979	1033.35
458.352	1046.46
458.725	1045.55
459.099	1072.22
459.472	1058.43
459.845	1073.8
460.218	1092.33
460.591	1106.11
460.964	1092.78
461.337	1131.2
461.71	1138.43
462.083	1152.89
462.456	1158.32
462.829	1158.09
463.201	1196.51
463.574	1191.31
463.947	1224.08
464.32	1232.44
464.692	1217.98
465.065	1297.97
465.438	1264.98
465.81	1309.5
466.183	1314.47
466.555	1346.11
466.928	1313.79
467.3	1342.72
467.672	1379.1
468.045	1392.21
468.417	1399.44
468.789	1384.98
469.161	1446.22
469.534	1433.56
469.906	1490.74
470.278	1546.1
470.65	1510.85
471.022	1550.85
471.394	1558.98
471.766	1587.68
472.138	1623.39
472.51	1654.35
472.882	1675.37
473.253	1703.16
473.625	1736.38
473.997	1754.23
474.369	1808.92
474.74	1825.19
475.112	1900.67
475.484	1908.81
475.855	1957.84
476.227	2003.72
476.598	2035.36
476.97	2064.96
477.341	2102.25
477.713	2127.56
478.084	2184.73
478.455	2251.62
478.827	2278.74
479.198	2365.97
479.569	2398.74
479.94	2454.55
480.311	2516.25
480.682	2560.77
481.053	2639.86
481.424	2707.43
481.795	2746.75
482.166	2839.4
482.537	2882.11
482.908	2984.48
483.279	3020.87
483.65	3116.23
484.021	3184.7
484.391	3250.92
484.762	3332.27
485.133	3375.66
485.503	3473.74
485.874	3560.06
486.244	3607.97
486.615	3743.33
486.985	3784.01
487.356	3857
487.726	3974.29
488.097	4067.17
488.467	4090.44
488.837	4247.73
489.207	4313.04
489.578	4402.07
489.948	4456.08
490.318	4588.06
490.688	4678
491.058	4722.52
491.428	4875.96
491.798	4913.7
492.168	5026.69
492.538	5121.15
492.908	5214.71
493.278	5292.67
493.648	5344.87
494.017	5415.83
494.387	5536.51
494.757	5661.02
495.126	5718.88
495.496	5782.83
495.866	5796.39
496.235	5920.9
496.605	6026.21
496.974	6077.51
497.344	6185.98
497.713	6222.36
498.082	6315.7
498.452	6448.35
498.821	6449.7
499.19	6496.26
499.559	6608.57
499.928	6659.42
500.298	6696.25
500.667	6786.42
501.036	6880.65
501.405	6911.61
501.774	6955.23
502.143	7032.51
502.512	7114.09
502.88	7183.7
503.249	7232.51
503.618	7315.9
503.987	7338.72
504.356	7448.32
504.724	7505.95
505.093	7516.12
505.462	7575.1
505.83	7644.47
506.199	7750.23
506.567	7832.72
506.936	7880.85
507.304	7966.5
507.672	7964.69
508.041	8030.9
508.409	8145.03
508.777	8159.94
509.145	8202.43
509.514	8290.11
509.882	8314.51
510.25	8355.42
510.618	8401.52
510.986	8489.42
511.354	8553.6
511.722	8543.21
512.09	8670.89
512.458	8647.16
512.826	8759.25
513.193	8744.33
513.561	8841.05
513.929	8863.65
514.297	8980.48
514.664	9061.84
515.032	9119.24
515.4	9120.82
515.767	9109.75
516.135	9279.23
516.502	9173.02
516.869	9371.89
517.237	9302.96
517.604	9348.84
517.972	9395.84
518.339	9539.34
518.706	9533.92
519.073	9522.84
519.44	9621.6
519.808	9743.18
520.175	9684.42
520.542	9817.98
520.909	9913.79
521.276	9875.6
521.643	9946.33
522.009	10034.47
522.376	10036.95
522.743	10082.6
523.11	10191.53
523.477	10311.3
523.843	10350.84
524.21	10462.03
524.577	10466.32
524.943	10499.99
525.31	10603.72
525.676	10694.79
526.043	10753.54
526.409	10752.64
526.776	10929.13
527.142	10975.01
527.508	11002.13
527.874	11125.51
528.241	11135.23
528.607	11159.64
528.973	11202.57
529.339	11211.84
529.705	11341.1
530.071	11388.56
530.437	11461.77
530.803	11508.55
531.169	11625.61
531.535	11589.23
531.901	11641.43
532.267	11680.3
532.632	11811.6
532.998	11834.65
533.364	11811.82
533.73	11927.53
534.095	12032.16
534.461	12038.26
534.826	12075.77
535.192	12170
535.557	12316.89
535.923	12116.9
536.288	12306.72
536.653	12256.1
537.019	12309.89
537.384	12375.42
537.749	12473.05
538.114	12527.28
538.479	12570.45
538.845	12566.15
539.21	12612.71
539.575	12704.68
539.94	12668.52
540.305	12830.33
540.67	12813.6
541.034	12812.93
541.399	12970.89
541.764	12948.97
542.129	13014.28
542.494	13043.65
542.858	13143.09
543.223	13078
543.587	13174.05
543.952	13228.96
544.316	13317.77
544.681	13334.49
545.045	13468.95
545.41	13429.18
545.774	13589.63
546.138	13567.93
546.503	13610.19
546.867	13497.43
547.231	13761.83
547.595	13760.92
547.959	13812.67
548.324	13724.99
548.688	13816.06
549.052	13924.76
549.416	13968.83
549.779	14032.33
550.143	13993.46
550.507	14143.29
550.871	14218.09
551.235	14207.01
551.599	14320.23
551.962	14324.98
552.326	14368.14
552.689	14505.31
553.053	14393.22
553.417	14480.68
553.78	14645.19
554.143	14541.92
554.507	14724.74
554.87	14724.97
555.234	14901.68
555.597	14722.48
555.96	14882.93
556.323	14894.23
556.686	14897.62
557.05	14981.68
557.413	15045.18
557.776	15095.35
558.139	15190.49
558.502	15184.61
558.865	15228
559.228	15282.92
559.59	15326.31
559.953	15395.46
560.316	15540.54
560.679	15484.49
561.041	15644.26
561.404	15672.74
561.767	15755.67
562.129	15719.74
562.492	15915.44
562.854	15892.17
563.217	15914.99
563.579	15883.35
563.941	16042.67
564.304	16171.93
564.666	16138.04
565.028	16208.09
565.39	16341.65
565.753	16397.46
566.115	16401.76
566.477	16438.59
566.839	16508.65
567.201	16645.14
567.563	16610.34
567.925	16724.69
568.287	16708.19
568.648	16871.8
569.01	16874.29
569.372	17029.31
569.734	16987.51
570.095	17147.05
570.457	17189.08
570.819	17157.9
571.18	17344.11
571.542	17330.1
571.903	17499.13
572.265	17509.75
572.626	17627.71
572.987	17611.22
573.349	17806.69
573.71	17906.35
574.071	17794.49
574.432	18076.97
574.794	18217.3
575.155	18245.1
575.516	18152.67
575.877	18344.31
576.238	18476.96
576.599	18575.49
576.96	18592.89
577.32	18697.52
577.681	18851.41
578.042	19003.95
578.403	19090.73
578.763	19146.54
579.124	19350.38
579.485	19575.46
579.845	19760.31
580.206	19739.75
580.566	19956.24
580.927	20011.15
581.287	20272.84
581.648	20252.73
582.008	20603.46
582.368	20787.18
582.728	20926.38
583.089	21081.86
583.449	21351.91
583.809	21556.42
584.169	21714.61
584.529	21824.21
584.889	22147.14
585.249	22266.01
585.609	22348.04
585.969	22701.93
586.329	22905.54
586.688	23084.97
587.048	23279.54
587.408	23477.96
587.768	23712.3
588.127	23895.12
588.487	24081.78
588.846	24594.08
589.206	24660.3
589.565	24843.57
589.925	25170.57
590.284	25336.21
590.643	25651.01
591.003	25899.59
591.362	26149.07
591.721	26374.83
592.08	26686.69
592.44	26897.75
592.799	27192.43
593.158	27262.04
593.517	27591.52
593.876	27875.58
594.235	28034.9
594.593	28394.89
594.952	28607.09
595.311	28768.21
595.67	28970.47
596.029	29389.44
596.387	29672.37
596.746	30087.73
597.104	29999.59
597.463	30208.17
597.822	30596.86
598.18	30713.92
598.538	30915.5
598.897	31411.08
599.255	31314.13
599.613	31884.06
599.972	31978.52
600.33	32266.88
600.688	32263.94
601.046	32638.17
601.404	32934.66
601.762	32958.84
602.12	33424.14
602.478	33669.78
602.836	33632.27
603.194	33790
603.552	33991.58
603.91	34157.68
604.268	34476.99
604.625	34471.79
604.983	34754.72
605.341	34759.92
605.698	35191.55
606.056	35476.28
606.413	35518.54
606.771	35728.03
607.128	35758.99
607.485	35877.86
607.843	36103.16
608.2	36410.72
608.557	36585.41
608.914	36601.68
609.272	36976.81
609.629	37040.09
609.986	37259.51
610.343	37262.45
610.7	37630.58
611.057	37821.53
611.414	37795.09
611.771	37969.78
612.127	38217.23
612.484	38286.15
612.841	38462.65
613.198	38489.76
613.554	38660.83
613.911	38799.14
614.267	39034.16
614.624	39080.94
614.98	39109.64
615.337	39546.01
615.693	39392.34
616.05	39627.36
616.406	39927.24
616.762	39836.62
617.118	39824.64
617.475	39974.92
617.831	40146.9
618.187	40101.47
618.543	40395.03
618.899	40657.17
619.255	40613.78
619.611	40629.6
619.967	40965.41
620.323	41038.17
620.678	40878.63
621.034	40911.4
621.39	40964.73
621.746	41080.21
622.101	41480.65
622.457	41258.28
622.812	41395.9
623.168	41430.48
623.523	41578.05
623.879	41691.71
624.234	41463.47
624.589	41779.17
624.945	41891.94
625.3	41913.63
625.655	41841.32
626.01	41894.2
626.365	42046.06
626.72	42081.08
627.075	42026.17
627.43	42004.7
627.785	42038.15
628.14	42214.86
628.495	42232.49
628.85	42293.28
629.205	42037.02
629.559	42312.04
629.914	42107.07
630.269	42279.72
630.623	42201.98
630.978	42095.55
631.332	42327.18
631.687	42452.37
632.041	42354.52
632.396	42415.09
632.75	42325.6
633.104	42273.62
633.459	42144.58
633.813	42220.74
634.167	42316.56
634.521	42241.76
634.875	42320.62
635.229	42246.73
635.583	42238.37
635.937	42313.17
636.291	42166.5
636.645	42160.4
636.999	42126.51
637.352	42205.37
637.706	42157.92
638.06	42193.62
638.413	42208.76
638.767	42025.72
639.121	42084.7
639.474	41994.31
639.828	42008.77
640.181	42028.43
640.534	42096.22
640.888	42051.25
641.241	41889.68
641.594	41991.59
641.947	42003.8
642.301	41907.98
642.654	42057.13
643.007	41981.42
643.36	41817.36
643.713	41896
644.066	41799.28
644.419	41807.42
644.771	41466.86
645.124	41021.22
645.477	41165.17
645.83	40774.22
646.182	40659.88
646.535	40671.18
646.888	40781.23
647.24	40521.58
647.593	40612.87
647.945	40574
648.298	40460.11
648.65	40566.55
649.002	40237.52
649.355	40519.77
649.707	40508.24
650.059	40664.4
650.411	41061
650.763	41230.26
651.115	41521.32
651.467	41419.18
651.819	41505.73
652.171	41286.98
652.523	41397.03
652.875	41296.24
653.227	41160.88
653.578	41247.43
653.93	41297.6
654.282	41126.08
654.633	41039.08
654.985	41114.33
655.337	41075.46
655.688	41072.97
656.039	41390.03
656.391	40901.68
656.742	41012.86
657.094	41129.24
657.445	41108
657.796	41006.99
658.147	41054.44
658.498	40994.33
658.849	41216.02
659.2	41132.18
659.551	40959.08
659.902	41008.79
660.253	40963.37
660.604	41018.29
660.955	40872.98
661.306	40940.77
661.656	40952.98
662.007	40825.52
662.358	41037.49
662.708	40822.13
663.059	40914.11
663.409	40590.95
663.76	40943.94
664.11	40993.88
664.461	40966.99
664.811	40915.92
665.161	40841.57
665.511	40621.69
665.862	40871.4
666.212	40939.19
666.562	40832.08
666.912	40718.86
667.262	40781.23
667.612	40777.84
667.962	40864.17
668.312	40708.01
668.662	40956.82
669.011	40877.5
669.361	40790.5
669.711	40714.79
670.06	40797.5
670.41	40700.1
670.76	40645.64
671.109	40729.71
671.459	40714.11
671.808	40633.21
672.157	40737.84
672.507	40413.33
672.856	40494.23
673.205	40552.08
673.554	40633.66
673.904	40493.33
674.253	40668.01
674.602	40536.94
674.951	39929.05
675.3	39847.02
675.649	40498.53
675.998	40400.22
676.346	40399.32
676.695	40555.93
677.044	40292.43
677.393	40329.94
677.741	40395.7
678.09	40307.12
678.438	40157.97
678.787	40212.66
679.135	40264.63
679.484	39992.32
679.832	40097.86
680.181	39807.92
680.529	40170.4
680.877	39988.03
681.225	39818.77
681.573	39906.22
681.922	39866.68
682.27	39567.7
682.618	39694.48
682.966	39681.82
683.314	39760.69
683.661	39522.73
684.009	39457.42
684.357	39413.58
684.705	39425.11
685.053	39359.57
685.4	39281.83
685.748	39053.59
686.095	39179.69
686.443	38894.73
686.79	38947.61
687.138	39098.34
687.485	39132.46
687.832	38883.2
688.18	38847.27
688.527	38766.37
688.874	38780.38
689.221	38658.12
689.568	38481.4
689.915	38436.66
690.262	38468.75
690.609	38308.53
690.956	38222.2
691.303	38214.97
691.65	38069.21
691.997	37911.7
692.344	37739.05
692.69	37730.69
693.037	37783.57
693.383	37466.51
693.73	37650.01
694.077	37340.64
694.423	37495.67
694.769	37249.12
695.116	37084.15
695.462	37196.47
695.808	36984.95
696.155	37189.91
696.501	36785.18
696.847	36880.54
697.193	36545.18
697.539	36611.62
697.885	36431.51
698.231	36316.49
698.577	36375.24
698.923	36245.08
699.269	36137.06
699.614	36012.54
699.96	35870.17
700.306	35788.82
700.651	35742.04
700.997	35508.6
701.342	35597.41
701.688	35573.23
702.033	35477.64
702.379	35353.58
702.724	35184.31
703.069	35402.39
703.415	34996.3
703.76	34964.89
704.105	34923.3
704.45	34865.45
704.795	34749.07
705.14	34646.25
705.485	34587.72
705.83	34469.98
706.175	34546.37
706.52	34412.36
706.865	34349.31
707.209	34280.84
707.554	34054.4
707.899	34298.46
708.243	33946.83
708.588	33926.72
708.932	33678.37
709.277	33798.59
709.621	33668.42
709.966	33645.82
710.31	33553.62
710.654	33319.05
710.998	33437.02
711.342	33396.34
711.687	33298.94
712.031	33137.82
712.375	33053.75
712.719	33091.49
713.063	33044.26
713.407	33088.1
713.75	32897.14
714.094	32938.72
714.438	32784.6
714.782	32828.22
715.125	32693.76
715.469	32687.66
715.812	32534.67
716.156	32299.87
716.499	32365.63
716.843	32442.47
717.186	32229.82
717.53	32348.01
717.873	32264.39
718.216	32146.43
718.559	32174.9
718.902	31882.93
719.246	31908.47
719.589	31805.19
719.932	31689.94
720.275	31817.4
720.617	31730.17
720.96	31685.42
721.303	31614.01
721.646	31609.27
721.989	31434.36
722.331	31525.2
722.674	31482.49
723.016	31427.58
723.359	31362.49
723.701	31476.39
724.044	31238.66
724.386	31161.6
724.729	31326.56
725.071	31111.88
725.413	31100.13
725.755	31073.24
726.097	30997.53
726.439	30832.57
726.782	30847.25
727.124	30870.98
727.465	30836.18
727.807	30770.42
728.149	30676.18
728.491	30471.44
728.833	30694.26
729.175	30486.59
729.516	30468.05
729.858	30437.32
730.199	30455.4
730.541	30332.69
730.882	30343.09
731.224	30417.43
731.565	30082.3
731.906	30178.34
732.248	30150.32
732.589	30035.52
732.93	29906.94
733.271	29862.87
733.612	29976.09
733.953	29944
734.294	29845.02
734.635	29883.89
734.976	29667.85
735.317	29600.06
735.658	29620.85
735.999	29557.12
736.339	29541.98
736.68	29634.63
737.021	29579.49
737.361	29383.79
737.702	29576.1
738.042	29428.99
738.383	29324.13
738.723	29419.27
739.063	29303.11
739.404	29469.21
739.744	29228.99
740.084	29179.5
740.424	29323.23
740.764	29171.14
741.104	29117.58
741.444	29089.79
741.784	28982.44
742.124	28976.79
742.464	28903.58
742.804	28872.39
743.143	28883.24
743.483	28843.46
743.823	28650.25
744.162	28758.72
744.502	28790.81
744.841	28585.84
745.181	28654.77
745.52	28551.04
745.86	28591.72
746.199	28563.25
746.538	28462.68
746.877	28439.41
747.216	28454.77
747.556	28318.51
747.895	28419.07
748.234	28289.36
748.573	28211.17
748.911	28225.4
749.25	28171.62
749.589	27983.15
749.928	28099.98
750.267	28090.72
750.605	28071.51
750.944	28042.58
751.283	27784.74
751.621	27829.93
751.96	27709.26
752.298	27645.08
752.636	27775.02
752.975	27485.53
753.313	27481.69
753.651	27599.43
753.989	27468.36
754.327	27394.46
754.666	27254.81
755.004	27284.64
755.342	27216.39
755.679	27173.45
756.017	27191.3
756.355	27168.25
756.693	26877.64
757.031	27115.83
757.368	26934.59
757.706	26985.89
758.044	26740.7
758.381	26782.95
758.719	26676.29
759.056	26689.17
759.394	26676.06
759.731	26434.49
760.068	26496.63
760.405	26338.22
760.743	26292.8
761.08	26313.14
761.417	26152.91
761.754	26105.91
762.091	26071.79
762.428	25851.68
762.765	25885.35
763.102	25870.44
763.438	25736.88
763.775	25598.13
764.112	25634.28
764.449	25644
764.785	25443.78
765.122	25288.98
765.458	25215.09
765.795	25160.62
766.131	25211.47
766.467	24957.01
766.804	24949.1
767.14	24943
767.476	24752.72
767.812	24630.92
768.148	24819.39
768.485	24532.62
768.821	24470.7
769.157	24409.46
769.492	24361.77
769.828	24362
770.164	24052.18
770.5	24112.97
770.836	24047.21
771.171	23957.94
771.507	23858.51
771.842	23607.67
772.178	23685.41
772.513	23626.88
772.849	23556.37
773.184	23390.27
773.519	23439.54
773.855	23352.99
774.19	23263.5
774.525	23180.34
774.86	23058.31
775.195	23075.93
775.53	22935.15
775.865	22932.21
776.2	22683.85
776.535	22564.31
776.87	22595.49
777.205	22512.56
777.539	22418.1
777.874	22367.48
778.209	22199.35
778.543	22202.96
778.878	22077.09
779.212	22086.81
779.547	21919.35
779.881	22048.39
780.215	21771.79
780.55	21821.28
780.884	21608.63
781.218	21534.73
781.552	21534.05
781.886	21343.32
782.22	21234.17
782.554	21252.7
782.888	21056.78
783.222	20986.95
783.556	20981.3
783.889	20930.23
784.223	20741.98
784.557	20639.84
784.89	20791.02
785.224	20591.7
785.557	20501.99
785.891	20466.74
786.224	20365.27
786.558	20324.82
786.891	20176.8
787.224	20060.19
787.557	20104.71
787.891	19982.23
788.224	19967.77
788.557	20042.11
788.89	19899.75
789.223	19868.33
789.556	19726.87
789.888	19591.5
790.221	19546.99
790.554	19438.06
790.887	19475.35
791.219	19356.26
791.552	19304.28
791.884	19182.48
792.217	19157.84
792.549	19113.33
792.882	18909.26
793.214	18994.91
793.546	18904.29
793.879	18754.24
794.211	18636.5
794.543	18679.66
794.875	18660.23
795.207	18665.88
795.539	18494.13
795.871	18484.19
796.203	18407.81
796.535	18299.11
796.867	18211.2
797.198	18220.02
797.53	18207.81
797.862	18089.85
798.193	18075.39
798.525	18032.45
798.856	18038.33
799.188	17841.27
799.519	17753.13
799.85	17632.69
800.182	17680.14
800.513	17715.85
800.844	17554.95
801.175	17608.05
801.506	17599.92
801.837	17505.01
802.168	17461.17
802.499	17311.11
802.83	17247.61
803.161	17181.62
803.491	17262.75
803.822	17119.71
804.153	17117.22
804.483	17087.62
804.814	16932.37
805.145	16925.36
805.475	16824.8
805.805	16879.03
806.136	16808.53
806.466	16900.73
806.796	16814.85
807.126	16671.36
807.457	16606.72
807.787	16552.94
808.117	16501.19
808.447	16529.44
808.777	16455.32
809.107	16340.97
809.436	16372.83
809.766	16342.1
810.096	16274.53
810.426	16194.98
810.755	16179.39
811.085	16187.53
811.414	16103.23
811.744	15943.69
812.073	15968.55
812.403	15891.71
812.732	15843.81
813.061	15855.78
813.39	15800.42
813.719	15689.01
814.049	15849.91
814.378	15759.29
814.707	15627.77
815.036	15631.83
815.365	15496.25
815.693	15427.32
816.022	15414.21
816.351	15408.11
816.68	15292.41
817.008	15387.32
817.337	15243.37
817.665	15224.16
817.994	15275.91
818.322	15191.62
818.651	15162.02
818.979	15097.16
819.307	15107.1
819.636	15106.42
819.964	15025.52
820.292	15016.26
820.62	15021.91
820.948	14998.18
821.276	15043.6
821.604	15001.12
821.932	14957.05
822.259	14967.45
822.587	14926.54
822.915	14911.4
823.243	14816.94
823.57	14874.11
823.898	14869.37
824.225	14889.71
824.553	14838.18
824.88	14809.94
825.207	14888.8
825.535	14870.27
825.862	14841.35
826.189	14769.03
826.516	14814.91
826.843	14804.51
827.17	14869.37
827.497	14863.27
827.824	14884.06
828.151	14927.22
828.478	14840.44
828.805	14896.71
829.131	14821.69
829.458	14889.26
829.785	14714.57
830.111	14832.53
830.438	14852.42
830.764	14823.04
831.09	14777.85
831.417	14728.13
831.743	14811.07
832.069	14752.31
832.395	14717.73
832.722	14751.18
833.048	14788.02
833.374	14730.84
833.7	14629.38
834.026	14668.7
834.351	14671.63
834.677	14712.76
835.003	14642.26
835.329	14606.55
835.654	14551.19
835.98	14567.68
836.306	14579.21
836.631	14560.45
836.956	14538.3
837.282	14548.7
837.607	14457.63
837.932	14379.66
838.258	14469.15
838.583	14380.12
838.908	14344.18
839.233	14341.02
839.558	14307.35
839.883	14313.45
840.208	14263.06
840.533	14192.1
840.858	14213.57
841.182	14177.64
841.507	14174.02
841.832	14079.33
842.156	14074.36
842.481	14080.01
842.805	14049.05
843.13	13982.84
843.454	13963.18
843.778	13915.72
844.103	13891.54
844.427	13799.57
844.751	13888.6
845.075	13860.81
845.399	13773.13
845.723	13683.86
846.047	13661.27
846.371	13495.85
846.695	13610.87
847.019	13457.2
847.343	13511.66
847.666	13393.93
847.99	13290.88
848.313	13288.62
848.637	13245.68
848.96	13226.25
849.284	13189.87
849.607	13090.66
849.931	13005.69
850.254	12887.95
850.577	12923.21
850.9	12757.56
851.223	12836.2
851.546	12792.36
851.869	12658.13
852.192	12783.32
852.515	12627.62
852.838	12526.61
853.161	12553.05
853.483	12491.13
853.806	12401.64
854.129	12389.43
854.451	12426.72
854.774	12268.08
855.096	12260.85
855.419	12370.45
855.741	12229.21
856.063	12190.8
856.385	12127.29
856.708	12039.84
857.03	12001.42
857.352	11987.86
857.674	11889.11
857.996	11923.23
858.318	11845.27
858.64	11843.01
858.961	11845.49
859.283	11782.67
859.605	11721.88
859.926	11728.89
860.248	11697.02
860.57	11644.37
860.891	11764.37
861.212	11658.83
861.534	11582.68
861.855	11509.46
862.176	11503.13
862.498	11491.83
862.819	11514.2
863.14	11453.19
863.461	11519.17
863.782	11363.7
864.103	11411.15
864.424	11374.77
864.745	11376.58
865.065	11302.68
865.386	11226.98
865.707	11248
866.027	11224.94
866.348	11232.4
866.668	11234.89
866.989	11180.2
867.309	11138.85
867.63	11120.77
867.95	11153.31
868.27	11048
868.59	11122.57
868.91	11101.56
869.23	11151.5
869.55	11025.18
869.87	11005.52
870.19	11048
870.51	11015.46
870.83	11048.68
871.15	10908.12
871.469	10968
871.789	11029.02
872.109	10975.46
872.428	10847.55
872.748	10889.81
873.067	10875.12
873.386	10885.97
873.706	10846.65
874.025	10768.46
874.344	10668.58
874.663	10856.37
874.982	10723.49
875.301	10668.58
875.62	10716.03
875.939	10667.45
876.258	10677.16
876.577	10622.25
876.896	10627.22
877.214	10571.4
877.533	10568.01
877.852	10584.74
878.17	10559.43
878.489	10543.38
878.807	10548.13
879.125	10582.25
879.444	10454.57
879.762	10462.48
880.08	10495.47
880.398	10464.74
880.716	10390.84
881.034	10398.75
881.352	10318.3
881.67	10339.32
881.988	10340.22
882.306	10357.62
882.624	10313.1
882.941	10249.15
883.259	10179.1
883.577	10196.95
883.894	10134.8
884.212	10136.16
884.529	10201.24
884.846	10093.22
885.164	10133.22
885.481	10051.87
885.798	10020
886.115	9998.54
886.432	10013.45
886.75	9996.28
887.067	9956.28
887.383	9919.89
887.7	9978.65
888.017	9869.5
888.334	9815.72
888.651	9849.61
888.967	9795.15
889.284	9772.33
889.6	9807.58
889.917	9656.85
890.233	9698.21
890.55	9635.83
890.866	9635.38
891.182	9563.97
891.498	9556.97
891.815	9571.66
892.131	9489.17
892.447	9534.82
892.763	9451.43
893.079	9447.36
893.395	9403.98
893.71	9397.42
894.026	9379.34
894.342	9318.1
894.657	9227.26
894.973	9296.86
895.289	9316.97
895.604	9285.33
895.92	9109.52
896.235	9143.19
896.55	9131.89
896.865	9169.41
897.181	9080.37
897.496	9042.4
897.811	9037.66
898.126	8962.86
898.441	8920.6
898.756	8964.67
899.071	8859.58
899.386	8819.13
899.7	8784.78
900.015	8732.13
900.33	8696.88
900.644	8694.62
900.959	8676.99
901.273	8674.96
901.588	8648.06
901.902	8579.36
902.216	8649.42
902.531	8560.38
902.845	8504.34
903.159	8514.73
903.473	8412.14
903.787	8407.62
904.101	8382.08
904.415	8380.27
904.729	8314.51
905.042	8287.62
905.356	8254.4
905.67	8242.65
905.984	8260.28
906.297	8200.62
906.611	8113.61
906.924	8138.47
907.237	8060.96
907.551	8068.19
907.864	8046.27
908.177	8051.92
908.491	7992.04
908.804	7959.04
909.117	7820.51
909.43	7840.63
909.743	7836.11
910.056	7804.92
910.368	7730.35
910.681	7701.87
910.994	7720.18
911.307	7679.05
911.619	7572.61
911.932	7592.05
912.244	7560.18
912.557	7542.78
912.869	7554.76
913.181	7396.8
913.494	7458.49
913.806	7386.18
914.118	7382.79
914.43	7423.69
914.742	7426.17
915.054	7286.07
915.366	7272.73
915.678	7246.29
915.99	7163.58
916.302	7138.27
916.613	7113.41
916.925	7107.31
917.236	7197.48
917.548	7051.04
917.859	7088.33
918.171	7000.65
918.482	7001.78
918.794	6957.26
919.105	6898.73
919.416	6893.76
919.727	6837.94
920.038	6855.57
920.349	6728.57
920.66	6746.42
920.971	6766.76
921.282	6675.01
921.593	6653.09
921.903	6644.27
922.214	6571.96
922.525	6672.75
922.835	6597.72
923.146	6483.6
923.456	6509.14
923.767	6504.39
924.077	6506.42
924.387	6395.69
924.697	6389.37
925.008	6390.95
925.318	6376.26
925.628	6332.42
925.938	6297.39
926.248	6275.02
926.558	6228.01
926.867	6224.62
927.177	6232.31
927.487	6167.68
927.796	6132.88
928.106	6180.33
928.416	6099.88
928.725	6054.46
929.034	6026.44
929.344	5987.79
929.653	5992.99
929.962	5943.05
930.271	5917.51
930.581	5922.71
930.89	5914.12
931.199	5820.34
931.508	5821.92
931.817	5797.97
932.125	5767.01
932.434	5752.55
932.743	5679.78
933.051	5685.66
933.36	5652.66
933.669	5619.67
933.977	5638.88
934.286	5607.69
934.594	5564.98
934.902	5504.87
935.21	5528.37
935.519	5517.75
935.827	5480.69
936.135	5411.76
936.443	5406.79
936.751	5362.27
937.059	5388.49
937.367	5408.37
937.674	5402.73
937.982	5333.12
938.29	5335.83
938.597	5315.95
938.905	5245.44
939.213	5227.14
939.52	5190.53
939.827	5180.36
940.135	5123.86
940.442	5146.01
940.749	5114.15
941.056	5132.68
941.363	5058.33
941.67	5039.57
941.977	5033.24
942.284	5028.27
942.591	4996.63
942.898	4951.66
943.205	4961.83
943.511	4926.81
943.818	4899.91
944.125	4873.25
944.431	4867.82
944.738	4860.59
945.044	4812.23
945.35	4767.71
945.657	4746.47
945.963	4769.3
946.269	4739.01
946.575	4718
946.881	4692.01
947.187	4676.64
947.493	4663.99
947.799	4656.3
948.105	4581.5
948.41	4619.47
948.716	4588.74
949.022	4550.09
949.327	4566.59
949.633	4552.8
949.938	4505.12
950.244	4511.68
950.549	4433.03
950.854	4439.59
951.16	4446.14
951.465	4404.79
951.77	4424.67
952.075	4346.71
952.38	4318.23
952.685	4373.15
952.99	4346.26
953.294	4312.58
953.599	4275.52
953.904	4269.2
954.209	4243.21
954.513	4192.81
954.818	4243.66
955.122	4201.63
955.426	4169.99
955.731	4107.62
956.035	4135.87
956.339	4100.84
956.643	4114.85
956.948	4054.74
957.252	4050.9
957.556	4064.91
957.86	4004.34
958.163	3984.68
958.467	3994.4
958.771	3986.72
959.075	3979.71
959.378	3943.78
959.682	3941.97
959.985	3867.62
960.289	3887.74
960.592	3852.71
960.896	3838.25
961.199	3796.89
961.502	3825.59
961.805	3779.27
962.108	3806.16
962.411	3813.61
962.714	3710.79
963.017	3734.07
963.32	3721.41
963.623	3713.96
963.926	3725.26
964.228	3690.91
964.531	3652.94
964.833	3622.66
965.136	3588.08
965.438	3628.76
965.741	3587.18
966.043	3582.21
966.345	3573.62
966.648	3551.93
966.95	3498.14
967.252	3546.73
967.554	3513.51
967.856	3476.45
968.158	3487.3
968.46	3468.09
968.761	3429.67
969.063	3408.43
969.365	3418.82
969.666	3370.91
969.968	3364.36
970.269	3353.51
970.571	3331.59
970.872	3342.89
971.174	3351.25
971.475	3310.12
971.776	3338.82
972.077	3250.24
972.378	3230.35
972.679	3232.39
972.98	3231.48
973.281	3200.3
973.582	3170.92
973.883	3201.43
974.183	3161.43
974.484	3173.18
974.785	3137.25
975.085	3101.99
975.386	3152.61
975.686	3122.33
975.986	3065.61
976.287	3104.03
976.587	3114.2
976.887	3061.77
977.187	3075.55
977.487	3019.74
977.787	3042.56
978.087	2987.65
978.387	2977.48
978.687	2978.16
978.987	2943.35
979.286	2921.66
979.586	2902.68
979.885	2902.68
980.185	2917.82
980.484	2882.79
980.784	2850.48
981.083	2870.81
981.382	2841.89
981.682	2837.14
981.981	2849.8
982.28	2803.02
982.579	2829.91
982.878	2807.77
983.177	2758.73
983.475	2806.41
983.774	2751.95
984.073	2728.9
984.372	2755.34
984.67	2740.87
984.969	2697.49
985.267	2729.12
985.566	2692.29
985.864	2683.02
986.162	2685.51
986.461	2671.05
986.759	2642.8
987.057	2619.07
987.355	2616.13
987.653	2593.31
987.951	2617.94
988.249	2615.68
988.547	2562.35
988.844	2576.13
989.142	2529.58
989.44	2517.83
989.737	2531.39
990.035	2510.6
990.332	2516.7
990.63	2508.79
990.927	2479.86
991.224	2454.33
991.521	2452.97
991.819	2450.03
992.116	2428.57
992.413	2393.99
992.71	2412.3
993.006	2431.05
993.303	2401.22
993.6	2359.64
993.897	2365.74
994.193	2355.8
994.49	2353.99
994.787	2342.01
995.083	2300.21
995.379	2298.85
995.676	2313.77
995.972	2273.09
996.268	2275.12
996.565	2272.41
996.861	2239.64
997.157	2254.79
997.453	2208.68
997.749	2222.24
998.044	2251.4
998.34	2211.4
998.636	2186.99
998.932	2189.02
999.227	2149.7
999.523	2134.34
999.818	2124.17
1000.114	2118.97
1000.409	2129.82
1000.704	2109.93
1001	2089.59
1001.295	2106.31
1001.59	2077.16
1001.885	2070.38
1002.18	2054.79
1002.475	2018.86
1002.77	2041.23
1003.065	2020.44
1003.359	1998.52
1003.654	2004.4
1003.949	1985.87
1004.243	1987.45
1004.538	1981.57
1004.832	1951.52
1005.127	1949.71
1005.421	1946.54
1005.715	1953.1
1006.009	1920.1
1006.304	1936.83
1006.598	1893.66
1006.892	1875.13
1007.186	1874.91
1007.48	1853.89
1007.773	1866.1
1008.067	1834.23
1008.361	1832.88
1008.655	1809.6
1008.948	1808.7
1009.242	1801.69
1009.535	1817.28
1009.829	1747.68
1010.122	1746.55
1010.415	1747.45
1010.708	1723.5
1011.001	1753.33
1011.295	1747.68
1011.588	1734.35
1011.881	1709.94
1012.173	1718.53
1012.466	1708.13
1012.759	1664.74
1013.052	1668.81
1013.344	1675.14
1013.637	1680.34
1013.93	1650.51
1014.222	1619.77
1014.514	1623.84
1014.807	1604.63
1015.099	1577.29
1015.391	1622.71
1015.683	1575.48
1015.976	1583.16
1016.268	1561.02
1016.56	1548.82
1016.851	1535.03
1017.143	1529.61
1017.435	1521.7
1017.727	1507.01
1018.018	1527.12
1018.31	1482.38
1018.602	1512.43
1018.893	1499.1
1019.185	1493.68
1019.476	1467.91
1019.767	1471.08
1020.058	1446.9
1020.35	1431.08
1020.641	1421.13
1020.932	1428.59
1021.223	1392.66
1021.514	1400.57
1021.804	1399.44
1022.095	1364.19
1022.386	1393.79
1022.677	1379.1
1022.967	1358.09
1023.258	1314.92
1023.548	1319.44
1023.839	1331.87
1024.129	1326.45
1024.419	1303.62
1024.709	1277.18
1025	1297.52
1025.29	1307.92
1025.58	1268.14
1025.87	1249.39
1026.16	1267.69
1026.449	1261.14
1026.739	1250.29
1027.029	1268.37
1027.319	1238.99
1027.608	1241.93
1027.898	1218.2
1028.187	1235.83
1028.477	1190.41
1028.766	1188.15
1029.055	1190.86
1029.344	1179.33
1029.634	1173.46
1029.923	1175.94
1030.212	1156.51
1030.501	1115.61
1030.79	1128.49
1031.078	1111.76
1031.367	1119
1031.656	1111.99
1031.945	1086.45
1032.233	1119.67
1032.522	1116.28
1032.81	1106.11
1033.099	1096.85
1033.387	1084.87
1033.675	1053.46
1033.963	1063.18
1034.251	1064.31
1034.54	1077.42
1034.828	1017.76
1035.116	1012.11
1035.403	1016.17
1035.691	1006.23
1035.979	1024.31
1036.267	1012.78
1036.554	1008.49
1036.842	995.61
1037.129	999.68
1037.417	984.31
1037.704	984.54
1037.992	960.13
1038.279	954.48
1038.566	948.83
1038.853	948.83
1039.14	948.83
