Data from hue_270_FLMS001491_00091.txt Node
Date: Tue Feb 07 15:57:56 GMT 2017
User: dcchb
Spectrometer: FLMS00149
Trigger mode: 0
Integration Time (sec): 2.000000E-2
Scans to average: 10
Electric dark correction enabled: true
Nonlinearity correction enabled: false
Boxcar width: 0
XAxis mode: Wavelengths
Number of Pixels in Spectrum: 2048
>>>>>Begin Spectral Data<<<<<
341.393	-27.17
341.776	-27.17
342.16	-27.17
342.543	-43.45
342.927	-68.3
343.31	-86.38
343.693	-65.82
344.077	-55.87
344.46	-51.81
344.843	-45.93
345.226	-34.63
345.61	-43.67
345.993	-8.87
346.376	-9.32
346.759	23.45
347.142	33.84
347.525	35.65
347.908	37.91
348.291	65.48
348.674	91.47
349.057	114.52
349.44	119.94
349.823	138.92
350.206	157.45
350.588	183.22
350.971	210.11
351.354	222.99
351.737	243.55
352.119	238.36
352.502	251.46
352.884	249.2
353.267	268.86
353.65	274.29
354.032	295.53
354.414	281.52
354.797	288.75
355.179	317.9
355.562	325.13
355.944	318.35
356.326	344.34
356.709	319.48
357.091	339.14
357.473	334.17
357.855	324.68
358.238	335.3
358.62	331.69
359.002	347.05
359.384	310.22
359.766	320.84
360.148	329.65
360.53	326.94
360.912	308.64
361.294	332.36
361.676	312.93
362.057	308.41
362.439	330.1
362.821	309.09
363.203	319.48
363.584	312.03
363.966	321.97
364.348	322.42
364.729	306.15
365.111	325.13
365.493	325.81
365.874	290.33
366.256	333.27
366.637	290.33
367.019	309.77
367.4	302.53
367.781	301.63
368.163	308.64
368.544	291.69
368.925	314.06
369.306	316.77
369.688	304.57
370.069	300.5
370.45	311.12
370.831	311.35
371.212	304.34
371.593	316.55
371.974	302.76
372.355	304.34
372.736	321.07
373.117	298.69
373.498	315.87
373.879	312.93
374.26	291.01
374.641	302.31
375.021	317.45
375.402	310.9
375.783	303.66
376.163	338.01
376.544	310.22
376.925	328.07
377.305	315.64
377.686	309.54
378.066	316.09
378.447	327.17
378.827	318.81
379.208	336.21
379.588	318.35
379.968	313.61
380.349	347.5
380.729	338.47
381.109	341.18
381.489	336.66
381.87	321.07
382.25	331.69
382.63	330.78
383.01	328.52
383.39	367.84
383.77	342.08
384.15	314.51
384.53	351.35
384.91	336.43
385.29	333.49
385.67	340.95
386.049	350.44
386.429	345.47
386.809	362.19
387.189	364.91
387.568	354.06
387.948	359.93
388.328	357.22
388.707	360.61
389.087	362.19
389.466	350.67
389.846	359.71
390.225	373.04
390.605	364.23
390.984	374.62
391.363	378.01
391.743	371.01
392.122	365.13
392.501	385.02
392.881	373.04
393.26	397.45
393.639	381.4
394.018	396.32
394.397	399.93
394.776	384.34
395.155	394.51
395.534	388.18
395.913	391.35
396.292	381.85
396.671	375.98
397.05	405.13
397.429	372.36
397.808	379.37
398.186	386.37
398.565	405.81
398.944	404
399.323	405.81
399.701	406.71
400.08	399.03
400.458	412.59
400.837	434.51
401.215	408.29
401.594	421.4
401.972	420.72
402.351	438.12
402.729	422.76
403.107	430.89
403.486	436.99
403.864	436.54
404.242	453.04
404.62	452.36
404.999	430.21
405.377	445.81
405.755	454.62
406.133	457.11
406.511	462.08
406.889	469.08
407.267	469.31
407.645	483.09
408.023	498.91
408.401	475.86
408.779	491.23
409.156	508.18
409.534	515.86
409.912	501.85
410.29	491
410.667	531.91
411.045	523.77
411.422	530.33
411.8	521.29
412.178	526.26
412.555	535.97
412.933	552.7
413.31	572.13
413.687	576.65
414.065	564.9
414.442	581.4
414.819	584.79
415.197	600.61
415.574	632.7
415.951	618.01
416.328	621.85
416.705	612.13
417.082	625.46
417.46	638.34
417.837	640.15
418.214	646.03
418.591	647.61
418.967	658.68
419.344	674.05
419.721	676.54
420.098	660.49
420.475	670.43
420.852	706.14
421.228	700.26
421.605	726.48
421.982	714.5
422.358	738.91
422.735	759.92
423.111	752.01
423.488	754.27
423.864	773.93
424.241	788.4
424.617	812.58
424.994	815.06
425.37	813.26
425.746	825.91
426.123	828.4
426.499	846.7
426.875	849.41
427.251	860.49
427.627	858.68
428.003	876.3
428.379	919.69
428.756	912.46
429.132	918.11
429.507	932.8
429.883	938.68
430.259	949.3
430.635	962.4
431.011	974.83
431.387	989.3
431.763	1012.8
432.138	1002.85
432.514	1018.45
432.89	1024.55
433.265	1062.51
433.641	1073.81
434.016	1085.34
434.392	1078.11
434.767	1118.11
435.143	1132.12
435.518	1168.73
435.894	1148.61
436.269	1201.49
436.644	1218.89
437.02	1210.31
437.395	1231.78
437.77	1250.53
438.145	1259.12
438.52	1267.25
438.895	1276.97
439.271	1300.7
439.646	1328.95
440.021	1343.86
440.395	1359
440.77	1350.19
441.145	1352.68
441.52	1402.39
441.895	1413.01
442.27	1418.89
442.645	1419.79
443.019	1452.56
443.394	1458.66
443.769	1444.65
444.143	1440.58
444.518	1500.24
444.892	1448.04
445.267	1514.25
445.641	1508.6
446.016	1519
446.39	1519.45
446.764	1535.5
447.139	1546.34
447.513	1557.87
447.887	1540.92
448.262	1568.72
448.636	1585.89
449.01	1608.94
449.384	1577.98
449.758	1608.04
450.132	1645.55
450.506	1649.39
450.88	1645.78
451.254	1643.97
451.628	1664.98
452.002	1696.62
452.376	1719.9
452.75	1714.25
453.123	1754.7
453.497	1764.42
453.871	1741.14
454.244	1801.48
454.618	1820.23
454.992	1820.69
455.365	1803.51
455.739	1882.83
456.112	1864.3
456.486	1906.11
456.859	1896.84
457.232	1937.29
457.606	1924.19
457.979	1937.52
458.352	1989.04
458.725	1999.89
459.099	2028.59
459.472	2008.25
459.845	2050.74
460.218	2078.76
460.591	2102.94
460.964	2091.19
461.337	2143.84
461.71	2156.05
462.083	2173.67
462.456	2153.79
462.829	2200.79
463.201	2211.41
463.574	2213.44
463.947	2262.26
464.32	2290.73
464.692	2321.24
465.065	2328.47
465.438	2356.72
465.81	2353.78
466.183	2404.85
466.555	2454.34
466.928	2460.67
467.3	2427.22
467.672	2476.49
468.045	2518.07
468.417	2526.43
468.789	2568.69
469.161	2578.63
469.534	2587.45
469.906	2635.58
470.278	2658.63
470.65	2711.28
471.022	2767.33
471.394	2764.39
471.766	2813.88
472.138	2820.66
472.51	2862.02
472.882	2898.62
473.253	2955.12
473.625	2941.34
473.997	3004.61
474.369	3001.9
474.74	3072.86
475.112	3111.5
475.484	3149.92
475.855	3174.1
476.227	3202.12
476.598	3282.8
476.97	3307.43
477.341	3370.7
477.713	3391.04
478.084	3419.06
478.455	3460.19
478.827	3529.34
479.198	3584.71
479.569	3579.96
479.94	3656.8
480.311	3663.58
480.682	3828.54
481.053	3798.04
481.424	3858.15
481.795	3866.73
482.166	3943.57
482.537	3978.37
482.908	4069.44
483.279	4058.37
483.65	4097.69
484.021	4172.49
484.391	4277.12
484.762	4301.75
485.133	4320.28
485.503	4343.78
485.874	4396.44
486.244	4435.99
486.615	4482.99
486.985	4555.76
487.356	4594.85
487.726	4690.89
488.097	4718.92
488.467	4747.62
488.837	4805.69
489.207	4855.64
489.578	4932.92
489.948	4969.98
490.318	5024.44
490.688	5006.82
491.058	5073.93
491.428	5150.54
491.798	5198.45
492.168	5263.53
492.538	5235.51
492.908	5294.49
493.278	5386.02
493.648	5345.57
494.017	5393.93
494.387	5455.17
494.757	5472.79
495.126	5525.9
495.496	5510.53
495.866	5600.7
496.235	5655.84
496.605	5630.53
496.974	5649.51
497.344	5739.68
497.713	5764.31
498.082	5770.87
498.452	5793.01
498.821	5842.28
499.19	5868.26
499.559	5858.32
499.928	5966.34
500.298	5924.99
500.667	5981.26
501.036	5939.45
501.405	5966.34
501.774	6028.94
502.143	6030.07
502.512	6068.94
502.88	6052.89
503.249	6089.73
503.618	6128.82
503.987	6162.04
504.356	6140.57
504.724	6190.74
505.093	6182.83
505.462	6219.67
505.83	6283.17
506.199	6279.78
506.567	6324.3
506.936	6321.36
507.304	6383.73
507.672	6414.46
508.041	6412.66
508.409	6429.83
508.777	6439.1
509.145	6503.5
509.514	6506.21
509.882	6481.81
510.25	6552.77
510.618	6505.99
510.986	6602.26
511.354	6539.43
511.722	6616.49
512.09	6717.28
512.458	6618.75
512.826	6673.67
513.193	6671.86
513.561	6657.85
513.929	6726.77
514.297	6734
514.664	6786.43
515.032	6795.92
515.4	6783.04
515.767	6807.22
516.135	6792.53
516.502	6788.01
516.869	6931.06
517.237	6931.74
517.604	6818.3
517.972	6960.89
518.339	6891.97
518.706	6936.03
519.073	6966.31
519.44	6938.74
519.808	6926.09
520.175	6949.14
520.542	7023.26
520.909	7082.47
521.276	7007.89
521.643	7093.77
522.009	7068.91
522.376	7149.81
522.743	7161.11
523.11	7198.4
523.477	7166.08
523.843	7227.32
524.21	7284.95
524.577	7335.34
524.943	7292.86
525.31	7342.12
525.676	7398.62
526.043	7364.27
526.409	7304.16
526.776	7457.6
527.142	7437.04
527.508	7468.9
527.874	7433.42
528.241	7497.6
528.607	7469.13
528.973	7530.14
529.339	7545.96
529.705	7633.19
530.071	7695.56
530.437	7693.3
530.803	7659.4
531.169	7696.24
531.535	7682.91
531.901	7647.88
532.267	7710.7
532.632	7789.34
532.998	7768.33
533.364	7763.13
533.73	7736.69
534.095	7772.39
534.461	7845.16
534.826	7805.16
535.192	7844.26
535.557	7868.44
535.923	7838.61
536.288	7840.19
536.653	7807.42
537.019	7874.09
537.384	7842.45
537.749	7849.23
538.114	7893.97
538.479	7860.53
538.845	7956.34
539.21	7890.58
539.575	7909.79
539.94	7920.87
540.305	7946.85
540.67	7979.62
541.034	7923.13
541.399	7987.08
541.764	7966.51
542.129	8002.9
542.494	7991.37
542.858	7979.62
543.223	7990.69
543.587	7976
543.952	8093.74
544.316	8096.45
544.681	8019.62
545.045	8105.72
545.41	8077.47
545.774	8073.63
546.138	8067.53
546.503	8056.68
546.867	8047.64
547.231	8154.53
547.595	8063.91
547.959	8126.06
548.324	8161.31
548.688	8153.63
549.052	8147.07
549.416	8181.88
549.779	8118.15
550.143	8131.93
550.507	8195.66
550.871	8144.36
551.235	8190.91
551.599	8189.11
551.962	8249.44
552.326	8245.15
552.689	8239.5
553.053	8182.55
553.417	8154.76
553.78	8294.64
554.143	8193.4
554.507	8203.57
554.87	8252.16
555.234	8287.86
555.597	8290.8
555.96	8323.11
556.323	8268.2
556.686	8281.99
557.05	8335.77
557.413	8346.62
557.776	8372.83
558.139	8465.94
558.502	8433.39
558.865	8446.73
559.228	8497.57
559.59	8515.2
559.953	8478.14
560.316	8580.96
560.679	8554.07
561.041	8591.81
561.404	8680.39
561.767	8644.69
562.129	8676.78
562.492	8753.16
562.854	8676.33
563.217	8704.35
563.579	8745.02
563.941	8740.5
564.304	8766.49
564.666	8828.86
565.028	8795.64
565.39	8878.13
565.753	8908.18
566.115	8914.51
566.477	8958.8
566.839	8939.6
567.201	9034.28
567.563	9068.18
567.925	9098.24
568.287	9098.24
568.648	9134.17
569.01	9151.12
569.372	9215.52
569.734	9223.88
570.095	9231.34
570.457	9295.52
570.819	9273.82
571.18	9352.47
571.542	9338
571.903	9396.76
572.265	9438.57
572.626	9444.89
572.987	9497.09
573.349	9511.11
573.71	9614.38
574.071	9543.2
574.432	9622.52
574.794	9607.6
575.155	9636.75
575.516	9670.2
575.877	9697.77
576.238	9716.07
576.599	9788.16
576.96	9745.22
577.32	9791.1
577.681	9867.03
578.042	9904.54
578.403	9849.18
578.763	9925.78
579.124	9970.75
579.485	9903.41
579.845	9987.93
580.206	10005.33
580.566	10031.54
580.927	10076.06
581.287	10101.6
581.648	10097.76
582.008	10151.09
582.368	10189.28
582.728	10166
583.089	10251.88
583.449	10283.74
583.809	10328.49
584.169	10335.72
584.529	10331.88
584.889	10471.98
585.249	10405.55
585.609	10420.23
585.969	10540.46
586.329	10490.29
586.688	10541.59
587.048	10559.44
587.408	10449.39
587.768	10601.92
588.127	10558.08
588.487	10574.35
588.846	10673.11
589.206	10616.16
589.565	10657.06
589.925	10694.35
590.284	10711.53
590.643	10770.73
591.003	10775.71
591.362	10865.65
591.721	10851.86
592.08	10881.24
592.44	10894.35
592.799	10900.22
593.158	10892.54
593.517	10966.21
593.876	10952.65
594.235	11001.01
594.593	11005.08
594.952	11006.21
595.311	10992.42
595.67	11048.47
596.029	11103.38
596.387	11159.2
596.746	11174.11
597.104	11156.03
597.463	11136.83
597.822	11134.57
598.18	11178.41
598.538	11171.4
598.897	11216.82
599.255	11136.37
599.613	11234.68
599.972	11159.65
600.33	11232.42
600.688	11278.29
601.046	11260.66
601.404	11372.3
601.762	11355.13
602.12	11362.81
602.478	11314
602.836	11337.72
603.194	11323.04
603.552	11281
603.91	11335.69
604.268	11466.76
604.625	11307.67
604.983	11425.86
605.341	11313.32
605.698	11511.28
606.056	11493.2
606.413	11381.57
606.771	11607.77
607.128	11484.84
607.485	11490.26
607.843	11509.92
608.2	11542.01
608.557	11559.19
608.914	11482.81
609.272	11608.9
609.629	11578.85
609.986	11652.07
610.343	11575.68
610.7	11701.1
611.057	11638.51
611.414	11640.32
611.771	11565.52
612.127	11654.78
612.484	11677.83
612.841	11729.13
613.198	11664.5
613.554	11707.43
613.911	11787.2
614.267	11713.99
614.624	11716.47
614.98	11828.56
615.337	11849.35
615.693	11789.69
616.05	11862.91
616.406	11875.56
616.762	11869.01
617.118	11916.01
617.475	11832.63
617.831	11948.33
618.187	11908.56
618.543	11842.57
618.899	11952.62
619.255	11936.8
619.611	11873.53
619.967	11958.05
620.323	12014.54
620.678	11974.32
621.034	11933.42
621.39	11904.94
621.746	11887.77
622.101	12027.88
622.457	11981.55
622.812	11964.15
623.168	12031.49
623.523	12034.43
623.879	12005.05
624.234	11918.73
624.589	11910.36
624.945	12017.48
625.3	12042.56
625.655	11988.1
626.01	12054.09
626.365	12061.1
626.72	11971.83
627.075	11973.64
627.43	11906.3
627.785	11908.78
628.14	11901.55
628.495	11943.13
628.85	11944.71
629.205	11883.7
629.559	11947.88
629.914	11876.69
630.269	11866.07
630.623	11839.63
630.978	11853.19
631.332	11876.69
631.687	11916.24
632.041	11866.98
632.396	11894.55
632.75	11761.22
633.104	11806.19
633.459	11764.15
633.813	11784.94
634.167	11712.18
634.521	11751.05
634.875	11774.1
635.229	11698.84
635.583	11656.36
635.937	11708.79
636.291	11676.7
636.645	11679.41
636.999	11569.13
637.352	11598.06
637.706	11609.36
638.06	11582.46
638.413	11650.03
638.767	11540.88
639.121	11633.76
639.474	11543.37
639.828	11595.8
640.181	11588.11
640.534	11600.99
640.888	11523.93
641.241	11470.15
641.594	11525.74
641.947	11515.12
642.301	11506.53
642.654	11594.21
643.007	11527.55
643.36	11438.96
643.713	11478.29
644.066	11567.1
644.419	11427.44
644.771	11379.08
645.124	11282.36
645.477	11263.38
645.83	11222.02
646.182	11167.11
646.535	10982.48
646.888	11124.85
647.24	11023.83
647.593	11147.45
647.945	11115.58
648.298	11046.66
648.65	11041.91
649.002	11031.07
649.355	11099.09
649.707	11027.68
650.059	11090.95
650.411	11207.11
650.763	11202.13
651.115	11358.06
651.467	11338.63
651.819	11304.28
652.171	11291.17
652.523	11263.6
652.875	11225.86
653.227	11260.66
653.578	11357.16
653.93	11365.07
654.282	11236.03
654.633	11251.17
654.985	11252.98
655.337	11243.04
655.688	11287.56
656.039	11267.67
656.391	11227.44
656.742	11209.59
657.094	11229.93
657.445	11204.39
657.796	11255.01
658.147	11199.2
658.498	11205.98
658.849	11252.53
659.2	11247.56
659.551	11240.33
659.902	11268.8
660.253	11282.81
660.604	11232.87
660.955	11206.65
661.306	11243.49
661.656	11145.87
662.007	11230.16
662.358	11277.61
662.708	11252.53
663.059	11271.74
663.409	11201.68
663.76	11298.86
664.11	11283.04
664.461	11298.86
664.811	11294.79
665.161	11278.74
665.511	11224.28
665.862	11337.5
666.212	11300.66
666.562	11357.61
666.912	11257.95
667.262	11199.2
667.612	11221.8
667.962	11244.85
668.312	11181.8
668.662	11283.49
669.011	11252.98
669.361	11257.27
669.711	11222.7
670.06	11174.56
670.41	11175.69
670.76	11168.01
671.109	11283.71
671.459	11259.53
671.808	11135.02
672.157	11204.17
672.507	11099.31
672.856	11165.07
673.205	11173.89
673.554	11201.68
673.904	11159.2
674.253	11172.53
674.602	11188.8
674.951	10891.18
675.3	10920.11
675.649	11149.03
675.998	11119.88
676.346	11159.2
676.695	11093.89
677.044	11082.14
677.393	11081.91
677.741	11104.51
678.09	10978.86
678.438	10967.79
678.787	10991.97
679.135	11067.9
679.484	10909.04
679.832	10956.04
680.181	10905.65
680.529	11019.99
680.877	10928.02
681.225	10935.93
681.573	10974.57
681.922	10904.97
682.27	10790.85
682.618	10829.04
682.966	10835.14
683.314	10852.99
683.661	10795.59
684.009	10771.19
684.357	10696.16
684.705	10714.46
685.053	10717.4
685.4	10714.46
685.748	10636.27
686.095	10658.87
686.443	10591.3
686.79	10600.79
687.138	10573.22
687.485	10511.98
687.832	10523.06
688.18	10574.35
688.527	10449.39
688.874	10444.87
689.221	10428.82
689.568	10418.2
689.915	10313.34
690.262	10334.59
690.609	10320.35
690.956	10233.12
691.303	10246.45
691.65	10173.91
691.997	10221.14
692.344	10064.09
692.69	10058.44
693.037	10106.57
693.383	10025.44
693.73	10050.07
694.077	9957.42
694.423	9996.74
694.769	9920.81
695.116	9941.6
695.462	9854.15
695.808	9825.45
696.155	9891.43
696.501	9793.58
696.847	9752
697.193	9675.17
697.539	9672.46
697.885	9634.72
698.231	9595.85
698.577	9589.52
698.923	9629.97
699.269	9592.91
699.614	9475.63
699.96	9438.11
700.306	9463.88
700.651	9337.33
700.997	9429.53
701.342	9356.76
701.688	9338.91
702.033	9302.98
702.379	9294.16
702.724	9272.02
703.069	9213.03
703.415	9158.57
703.76	9116.09
704.105	9184.33
704.45	9123.09
704.795	9040.84
705.14	9035.64
705.485	9008.75
705.83	8973.49
706.175	8988.86
706.52	8941.86
706.865	8934.17
707.209	8856.21
707.554	8836.1
707.899	8883.1
708.243	8815.98
708.588	8816.43
708.932	8718.36
709.277	8783.67
709.621	8751.35
709.966	8719.49
710.31	8696.66
710.654	8611.69
710.998	8616.21
711.342	8644.69
711.687	8542.32
712.031	8549.1
712.375	8534.63
712.719	8518.59
713.063	8510.91
713.407	8558.36
713.75	8474.07
714.094	8450.34
714.438	8462.09
714.782	8485.37
715.125	8438.59
715.469	8435.43
715.812	8422.77
716.156	8357.92
716.499	8344.36
716.843	8348.88
717.186	8347.75
717.53	8368.31
717.873	8322.21
718.216	8256.9
718.559	8230.46
718.902	8162.89
719.246	8267.07
719.589	8237.24
719.932	8192.5
720.275	8256.68
720.617	8170.35
720.96	8224.59
721.303	8149.56
721.646	8114.98
721.989	8104.14
722.331	8182.78
722.674	8103.69
723.016	8173.29
723.359	8161.76
723.701	8089
724.044	8061.43
724.386	8008.09
724.729	8097.58
725.071	8077.92
725.413	8137.13
725.755	8049.45
726.097	8051.71
726.439	7986.85
726.782	7998.15
727.124	8044.03
727.465	8022.11
727.807	8001.99
728.149	8002.9
728.491	7952.73
728.833	7965.38
729.175	7940.3
729.516	7947.53
729.858	7959.73
730.199	7940.98
730.541	7928.77
730.882	7955.21
731.224	7958.38
731.565	7900.53
731.906	7936.46
732.248	7945.95
732.589	7952.5
732.93	7863.92
733.271	7879.74
733.612	7959.06
733.953	7914.99
734.294	7894.65
734.635	7824.82
734.976	7914.76
735.317	7874.76
735.658	7903.46
735.999	7934.88
736.339	7902.11
736.68	7885.61
737.021	7922.22
737.361	7824.14
737.702	7936.68
738.042	7900.53
738.383	7869.12
738.723	7868.44
739.063	7856.23
739.404	7995.89
739.744	7934.42
740.084	7947.31
740.424	7894.65
740.764	7969.23
741.104	8054.2
741.444	7984.82
741.784	8014.65
742.124	8059.39
742.464	8022.56
742.804	7964.48
743.143	8015.55
743.483	8050.58
743.823	8042.44
744.162	8043.8
744.502	8084.25
744.841	8128.77
745.181	8177.36
745.52	8186.85
745.86	8184.81
746.199	8260.52
746.538	8258.71
746.877	8307.3
747.216	8294.87
747.556	8414.86
747.895	8407.41
748.234	8375.77
748.573	8463.22
748.911	8512.04
749.25	8551.81
749.589	8585.25
749.928	8703.22
750.267	8735.08
750.605	8829.54
750.944	8862.54
751.283	8886.72
751.621	9003.32
751.96	9100.95
752.298	9041.51
752.636	9137.56
752.975	9296.42
753.313	9267.5
753.651	9427.94
753.989	9441.96
754.327	9605.57
754.666	9613.7
755.004	9791.1
755.342	9901.83
755.679	9953.13
756.017	10120.36
756.355	10225.44
756.693	10359.67
757.031	10476.5
757.368	10583.62
757.706	10729.38
758.044	10788.13
758.381	10992.42
758.719	11057.96
759.056	11257.73
759.394	11338.18
759.731	11514.44
760.068	11624.95
760.405	11798.28
760.743	11943.13
761.08	12089.34
761.417	12214.76
761.754	12379.73
762.091	12502.21
762.428	12628.09
762.765	12822.43
763.102	13030.56
763.438	13154.63
763.775	13281.4
764.112	13462.41
764.449	13652.47
764.785	13680.71
765.122	13807.49
765.458	13983.98
765.795	14120.02
766.131	14310.53
766.467	14449.28
766.804	14489.51
767.14	14621.48
767.476	14803.4
767.812	14885.43
768.148	15046.1
768.485	15056.95
768.821	15259.88
769.157	15510.95
769.492	15569.48
769.828	15625.97
770.164	15667.1
770.5	15772.64
770.836	15962.91
771.171	16070.26
771.507	16240.19
771.842	16143.47
772.178	16226.18
772.513	16340.98
772.849	16442.22
773.184	16508.44
773.519	16650.81
773.855	16716.57
774.19	16707.98
774.525	16805.38
774.86	16778.94
775.195	16907.52
775.53	16995.88
775.865	17002.43
776.2	17027.52
776.535	17109.32
776.87	17125.37
777.205	17116.78
777.539	17143.67
777.874	17207.4
778.209	17129.66
778.543	17247.4
778.878	17258.47
779.212	17329.88
779.547	17324.23
779.881	17408.3
780.215	17382.09
780.55	17483.55
780.884	17430.67
781.218	17479.71
781.552	17528.3
781.886	17410.11
782.22	17443.1
782.554	17428.41
782.888	17357.91
783.222	17339.83
783.556	17309.54
783.889	17377.11
784.223	17224.8
784.557	17246.27
784.89	17299.38
785.224	17265.7
785.557	17335.76
785.891	17360.17
786.224	17275.42
786.558	17265.48
786.891	17246.04
787.224	17169.89
787.557	17124.24
787.891	17173.5
788.224	17119.27
788.557	17194.97
788.89	17180.96
789.223	17122.88
789.556	17144.8
789.888	17041.76
790.221	16978.25
790.554	16926.73
790.887	16964.92
791.219	16999.95
791.552	16890.57
791.884	16894.41
792.217	16806.28
792.549	16830.01
792.882	16810.35
793.214	16745.49
793.546	16849.9
793.879	16680.86
794.211	16672.73
794.543	16748.2
794.875	16624.82
795.207	16635.21
795.539	16516.57
795.871	16622.56
796.203	16509.11
796.535	16298.72
796.867	16363.81
797.198	16359.29
797.53	16397.7
797.862	16331.49
798.193	16300.08
798.525	16211.04
798.856	16237.26
799.188	16038.84
799.519	15988.45
799.85	16052.85
800.182	16058.28
800.513	16009.24
800.844	15891.05
801.175	16022.35
801.506	15937.15
801.837	15875.23
802.168	15819.64
802.499	15793.88
802.83	15753.88
803.161	15693.99
803.491	15680.89
803.822	15664.16
804.153	15618.29
804.483	15558.63
804.814	15505.07
805.145	15544.62
805.475	15543.94
805.805	15411.52
806.136	15471.85
806.466	15427.33
806.796	15423.49
807.126	15321.12
807.457	15269.6
807.787	15243.38
808.117	15260.11
808.447	15205.65
808.777	15313.21
809.107	15117.74
809.436	15150.05
809.766	15135.36
810.096	14981.47
810.426	15049.04
810.755	15005.65
811.085	14966.1
811.414	14953
811.744	14758.65
812.073	14852.43
812.403	14855.6
812.732	14838.65
813.061	14823.96
813.39	14734.02
813.719	14764.3
814.049	14751.42
814.378	14692.66
814.707	14599.79
815.036	14706.22
815.365	14617.41
815.693	14472.56
816.022	14545.32
816.351	14465.55
816.68	14346.68
817.008	14377.64
817.337	14302.17
817.665	14257.87
817.994	14387.81
818.322	14260.36
818.651	14313.92
818.979	14158.89
819.307	14322.05
819.636	14193.69
819.964	14208.84
820.292	14237.31
820.62	14148.72
820.948	14090.65
821.276	14156.18
821.604	14097.43
821.932	14097.2
822.259	14129.74
822.587	14081.16
822.915	14035.51
823.243	14061.49
823.57	14059.69
823.898	14054.49
824.225	14048.84
824.553	14090.65
824.88	14110.98
825.207	14128.61
825.535	14078.9
825.862	14132.45
826.189	14139.91
826.516	14148.5
826.843	14237.76
827.17	14181.04
827.497	14202.28
827.824	14252
828.151	14132.68
828.478	14160.7
828.805	14208.16
829.131	14203.64
829.458	14074.83
829.785	14089.97
830.111	14105.11
830.438	14234.6
830.764	14158.89
831.09	14223.3
831.417	14118.44
831.743	14126.8
832.069	14116.18
832.395	14082.06
832.722	14155.96
833.048	14011.1
833.374	14104.43
833.7	14012.23
834.026	14082.74
834.351	14063.75
834.677	14075.05
835.003	13997.54
835.329	14058.78
835.654	14065.56
835.98	14004.55
836.306	13976.07
836.631	13920.93
836.956	13926.58
837.282	13863.99
837.607	13875.51
837.932	13788.73
838.258	13893.59
838.583	13822.4
838.908	13752.35
839.233	13798
839.558	13762.07
839.883	13673.03
840.208	13620.6
840.533	13714.16
840.858	13728.85
841.182	13673.48
841.507	13674.16
841.832	13573.37
842.156	13529.31
842.481	13637.55
842.805	13581.51
843.13	13493.15
843.454	13517.33
843.778	13446.82
844.103	13405.92
844.427	13348.75
844.751	13353.94
845.075	13293.15
845.399	13233.72
845.723	13190.78
846.047	13139.26
846.371	13047.51
846.695	13090.9
847.019	13018.58
847.343	12934.07
847.666	12937.91
847.99	12923.22
848.313	12861.07
848.637	12782.21
848.96	12663.11
849.284	12628.76
849.607	12630.57
849.931	12570.01
850.254	12432.61
850.577	12425.38
850.9	12348.09
851.223	12358.49
851.546	12322.33
851.869	12236.68
852.192	12261.09
852.515	12207.31
852.838	12063.36
853.161	12082.56
853.483	12006.41
853.806	12021.32
854.129	11967.09
854.451	11930.03
854.774	11931.16
855.096	11863.13
855.419	11808.22
855.741	11797.37
856.063	11744.95
856.385	11697.26
856.708	11662.24
857.03	11613.2
857.352	11624.04
857.674	11626.76
857.996	11564.39
858.318	11447.33
858.64	11479.42
858.961	11409.14
859.283	11401
859.605	11327.33
859.926	11374.79
860.248	11384.5
860.57	11286.65
860.891	11239.87
861.212	11231.96
861.534	11202.81
861.855	11073.32
862.176	11140.44
862.498	11136.6
862.819	11130.05
863.14	11057.51
863.461	11055.7
863.782	11025.64
864.103	11043.04
864.424	11093.44
864.745	10985.64
865.065	10961.46
865.386	10905.87
865.707	10928.92
866.027	10952.65
866.348	10922.82
866.668	10944.06
866.989	10893.22
867.309	10799.89
867.63	10883.73
867.95	10813.44
868.27	10778.19
868.59	10786.78
868.91	10737.51
869.23	10693.67
869.55	10631.75
869.87	10650.74
870.19	10655.71
870.51	10706.1
870.83	10652.77
871.15	10595.82
871.469	10570.29
871.789	10637.18
872.109	10604.18
872.428	10490.52
872.748	10544.53
873.067	10584.75
873.386	10550.4
873.706	10529.61
874.025	10433.79
874.344	10478.76
874.663	10454.13
874.982	10425.21
875.301	10415.49
875.62	10420.69
875.939	10362.61
876.258	10279
876.577	10344.98
876.896	10348.15
877.214	10295.72
877.533	10283.29
877.852	10240.35
878.17	10293.68
878.489	10257.98
878.807	10248.49
879.125	10233.12
879.444	10179.34
879.762	10117.64
880.08	10146.57
880.398	10096.63
880.716	10114.03
881.034	10034.93
881.352	10016.63
881.67	10019.57
881.988	9994.71
882.306	10040.36
882.624	10002.39
882.941	9910.87
883.259	9860.48
883.577	9903.19
883.894	9885.79
884.212	9869.51
884.529	9923.07
884.846	9815.05
885.164	9742.74
885.481	9800.82
885.798	9688.28
886.115	9710.87
886.432	9697.77
886.75	9680.82
887.067	9610.31
887.383	9628.16
887.7	9683.76
888.017	9476.3
888.334	9556.3
888.651	9554.95
888.967	9514.72
889.284	9456.64
889.6	9428.85
889.917	9411.45
890.233	9333.94
890.55	9307.5
890.866	9355.4
891.182	9335.74
891.498	9313.14
891.815	9223.88
892.131	9167.84
892.447	9200.38
892.763	9229.31
893.079	9138.01
893.395	9065.92
893.71	9092.81
894.026	9075.64
894.342	9058.24
894.657	8991.57
894.973	8892.59
895.289	8906.38
895.604	8994.06
895.92	8860.28
896.235	8833.84
896.55	8841.29
896.865	8796.32
897.181	8771.92
897.496	8745.7
897.811	8695.76
898.126	8714.29
898.441	8655.31
898.756	8608.08
899.071	8537.8
899.386	8528.76
899.7	8460.74
900.015	8463.9
900.33	8383.68
900.644	8374.86
900.959	8406.05
901.273	8374.86
901.588	8392.49
901.902	8266.39
902.216	8303
902.531	8253.51
902.845	8258.48
903.159	8165.38
903.473	8136.23
903.787	8116.11
904.101	8055.78
904.415	8036.12
904.729	8065.49
905.042	8023.46
905.356	7995.21
905.67	7963.58
905.984	7956.57
906.297	7919.74
906.611	7825.73
906.924	7809.68
907.237	7806.74
907.551	7784.6
907.864	7747.54
908.177	7710.7
908.491	7705.05
908.804	7650.36
909.117	7553.19
909.43	7602.68
909.743	7533.98
910.056	7557.03
910.368	7414.66
910.681	7390.03
910.994	7425.06
911.307	7385.74
911.619	7316.36
911.932	7353.2
912.244	7277.27
912.557	7297.15
912.869	7257.61
913.181	7192.52
913.494	7143.26
913.806	7227.78
914.118	7178.06
914.43	7084.5
914.742	7084.28
915.054	7043.15
915.366	7067.78
915.678	7066.42
915.99	6960.44
916.302	6873.21
916.613	6858.29
916.925	6837.05
917.236	6835.92
917.548	6795.92
917.859	6788.92
918.171	6743.27
918.482	6670.05
918.794	6637.51
919.105	6686.77
919.416	6599.32
919.727	6622.37
920.038	6598.87
920.349	6570.84
920.66	6544.86
920.971	6501.92
921.282	6485.65
921.593	6447.46
921.903	6355.71
922.214	6462.15
922.525	6387.8
922.835	6356.39
923.146	6292.89
923.456	6245.43
923.767	6252.43
924.077	6292.43
924.387	6214.92
924.697	6103.51
925.008	6138.99
925.318	6094.47
925.628	6128.6
925.938	6111.87
926.248	6042.5
926.558	6088.15
926.867	6019.9
927.177	5980.8
927.487	5961.59
927.796	5973.8
928.106	5890.64
928.416	5882.95
928.725	5862.16
929.034	5874.59
929.344	5880.01
929.653	5872.56
929.962	5820.58
930.271	5743.52
930.581	5740.36
930.89	5699.23
931.199	5691.77
931.508	5668.72
931.817	5653.35
932.125	5602.73
932.434	5582.4
932.743	5591.21
933.051	5545.11
933.36	5539.46
933.669	5449.52
933.977	5500.59
934.286	5467.82
934.594	5459.69
934.902	5415.17
935.21	5356.19
935.519	5434.83
935.827	5397.09
936.135	5341.05
936.443	5278
936.751	5290.88
937.059	5282.97
937.367	5228.05
937.674	5233.48
937.982	5203.2
938.29	5188.73
938.597	5139.47
938.905	5103.99
939.213	5101.73
939.52	5081.17
939.827	5096.53
940.135	5108.96
940.442	5031
940.749	5002.98
941.056	4955.52
941.363	4907.16
941.67	4908.29
941.977	4863.54
942.284	4872.58
942.591	4889.31
942.898	4866.93
943.205	4816.54
943.511	4800.27
943.818	4775.64
944.125	4719.59
944.431	4707.62
944.738	4702.87
945.044	4711.23
945.35	4675.07
945.657	4643.21
945.963	4640.5
946.269	4608.18
946.575	4607.96
946.881	4581.97
947.187	4606.38
947.493	4556.66
947.799	4551.91
948.105	4506.04
948.41	4462.88
948.716	4482.31
949.022	4451.13
949.327	4458.58
949.633	4407.74
949.938	4421.97
950.244	4425.14
950.549	4360.05
950.854	4344.91
951.16	4304.46
951.465	4271.47
951.77	4250.91
952.075	4229.44
952.38	4282.77
952.685	4256.78
952.99	4196.44
953.294	4167.07
953.599	4159.61
953.904	4121.87
954.209	4127.97
954.513	4115.32
954.818	4086.16
955.122	4078.71
955.426	4067.63
955.731	4078.71
956.035	4018.59
956.339	4023.34
956.643	4002.32
956.948	3979.95
957.252	3954.42
957.556	3948.99
957.86	3899.95
958.163	3920.29
958.467	3896.34
958.771	3889.11
959.075	3907.19
959.378	3829.9
959.682	3811.37
959.985	3825.38
960.289	3805.04
960.592	3798.26
960.896	3765.04
961.199	3749.45
961.502	3730.01
961.805	3685.72
962.108	3722.56
962.411	3695.89
962.714	3670.36
963.017	3646.85
963.32	3689.34
963.623	3621.32
963.926	3613.63
964.228	3556.01
964.531	3586.29
964.833	3546.29
965.136	3524.14
965.438	3529.79
965.741	3518.95
966.043	3508.55
966.345	3489.12
966.648	3492.73
966.95	3448.44
967.252	3440.76
967.554	3437.37
967.856	3409.12
968.158	3401.44
968.46	3395.33
968.761	3367.31
969.063	3371.83
969.365	3324.15
969.666	3299.97
969.968	3294.55
970.269	3302.23
970.571	3279.18
970.872	3308.78
971.174	3272.85
971.475	3242.8
971.776	3266.52
972.077	3242.8
972.378	3229.92
972.679	3168.45
972.98	3204.83
973.281	3149.24
973.582	3128.9
973.883	3081.44
974.183	3119.18
974.484	3144.72
974.785	3097.26
975.085	3109.47
975.386	3082.57
975.686	3063.14
975.986	3040.54
976.287	3051.61
976.587	2985.63
976.887	3007.55
977.187	2991.5
977.487	2970.03
977.787	2933.65
978.087	2914.44
978.387	2907.66
978.687	2954.67
978.987	2889.13
979.286	2878.96
979.586	2881.68
979.885	2857.5
980.185	2859.76
980.484	2833.32
980.784	2850.26
981.083	2790.38
981.382	2768.68
981.682	2782.47
981.981	2791.96
982.28	2745.41
982.579	2762.58
982.878	2725.97
983.177	2759.87
983.475	2690.04
983.774	2715.35
984.073	2674.9
984.372	2665.41
984.67	2661.79
984.969	2662.47
985.267	2612.53
985.566	2583.38
985.864	2611.63
986.162	2638.29
986.461	2591.51
986.759	2610.27
987.057	2521.46
987.355	2547.67
987.653	2530.27
987.951	2563.04
988.249	2502.48
988.547	2543.83
988.844	2519.43
989.142	2507.45
989.44	2459.09
989.737	2448.69
990.035	2465.64
990.332	2440.33
990.63	2460.44
990.927	2422.25
991.224	2419.54
991.521	2405.08
991.819	2373.67
992.116	2382.48
992.413	2364.4
992.71	2346.1
993.006	2347
993.303	2323.5
993.6	2320.11
993.897	2331.18
994.193	2308.58
994.49	2254.8
994.787	2230.39
995.083	2277.4
995.379	2248.7
995.676	2228.59
995.972	2225.2
996.268	2226.55
996.565	2197.17
996.861	2203.5
997.157	2190.17
997.453	2188.36
997.749	2161.69
998.044	2138.42
998.34	2147.01
998.636	2151.3
998.932	2107.91
999.227	2090.74
999.523	2099.1
999.818	2034.92
1000.114	2116.72
1000.409	2088.48
1000.704	2044.64
1001	2034.01
1001.295	2008.93
1001.59	2034.69
1001.885	2010.06
1002.18	1972.77
1002.475	2010.51
1002.77	1961.93
1003.065	1963.06
1003.359	1950.17
1003.654	1968.03
1003.949	1953.56
1004.243	1911.08
1004.538	1939.1
1004.832	1883.96
1005.127	1899.1
1005.421	1873.57
1005.715	1896.62
1006.009	1866.34
1006.304	1873.11
1006.598	1846.45
1006.892	1878.54
1007.186	1822.95
1007.48	1835.38
1007.773	1787.02
1008.067	1779.78
1008.361	1746.79
1008.655	1796.05
1008.948	1767.35
1009.242	1752.89
1009.535	1767.35
1009.829	1709.5
1010.122	1704.53
1010.415	1714.7
1010.708	1700.92
1011.001	1664.53
1011.295	1656.85
1011.588	1653.46
1011.881	1663.18
1012.173	1660.46
1012.466	1621.37
1012.759	1624.31
1013.052	1624.31
1013.344	1606.68
1013.637	1601.26
1013.93	1572.56
1014.222	1579.79
1014.514	1576.17
1014.807	1561.48
1015.099	1550.64
1015.391	1552.67
1015.683	1523.75
1015.976	1533.24
1016.268	1493.69
1016.56	1509.51
1016.851	1517.87
1017.143	1491.88
1017.435	1467.25
1017.727	1480.13
1018.018	1471.54
1018.31	1426.35
1018.602	1424.99
1018.893	1439.91
1019.185	1434.48
1019.476	1430.87
1019.767	1389.96
1020.058	1382.51
1020.35	1392.68
1020.641	1366.01
1020.932	1357.87
1021.223	1371.43
1021.514	1365.56
1021.804	1351.77
1022.095	1322.62
1022.386	1307.71
1022.677	1335.28
1022.967	1320.81
1023.258	1302.51
1023.548	1275.84
1023.839	1302.73
1024.129	1287.37
1024.419	1288.95
1024.709	1263.87
1025	1258.67
1025.29	1259.12
1025.58	1270.87
1025.87	1243.3
1026.16	1262.06
1026.449	1229.29
1026.739	1197.43
1027.029	1214.83
1027.319	1193.81
1027.608	1166.01
1027.898	1189.06
1028.187	1170.31
1028.477	1128.95
1028.766	1160.14
1029.055	1156.3
1029.344	1156.98
1029.634	1132.34
1029.923	1140.03
1030.212	1116.75
1030.501	1112
1030.79	1093.7
1031.078	1095.06
1031.367	1072.23
1031.656	1072.01
1031.945	1070.42
1032.233	1075.62
1032.522	1083.53
1032.81	1067.94
1033.099	1054.61
1033.387	1066.81
1033.675	1070.42
1033.963	1026.58
1034.251	1037.2
1034.54	991.1
1034.828	1041.27
1035.116	990.65
1035.403	983.87
1035.691	995.17
1035.979	997.66
1036.267	977.54
1036.554	980.26
1036.842	940.94
1037.129	965.12
1037.417	952.69
1037.704	956.3
1037.992	935.06
1038.279	937.55
1038.566	931.67
1038.853	931.67
1039.14	931.67
