Data from hue_30_FLMS001491_31.txt Node
Date: Mon Feb 06 15:05:11 GMT 2017
User: dcchb
Spectrometer: FLMS00149
Trigger mode: 0
Integration Time (sec): 2.000000E-2
Scans to average: 10
Electric dark correction enabled: true
Nonlinearity correction enabled: false
Boxcar width: 0
XAxis mode: Wavelengths
Number of Pixels in Spectrum: 2048
>>>>>Begin Spectral Data<<<<<
341.393	-14.46
341.776	-14.46
342.16	-14.46
342.543	-51.3
342.927	-66.21
343.31	-62.15
343.693	-70.96
344.077	-62.6
344.46	-55.37
344.843	-60.56
345.226	-30.96
345.61	-19.21
345.993	-24.18
346.376	-6.55
346.759	16.27
347.142	25.76
347.525	22.37
347.908	57.17
348.291	56.04
348.674	105.53
349.057	109.38
349.44	117.51
349.823	139.88
350.206	164.74
350.588	178.98
350.971	195.25
351.354	249.94
351.737	233.89
352.119	250.84
352.502	257.85
352.884	290.39
353.267	283.61
353.65	269.15
354.032	304.85
354.414	282.48
354.797	311.63
355.179	315.02
355.562	317.73
355.944	341.46
356.326	319.99
356.709	334.68
357.091	334.23
357.473	339.43
357.855	342.82
358.238	355.47
358.62	350.73
359.002	359.54
359.384	338.52
359.766	352.99
360.148	338.97
360.53	335.58
360.912	344.4
361.294	330.16
361.676	330.39
362.057	340.1
362.439	329.71
362.821	320.44
363.203	336.04
363.584	334.45
363.966	317.96
364.348	338.3
364.729	318.41
365.111	353.44
365.493	314.34
365.874	325.19
366.256	319.77
366.637	298.98
367.019	312.53
367.4	328.35
367.781	310.5
368.163	312.53
368.544	293.33
368.925	287.45
369.306	335.13
369.688	322.25
370.069	285.19
370.45	324.96
370.831	336.04
371.212	297.62
371.593	293.55
371.974	317.28
372.355	289.26
372.736	317.96
373.117	316.38
373.498	310.5
373.879	329.71
374.26	305.3
374.641	310.5
375.021	301.24
375.402	313.89
375.783	325.19
376.163	323.16
376.544	335.58
376.925	341.23
377.305	314.34
377.686	316.6
378.066	341.91
378.447	336.94
378.827	330.39
379.208	339.88
379.588	340.78
379.968	305.98
380.349	335.81
380.729	320.9
381.109	330.61
381.489	328.35
381.87	329.26
382.25	321.12
382.63	328.58
383.01	322.93
383.39	336.04
383.77	336.49
384.15	335.36
384.53	338.07
384.91	348.69
385.29	346.21
385.67	356.6
386.049	354.57
386.429	349.82
386.809	341.91
387.189	349.37
387.568	342.14
387.948	343.95
388.328	347.79
388.707	343.27
389.087	349.14
389.466	363.83
389.846	343.49
390.225	362.93
390.605	364.51
390.984	329.03
391.363	370.39
391.743	362.25
392.122	390.05
392.501	364.74
392.881	377.84
393.26	361.35
393.639	362.25
394.018	374
394.397	369.03
394.776	369.93
395.155	373.32
395.534	369.26
395.913	377.17
396.292	362.02
396.671	379.65
397.05	379.2
397.429	356.6
397.808	355.24
398.186	399.99
398.565	396.83
398.944	381.46
399.323	366.77
399.701	391.4
400.08	359.54
400.458	376.26
400.837	395.92
401.215	392.76
401.594	391.4
401.972	383.72
402.351	402.25
402.729	391.18
403.107	389.37
403.486	411.74
403.864	399.09
404.242	402.48
404.62	379.43
404.999	387.11
405.377	414.45
405.755	411.51
406.133	385.3
406.511	425.07
406.889	422.36
407.267	419.65
407.645	412.19
408.023	436.37
408.401	426.2
408.779	442.7
409.156	422.36
409.534	433.43
409.912	451.97
410.29	434.11
410.667	427.33
411.045	440.21
411.422	444.28
411.8	424.17
412.178	442.02
412.555	464.85
412.933	473.66
413.31	447.9
413.687	472.3
414.065	450.38
414.442	445.41
414.819	468.69
415.197	459.87
415.574	472.08
415.951	454.68
416.328	482.47
416.705	477.28
417.082	448.35
417.46	511.4
417.837	483.83
418.214	489.48
418.591	486.99
418.967	480.89
419.344	487.9
419.721	488.12
420.098	491.06
420.475	485.18
420.852	500.78
421.228	492.64
421.605	523.6
421.982	510.72
422.358	526.09
422.735	526.99
423.111	504.17
423.488	513.21
423.864	498.29
424.241	543.04
424.617	535.35
424.994	505.3
425.37	516.37
425.746	545.3
426.123	537.39
426.499	557.95
426.875	534
427.251	546.88
427.627	552.75
428.003	559.53
428.379	565.86
428.756	552.53
429.132	552.53
429.507	545.97
429.883	569.7
430.259	573.32
430.635	570.61
431.011	592.98
431.387	584.39
431.763	585.3
432.138	590.72
432.514	609.48
432.89	600.44
433.265	608.8
433.641	608.57
434.016	634.33
434.392	637.05
434.767	670.04
435.143	656.03
435.518	651.96
435.894	652.64
436.269	650.38
436.644	688.12
437.02	657.16
437.395	675.24
437.77	660.55
438.145	688.12
438.52	691.28
438.895	708.23
439.271	668.46
439.646	707.78
440.021	689.7
440.395	700.77
440.77	688.34
441.145	708.23
441.52	715.24
441.895	718.85
442.27	708.46
442.645	732.64
443.019	726.99
443.394	742.81
443.769	727.89
444.143	732.64
444.518	737.16
444.892	741.45
445.267	717.04
445.641	770.38
446.016	757.27
446.39	767.44
446.764	746.65
447.139	775.12
447.513	766.08
447.887	769.25
448.262	793.43
448.636	806.76
449.01	793.43
449.384	782.58
449.758	787.1
450.132	802.24
450.506	804.05
450.88	794.56
451.254	811.5
451.628	827.77
452.002	816.25
452.376	821.22
452.75	849.24
453.123	848.11
453.497	842.01
453.871	845.63
454.244	895.57
454.618	877.72
454.992	888.11
455.365	878.62
455.739	906.87
456.112	905.96
456.486	909.35
456.859	919.52
457.232	940.09
457.606	929.47
457.979	941.44
458.352	960.88
458.725	972.18
459.099	945.06
459.472	975.79
459.845	981.67
460.218	995.45
460.591	996.13
460.964	1015.57
461.337	1030.93
461.71	1046.98
462.083	1064.6
462.456	1068.67
462.829	1057.83
463.201	1079.07
463.574	1096.92
463.947	1105.96
464.32	1102.8
464.692	1141.44
465.065	1098.5
465.438	1167.43
465.81	1149.35
466.183	1168.33
466.555	1190.25
466.928	1193.19
467.3	1208.78
467.672	1213.75
468.045	1247.2
468.417	1256.92
468.789	1253.53
469.161	1278.38
469.534	1310.7
469.906	1334.65
470.278	1317.03
470.65	1343.24
471.022	1378.27
471.394	1384.6
471.766	1416.01
472.138	1454.43
472.51	1489.68
472.882	1489.68
473.253	1509.56
473.625	1512.95
473.997	1551.15
474.369	1562.44
474.74	1604.48
475.112	1613.29
475.484	1668.2
475.855	1696
476.227	1692.61
476.598	1768.99
476.97	1748.88
477.341	1814.87
477.713	1862.32
478.084	1849.89
478.455	1919.05
478.827	1940.06
479.198	2017.57
479.569	2019.83
479.94	2086.5
480.311	2100.74
480.682	2144.12
481.053	2189.09
481.424	2271.8
481.795	2271.58
482.166	2312.03
482.537	2343.67
482.908	2418.47
483.279	2451.91
483.65	2499.14
484.021	2564
484.391	2616.43
484.762	2628.41
485.133	2672.7
485.503	2709.08
485.874	2775.07
486.244	2842.86
486.615	2903.43
486.985	2935.74
487.356	3022.52
487.726	3051.9
488.097	3115.17
488.467	3176.64
488.837	3231.33
489.207	3298.22
489.578	3348.61
489.948	3380.48
490.318	3470.42
490.688	3490.3
491.058	3540.47
491.428	3584.09
491.798	3635.84
492.168	3796.74
492.538	3791.76
492.908	3838.77
493.278	3925.77
493.648	3932.33
494.017	3995.38
494.387	4042.83
494.757	4077.86
495.126	4118.31
495.496	4178.87
495.866	4253.9
496.235	4311.53
496.605	4329.6
496.974	4352.2
497.344	4410.05
497.713	4472.2
498.082	4494.12
498.452	4529.37
498.821	4621.8
499.19	4671.74
499.559	4683.27
499.928	4717.84
500.298	4772.08
500.667	4801.23
501.036	4831.74
501.405	4937.72
501.774	4898.63
502.143	4935.01
502.512	4984.95
502.88	5036.48
503.249	5036.48
503.618	5113.31
503.987	5120.77
504.356	5203.93
504.724	5198.06
505.093	5230.6
505.462	5264.27
505.83	5321.89
506.199	5295.91
506.567	5387.2
506.936	5383.14
507.304	5468.1
507.672	5466.52
508.041	5451.61
508.409	5544.04
508.777	5603.24
509.145	5640.76
509.514	5604.37
509.882	5684.82
510.25	5697.48
510.618	5795.1
510.986	5737.02
511.354	5807.76
511.722	5850.92
512.09	5876.46
512.458	5880.52
512.826	5923.01
513.193	5951.71
513.561	5938.83
513.929	5949
514.297	6099.27
514.664	6114.87
515.032	6131.36
515.4	6162.78
515.767	6167.52
516.135	6215.88
516.502	6186.73
516.869	6285.48
517.237	6286.39
517.604	6246.62
517.972	6351.02
518.339	6367.74
518.706	6395.09
519.073	6385.37
519.44	6464.69
519.808	6517.34
520.175	6511.02
520.542	6528.87
520.909	6646.6
521.276	6559.38
521.643	6631.46
522.009	6685.93
522.376	6749.2
522.743	6759.6
523.11	6807.5
523.477	6885.69
523.843	6810.67
524.21	6960.04
524.577	6983.55
524.943	7034.17
525.31	7032.36
525.676	7086.82
526.043	7103.32
526.409	7140.38
526.776	7207.04
527.142	7195.07
527.508	7280.71
527.874	7303.76
528.241	7325.68
528.607	7300.82
528.973	7468.96
529.339	7459.46
529.705	7479.8
530.071	7569.74
530.437	7552.57
530.803	7635.05
531.169	7700.36
531.535	7722.96
531.901	7686.35
532.267	7763.86
532.632	7792.34
532.998	7867.36
533.364	7873.01
533.73	7935.16
534.095	7955.72
534.461	7983.74
534.826	8042.5
535.192	8095.38
535.557	8099.22
535.923	8107.58
536.288	8123.85
536.653	8161.59
537.019	8164.76
537.384	8184.87
537.749	8259.9
538.114	8347.58
538.479	8324.53
538.845	8393.45
539.21	8370.18
539.575	8400.01
539.94	8384.86
540.305	8518.65
540.67	8524.07
541.034	8519.55
541.399	8600.45
541.764	8615.14
542.129	8593.67
542.494	8677.51
542.858	8712.54
543.223	8729.49
543.587	8802.48
543.952	8746.21
544.316	8832.08
544.681	8760.67
545.045	8889.71
545.41	8945.98
545.774	8910.95
546.138	8947.11
546.503	9024.62
546.867	9081.8
547.231	9093.32
547.595	9103.26
547.959	9100.55
548.324	9190.27
548.688	9220.55
549.052	9230.72
549.416	9254.67
549.779	9310.04
550.143	9358.17
550.507	9469.13
550.871	9413.09
551.235	9396.36
551.599	9510.71
551.962	9471.84
552.326	9516.36
552.689	9592.06
553.053	9583.93
553.417	9592.74
553.78	9738.95
554.143	9628.9
554.507	9724.72
554.87	9776.24
555.234	9797.26
555.597	9812.4
555.96	9794.09
556.323	9849.68
556.686	9879.06
557.05	9935.33
557.413	9950.47
557.776	9968.33
558.139	10091.71
558.502	10069.34
558.865	10103.46
559.228	10104.14
559.59	10134.2
559.953	10159.96
560.316	10282.67
560.679	10265.72
561.041	10303.68
561.404	10408.09
561.767	10424.36
562.129	10445.83
562.492	10456.45
562.854	10515.43
563.217	10511.81
563.579	10581.64
563.941	10577.8
564.304	10655.77
564.666	10736.89
565.028	10764.46
565.39	10714.97
565.753	10779.83
566.115	10867.28
566.477	10925.59
566.839	10946.83
567.201	10980.5
567.563	10964.68
567.925	11062.99
568.287	11023.21
568.648	11079.71
569.01	11108.63
569.372	11237.67
569.734	11184.56
570.095	11251.23
570.457	11403.32
570.819	11362.41
571.18	11353.6
571.542	11487.83
571.903	11491.9
572.265	11582.07
572.626	11598.34
572.987	11645.12
573.349	11667.26
573.71	11742.74
574.071	11801.72
574.432	11841.72
574.794	12001.94
575.155	12077.42
575.516	12082.39
575.877	12144.09
576.238	12252.79
576.599	12354.93
576.96	12420.24
577.32	12505.43
577.681	12546.79
578.042	12657.29
578.403	12719.21
578.763	12764.86
579.124	12958.76
579.485	13070.16
579.845	13244.85
580.206	13269.71
580.566	13353.77
580.927	13526.65
581.287	13706.31
581.648	13819.75
582.008	13973.87
582.368	14082.57
582.728	14195.78
583.089	14373.63
583.449	14526.17
583.809	14668.54
584.169	14873.96
584.529	15023.11
584.889	15342.65
585.249	15326.38
585.609	15597.33
585.969	15752.35
586.329	15887.72
586.688	16183.53
587.048	16353.24
587.408	16433.92
587.768	16635.72
588.127	17054.69
588.487	17086.1
588.846	17407
589.206	17606.99
589.565	17813.99
589.925	18128.79
590.284	18291.95
590.643	18498.27
591.003	18892.16
591.362	19095.54
591.721	19275.65
592.08	19458.7
592.44	19879.25
592.799	19997.67
593.158	20250.99
593.517	20413.93
593.876	20810.75
594.235	20977.75
594.593	21235.37
594.952	21566.44
595.311	21733.21
595.67	22030.16
596.029	22352.63
596.387	22636.92
596.746	22883.92
597.104	23081.2
597.463	23284.36
597.822	23523.68
598.18	23731.35
598.538	23934.51
598.897	24386.48
599.255	24360.26
599.613	24930.64
599.972	25029.85
600.33	25358.66
600.688	25374.7
601.046	25815.14
601.404	26047.9
601.762	26155.92
602.12	26577.61
602.478	26809.24
602.836	26939.18
603.194	27148.66
603.552	27360.64
603.91	27434.31
604.268	27869.55
604.625	28064.57
604.983	28234.06
605.341	28282.19
605.698	28552.47
606.056	28940.71
606.413	29036.52
606.771	29166.46
607.128	29468.6
607.485	29398.78
607.843	29723.96
608.2	29878.76
608.557	30242.82
608.914	30261.35
609.272	30495.7
609.629	30780.66
609.986	30997.83
610.343	30941.56
610.7	31377.93
611.057	31405.28
611.414	31654.08
611.771	31833.29
612.127	32081.64
612.484	32192.6
612.841	32357.57
613.198	32374.97
613.554	32406.38
613.911	32812.24
614.267	32976.08
614.624	33023.76
614.98	33044.33
615.337	33461.27
615.693	33334.26
616.05	33484.77
616.406	33868.94
616.762	33716.85
617.118	33912.55
617.475	33952.78
617.831	34135.15
618.187	34158.65
618.543	34393.22
618.899	34610.62
619.255	34572.65
619.611	34694.23
619.967	34862.81
620.323	35071.62
620.678	34947.56
621.034	35018.06
621.39	35128.34
621.746	35171.28
622.101	35686.97
622.457	35405.4
622.812	35502.8
623.168	35706.18
623.523	35627.31
623.879	35791.6
624.234	35654.43
624.589	35804.26
624.945	35958.38
625.3	36140.07
625.655	36104.81
626.01	36210.12
626.365	36334.86
626.72	36317.92
627.075	36308.88
627.43	36354.52
627.785	36298.48
628.14	36366.28
628.495	36468.19
628.85	36503.45
629.205	36397.24
629.559	36705.25
629.914	36599.94
630.269	36576.89
630.623	36499.83
630.978	36457.8
631.332	36716.55
631.687	36742.76
632.041	36637.68
632.396	36834.29
632.75	36585.48
633.104	36662.54
633.459	36547.51
633.813	36644.23
634.167	36577.34
634.521	36671.58
634.875	36670.22
635.229	36657.57
635.583	36539.38
635.937	36600.39
636.291	36578.93
636.645	36672.48
636.999	36496.22
637.352	36687.85
637.706	36556.33
638.06	36773.27
638.413	36486.27
638.767	36467.74
639.121	36602.2
639.474	36305.03
639.828	36459.83
640.181	36542.32
640.534	36558.36
640.888	36341.42
641.241	36200.63
641.594	36427.74
641.947	36531.47
642.301	36418.48
642.654	36442.43
643.007	36402.66
643.36	36414.41
643.713	36428.42
644.066	36436.78
644.419	36385.03
644.771	36151.37
645.124	35755.22
645.477	35708.21
645.83	35367.43
646.182	35439.29
646.535	35221.45
646.888	35315.68
647.24	35122.01
647.593	35301.67
647.945	35213.99
648.298	35002.47
648.65	35111.62
649.002	34982.81
649.355	35168.57
649.707	34985.29
650.059	35305.51
650.411	35630.7
650.763	35756.12
651.115	36031.82
651.467	36036.34
651.819	36118.82
652.171	35872.73
652.523	35819.4
652.875	35863.69
653.227	35727.87
653.578	36047.87
653.93	35851.03
654.282	35739.4
654.633	35664.15
654.985	35662.57
655.337	35761.32
655.688	35769.23
656.039	35802
656.391	35406.53
656.742	35533.98
657.094	35545.28
657.445	35712.96
657.796	35639.51
658.147	35537.14
658.498	35550.7
658.849	35624.15
659.2	35511.83
659.551	35524.94
659.902	35546.41
660.253	35549.12
660.604	35635.22
660.955	35450.37
661.306	35469.8
661.656	35509.35
662.007	35556.58
662.358	35519.74
662.708	35469.58
663.059	35471.16
663.409	35232.52
663.76	35525.39
664.11	35484.49
664.461	35502.8
664.811	35505.73
665.161	35362.46
665.511	35406.98
665.862	35436.13
666.212	35540.53
666.562	35460.99
666.912	35417.6
667.262	35381.44
667.612	35488.11
667.962	35558.39
668.312	35219.19
668.662	35427.77
669.011	35389.35
669.361	35434.55
669.711	35220.54
670.06	35257.83
670.41	35123.82
670.76	35120.21
671.109	35363.14
671.459	35230.26
671.808	35187.78
672.157	35242.69
672.507	35084.28
672.856	35129.25
673.205	35105.29
673.554	35288.34
673.904	35165.86
674.253	35252.86
674.602	35142.35
674.951	34684.51
675.3	34493.78
675.649	35060.77
675.998	35022.58
676.346	34960.44
676.695	35104.39
677.044	34795.47
677.393	35031.85
677.741	35009.02
678.09	34918.4
678.438	34826.88
678.787	34837.28
679.135	34974
679.484	34596.6
679.832	34905.3
680.181	34490.17
680.529	34702.82
680.877	34683.61
681.225	34600.22
681.573	34729.26
681.922	34555.48
682.27	34291.3
682.618	34468.47
682.966	34319.1
683.314	34345.76
683.661	34397.51
684.009	34123.85
684.357	34131.08
684.705	33930.41
685.053	34033.68
685.4	33936.06
685.748	33912.55
686.095	33798.43
686.443	33651.77
686.79	33649.96
687.138	33761.82
687.485	33635.73
687.832	33574.71
688.18	33583.52
688.527	33490.64
688.874	33274.61
689.221	33490.19
689.568	33252.91
689.915	33221.27
690.262	33153.7
690.609	33022.63
690.956	33007.49
691.303	32882.53
691.65	32837.33
691.997	32885.69
692.344	32616.09
692.69	32594.85
693.037	32670.33
693.383	32450.22
693.73	32548.75
694.077	32290.9
694.423	32227.18
694.769	32129.55
695.116	32099.95
695.462	32005.49
695.808	31847.3
696.155	32031.02
696.501	31809.56
696.847	31731.14
697.193	31509
697.539	31580.86
697.885	31520.53
698.231	31312.62
698.577	31271.72
698.923	31197.15
699.269	31118.05
699.614	30999.86
699.96	30987.66
700.306	31084.83
700.651	30880.54
700.997	30713.99
701.342	30707.67
701.688	30535.24
702.033	30464.28
702.379	30537.5
702.724	30458.41
703.069	30499.09
703.415	30183.61
703.76	30205.76
704.105	30142.94
704.45	30037.85
704.795	29928.93
705.14	29850.74
705.485	29818.2
705.83	29626.34
706.175	29676.28
706.52	29615.49
706.865	29492.56
707.209	29463.18
707.554	29439.68
707.899	29423.86
708.243	29312.9
708.588	29239.91
708.932	29087.14
709.277	29090.53
709.621	29187.03
709.966	28869.75
710.31	28883.08
710.654	28807.15
710.998	28673.82
711.342	28770.54
711.687	28627.27
712.031	28553.37
712.375	28439.03
712.719	28484.67
713.063	28414.85
713.407	28496.88
713.75	28216.89
714.094	28233.38
714.438	28186.6
714.782	28274.06
715.125	28122.88
715.469	28048.75
715.812	27901.19
716.156	27825.94
716.499	27795.65
716.843	27861.64
717.186	27603.57
717.53	27728.76
717.873	27712.04
718.216	27685.15
718.559	27556.79
718.902	27354.99
719.246	27494.19
719.589	27450.13
719.932	27210.13
720.275	27263.46
720.617	27235.44
720.96	27189.12
721.303	27207.87
721.646	27182.11
721.989	27005.84
722.331	27099.4
722.674	26934.89
723.016	27056.69
723.359	26899.41
723.701	27037.71
724.044	26681.56
724.386	26691.28
724.729	26866.86
725.071	26699.64
725.413	26740.31
725.755	26706.19
726.097	26559.3
726.439	26429.81
726.782	26411.51
727.124	26516.59
727.465	26371.74
727.807	26491.96
728.149	26308.69
728.491	26285.86
728.833	26361.57
729.175	26113.89
729.516	26172.87
729.858	26068.24
730.199	26044.74
730.541	26079.31
730.882	26104.17
731.224	26009.26
731.565	25860.34
731.906	25976.72
732.248	25914.57
732.589	25739.66
732.93	25715.48
733.271	25788.25
733.612	25710.96
733.953	25717.97
734.294	25708.48
734.635	25606.11
734.976	25745.76
735.317	25547.58
735.658	25531.76
735.999	25517.75
736.339	25461.48
736.68	25486.11
737.021	25373.12
737.361	25295.38
737.702	25357.75
738.042	25357.75
738.383	25320.01
738.723	25213.35
739.063	25059.68
739.404	25215.38
739.744	25094.93
740.084	24990.3
740.424	25048.15
740.764	24970.64
741.104	25084.09
741.444	24934.49
741.784	24777.65
742.124	24820.82
742.464	24779.01
742.804	24821.27
743.143	24680.03
743.483	24777.2
743.823	24594.61
744.162	24602.97
744.502	24652.23
744.841	24521.84
745.181	24667.15
745.52	24604.32
745.86	24619.47
746.199	24439.13
746.538	24517.32
746.877	24433.71
747.216	24477.32
747.556	24402.07
747.895	24460.15
748.234	24445.23
748.573	24336.08
748.911	24234.84
749.25	24148.29
749.589	24054.51
749.928	24133.38
750.267	24199.14
750.605	23954.17
750.944	23997.34
751.283	24026.94
751.621	24035.98
751.96	23892.71
752.298	23850.9
752.636	23865.81
752.975	23697.23
753.313	23779.94
753.651	23739.94
753.989	23626.5
754.327	23566.16
754.666	23524.35
755.004	23640.73
755.342	23541.53
755.679	23497.91
756.017	23384.02
756.355	23360.74
756.693	23242.55
757.031	23307.18
757.368	23133.85
757.706	23179.05
758.044	23116
758.381	23172.05
758.719	23076.68
759.056	22982.22
759.394	22984.71
759.731	22890.25
760.068	22827.87
760.405	22692.74
760.743	22704.26
761.08	22749.68
761.417	22573.42
761.754	22543.36
762.091	22513.53
762.428	22469.01
762.765	22290.04
763.102	22236.25
763.438	22289.36
763.775	22144.73
764.112	22226.53
764.449	22079.19
764.785	22088.23
765.122	21888.69
765.458	21831.97
765.795	21859.31
766.131	21795.59
766.467	21624.06
766.804	21554.24
767.14	21461.58
767.476	21498.64
767.812	21381.36
768.148	21419.55
768.485	21242.15
768.821	21141.82
769.157	21077.64
769.492	20964.42
769.828	20987.7
770.164	20822.05
770.5	20753.35
770.836	20843.75
771.171	20708.61
771.507	20668.84
771.842	20511.33
772.178	20480.14
772.513	20448.73
772.849	20259.13
773.184	20286.02
773.519	20325.57
773.855	20194.95
774.19	20139.36
774.525	20009.64
774.86	19966.93
775.195	20095.74
775.53	19818.01
775.865	19781.63
776.2	19663.89
776.535	19573.72
776.87	19609.43
777.205	19361.07
777.539	19328.31
777.874	19447.4
778.209	19225.71
778.543	19230.45
778.878	19113.85
779.212	19066.17
779.547	18960.86
779.881	19035.66
780.215	18876.57
780.55	18910.69
780.884	18754.76
781.218	18769
781.552	18752.5
781.886	18613.97
782.22	18521.09
782.554	18390.93
782.888	18276.81
783.222	18110.48
783.556	18092.18
783.889	18075.46
784.223	17952.75
784.557	17916.59
784.89	17922.01
785.224	17816.48
785.557	17730.16
785.891	17708.91
786.224	17639.08
786.558	17761.11
786.891	17448.13
787.224	17446.55
787.557	17339.66
787.891	17285.2
788.224	17336.04
788.557	17320.9
788.89	17153.22
789.223	17210.39
789.556	17073
789.888	17034.35
790.221	16995.94
790.554	16813.57
790.887	16804.3
791.219	16734.93
791.552	16804.76
791.884	16621.03
792.217	16501.26
792.549	16548.72
792.882	16378.33
793.214	16358.44
793.546	16419.46
793.879	16180.82
794.211	16181.95
794.543	16255.17
794.875	16115.73
795.207	16166.81
795.539	16101.27
795.871	16079.13
796.203	15922.52
796.535	15825.8
796.867	15783.09
797.198	15777.89
797.53	15762.3
797.862	15673.03
798.193	15772.01
798.525	15548.97
798.856	15652.92
799.188	15436.88
799.519	15424.45
799.85	15293.16
800.182	15372.93
800.513	15340.39
800.844	15188.53
801.175	15238.24
801.506	15077.12
801.837	15086.61
802.168	15077.34
802.499	15032.37
802.83	14950.57
803.161	14909.66
803.491	14857.01
803.822	14840.29
804.153	14798.03
804.483	14702.21
804.814	14630.12
805.145	14671.25
805.475	14605.49
805.805	14539.96
806.136	14476
806.466	14558.26
806.796	14486.85
807.126	14365.95
807.457	14405.95
807.787	14379.06
808.117	14241.43
808.447	14175.67
808.777	14240.53
809.107	14161.89
809.436	14137.26
809.766	14126.86
810.096	14036.02
810.426	13942.01
810.755	13991.27
811.085	14016.58
811.414	13966.86
811.744	13837.38
812.073	13830.82
812.403	13724.38
812.732	13715.12
813.061	13703.14
813.39	13644.61
813.719	13642.58
814.049	13684.16
814.378	13573.43
814.707	13546.54
815.036	13600.09
815.365	13436.93
815.693	13245.75
816.022	13403.04
816.351	13340.44
816.68	13314.23
817.008	13365.07
817.337	13188.35
817.665	13166.43
817.994	13184.51
818.322	13096.83
818.651	13069.71
818.979	12982.26
819.307	13118.07
819.636	13045.98
819.964	12918.53
820.292	12978.64
820.62	13003.95
820.948	12895.03
821.276	12948.59
821.604	12935.71
821.932	12929.38
822.259	12879.89
822.587	12933.22
822.915	12888.25
823.243	12896.16
823.57	12880.11
823.898	12898.19
824.225	12850.06
824.553	12805.54
824.88	12851.41
825.207	12918.53
825.535	12791.08
825.862	12851.41
826.189	12905.42
826.516	12892.09
826.843	12905.88
827.17	12833.33
827.497	12853.45
827.824	12831.08
828.151	12892.99
828.478	12820.45
828.805	12927.8
829.131	12803.51
829.458	12813.9
829.785	12690.74
830.111	12906.55
830.438	12775.48
830.764	12818.65
831.09	12805.31
831.417	12763.28
831.743	12708.14
832.069	12742.72
832.395	12763.05
832.722	12750.63
833.048	12752.43
833.374	12730.29
833.7	12643.28
834.026	12738.65
834.351	12675.37
834.677	12718.76
835.003	12687.58
835.329	12642.61
835.654	12652.1
835.98	12526.9
836.306	12606.45
836.631	12582.72
836.956	12601.7
837.282	12537.75
837.607	12464.53
837.932	12450.07
838.258	12472.21
838.583	12477.64
838.908	12407.81
839.233	12413.68
839.558	12371.65
839.883	12305.89
840.208	12354.03
840.533	12323.29
840.858	12309.28
841.182	12240.58
841.507	12255.95
841.832	12166.23
842.156	12210.98
842.481	12193.13
842.805	12166.01
843.13	12115.39
843.454	12048.27
843.778	11986.13
844.103	12029.97
844.427	11981.38
844.751	12075.61
845.075	11999.68
845.399	11974.6
845.723	11903.64
846.047	11890.31
846.371	11796.75
846.695	11719.01
847.019	11685.12
847.343	11645.57
847.666	11552.46
847.99	11474.5
848.313	11528.96
848.637	11413.26
848.96	11408.06
849.284	11378.23
849.607	11326.48
849.931	11254.39
850.254	11321.74
850.577	11144.11
850.9	11080.61
851.223	11039.94
851.546	10991.58
851.869	10920.16
852.192	11050.33
852.515	10929.2
852.838	10867.51
853.161	10860.51
853.483	10782.99
853.806	10776.67
854.129	10733.5
854.451	10700.74
854.774	10623
855.096	10544.58
855.419	10606.95
855.741	10494.41
856.063	10456.45
856.385	10479.27
856.708	10448.31
857.03	10373.74
857.352	10371.93
857.674	10432.72
857.996	10335.55
858.318	10235.66
858.64	10302.1
858.961	10248.09
859.283	10245.38
859.605	10113.86
859.926	10202.67
860.248	10161.77
860.57	10129
860.891	10102.56
861.212	10013.52
861.534	9988.66
861.855	9928.1
862.176	9972.85
862.498	9980.75
862.819	9960.42
863.14	9894.2
863.461	9912.51
863.782	9919.06
864.103	9854.43
864.424	9772.4
864.745	9877.71
865.065	9736.24
865.386	9849.68
865.707	9752.29
866.027	9795.45
866.348	9749.35
866.668	9745.73
866.989	9657.6
867.309	9612.18
867.63	9660.76
867.95	9670.25
868.27	9676.36
868.59	9626.41
868.91	9570.6
869.23	9584.61
869.55	9533.76
869.87	9597.49
870.19	9574.21
870.51	9551.61
870.83	9554.55
871.15	9477.04
871.469	9473.88
871.789	9494.44
872.109	9452.41
872.428	9425.97
872.748	9468.68
873.067	9424.16
873.386	9406.53
873.706	9415.35
874.025	9339.19
874.344	9299.19
874.663	9416.48
874.982	9360.43
875.301	9317.95
875.62	9295.35
875.939	9260.32
876.258	9314.33
876.577	9177.39
876.896	9216.93
877.214	9223.94
877.533	9183.04
877.852	9205.41
878.17	9144.84
878.489	9188.68
878.807	9204.5
879.125	9131.06
879.444	9150.27
879.762	9030.05
880.08	9095.81
880.398	8995.24
880.716	9029.59
881.034	9015.58
881.352	8991.4
881.67	8920.44
881.988	8951.86
882.306	8982.36
882.624	8917.51
882.941	8871.18
883.259	8824.85
883.577	8824.85
883.894	8839.32
884.212	8780.56
884.529	8801.58
884.846	8778.07
885.164	8708.25
885.481	8690.39
885.798	8681.13
886.115	8622.6
886.432	8663.95
886.75	8630.06
887.067	8610.17
887.383	8592.09
887.7	8623.73
888.017	8581.92
888.334	8568.81
888.651	8489.72
888.967	8508.02
889.284	8513
889.6	8450.85
889.917	8425.54
890.233	8425.54
890.55	8399.1
890.866	8370.85
891.182	8319.1
891.498	8252.89
891.815	8256.51
892.131	8292.44
892.447	8259.9
892.763	8228.03
893.079	8151.2
893.395	8169.73
893.71	8185.77
894.026	8130.86
894.342	8120.69
894.657	8089.5
894.973	8046.34
895.289	7995.72
895.604	8037.75
895.92	7933.8
896.235	7988.04
896.55	7940.81
896.865	7898.1
897.181	7886.8
897.496	7880.02
897.811	7802.51
898.126	7830.3
898.441	7744.43
898.756	7703.98
899.071	7699.01
899.386	7709.63
899.7	7682.28
900.015	7659.01
900.33	7527.94
900.644	7531.1
900.959	7541.27
901.273	7593.47
901.588	7491.55
901.902	7480.71
902.216	7422.63
902.531	7410.43
902.845	7435.51
903.159	7352.35
903.473	7276.64
903.787	7260.6
904.101	7239.36
904.415	7232.35
904.729	7220.6
905.042	7158.46
905.356	7093.37
905.67	7139.93
905.984	7127.95
906.297	7035.97
906.611	7064.45
906.924	7062.41
907.237	7030.1
907.551	6962.53
907.864	6935.86
908.177	6958.69
908.491	6912.81
908.804	6850.22
909.117	6848.41
909.43	6801.63
909.743	6787.39
910.056	6774.51
910.368	6735.87
910.681	6727.73
910.994	6668.07
911.307	6722.76
911.619	6560.73
911.932	6583.1
912.244	6567.51
912.557	6553.5
912.869	6517.79
913.181	6504.91
913.494	6484.12
913.806	6428.53
914.118	6384.24
914.43	6362.77
914.742	6332.26
915.054	6332.71
915.366	6320.51
915.678	6300.4
915.99	6240.51
916.302	6266.28
916.613	6228.76
916.925	6229.89
917.236	6120.52
917.548	6077.35
917.859	6039.16
918.171	6012.72
918.482	6049.56
918.794	6006.4
919.105	5999.84
919.416	5958.04
919.727	5924.82
920.038	5941.99
920.349	5932.95
920.66	5901.31
920.971	5819.28
921.282	5814.99
921.593	5745.16
921.903	5792.16
922.214	5766.18
922.525	5740.41
922.835	5737.02
923.146	5661.09
923.456	5705.16
923.767	5639.17
924.077	5591.72
924.387	5594.66
924.697	5578.38
925.008	5551.04
925.318	5479.18
925.628	5492.28
925.938	5502.68
926.248	5441.21
926.558	5433.08
926.867	5417.03
927.177	5400.99
927.487	5365.51
927.796	5305.17
928.106	5285.96
928.416	5336.36
928.725	5289.58
929.034	5224.5
929.344	5252.74
929.653	5210.03
929.962	5179.52
930.271	5180.2
930.581	5139.75
930.89	5174.1
931.199	5104.05
931.508	5077.38
931.817	5062.24
932.125	5040.32
932.434	5056.14
932.743	4987.21
933.051	4911.28
933.36	4934.79
933.669	4919.64
933.977	4898.63
934.286	4904.73
934.594	4883.94
934.902	4819.31
935.21	4861.79
935.519	4815.69
935.827	4795.13
936.135	4758.97
936.443	4749.48
936.751	4714.45
937.059	4728.01
937.367	4721.68
937.674	4699.31
937.982	4700.44
938.29	4612.08
938.597	4648.01
938.905	4577.28
939.213	4565.08
939.52	4530.73
939.827	4501.12
940.135	4533.67
940.442	4496.15
940.749	4485.08
941.056	4452.76
941.363	4424.97
941.67	4450.96
941.977	4365.31
942.284	4352.2
942.591	4419.77
942.898	4308.59
943.205	4321.24
943.511	4307.68
943.818	4295.93
944.125	4249.83
944.431	4247.57
944.738	4207.57
945.044	4236.72
945.35	4227.23
945.657	4159.44
945.963	4161.92
946.269	4111.08
946.575	4154.02
946.881	4085.77
947.187	4097.97
947.493	4104.75
947.799	4032.66
948.105	4036.5
948.41	4023.85
948.716	4026.56
949.022	3983.85
949.327	4016.84
949.633	3982.27
949.938	3932.1
950.244	3940.01
950.549	3898.88
950.854	3873.12
951.16	3900.24
951.465	3848.49
951.77	3855.94
952.075	3802.16
952.38	3785.21
952.685	3803.29
952.99	3746.12
953.294	3775.49
953.599	3737.3
953.904	3758.77
954.209	3728.04
954.513	3641.03
954.818	3656.18
955.122	3653.01
955.426	3628.38
955.731	3638.77
956.035	3587.25
956.339	3607.81
956.643	3571.88
956.948	3557.65
957.252	3576.4
957.556	3561.49
957.86	3544.54
958.163	3563.3
958.467	3504.31
958.771	3525.11
959.075	3452.79
959.378	3472.9
959.682	3413.02
959.985	3431.32
960.289	3395.39
960.592	3404.88
960.896	3392.23
961.199	3369.18
961.502	3369.18
961.805	3342.06
962.108	3342.06
962.411	3306.13
962.714	3314.72
963.017	3279.91
963.32	3281.5
963.623	3250.54
963.926	3242.85
964.228	3280.59
964.531	3201.05
964.833	3157.21
965.136	3192.23
965.438	3189.75
965.741	3115.85
966.043	3140.71
966.345	3119.69
966.648	3110.88
966.95	3112.23
967.252	3109.3
967.554	3067.04
967.856	3087.15
968.158	3022.97
968.46	3039.24
968.761	3014.84
969.063	3055.74
969.365	2982.97
969.666	2948.17
969.968	2939.13
970.269	2959.7
970.571	2943.43
970.872	2933.03
971.174	2904.33
971.475	2927.83
971.776	2900.26
972.077	2878.79
972.378	2871.79
972.679	2829.08
972.98	2857.55
973.281	2830.89
973.582	2802.41
973.883	2802.86
974.183	2803.77
974.484	2796.76
974.785	2792.47
975.085	2769.64
975.386	2745.46
975.686	2754.73
975.986	2692.36
976.287	2715.41
976.587	2675.86
976.887	2667.95
977.187	2682.42
977.487	2692.81
977.787	2626.82
978.087	2588.86
978.387	2623.66
978.687	2610.1
978.987	2626.15
979.286	2563.55
979.586	2588.18
979.885	2595.64
980.185	2572.36
980.484	2554.28
980.784	2504.11
981.083	2497.56
981.382	2523.1
981.682	2558.12
981.981	2502.08
982.28	2484.45
982.579	2446.26
982.878	2463.66
983.177	2482.19
983.475	2460.73
983.774	2433.16
984.073	2443.78
984.372	2430.9
984.67	2419.15
984.969	2375.3
985.267	2360.39
985.566	2376.89
985.864	2336.89
986.162	2350.22
986.461	2337.11
986.759	2307.74
987.057	2331.01
987.355	2303.22
987.653	2300.96
987.951	2274.06
988.249	2296.44
988.547	2263.67
988.844	2253.95
989.142	2250.34
989.44	2266.38
989.737	2219.83
990.035	2187.74
990.332	2201.52
990.63	2201.75
990.927	2173.28
991.224	2144.8
991.521	2174.41
991.819	2187.74
992.116	2168.53
992.413	2128.98
992.71	2134.18
993.006	2119.04
993.303	2082.66
993.6	2074.52
993.897	2070.68
994.193	2076.56
994.49	2082.43
994.787	2057.57
995.083	2014.41
995.379	2041.08
995.676	1992.94
995.972	2017.35
996.268	2001.3
996.565	1994.98
996.861	2008.99
997.157	1985.26
997.453	1970.34
997.749	1968.76
998.044	1952.04
998.34	1943.23
998.636	1932.6
998.932	1904.58
999.227	1914.98
999.523	1912.72
999.818	1902.32
1000.114	1866.84
1000.409	1880.4
1000.704	1873.4
1001	1888.31
1001.295	1839.73
1001.59	1850.35
1001.885	1856.22
1002.18	1830.69
1002.475	1805.6
1002.77	1802.66
1003.065	1788.43
1003.359	1792.95
1003.654	1793.85
1003.949	1761.31
1004.243	1767.86
1004.538	1743.23
1004.832	1741.2
1005.127	1728.09
1005.421	1715.89
1005.715	1695.77
1006.009	1701.42
1006.304	1691.48
1006.598	1698.49
1006.892	1708.88
1007.186	1653.97
1007.48	1644.7
1007.773	1644.02
1008.067	1619.17
1008.361	1621.43
1008.655	1639.96
1008.948	1632.73
1009.242	1585.95
1009.535	1581.43
1009.829	1582.56
1010.122	1572.39
1010.415	1540.07
1010.708	1547.08
1011.001	1533.29
1011.295	1545.27
1011.588	1552.73
1011.881	1545.27
1012.173	1536.23
1012.466	1527.87
1012.759	1491.26
1013.052	1491.26
1013.344	1520.86
1013.637	1474.09
1013.93	1468.21
1014.222	1460.75
1014.514	1425.73
1014.807	1430.02
1015.099	1432.5
1015.391	1406.29
1015.683	1416.91
1015.976	1408.78
1016.268	1413.52
1016.56	1384.6
1016.851	1379.4
1017.143	1383.92
1017.435	1354.54
1017.727	1369.91
1018.018	1362.68
1018.31	1368.55
1018.602	1357.48
1018.893	1340.76
1019.185	1329.68
1019.476	1333.3
1019.767	1309.34
1020.058	1286.07
1020.35	1297.82
1020.641	1289.68
1020.932	1252.62
1021.223	1265.05
1021.514	1269.57
1021.804	1272.96
1022.095	1233.19
1022.386	1244.26
1022.677	1230.02
1022.967	1220.31
1023.258	1210.59
1023.548	1197.71
1023.839	1195
1024.129	1191.16
1024.419	1202.91
1024.709	1190.25
1025	1188.67
1025.29	1187.77
1025.58	1143.25
1025.87	1119.52
1026.16	1147.99
1026.449	1140.76
1026.739	1125.85
1027.029	1098.73
1027.319	1112.97
1027.608	1114.09
1027.898	1102.8
1028.187	1080.42
1028.477	1060.31
1028.766	1074.55
1029.055	1064.6
1029.344	1061.22
1029.634	1040.88
1029.923	1061.67
1030.212	1056.02
1030.501	1036.58
1030.79	1021.89
1031.078	1035
1031.367	1006.08
1031.656	1010.59
1031.945	997.71
1032.233	1007.21
1032.522	995
1032.81	992.97
1033.099	976.02
1033.387	966.08
1033.675	976.25
1033.963	977.83
1034.251	942.57
1034.54	947.09
1034.828	953.42
1035.116	928.34
1035.403	933.08
1035.691	945.74
1035.979	917.94
1036.267	924.27
1036.554	909.81
1036.842	906.19
1037.129	924.95
1037.417	908
1037.704	875.46
1037.992	876.59
1038.279	848.79
1038.566	875.46
1038.853	875.46
1039.14	875.46
