Data from hue_50_FLMS001491_86.txt Node
Date: Mon Feb 06 15:11:09 GMT 2017
User: dcchb
Spectrometer: FLMS00149
Trigger mode: 0
Integration Time (sec): 2.000000E-2
Scans to average: 10
Electric dark correction enabled: true
Nonlinearity correction enabled: false
Boxcar width: 0
XAxis mode: Wavelengths
Number of Pixels in Spectrum: 2048
>>>>>Begin Spectral Data<<<<<
341.393	-13.86
341.776	-13.86
342.16	-13.86
342.543	-48.66
342.927	-69
343.31	-56.57
343.693	-50.24
344.077	-68.77
344.46	-51.82
344.843	-59.28
345.226	-42.78
345.61	-18.15
345.993	-27.41
346.376	-14.08
346.759	23.43
347.142	23.43
347.525	34.28
347.908	56.43
348.291	61.62
348.674	85.12
349.057	104.79
349.44	141.17
349.823	129.42
350.206	166.93
350.588	181.62
350.971	211.9
351.354	216.65
351.737	233.6
352.119	260.04
352.502	264.56
352.884	260.94
353.267	299.58
353.65	302.97
354.032	295.74
354.414	309.75
354.797	316.08
355.179	333.48
355.562	328.73
355.944	323.08
356.326	333.93
356.709	346.36
357.091	314.27
357.473	347.94
357.855	344.78
358.238	329.86
358.62	357.21
359.002	322.41
359.384	327.38
359.766	347.04
360.148	351.11
360.53	312.01
360.912	328.06
361.294	337.32
361.676	336.87
362.057	338.9
362.439	342.07
362.821	316.53
363.203	336.19
363.584	313.82
363.966	322.63
364.348	334.16
364.729	316.76
365.111	296.42
365.493	336.87
365.874	332.58
366.256	322.41
366.637	340.94
367.019	318.79
367.4	307.04
367.781	310.66
368.163	307.04
368.544	317.89
368.925	341.16
369.306	326.7
369.688	312.01
370.069	309.07
370.45	307.72
370.831	326.47
371.212	315.85
371.593	317.21
371.974	313.82
372.355	316.98
372.736	310.66
373.117	333.71
373.498	322.63
373.879	329.41
374.26	301.84
374.641	279.47
375.021	330.77
375.402	326.47
375.783	333.03
376.163	326.25
376.544	316.76
376.925	319.47
377.305	324.67
377.686	316.98
378.066	338.9
378.447	327.6
378.827	324.44
379.208	365.57
379.588	308.17
379.968	346.59
380.349	318.57
380.729	328.73
381.109	347.72
381.489	345.68
381.87	343.2
382.25	349.52
382.63	327.38
383.01	321.05
383.39	330.32
383.77	341.84
384.15	340.94
384.53	338.9
384.91	350.88
385.29	343.42
385.67	357.66
386.049	367.6
386.429	347.49
386.809	349.98
387.189	353.59
387.568	361.05
387.948	368.28
388.328	359.24
388.707	348.39
389.087	366.25
389.466	361.28
389.846	353.82
390.225	361.95
390.605	360.6
390.984	359.47
391.363	356.53
391.743	370.77
392.122	357.43
392.501	355.17
392.881	358.79
393.26	385.46
393.639	340.03
394.018	391.56
394.397	380.94
394.776	390.43
395.155	370.54
395.534	374.16
395.913	368.28
396.292	367.6
396.671	380.71
397.05	369.19
397.429	375.29
397.808	373.03
398.186	363.76
398.565	366.7
398.944	381.16
399.323	412.8
399.701	385.46
400.08	387.49
400.458	396.98
400.837	389.52
401.215	398.34
401.594	404.44
401.972	415.51
402.351	397.43
402.729	402.18
403.107	406.92
403.486	425.45
403.864	418
404.242	413.48
404.62	410.54
404.999	409.64
405.377	400.82
405.755	411.22
406.133	421.16
406.511	437.43
406.889	435.62
407.267	450.54
407.645	401.5
408.023	429.07
408.401	428.84
408.779	409.86
409.156	413.93
409.534	451.44
409.912	445.79
410.29	446.7
410.667	450.99
411.045	446.02
411.422	437.43
411.8	433.82
412.178	435.17
412.555	456.64
412.933	445.57
413.31	450.76
413.687	488.96
414.065	453.93
414.442	470.2
414.819	480.37
415.197	470.88
415.574	477.66
415.951	483.31
416.328	480.14
416.705	497.54
417.082	501.84
417.46	481.5
417.837	510.2
418.214	500.48
418.591	509.97
418.967	510.2
419.344	500.48
419.721	513.14
420.098	495.74
420.475	541.38
420.852	531.21
421.228	514.72
421.605	511.78
421.982	526.24
422.358	518.11
422.735	522.4
423.111	524.21
423.488	533.47
423.864	552.46
424.241	552.01
424.617	546.58
424.994	540.48
425.37	534.6
425.746	566.24
426.123	565.34
426.499	541.38
426.875	560.82
427.251	564.89
427.627	567.6
428.003	587.94
428.379	584.32
428.756	603.53
429.132	604.21
429.507	594.26
429.883	577.77
430.259	601.04
430.635	596.75
431.011	617.09
431.387	651.44
431.763	626.81
432.138	614.83
432.514	608.5
432.89	622.74
433.265	657.31
433.641	649.63
434.016	632
434.392	644.43
434.767	663.41
435.143	643.53
435.518	670.19
435.894	656.64
436.269	676.52
436.644	694.6
437.02	683.53
437.395	686.01
437.77	699.12
438.145	692.79
438.52	717.2
438.895	709.29
439.271	709.97
439.646	742.73
440.021	733.7
440.395	734.37
440.77	728.5
441.145	745.67
441.52	764.66
441.895	728.5
442.27	756.75
442.645	781.15
443.019	762.17
443.394	743.64
443.769	743.41
444.143	764.2
444.518	798.1
444.892	798.1
445.267	761.72
445.641	780.02
446.016	775.05
446.39	813.69
446.764	807.59
447.139	779.8
447.513	824.31
447.887	817.76
448.262	798.1
448.636	819.34
449.01	821.38
449.384	821.83
449.758	832.45
450.132	833.35
450.506	854.82
450.88	835.39
451.254	851.21
451.628	874.93
452.002	840.81
452.376	865.22
452.75	875.16
453.123	899.34
453.497	914.03
453.871	893.92
454.244	903.86
454.618	935.5
454.992	940.47
455.365	948.38
455.739	961.94
456.112	936.63
456.486	980.02
456.859	983.86
457.232	985.21
457.606	987.25
457.979	1023.18
458.352	1002.16
458.725	1001.48
459.099	1040.13
459.472	1056.85
459.845	1066.34
460.218	1060.24
460.591	1084.19
460.964	1084.87
461.337	1097.08
461.71	1111.76
462.083	1120.13
462.456	1118.09
462.829	1140.92
463.201	1167.36
463.574	1166.68
463.947	1144.98
464.32	1184.31
464.692	1199.45
465.065	1199.22
465.438	1259.33
465.81	1265.88
466.183	1275.83
466.555	1299.1
466.928	1325.77
467.3	1316.73
467.672	1352.21
468.045	1375.03
468.417	1393.57
468.789	1405.77
469.161	1418.2
469.534	1437.41
469.906	1471.98
470.278	1464.75
470.65	1498.42
471.022	1540.45
471.394	1589.27
471.766	1590.62
472.138	1627.46
472.51	1695.93
472.882	1710.39
473.253	1710.17
473.625	1760.79
473.997	1830.39
474.369	1850.5
474.74	1849.37
475.112	1913.78
475.484	1975.24
475.855	1995.58
476.227	2066.77
476.598	2120.55
476.97	2154.22
477.341	2208.01
477.713	2228.12
478.084	2288.46
478.455	2371.84
478.827	2431.5
479.198	2509.92
479.569	2556.92
479.94	2651.16
480.311	2698.84
480.682	2816.58
481.053	2905.16
481.424	2939.06
481.795	3008.44
482.166	3135.89
482.537	3186.51
482.908	3294.76
483.279	3375.43
483.65	3463.79
484.021	3604.58
484.391	3647.07
484.762	3767.74
485.133	3817.68
485.503	3948.98
485.874	4111.91
486.244	4153.49
486.615	4301.96
486.985	4359.14
487.356	4506.93
487.726	4678.45
488.097	4793.02
488.467	4871.67
488.837	5027.37
489.207	5153.24
489.578	5270.98
489.948	5383.52
490.318	5571.53
490.688	5635.26
491.058	5776.27
491.428	5921.58
491.798	6078.64
492.168	6272.98
492.538	6353.66
492.908	6477.73
493.278	6641.34
493.648	6708.91
494.017	6959.97
494.387	7023.47
494.757	7162.68
495.126	7386.85
495.496	7430.69
495.866	7562.22
496.235	7761.08
496.605	7885.82
496.974	8038.14
497.344	8165.14
497.713	8206.95
498.082	8360.39
498.452	8562.64
498.821	8620.72
499.19	8813.71
499.559	8941.84
499.928	9084.89
500.298	9183.87
500.667	9379.12
501.036	9357.88
501.405	9614.59
501.774	9692.33
502.143	9820.69
502.512	9928.93
502.88	10079.66
503.249	10128.7
503.618	10294.8
503.987	10357.62
504.356	10449.37
504.724	10637.39
505.093	10654.11
505.462	10766.2
505.83	10950.38
506.199	11009.36
506.567	11159.64
506.936	11238.28
507.304	11465.39
507.672	11560.3
508.041	11597.36
508.409	11752.39
508.777	11913.06
509.145	12028.54
509.514	12156.9
509.882	12227.4
510.25	12328.19
510.618	12396.21
510.986	12497.68
511.354	12711.69
511.722	12822.42
512.09	12920.72
512.458	12889.31
512.826	13114.61
513.193	13118.68
513.561	13205.46
513.929	13368.84
514.297	13468.95
514.664	13663.52
515.032	13760.02
515.4	13904.2
515.767	13918.89
516.135	14064.42
516.502	13959.79
516.869	14308.48
517.237	14305.99
517.604	14259.44
517.972	14586.44
518.339	14666.66
518.706	14736.49
519.073	14784.63
519.44	14927.22
519.808	15137.61
520.175	15167.89
520.542	15343.71
520.909	15391.39
521.276	15358.17
521.643	15635.9
522.009	15654.88
522.376	15769.01
522.743	16030.92
523.11	16068.89
523.477	16256.23
523.843	16331.25
524.21	16500.06
524.577	16615.09
524.943	16771.92
525.31	16778.92
525.676	16914.74
526.043	17103.66
526.409	17109.08
526.776	17286.48
527.142	17303.2
527.508	17469.07
527.874	17610.09
528.241	17691.22
528.607	17771.89
528.973	17938.21
529.339	18036.52
529.705	18211.65
530.071	18270.64
530.437	18370.97
530.803	18517.86
531.169	18615.94
531.535	18681.92
531.901	18646.9
532.267	18858.19
532.632	18977.51
532.998	19024.51
533.364	19189.93
533.73	19149.26
534.095	19389.7
534.461	19417.5
534.826	19471.73
535.192	19495.69
535.557	19775.45
535.923	19751.73
536.288	19759.18
536.653	19881.44
537.019	19972.29
537.384	19978.61
537.749	20092.51
538.114	20180.87
538.479	20170.7
538.845	20307.87
539.21	20258.83
539.575	20374.53
539.94	20546.96
540.305	20692.27
540.67	20600.52
541.034	20739.05
541.399	20867.18
541.764	20817.91
542.129	20872.6
542.494	21069.88
542.858	21085.25
543.223	21160.73
543.587	21355.3
543.952	21329.76
544.316	21417.22
544.681	21485.69
545.045	21568.63
545.41	21689.98
545.774	21706.93
546.138	21780.37
546.503	21767.49
546.867	21886.13
547.231	22028.5
547.595	22112.34
547.959	22158.89
548.324	22229.4
548.688	22273.24
549.052	22395.72
549.416	22405.22
549.779	22409.28
550.143	22524.31
550.507	22675.72
550.871	22779.22
551.235	22701.03
551.599	22982.6
551.962	22867.12
552.326	23018.76
552.689	23138.53
553.053	22885.43
553.417	23021.92
553.78	23468.01
554.143	23385.76
554.507	23454.45
554.87	23558.86
555.234	23636.37
555.597	23615.58
555.96	23693.54
556.323	23822.81
556.686	23826.65
557.05	24103.25
557.413	24096.02
557.776	24256.01
558.139	24350.7
558.502	24428.89
558.865	24422.11
559.228	24738.71
559.59	24703.01
559.953	24798.15
560.316	25060.51
560.679	25009.44
561.041	25309.77
561.404	25384.12
561.767	25380.05
562.129	25307.74
562.492	25683.32
562.854	25623.21
563.217	25680.84
563.579	25715.64
563.941	25824.79
564.304	25973.26
564.666	26156.53
565.028	26103.42
565.39	26223.65
565.753	26479.69
566.115	26521.94
566.477	26676.97
566.839	26754.25
567.201	26831.54
567.563	26829.73
567.925	26998.09
568.287	27135.49
568.648	27200.12
569.01	27362.83
569.372	27534.12
569.734	27478.53
570.095	27651.41
570.457	27678.3
570.819	27850.04
571.18	27774.34
571.542	28107.89
571.903	28120.32
572.265	28136.59
572.626	28224.5
572.987	28357.38
573.349	28508.56
573.71	28574.09
574.071	28570.48
574.432	28844.82
574.794	29043.01
575.155	29075.32
575.516	28972.73
575.877	29179.95
576.238	29385.15
576.599	29285.26
576.96	29350.12
577.32	29501.53
577.681	29759.15
578.042	29884.57
578.403	29809.32
578.763	29910.56
579.124	30070.1
579.485	30241.17
579.845	30333.6
580.206	30374.05
580.566	30501.73
580.927	30618.11
581.287	30804.54
581.648	30825.56
582.008	31057.87
582.368	31074.37
582.728	31227.36
583.089	31284.53
583.449	31355.04
583.809	31540.79
584.169	31610.17
584.529	31706.89
584.889	31947.79
585.249	32052.65
585.609	31967.68
585.969	32336.48
586.329	32361.56
586.688	32437.04
587.048	32483.82
587.408	32578.28
587.768	32711.84
588.127	32928.1
588.487	32930.81
588.846	33232.73
589.206	33013.52
589.565	33261.65
589.925	33538.93
590.284	33503.23
590.643	33665.03
591.003	33872.26
591.362	33990
591.721	34033.61
592.08	34250.1
592.44	34312.93
592.799	34422.3
593.158	34513.82
593.517	34695.06
593.876	34818.45
594.235	34911.78
594.593	34864.32
594.952	35180.93
595.311	35031.55
595.67	35275.39
596.029	35627.92
596.387	35570.52
596.746	35718.99
597.104	35631.99
597.463	35692.55
597.822	36148.81
598.18	36009.6
598.538	36155.14
598.897	36327.79
599.255	36197.4
599.613	36686.65
599.972	36521.45
600.33	36670.38
600.688	36702.24
601.046	36866.53
601.404	37185.17
601.762	37066.75
602.12	37191.49
602.478	37366.86
602.836	37291.15
603.194	37344.03
603.552	37490.7
603.91	37595.33
604.268	37735.21
604.625	37593.29
604.983	37938.82
605.341	37757.58
605.698	38023.79
606.056	38107.63
606.413	38156.44
606.771	38226.72
607.128	38300.62
607.485	38344.68
607.843	38268.53
608.2	38631
608.557	38712.81
608.914	38511.23
609.272	38991.9
609.629	38975.85
609.986	39138.79
610.343	38987.38
610.7	39367.71
611.057	39353.7
611.414	39348.95
611.771	39506.24
612.127	39638.89
612.484	39593.92
612.841	39840.69
613.198	39661.49
613.554	39852.67
613.911	40025.77
614.267	40023.51
614.624	40081.14
614.98	40193.22
615.337	40481.35
615.693	40356.61
616.05	40298.53
616.406	40542.37
616.762	40319.32
617.118	40622.82
617.475	40558.41
617.831	40692.42
618.187	40744.17
618.543	40727.9
618.899	41069.36
619.255	40976.93
619.611	41058.51
619.967	41311.84
620.323	41187.55
620.678	41116.14
621.034	41090.37
621.39	41236.13
621.746	41149.36
622.101	41568.55
622.457	41295.34
622.812	41413.76
623.168	41545.05
623.523	41539.85
623.879	41595.67
624.234	41411.27
624.589	41622.56
624.945	41629.8
625.3	41726.52
625.655	41689.45
626.01	41861.2
626.365	41848.32
626.72	41696.91
627.075	41798.6
627.43	41788.89
627.785	41696.69
628.14	41804.48
628.495	41882.9
628.85	41868.21
629.205	41763.13
629.559	42053.29
629.914	41786.85
630.269	41883.57
630.623	41787.31
630.978	41777.36
631.332	41876.34
631.687	42015.32
632.041	41835.21
632.396	41918.38
632.75	41746.4
633.104	41794.76
633.459	41641.77
633.813	41587.54
634.167	41625.28
634.521	41726.97
634.875	41677.25
635.229	41634.77
635.583	41607.2
635.937	41646.74
636.291	41554.54
636.645	41506.86
636.999	41384.38
637.352	41634.99
637.706	41543.7
638.06	41544.37
638.413	41481.55
638.767	41456.01
639.121	41431.16
639.474	41176.02
639.828	41159.98
640.181	41306.41
640.534	41212.41
640.888	41141.22
641.241	41012.64
641.594	41180.54
641.947	41197.94
642.301	41076.59
642.654	41202.24
643.007	41198.39
643.36	41055.12
643.713	40932.86
644.066	41077.04
644.419	40807.44
644.771	40613.78
645.124	40196.39
645.477	40279.32
645.83	40068.48
646.182	39885.66
646.535	39758.88
646.888	39788.94
647.24	39607.48
647.593	39905.77
647.945	39758.43
648.298	39604.09
648.65	39492.45
649.002	39485.9
649.355	39721.14
649.707	39626.68
650.059	39844.53
650.411	40145.77
650.763	40154.35
651.115	40602.03
651.467	40333.33
651.819	40395.48
652.171	40227.57
652.523	40362.71
652.875	40265.76
653.227	40182.6
653.578	40460.56
653.93	40154.58
654.282	40116.16
654.633	40012.21
654.985	40136.5
655.337	40169.27
655.688	40145.99
656.039	40178.99
656.391	39849.96
656.742	39933.79
657.094	39950.07
657.445	40160.23
657.796	39930.86
658.147	39947.58
658.498	39915.04
658.849	39872.78
659.2	39978.54
659.551	39992.32
659.902	39980.12
660.253	39884.53
660.604	39956.84
660.955	39776.74
661.306	39892.44
661.656	39833.91
662.007	39829.39
662.358	39936.51
662.708	39875.49
663.059	39768.15
663.409	39711.88
663.76	39831.2
664.11	39865.32
664.461	40061.93
664.811	39825.55
665.161	39791.2
665.511	39786.68
665.862	39709.39
666.212	39928.6
666.562	39880.69
666.912	39797.08
667.262	39707.81
667.612	39766.34
667.962	39767.92
668.312	39747.81
668.662	39853.34
669.011	39803.4
669.361	39505.33
669.711	39667.81
670.06	39606.8
670.41	39490.87
670.76	39454.49
671.109	39710.98
671.459	39527.03
671.808	39372.91
672.157	39406.58
672.507	39294.49
672.856	39316.41
673.205	39402.28
673.554	39408.16
673.904	39380.14
674.253	39420.81
674.602	39365.67
674.951	38683.43
675.3	38721.17
675.649	39185.11
675.998	39199.12
676.346	39246.13
676.695	39349.63
677.044	38936.08
677.393	39130.43
677.741	39295.62
678.09	39105.34
678.438	38912.35
678.787	39038.22
679.135	38997.32
679.484	38941.05
679.832	39002.52
680.181	38627.39
680.529	38878
680.877	38650.89
681.225	38834.39
681.573	38836.42
681.922	38525.02
682.27	38637.56
682.618	38549.2
682.966	38369.99
683.314	38592.59
683.661	38421.07
684.009	38217.46
684.357	38191.47
684.705	38087.06
685.053	38264.23
685.4	38080.06
685.748	37926.84
686.095	38063.34
686.443	37812.49
686.79	37757.13
687.138	37844.58
687.485	37812.72
687.832	37762.78
688.18	37578.38
688.527	37468.32
688.874	37474.2
689.221	37372.96
689.568	37300.42
689.915	37152.17
690.262	37119.63
690.609	36983.82
690.956	36945.17
691.303	36909.47
691.65	36734.56
691.997	36804.61
692.344	36532.75
692.69	36699.76
693.037	36519.87
693.383	36258.19
693.73	36465.64
694.077	36192.42
694.423	36335.92
694.769	36141.8
695.116	36002.82
695.462	35909.72
695.808	35789.27
696.155	35921.24
696.501	35530.07
696.847	35768.71
697.193	35411.2
697.539	35369.17
697.885	35229.96
698.231	35106.58
698.577	34996.98
698.923	35039.01
699.269	34829.52
699.614	34883.53
699.96	34682.63
700.306	34699.58
700.651	34511.11
700.997	34544.78
701.342	34480.38
701.688	34296.65
702.033	34230.89
702.379	34335.07
702.724	34098.24
703.069	34295.07
703.415	33753.17
703.76	33910.68
704.105	33929.88
704.45	33653.51
704.795	33507.07
705.14	33502.78
705.485	33422.78
705.83	33332.39
706.175	33387.3
706.52	33356.57
706.865	33034.54
707.209	33141.2
707.554	32996.35
707.899	33060.08
708.243	33049.46
708.588	32904.37
708.932	32752.51
709.277	32666.87
709.621	32716.58
709.966	32479.3
710.31	32400.43
710.654	32242.7
710.998	32278.18
711.342	32307.78
711.687	32193.43
712.031	32051.74
712.375	31955.7
712.719	31948.92
713.063	31912.99
713.407	31898.98
713.75	31833.89
714.094	31735.37
714.438	31680.45
714.782	31716.84
715.125	31569.72
715.469	31653.56
715.812	31420.57
716.156	31247.24
716.499	31301.03
716.843	31225.1
717.186	31143.74
717.53	31243.63
717.873	31223.74
718.216	31122.95
718.559	31107.36
718.902	30661.72
719.246	30867.82
719.589	30671.21
719.932	30687.94
720.275	30582.63
720.617	30545.11
720.96	30565.68
721.303	30509.18
721.646	30550.54
721.989	30380.83
722.331	30379.24
722.674	30266.48
723.016	30320.26
723.359	30310.32
723.701	30294.5
724.044	30123.88
724.386	29995.3
724.729	30083.21
725.071	29999.59
725.413	29963.44
725.755	29926.37
726.097	29692.93
726.439	29622.88
726.782	29798.69
727.124	29737
727.465	29518.7
727.807	29705.81
728.149	29520.96
728.491	29618.36
728.833	29458.82
729.175	29451.81
729.516	29315.77
729.858	29183.57
730.199	29219.27
730.541	29270.12
730.882	29189.44
731.224	29256.11
731.565	29028.54
731.906	29001.2
732.248	29052.5
732.589	28897.25
732.93	28848.21
733.271	28828.55
733.612	28790.81
733.953	28882.11
734.294	28666.07
734.635	28600.99
734.976	28680.53
735.317	28577.48
735.658	28434.89
735.999	28531.38
736.339	28473.08
736.68	28567.77
737.021	28545.85
737.361	28269.02
737.702	28447.77
738.042	28344.95
738.383	28244.61
738.723	28286.42
739.063	28104.28
739.404	28132.3
739.744	28141.34
740.084	27998.52
740.424	28102.02
740.764	28004.39
741.104	28113.77
741.444	27771.4
741.784	27819.99
742.124	27954.45
742.464	27853.21
742.804	27731.63
743.143	27739.54
743.483	27728.47
743.823	27475.37
744.162	27619.09
744.502	27580.67
744.841	27540.67
745.181	27503.16
745.52	27368.02
745.86	27518.75
746.199	27330.28
746.538	27413.22
746.877	27354.92
747.216	27303.62
747.556	27192.89
747.895	27275.14
748.234	27149.05
748.573	27219.55
748.911	27109.5
749.25	27020.24
749.589	26903.4
749.928	26904.08
750.267	26863.18
750.605	26920.58
750.944	26752.22
751.283	26683.52
751.621	26697.31
751.96	26570.98
752.298	26542.73
752.636	26592.45
752.975	26418.44
753.313	26279.24
753.651	26455.96
753.989	26267.26
754.327	26169.41
754.666	26100.03
755.004	26167.6
755.342	26167.6
755.679	26101.39
756.017	25861.4
756.355	26018.45
756.693	25875.41
757.031	25938
757.368	25791.12
757.706	25736.43
758.044	25678.8
758.381	25559.03
758.719	25528.07
759.056	25665.24
759.394	25529.2
759.731	25233.39
760.068	25192.49
760.405	25267.74
760.743	25033.85
761.08	25163.11
761.417	25028.2
761.754	25014.86
762.091	24891.25
762.428	24765.61
762.765	24572.39
763.102	24612.62
763.438	24562.22
763.775	24423.69
764.112	24387.08
764.449	24559.51
764.785	24342.79
765.122	24139.63
765.458	24124.27
765.795	24060.99
766.131	23981.22
766.467	23879.98
766.804	23803.6
767.14	23752.07
767.476	23666.65
767.812	23622.13
768.148	23628.01
768.485	23491.29
768.821	23453.32
769.157	23423.49
769.492	23269.15
769.828	23318.19
770.164	23022.15
770.5	22965.88
770.836	23045.65
771.171	22833.68
771.507	22868.03
771.842	22608.6
772.178	22638.88
772.513	22567.7
772.849	22502.39
773.184	22381.04
773.519	22262.62
773.855	22135.17
774.19	22133.81
774.525	22115.05
774.86	22092.46
775.195	21945.79
775.53	21953.02
775.865	21826.7
776.2	21523.66
776.535	21460.83
776.87	21529.53
777.205	21486.82
777.539	21315.98
777.874	21407.73
778.209	21135.19
778.543	21050.22
778.878	21052.71
779.212	21037.12
779.547	20847.74
779.881	20925.25
780.215	20772.72
780.55	20730.46
780.884	20584.25
781.218	20617.92
781.552	20588.31
781.886	20432.61
782.22	20379.28
782.554	20200.53
782.888	20063.81
783.222	20227.19
783.556	20067.2
783.889	19904.04
784.223	19751.05
784.557	19775
784.89	19723.48
785.224	19759.64
785.557	19558.74
785.891	19483.26
786.224	19375.92
786.558	19397.39
786.891	19243.72
787.224	19221.57
787.557	19070.61
787.891	19083.04
788.224	19011.18
788.557	19044.17
788.89	18969.6
789.223	18867
789.556	18873.56
789.888	18731.19
790.221	18669.72
790.554	18501.82
790.887	18575.26
791.219	18488.71
791.552	18387.92
791.884	18241.03
792.217	18426.79
792.549	18313.12
792.882	18067.48
793.214	18109.96
793.546	17952.9
793.879	17891.89
794.211	17839.91
794.543	17947.25
794.875	17885.56
795.207	17818.44
795.539	17662.52
795.871	17752.91
796.203	17442.63
796.535	17472.92
796.867	17394.05
797.198	17309.98
797.53	17317.21
797.862	17235.86
798.193	17274.5
798.525	17065.02
798.856	17184.56
799.188	17010.33
799.519	16866.83
799.85	16866.6
800.182	16918.81
800.513	16781.86
800.844	16754.74
801.175	16754.97
801.506	16711.58
801.837	16589.1
802.168	16610.57
802.499	16574.63
802.83	16417.12
803.161	16460.74
803.491	16394.75
803.822	16378.93
804.153	16241.76
804.483	16103.23
804.814	16092.39
805.145	16107.98
805.475	16176
805.805	16026.63
806.136	15981.66
806.466	15951.83
806.796	15964.03
807.126	15835.22
807.457	15749.35
807.787	15785.73
808.117	15729.91
808.447	15598.84
808.777	15617.37
809.107	15601.1
809.436	15519.75
809.766	15505.51
810.096	15458.73
810.426	15437.94
810.755	15389.36
811.085	15327.66
811.414	15317.27
811.744	15209.02
812.073	15207.67
812.403	15214.9
812.732	15003.83
813.061	15073.66
813.39	15032.53
813.719	14980.33
814.049	14996.82
814.378	14882.25
814.707	14861.46
815.036	14817.39
815.365	14781.01
815.693	14619.66
816.022	14699.88
816.351	14659.43
816.68	14579.43
817.008	14588.25
817.337	14525.2
817.665	14420.79
817.994	14462.83
818.322	14465.99
818.651	14334.02
818.979	14282.94
819.307	14305.77
819.636	14229.39
819.964	14235.04
820.292	14308.93
820.62	14209.5
820.948	14083.63
821.276	14279.33
821.604	14233.91
821.932	14221.93
822.259	14160.01
822.587	14177.18
822.915	14106.68
823.243	14139.67
823.57	14180.35
823.898	14162.72
824.225	14069.16
824.553	14116.62
824.88	14155.94
825.207	14180.12
825.535	14127.02
825.862	14171.31
826.189	14037.07
826.516	14211.76
826.843	14195.04
827.17	14148.26
827.497	14169.5
827.824	14204.3
828.151	14190.74
828.478	14129.5
828.805	14211.08
829.131	14043.4
829.458	14077.3
829.785	14007.47
830.111	14108.03
830.438	14135.6
830.764	14111.65
831.09	14056.96
831.417	13982.84
831.743	14081.37
832.069	14094.02
832.395	14052.22
832.722	13970.64
833.048	14014.93
833.374	14017.41
833.7	13956.4
834.026	13918.43
834.351	14012.22
834.677	13978.09
835.003	13937.42
835.329	13915.04
835.654	13922.95
835.98	13841.37
836.306	13868.49
836.631	13754.82
836.956	13805.44
837.282	13865.33
837.607	13760.47
837.932	13720.92
838.258	13662.4
838.583	13706.24
838.908	13697.2
839.233	13638.89
839.558	13598.89
839.883	13544.88
840.208	13495.62
840.533	13487.48
840.858	13424.44
841.182	13510.76
841.507	13492.68
841.832	13374.94
842.156	13433.7
842.481	13383.08
842.805	13354.15
843.13	13314.16
843.454	13211.79
843.778	13303.53
844.103	13165.46
844.427	13281.84
844.751	13291.56
845.075	13158
845.399	13080.26
845.723	13067.16
846.047	13105.8
846.371	12867.84
846.695	12915.97
847.019	12760.27
847.343	12796.88
847.666	12681.4
847.99	12611.35
848.313	12646.6
848.637	12527.74
848.96	12555.76
849.284	12519.15
849.607	12426.04
849.931	12424.01
850.254	12290.45
850.577	12151.02
850.9	12161.42
851.223	12161.87
851.546	12104.02
851.869	12016.56
852.192	12042.78
852.515	11964.36
852.838	11891.82
853.161	11934.3
853.483	11811.14
853.806	11801.88
854.129	11781.09
854.451	11714.88
854.774	11674.65
855.096	11644.59
855.419	11531.6
855.741	11613.64
856.063	11503.81
856.385	11457.71
856.708	11452.28
857.03	11395.11
857.352	11415.22
857.674	11335.9
857.996	11397.6
858.318	11250.03
858.64	11267.88
858.961	11280.31
859.283	11189.47
859.605	11148.56
859.926	11072.18
860.248	11060.88
860.57	11063.14
860.891	11055.01
861.212	11052.29
861.534	10946.08
861.855	10945.86
862.176	10965.97
862.498	10965.29
862.819	10959.19
863.14	10860.43
863.461	10872.64
863.782	10819.53
864.103	10855.92
864.424	10815.92
864.745	10878.06
865.065	10704.96
865.386	10654.79
865.707	10698.18
866.027	10718.97
866.348	10649.59
866.668	10680.78
866.989	10657.05
867.309	10521.46
867.63	10580.89
867.95	10657.73
868.27	10487.34
868.59	10521.23
868.91	10518.75
869.23	10552.87
869.55	10496.6
869.87	10434.68
870.19	10459.54
870.51	10443.95
870.83	10483.72
871.15	10374.8
871.469	10403.05
871.789	10410.73
872.109	10430.84
872.428	10283.27
872.748	10344.52
873.067	10287.57
873.386	10286.44
873.706	10289.6
874.025	10291.18
874.344	10223.62
874.663	10208.93
874.982	10230.39
875.301	10144.52
875.62	10199.89
875.939	10144.52
876.258	10111.75
876.577	10030.17
876.896	10062.94
877.214	10060.46
877.533	10083.05
877.852	10056.39
878.17	10012.55
878.489	10015.71
878.807	10015.26
879.125	10054.35
879.444	9949.95
879.762	9928.03
880.08	9946.79
880.398	9944.07
880.716	9871.53
881.034	9859.56
881.352	9839.67
881.67	9826.79
881.988	9862.95
882.306	9784.53
882.624	9716.28
882.941	9702.73
883.259	9665.44
883.577	9661.82
883.894	9622.95
884.212	9675.38
884.529	9627.25
884.846	9580.02
885.164	9583.41
885.481	9607.81
885.798	9484.43
886.115	9489.17
886.432	9476.06
886.75	9460.92
887.067	9521.03
887.383	9460.47
887.7	9488.04
888.017	9369.63
888.334	9408.95
888.651	9359.68
888.967	9304.32
889.284	9272.45
889.6	9263.64
889.917	9179.12
890.233	9164.66
890.55	9134.38
890.866	9148.39
891.182	9140.48
891.498	9062.06
891.815	9063.19
892.131	8992.91
892.447	8989.07
892.763	8985.68
893.079	8957.21
893.395	8953.14
893.71	8900.03
894.026	8836.99
894.342	8875.4
894.657	8845.35
894.973	8790.66
895.289	8731.45
895.604	8788.4
895.92	8702.75
896.235	8642.41
896.55	8719.93
896.865	8619.82
897.181	8588.4
897.496	8568.29
897.811	8475.19
898.126	8562.64
898.441	8520.84
898.756	8497.11
899.071	8385.92
899.386	8371.46
899.7	8349.77
900.015	8326.94
900.33	8245.36
900.644	8244.46
900.959	8255.08
901.273	8231.58
901.588	8171.01
901.902	8090.34
902.216	8212.82
902.531	8058.47
902.845	8060.51
903.159	8022.32
903.473	8030.68
903.787	7919.5
904.101	7872.49
904.415	7900.06
904.729	7868.65
905.042	7885.82
905.356	7856.9
905.67	7856.22
905.984	7787.75
906.297	7794.3
906.611	7640.86
906.924	7747.75
907.237	7675.66
907.551	7630.92
907.864	7600.63
908.177	7598.15
908.491	7579.62
908.804	7530.8
909.117	7476.12
909.43	7487.64
909.743	7407.19
910.056	7286.29
910.368	7331.04
910.681	7341.21
910.994	7300.3
911.307	7295.1
911.619	7164.26
911.932	7192.28
912.244	7203.13
912.557	7151.61
912.869	7116.58
913.181	7128.1
913.494	7079.29
913.806	7000.2
914.118	6998.39
914.43	7035.68
914.742	6950.48
915.054	6945.51
915.366	6945.96
915.678	6849.69
915.99	6845.4
916.302	6807.66
916.613	6795
916.925	6789.36
917.236	6727.66
917.548	6697.61
917.859	6675.46
918.171	6628.68
918.482	6614.22
918.794	6639.75
919.105	6543.71
919.416	6522.7
919.727	6468.23
920.038	6477.05
920.349	6431.85
920.66	6412.19
920.971	6434.56
921.282	6391.85
921.593	6335.58
921.903	6260.56
922.214	6295.58
922.525	6254.23
922.835	6224.62
923.146	6218.97
923.456	6226.21
923.767	6158.41
924.077	6165.19
924.387	6118.86
924.697	6038.19
925.008	6049.49
925.318	6044.29
925.628	6002.48
925.938	5947.8
926.248	5903.73
926.558	5889.27
926.867	5890.17
927.177	5886.78
927.487	5792.77
927.796	5801.36
928.106	5824.63
928.416	5785.31
928.725	5836.16
929.034	5755.26
929.344	5722.72
929.653	5672.77
929.962	5635.71
930.271	5628.26
930.581	5632.55
930.89	5587.13
931.199	5526.79
931.508	5525.66
931.817	5550.97
932.125	5515.26
932.434	5459.67
932.743	5426.68
933.051	5412.22
933.36	5382.61
933.669	5377.64
933.977	5390.3
934.286	5317.53
934.594	5293.58
934.902	5308.94
935.21	5260.58
935.519	5230.98
935.827	5216.74
936.135	5201.83
936.443	5142.17
936.751	5150.3
937.059	5101.26
937.367	5097.65
937.674	5092.45
937.982	5056.29
938.29	5040.93
938.597	5036.63
938.905	4983.98
939.213	5002.28
939.52	5001.83
939.827	4953.02
940.135	4886.35
940.442	4963.64
940.749	4868.73
941.056	4895.62
941.363	4802.51
941.67	4799.8
941.977	4775.85
942.284	4772.91
942.591	4768.62
942.898	4750.54
943.205	4722.29
943.511	4670.99
943.818	4685.23
944.125	4673.48
944.431	4643.88
944.738	4617.44
945.044	4610.2
945.35	4583.09
945.657	4535.86
945.963	4529.3
946.269	4485.24
946.575	4525.69
946.881	4470.55
947.187	4392.36
947.493	4489.08
947.799	4400.49
948.105	4427.16
948.41	4311.45
948.716	4396.2
949.022	4317.33
949.327	4331.11
949.633	4279.14
949.938	4265.58
950.244	4295.41
950.549	4237.33
950.854	4180.16
951.16	4196.88
951.465	4179.25
951.77	4173.38
952.075	4117.11
952.38	4162.31
952.685	4150.78
952.99	4072.82
953.294	4111.23
953.599	4057.22
953.904	4078.24
954.209	4063.55
954.513	4056.77
954.818	3989.43
955.122	3966.83
955.426	3984.23
955.731	3977.68
956.035	3911.01
956.339	3901.3
956.643	3927.28
956.948	3891.35
957.252	3862.2
957.556	3853.84
957.86	3838.02
958.163	3855.87
958.467	3797.34
958.771	3747.4
959.075	3772.71
959.378	3731.36
959.682	3761.64
959.985	3715.09
960.289	3698.82
960.592	3684.8
960.896	3673.73
961.199	3648.2
961.502	3633.05
961.805	3587.18
962.108	3607.74
962.411	3605.71
962.714	3578.37
963.017	3549.89
963.32	3530.01
963.623	3544.92
963.926	3515.54
964.228	3493.4
964.531	3502.21
964.833	3457.01
965.136	3438.48
965.438	3456.34
965.741	3372.95
966.043	3426.73
966.345	3379.5
966.648	3397.13
966.95	3346.73
967.252	3348.54
967.554	3307.19
967.856	3325.04
968.158	3285.94
968.46	3293.63
968.761	3300.86
969.063	3242.1
969.365	3243.46
969.666	3231.03
969.968	3218.6
970.269	3189.9
970.571	3209.34
970.872	3183.12
971.174	3147.64
971.475	3128.21
971.776	3112.84
972.077	3076.68
972.378	3080.53
972.679	3080.98
972.98	3074.65
973.281	3082.11
973.582	3060.19
973.883	3019.74
974.183	3033.97
974.484	3001.43
974.785	2992.17
975.085	2970.25
975.386	3015.22
975.686	2971.6
975.986	2966.63
976.287	2937.48
976.587	2898.84
976.887	2892.73
977.187	2871.27
977.487	2901.77
977.787	2863.81
978.087	2883.7
978.387	2847.54
978.687	2801.21
978.987	2825.39
979.286	2792.85
979.586	2822.23
979.885	2848.44
980.185	2779.52
980.484	2747.2
980.784	2706.98
981.083	2778.16
981.382	2725.73
981.682	2713.98
981.981	2690.25
982.28	2651.84
982.579	2693.19
982.878	2680.99
983.177	2639.86
983.475	2647.32
983.774	2627.43
984.073	2610.26
984.372	2612.29
984.67	2608
984.969	2559.86
985.267	2552.4
985.566	2554.44
985.864	2540.43
986.162	2513.99
986.461	2500.2
986.759	2525.74
987.057	2489.81
987.355	2485.74
987.653	2448.23
987.951	2441.22
988.249	2462.46
988.547	2431.28
988.844	2409.13
989.142	2417.49
989.44	2415.91
989.737	2383.37
990.035	2380.66
990.332	2374.78
990.63	2367.1
990.927	2329.59
991.224	2340.21
991.521	2341.79
991.819	2348.12
992.116	2340.43
992.413	2286.87
992.71	2316.7
993.006	2308.12
993.303	2275.8
993.6	2254.11
993.897	2270.15
994.193	2250.49
994.49	2189.02
994.787	2205.75
995.083	2198.06
995.379	2201
995.676	2191.74
995.972	2191.51
996.268	2170.72
996.565	2158.74
996.861	2132.3
997.157	2124.62
997.453	2100.21
997.749	2114.9
998.044	2102.47
998.34	2079.87
998.636	2114
998.932	2072.87
999.227	2043.49
999.523	2069.71
999.818	2047.56
1000.114	2026.32
1000.409	2026.09
1000.704	2010.27
1001	1990.84
1001.295	1972.98
1001.59	1991.74
1001.885	2001.01
1002.18	1970.5
1002.475	1958.52
1002.77	1958.3
1003.065	1920.33
1003.359	1932.08
1003.654	1925.3
1003.949	1888.02
1004.243	1879.43
1004.538	1893.21
1004.832	1869.71
1005.127	1854.34
1005.421	1855.47
1005.715	1865.42
1006.009	1809.6
1006.304	1819.09
1006.598	1823.61
1006.892	1801.24
1007.186	1770.96
1007.48	1755.59
1007.773	1730.28
1008.067	1771.63
1008.361	1740.22
1008.655	1732.54
1008.948	1715.36
1009.242	1707.68
1009.535	1696.16
1009.829	1714.46
1010.122	1697.96
1010.415	1679.66
1010.708	1681.02
1011.001	1680.79
1011.295	1665.2
1011.588	1637.17
1011.881	1640.79
1012.173	1621.36
1012.466	1620.68
1012.759	1588.36
1013.052	1595.14
1013.344	1577.97
1013.637	1606.44
1013.93	1608.7
1014.222	1560.11
1014.514	1546.33
1014.807	1555.59
1015.099	1547.01
1015.391	1515.14
1015.683	1502.26
1015.976	1508.82
1016.268	1509.04
1016.56	1477.18
1016.851	1472.21
1017.143	1500.45
1017.435	1493.22
1017.727	1462.94
1018.018	1416.39
1018.31	1453.22
1018.602	1413.68
1018.893	1409.38
1019.185	1419.55
1019.476	1406.45
1019.767	1404.41
1020.058	1380.23
1020.35	1384.75
1020.641	1348.37
1020.932	1349.95
1021.223	1369.61
1021.514	1356.28
1021.804	1329.16
1022.095	1317.86
1022.386	1288.71
1022.677	1315.38
1022.967	1273.34
1023.258	1286.68
1023.548	1269.05
1023.839	1289.16
1024.129	1248.94
1024.419	1258.2
1024.709	1259.78
1025	1255.49
1025.29	1244.42
1025.58	1223.63
1025.87	1222.95
1026.16	1198.54
1026.449	1215.72
1026.739	1209.84
1027.029	1167.36
1027.319	1184.08
1027.608	1195.15
1027.898	1153.12
1028.187	1163.29
1028.477	1134.14
1028.766	1155.83
1029.055	1146.79
1029.344	1131.43
1029.634	1112.89
1029.923	1104.31
1030.212	1129.84
1030.501	1109.28
1030.79	1090.52
1031.078	1085.1
1031.367	1080.8
1031.656	1099.79
1031.945	1048.94
1032.233	1089.62
1032.522	1056.85
1032.81	1035.16
1033.099	1062.05
1033.387	1043.52
1033.675	1018.21
1033.963	985.89
1034.251	1017.98
1034.54	1014.14
1034.828	1006.46
1035.116	980.24
1035.403	984.08
1035.691	955.84
1035.979	956.74
1036.267	962.62
1036.554	970.53
1036.842	955.38
1037.129	934.82
1037.417	941.37
1037.704	933.69
1037.992	923.07
1038.279	912
1038.566	927.59
1038.853	927.59
1039.14	927.59
