Data from hue_70_FLMS001491_19.txt Node
Date: Mon Feb 06 15:20:12 GMT 2017
User: dcchb
Spectrometer: FLMS00149
Trigger mode: 0
Integration Time (sec): 2.000000E-2
Scans to average: 10
Electric dark correction enabled: true
Nonlinearity correction enabled: false
Boxcar width: 0
XAxis mode: Wavelengths
Number of Pixels in Spectrum: 2048
>>>>>Begin Spectral Data<<<<<
341.393	-16.33
341.776	-16.33
342.16	-16.33
342.543	-71.47
342.927	-58.59
343.31	-72.37
343.693	-40.96
344.077	-75.08
344.46	-49.77
344.843	-60.17
345.226	-40.73
345.61	-2.09
345.993	-13.39
346.376	-1.64
346.759	-6.84
347.142	30.68
347.525	31.36
347.908	53.5
348.291	63.9
348.674	100.51
349.057	83.11
349.44	124.69
349.823	141.41
350.206	167.62
350.588	195.87
350.971	204.23
351.354	218.47
351.737	239.71
352.119	254.63
352.502	269.09
352.884	272.48
353.267	280.39
353.65	293.72
354.032	287.17
354.414	317
354.797	315.19
355.179	335.53
355.562	325.58
355.944	326.26
356.326	322.87
356.709	336.88
357.091	328.97
357.473	344.12
357.855	331.91
358.238	342.76
358.62	356.09
359.002	332.36
359.384	332.14
359.766	341.86
360.148	344.79
360.53	364.91
360.912	314.51
361.294	344.57
361.676	322.65
362.057	318.35
362.439	339.6
362.821	336.66
363.203	329.65
363.584	309.54
363.966	335.3
364.348	331.91
364.729	319.48
365.111	296.43
365.493	309.99
365.874	281.97
366.256	304.57
366.637	303.44
367.019	309.77
367.4	328.97
367.781	315.19
368.163	315.64
368.544	323.78
368.925	313.83
369.306	305.7
369.688	303.89
370.069	310.22
370.45	311.57
370.831	299.14
371.212	303.66
371.593	300.95
371.974	302.99
372.355	295.53
372.736	302.31
373.117	302.76
373.498	302.76
373.879	327.84
374.26	321.29
374.641	309.99
375.021	333.72
375.402	322.42
375.783	318.13
376.163	342.53
376.544	328.07
376.925	333.27
377.305	298.69
377.686	308.18
378.066	324.45
378.447	333.04
378.827	321.29
379.208	321.97
379.588	317
379.968	327.39
380.349	311.57
380.729	337.11
381.109	315.42
381.489	309.77
381.87	320.84
382.25	330.1
382.63	333.95
383.01	308.18
383.39	314.06
383.77	326.04
384.15	346.6
384.53	339.14
384.91	319.26
385.29	337.34
385.67	324.45
386.049	322.65
386.429	347.28
386.809	342.08
387.189	360.16
387.568	353.15
387.948	326.94
388.328	359.93
388.707	344.79
389.087	355.87
389.466	336.43
389.846	335.3
390.225	355.19
390.605	340.95
390.984	364.45
391.363	349.31
391.743	351.35
392.122	348.18
392.501	346.15
392.881	365.81
393.26	360.16
393.639	354.51
394.018	371.69
394.397	372.59
394.776	344.79
395.155	361.52
395.534	364.23
395.913	372.82
396.292	373.04
396.671	348.18
397.05	371.69
397.429	375.98
397.808	375.53
398.186	363.32
398.565	361.74
398.944	368.3
399.323	360.84
399.701	373.27
400.08	379.59
400.458	385.92
400.837	381.85
401.215	363.78
401.594	386.6
401.972	379.37
402.351	391.35
402.729	375.3
403.107	390.67
403.486	365.36
403.864	374.4
404.242	381.85
404.62	412.36
404.999	386.6
405.377	380.72
405.755	390.22
406.133	394.28
406.511	389.76
406.889	417.79
407.267	400.38
407.645	406.03
408.023	408.29
408.401	405.81
408.779	409.2
409.156	412.59
409.534	408.52
409.912	405.58
410.29	408.75
410.667	433.83
411.045	418.01
411.422	408.52
411.8	439.03
412.178	448.75
412.555	452.14
412.933	432.02
413.31	437.45
413.687	444.45
414.065	445.13
414.442	459.14
414.819	444.23
415.197	453.26
415.574	441.74
415.951	469.54
416.328	451.91
416.705	444.68
417.082	437.9
417.46	462.98
417.837	450.1
418.214	490.78
418.591	476.09
418.967	458.69
419.344	448.97
419.721	462.98
420.098	469.76
420.475	490.33
420.852	471.12
421.228	460.27
421.605	478.57
421.982	483.55
422.358	498.46
422.735	493.94
423.111	481.96
423.488	503.89
423.864	507.73
424.241	505.24
424.617	507.5
424.994	486.48
425.37	519.7
425.746	524.9
426.123	538.69
426.499	528.74
426.875	533.71
427.251	532.81
427.627	534.39
428.003	527.84
428.379	536.2
428.756	524.9
429.132	534.17
429.507	543.21
429.883	548.63
430.259	552.02
430.635	565.58
431.011	556.77
431.387	546.14
431.763	557.22
432.138	573.26
432.514	585.01
432.89	574.39
433.265	596.09
433.641	570.78
434.016	582.3
434.392	598.57
434.767	598.8
435.143	600.38
435.518	609.64
435.894	608.97
436.269	606.48
436.644	630.21
437.02	628.18
437.395	621.4
437.77	620.27
438.145	628.4
438.52	632.47
438.895	660.94
439.271	639.93
439.646	650.32
440.021	655.97
440.395	683.54
440.77	661.62
441.145	680.6
441.52	685.35
441.895	654.16
442.27	690.32
442.645	660.49
443.019	696.87
443.394	689.64
443.769	694.39
444.143	695.74
444.518	702.07
444.892	721.96
445.267	707.5
445.641	700.04
446.016	723.99
446.39	707.95
446.764	716.08
447.139	704.56
447.513	730.09
447.887	738.68
448.262	748.4
448.636	753.6
449.01	767.83
449.384	744.1
449.758	750.66
450.132	746.36
450.506	765.8
450.88	771.45
451.254	782.97
451.628	785.23
452.002	775.52
452.376	765.8
452.75	802.41
453.123	809.87
453.497	815.74
453.871	803.31
454.244	815.97
454.618	819.81
454.992	825.01
455.365	833.82
455.739	859.13
456.112	841.05
456.486	887.15
456.859	859.13
457.232	865.23
457.606	884.21
457.979	899.58
458.352	912.69
458.725	899.35
459.099	921.95
459.472	962.18
459.845	939.13
460.218	965.79
460.591	966.7
460.964	969.86
461.337	963.99
461.71	1003.98
462.083	987.04
462.456	1020.71
462.829	1037.66
463.201	1029.52
463.574	1065.45
463.947	1056.19
464.32	1101.16
464.692	1081.05
465.065	1118.11
465.438	1097.99
465.81	1116.52
466.183	1158.56
466.555	1161.95
466.928	1173.47
467.3	1165.34
467.672	1225.9
468.045	1206.24
468.417	1273.58
468.789	1248.27
469.161	1278.55
469.534	1292.56
469.906	1330.76
470.278	1340.02
470.65	1359.68
471.022	1409.85
471.394	1440.36
471.766	1420.92
472.138	1458.44
472.51	1481.71
472.882	1524.2
473.253	1553.35
473.625	1615.72
473.997	1591.54
474.369	1654.82
474.74	1688.71
475.112	1716.51
475.484	1751.76
475.855	1808.03
476.227	1852.32
476.598	1913.79
476.97	1904.75
477.341	1989.5
477.713	2061.81
478.084	2076.5
478.455	2147.23
478.827	2220.68
479.198	2269.71
479.569	2313.1
479.94	2411.86
480.311	2481.01
480.682	2544.74
481.053	2610.72
481.424	2682.81
481.795	2712.41
482.166	2809.36
482.537	2899.53
482.908	3016.14
483.279	3053.2
483.65	3181.55
484.021	3287.99
484.391	3362.79
484.762	3420.19
485.133	3533.86
485.503	3616.35
485.874	3755.55
486.244	3833.06
486.615	3952.83
486.985	4055.66
487.356	4169.1
487.726	4245.71
488.097	4465.36
488.467	4528.41
488.837	4640.95
489.207	4737.45
489.578	4918.46
489.948	5015.4
490.318	5137.21
490.688	5198.22
491.058	5346.24
491.428	5539.46
491.798	5656.74
492.168	5806.12
492.538	5868.72
492.908	6011.54
493.278	6138.54
493.648	6295.82
494.017	6438.19
494.387	6594.12
494.757	6707.34
495.126	6849.03
495.496	6985.75
495.866	7079.98
496.235	7212.64
496.605	7384.61
496.974	7515.45
497.344	7606.07
497.713	7761.55
498.082	7882.9
498.452	8001.77
498.821	8181.42
499.19	8257.35
499.559	8378.03
499.928	8511.13
500.298	8615.54
500.667	8789.54
501.036	8867.96
501.405	8979.82
501.774	9041.51
502.143	9277.89
502.512	9341.62
502.88	9504.55
503.249	9532.8
503.618	9707.48
503.987	9787.48
504.356	9937.99
504.724	9993.13
505.093	10090.75
505.462	10278.32
505.83	10311.54
506.199	10443.06
506.567	10582.49
506.936	10642.38
507.304	10806.21
507.672	10920.11
508.041	10952.2
508.409	11116.71
508.777	11256.82
509.145	11364.39
509.514	11439.19
509.882	11524.84
510.25	11687.32
510.618	11773.87
510.986	11822.23
511.354	11942.23
511.722	12034.2
512.09	12248.21
512.458	12217.25
512.826	12337.25
513.193	12422.22
513.561	12515.77
513.929	12716.67
514.297	12781.75
514.664	12810.45
515.032	12917.57
515.4	13028.53
515.767	13066.27
516.135	13129.32
516.502	13087.06
516.869	13412.02
517.237	13367.73
517.604	13454.28
517.972	13600.04
518.339	13689.75
518.706	13705.57
519.073	13821.05
519.44	13886.58
519.808	14052.91
520.175	13932.01
520.542	14281.38
520.909	14358.66
521.276	14312.34
521.643	14444.99
522.009	14553.01
522.376	14653.34
522.743	14663.51
523.11	14832.32
523.477	14953.22
523.843	15004.29
524.21	15130.17
524.577	15262.59
524.943	15290.39
525.31	15288.36
525.676	15582.13
526.043	15581
526.409	15684.73
526.776	15756.82
527.142	15915.91
527.508	15842.01
527.874	15950.94
528.241	16076.13
528.607	16024.61
528.973	16263.24
529.339	16308.44
529.705	16413.07
530.071	16442.9
530.437	16418.72
530.803	16546.18
531.169	16670.69
531.535	16688.54
531.901	16610.58
532.267	16672.5
532.632	16793.4
532.998	16786.39
533.364	16918.37
533.73	16948.2
534.095	17038.14
534.461	17071.13
534.826	17151.81
535.192	17135.76
535.557	17231.58
535.923	17101.64
536.288	17273.84
536.653	17309.32
537.019	17293.05
537.384	17365.81
537.749	17318.58
538.114	17324.91
538.479	17435.87
538.845	17376.44
539.21	17379.83
539.575	17554.74
539.94	17512.48
540.305	17625.69
540.67	17533.95
541.034	17616.66
541.399	17572.36
541.764	17682.87
542.129	17768.52
542.494	17687.16
542.858	17726.26
543.223	17699.37
543.587	17753.15
543.952	17775.3
544.316	17780.04
544.681	17789.31
545.045	17818.46
545.41	17919.25
545.774	17894.84
546.138	17860.94
546.503	17886.48
546.867	17892.35
547.231	18052.12
547.595	18076.3
547.959	17979.58
548.324	17991.33
548.688	18031.56
549.052	18045.8
549.416	18050.09
549.779	18102.29
550.143	18116.08
550.507	18196.08
550.871	18210.99
551.235	18210.54
551.599	18368.73
551.962	18191.78
552.326	18256.41
552.689	18397.2
553.053	18275.85
553.417	18383.64
553.78	18493.24
554.143	18461.38
554.507	18504.99
554.87	18492.79
555.234	18558.55
555.597	18559
555.96	18547.25
556.323	18630.19
556.686	18607.36
557.05	18709.73
557.413	18716.74
557.776	18789.73
558.139	18812.33
558.502	18819.79
558.865	18865.21
559.228	18958.54
559.59	18920.58
559.953	18905.44
560.316	19118.31
560.679	19179.1
561.041	19256.84
561.404	19209.16
561.767	19335.71
562.129	19262.94
562.492	19413.44
562.854	19374.35
563.217	19415.48
563.579	19481.69
563.941	19581.58
564.304	19673.78
564.666	19647.79
565.028	19753.77
565.39	19667.45
565.753	19849.14
566.115	19876.93
566.477	19936.59
566.839	19919.87
567.201	19978.4
567.563	20069.47
567.925	20158.51
568.287	20114.89
568.648	20181.56
569.01	20263.59
569.372	20487.09
569.734	20302.91
570.095	20462.46
570.457	20546.3
570.819	20578.16
571.18	20542.91
571.542	20704.48
571.903	20723.69
572.265	20687.99
572.626	20807.31
572.987	20778.61
573.349	20840.98
573.71	20859.73
574.071	20901.77
574.432	21009.33
574.794	21278.71
575.155	21086.62
575.516	21058.82
575.877	21156
576.238	21199.39
576.599	21226.96
576.96	21206.84
577.32	21290.46
577.681	21288.65
578.042	21336.33
578.403	21394.18
578.763	21362.55
579.124	21314.64
579.485	21459.27
579.845	21512.6
580.206	21461.98
580.566	21468.08
580.927	21444.58
581.287	21497.91
581.648	21497.68
582.008	21536.78
582.368	21502.43
582.728	21560.05
583.089	21621.07
583.449	21603.22
583.809	21636.66
584.169	21545.82
584.529	21531.58
584.889	21697.68
585.249	21581.52
585.609	21500.62
585.969	21647.06
586.329	21611.8
586.688	21616.32
587.048	21597.57
587.408	21536.55
587.768	21594.86
588.127	21574.07
588.487	21410.68
588.846	21770.9
589.206	21508.3
589.565	21584.23
589.925	21622.88
590.284	21526.16
590.643	21628.3
591.003	21666.94
591.362	21666.72
591.721	21639.83
592.08	21693.61
592.44	21742.42
592.799	21654.52
593.158	21643.67
593.517	21671.46
593.876	21708.3
594.235	21646.38
594.593	21617
594.952	21661.07
595.311	21651.58
595.67	21707.17
596.029	21788.3
596.387	21817.9
596.746	21879.37
597.104	21687.73
597.463	21624.69
597.822	21734.29
598.18	21721.63
598.538	21723.44
598.897	21837.34
599.255	21572.26
599.613	21955.75
599.972	21715.98
600.33	21730.22
600.688	21753.27
601.046	21779.48
601.404	21880.95
601.762	21836.21
602.12	21984
602.478	21880.27
602.836	21913.27
603.194	21836.43
603.552	21873.49
603.91	21847.73
604.268	21992.59
604.625	21857.9
604.983	21986.03
605.341	21866.26
605.698	22019.25
606.056	22021.51
606.413	22067.39
606.771	22064.45
607.128	22137.89
607.485	22048.63
607.843	22093.15
608.2	22254.5
608.557	22295.4
608.914	22046.6
609.272	22212.92
609.629	22320.03
609.986	22397.77
610.343	22263.54
610.7	22513.02
611.057	22434.38
611.414	22449.07
611.771	22284.1
612.127	22513.48
612.484	22474.15
612.841	22536.3
613.198	22425.79
613.554	22524.55
613.911	22648.61
614.267	22624.43
614.624	22650.65
614.98	22635.96
615.337	22731.78
615.693	22772
616.05	22701.72
616.406	22918.21
616.762	22783.53
617.118	22778.55
617.475	22855.16
617.831	22928.61
618.187	22902.84
618.543	22953.92
618.899	23011.77
619.255	23000.69
619.611	22962.73
619.967	23043.86
620.323	23082.95
620.678	22982.84
621.034	22991.88
621.39	23016.97
621.746	22988.94
622.101	23240.69
622.457	23152.78
622.812	23145.1
623.168	23205.44
623.523	23214.93
623.879	23216.28
624.234	23145.32
624.589	23219.45
624.945	23339.44
625.3	23278.2
625.655	23249.95
626.01	23374.7
626.365	23280.91
626.72	23289.27
627.075	23232.1
627.43	23271.87
627.785	23127.02
628.14	23330.86
628.495	23177.87
628.85	23212.89
629.205	23181.71
629.559	23367.24
629.914	23226.23
630.269	23228.49
630.623	23139.9
630.978	23135.61
631.332	23283.63
631.687	23222.16
632.041	23221.93
632.396	23200.24
632.75	23009.28
633.104	23142.84
633.459	22971.77
633.813	23050.18
634.167	23136.06
634.521	23038.43
634.875	23021.94
635.229	23021.26
635.583	22813.35
635.937	22922.05
636.291	22932.67
636.645	22755.05
636.999	22974.25
637.352	22942.62
637.706	22780.14
638.06	22876.4
638.413	22901.49
638.767	22815.39
639.121	22784.88
639.474	22723.41
639.828	22668.73
640.181	22823.07
640.534	22686.35
640.888	22790.76
641.241	22491.78
641.594	22661.72
641.947	22718.44
642.301	22677.09
642.654	22591.67
643.007	22679.12
643.36	22607.26
643.713	22520.93
644.066	22633.47
644.419	22581.95
644.771	22327.72
645.124	22175.18
645.477	22184.9
645.83	22175.86
646.182	21906.26
646.535	21820.84
646.888	21946.26
647.24	21840.27
647.593	21957.56
647.945	21892.93
648.298	21730.45
648.65	21729.99
649.002	21661.75
649.355	21822.42
649.707	21795.08
650.059	21830.33
650.411	22092.47
650.763	22176.54
651.115	22353.93
651.467	22360.71
651.819	22259.25
652.171	22358.23
652.523	22184.44
652.875	22226.25
653.227	22164.11
653.578	22387.6
653.93	22225.35
654.282	22207.04
654.633	22153.49
654.985	22278.23
655.337	22198.46
655.688	22143.54
656.039	22258.34
656.391	22249.08
656.742	22111.68
657.094	22209.76
657.445	22265.12
657.796	22266.48
658.147	22234.61
658.498	22150.32
658.849	22212.47
659.2	22196.2
659.551	22112.81
659.902	22217.89
660.253	22180.6
660.604	22049.53
660.955	22057.44
661.306	22266.7
661.656	22177.44
662.007	22193.71
662.358	22202.3
662.708	22236.65
663.059	22240.26
663.409	22046.37
663.76	22261.05
664.11	22233.48
664.461	22217.44
664.811	22212.47
665.161	22196.2
665.511	22103.54
665.862	22122.75
666.212	22150.32
666.562	22240.04
666.912	22270.54
667.262	22134.05
667.612	22151.68
667.962	22212.47
668.312	22119.59
668.662	22324.33
669.011	22112.13
669.361	22200.49
669.711	22169.53
670.06	22104.45
670.41	22075.75
670.76	22031.91
671.109	22114.16
671.459	22018.35
671.808	22041.4
672.157	22169.98
672.507	21950.78
672.856	21919.14
673.205	22005.69
673.554	21990.55
673.904	21928.63
674.253	22061.74
674.602	21976.77
674.951	21651.8
675.3	21595.99
675.649	21880.72
675.998	21873.27
676.346	21885.92
676.695	21949.65
677.044	21860.61
677.393	21770.9
677.741	21843.44
678.09	21737.68
678.438	21689.54
678.787	21771.8
679.135	21791.91
679.484	21581.3
679.832	21731.12
680.181	21664.68
680.529	21627.62
680.877	21533.16
681.225	21580.84
681.573	21716.89
681.922	21560.05
682.27	21441.87
682.618	21396.22
682.966	21403.9
683.314	21319.38
683.661	21332.72
684.009	21294.07
684.357	21177.47
684.705	21156.45
685.053	21113.29
685.4	21210.23
685.748	20942.22
686.095	20918.26
686.443	20884.59
686.79	20914.65
687.138	20948.77
687.485	21073.29
687.832	20758.49
688.18	20854.31
688.527	20737.93
688.874	20752.62
689.221	20682.11
689.568	20631.04
689.915	20563.7
690.262	20576.35
690.609	20574.54
690.956	20269.24
691.303	20345.85
691.65	20219.52
691.997	20320.77
692.344	20139.98
692.69	20176.59
693.037	20156.93
693.383	20009.81
693.73	19973.43
694.077	19970.72
694.423	19898.18
694.769	19968.01
695.116	19807.56
695.462	19829.25
695.808	19727.33
696.155	19630.16
696.501	19550.16
696.847	19490.5
697.193	19312.2
697.539	19508.13
697.885	19292.54
698.231	19254.58
698.577	19229.49
698.923	19101.36
699.269	19100.68
699.614	18972.1
699.96	19036.05
700.306	18915.15
700.651	18850.3
700.997	18821.6
701.342	18793.35
701.688	18734.37
702.033	18740.24
702.379	18626.8
702.724	18517.87
703.069	18545.67
703.415	18359.46
703.76	18301.61
704.105	18348.61
704.45	18325.79
704.795	18195.85
705.14	18164.89
705.485	18069.98
705.83	18053.48
706.175	18059.81
706.52	17937.1
706.865	17772.81
707.209	17866.37
707.554	17822.53
707.899	17763.32
708.243	17772.81
708.588	17743.43
708.932	17660.72
709.277	17614.17
709.621	17620.27
709.966	17431.58
710.31	17514.51
710.654	17335.76
710.998	17413.04
711.342	17361.97
711.687	17371.69
712.031	17141.87
712.375	17231.13
712.719	17206.95
713.063	17043.11
713.407	17193.16
713.75	17175.31
714.094	17160.17
714.438	16958.59
714.782	17012.38
715.125	16895.09
715.469	16921.08
715.812	16922.89
716.156	16846.51
716.499	16762.44
716.843	16805.83
717.186	16762.67
717.53	16756.57
717.873	16709.33
718.216	16695.32
718.559	16578.94
718.902	16449.91
719.246	16535.78
719.589	16531.49
719.932	16404.26
720.275	16445.84
720.617	16437.7
720.96	16430.25
721.303	16400.87
721.646	16413.98
721.989	16241.78
722.331	16429.57
722.674	16337.37
723.016	16360.19
723.359	16295.11
723.701	16313.41
724.044	16198.39
724.386	16065.06
724.729	16226.64
725.071	16133.3
725.413	16147.99
725.755	16152.29
726.097	16077.71
726.439	15968.34
726.782	15987.32
727.124	16076.81
727.465	15954.78
727.807	15961.56
728.149	16087.43
728.491	15928.79
728.833	15945.51
729.175	15984.83
729.516	15843.14
729.858	15894.44
730.199	15908
730.541	15848.11
730.882	15856.93
731.224	15861.22
731.565	15793.43
731.906	15817.83
732.248	15802.01
732.589	15690.83
732.93	15755.24
733.271	15710.04
733.612	15668.68
733.953	15781
734.294	15745.52
734.635	15687.21
734.976	15659.19
735.317	15609.48
735.658	15723.6
735.999	15669.81
736.339	15602.02
736.68	15668.23
737.021	15569.93
737.361	15486.09
737.702	15658.29
738.042	15623.94
738.383	15568.8
738.723	15639.53
739.063	15572.42
739.404	15670.72
739.744	15599.99
740.084	15610.83
740.424	15584.84
740.764	15563.15
741.104	15654.22
741.444	15564.73
741.784	15554.56
742.124	15680.44
742.464	15568.12
742.804	15641.11
743.143	15546.43
743.483	15692.86
743.823	15615.13
744.162	15607.44
744.502	15619.87
744.841	15551.4
745.181	15621.23
745.52	15671.17
745.86	15666.88
746.199	15639.98
746.538	15741
746.877	15808.12
747.216	15766.53
747.556	15838.62
747.895	15877.04
748.234	15809.47
748.573	15892.41
748.911	15872.75
749.25	15907.32
749.589	15864.84
749.928	16020.99
750.267	16070.71
750.605	16076.13
750.944	16098.5
751.283	16105.51
751.621	16238.16
751.96	16276.8
752.298	16308.67
752.636	16303.92
752.975	16325.16
753.313	16343.69
753.651	16585.95
753.989	16448.1
754.327	16496.01
754.666	16630.01
755.004	16661.65
755.342	16811.93
755.679	16835.66
756.017	16795.43
756.355	16937.13
756.693	17011.7
757.031	17108.19
757.368	17068.87
757.706	17170.79
758.044	17131.92
758.381	17290.11
758.719	17347.74
759.056	17456.43
759.394	17500.27
759.731	17484
760.068	17526.49
760.405	17568.75
760.743	17545.92
761.08	17749.53
761.417	17773.04
761.754	17827.27
762.091	17836.08
762.428	17929.19
762.765	17902.75
763.102	18141.84
763.438	18032.92
763.775	18032.46
764.112	18204.89
764.449	18219.13
764.785	18259.58
765.122	18152.23
765.458	18211.67
765.795	18164.66
766.131	18273.59
766.467	18408.95
766.804	18229.07
767.14	18287.6
767.476	18349.74
767.812	18215.74
768.148	18323.53
768.485	18389.29
768.821	18251.67
769.157	18245.11
769.492	18326.02
769.828	18476.52
770.164	18310.87
770.5	18210.31
770.836	18382.06
771.171	18286.02
771.507	18287.15
771.842	18130.99
772.178	18244.66
772.513	18208.05
772.849	18167.38
773.184	18035.63
773.519	18176.41
773.855	18166.47
774.19	18007.83
774.525	18094.83
774.86	18118.79
775.195	18025.91
775.53	17957.66
775.865	17907.5
776.2	17840.15
776.535	17790.89
776.87	17774.84
777.205	17726.71
777.539	17758.8
777.874	17738.69
778.209	17615.75
778.543	17595.41
778.878	17549.31
779.212	17526.94
779.547	17521.06
779.881	17566.49
780.215	17351.58
780.55	17485.36
780.884	17244.69
781.218	17324.69
781.552	17189.32
781.886	17266.61
782.22	17134.63
782.554	17012.83
782.888	16912.27
783.222	16881.53
783.556	16923.79
783.889	16954.53
784.223	16764.93
784.557	16755.21
784.89	16696.91
785.224	16779.16
785.557	16658.71
785.891	16550.24
786.224	16552.28
786.558	16477.48
786.891	16427.76
787.224	16361.1
787.557	16337.14
787.891	16261.21
788.224	16319.97
788.557	16215.79
788.89	16157.71
789.223	16167.43
789.556	16067.09
789.888	16020.99
790.221	15936.25
790.554	15797.04
790.887	15851.28
791.219	15856.02
791.552	15808.79
791.884	15639.76
792.217	15617.61
792.549	15633.2
792.882	15579.42
793.214	15427.11
793.546	15458.52
793.879	15389.37
794.211	15252.42
794.543	15323.83
794.875	15243.16
795.207	15388.69
795.539	15194.57
795.871	15150.51
796.203	15069.83
796.535	15013.11
796.867	15017.85
797.198	14909.61
797.53	14891.53
797.862	14883.85
798.193	14938.53
798.525	14855.37
798.856	14718.65
799.188	14734.47
799.519	14605.89
799.85	14595.49
800.182	14528.15
800.513	14515.95
800.844	14398.89
801.175	14521.37
801.506	14537.64
801.837	14389.17
802.168	14364.09
802.499	14330.19
802.83	14287.03
803.161	14168.16
803.491	14313.92
803.822	14226.24
804.153	14156.18
804.483	13988.5
804.814	13925.91
805.145	13984.89
805.475	13983.76
805.805	13916.87
806.136	13869.18
806.466	13840.26
806.796	13765.91
807.126	13692.92
807.457	13659.47
807.787	13673.71
808.117	13685.01
808.447	13581.96
808.777	13619.92
809.107	13511.23
809.436	13464
809.766	13506.03
810.096	13430.55
810.426	13369.31
810.755	13464.45
811.085	13433.04
811.414	13308.29
811.744	13165.7
812.073	13282.98
812.403	13146.26
812.732	13095.87
813.061	13103.33
813.39	13032.82
813.719	13030.79
814.049	13089.32
814.378	12993.95
814.707	12980.39
815.036	12954.63
815.365	12856.33
815.693	12830.57
816.022	12808.65
816.351	12712.6
816.68	12692.04
817.008	12733.17
817.337	12622.66
817.665	12548.54
817.994	12638.71
818.322	12550.8
818.651	12541.08
818.979	12519.84
819.307	12541.08
819.636	12459.5
819.964	12454.53
820.292	12543.57
820.62	12483.68
820.948	12350.81
821.276	12514.42
821.604	12392.84
821.932	12470.8
822.259	12432.16
822.587	12470.35
822.915	12290.47
823.243	12420.86
823.57	12375.66
823.898	12449.11
824.225	12358.94
824.553	12332.27
824.88	12341.54
825.207	12360.3
825.535	12346.74
825.862	12383.57
826.189	12246.4
826.516	12367.3
826.843	12413.4
827.17	12362.33
827.497	12341.99
827.824	12483.91
828.151	12374.08
828.478	12417.92
828.805	12400.07
829.131	12365.49
829.458	12324.59
829.785	12185.61
830.111	12279.39
830.438	12365.27
830.764	12289.11
831.09	12369.79
831.417	12297.93
831.743	12323.24
832.069	12353.07
832.395	12303.35
832.722	12224.71
833.048	12182.22
833.374	12214.31
833.7	12161.21
834.026	12212.96
834.351	12189.68
834.677	12180.41
835.003	12216.57
835.329	12174.54
835.654	12180.41
835.98	12127.76
836.306	12143.8
836.631	12148.1
836.956	12191.49
837.282	12115.11
837.607	12001.89
837.932	11959.86
838.258	11964.37
838.583	12048.89
838.908	11902.23
839.233	12023.58
839.558	11933.64
839.883	11865.39
840.208	11901.55
840.533	11925.96
840.858	11947.88
841.182	11876.24
841.507	11871.04
841.832	11785.17
842.156	11809.35
842.481	11710.6
842.805	11728
843.13	11626.08
843.454	11610.94
843.778	11622.01
844.103	11665.63
844.427	11535.69
844.751	11546.98
845.075	11572.75
845.399	11503.14
845.723	11378.63
846.047	11401.45
846.371	11316.71
846.695	11399.87
847.019	11226.99
847.343	11206.88
847.666	11149.03
847.99	11138.86
848.313	11031.52
848.637	11011.41
848.96	11033.33
849.284	10955.14
849.607	10925.76
849.931	10903.84
850.254	10723.5
850.577	10819.77
850.9	10673.34
851.223	10644.41
851.546	10620
851.869	10518.54
852.192	10610.06
852.515	10504.98
852.838	10454.13
853.161	10406.9
853.483	10436.05
853.806	10294.81
854.129	10367.13
854.451	10292.55
854.774	10253.23
855.096	10239.22
855.419	10144.76
855.741	10175.27
856.063	10140.92
856.385	10059.79
856.708	10032.9
857.03	9998.1
857.352	10046.46
857.674	10017.99
857.996	9972.56
858.318	9865.9
858.64	9913.81
858.961	9919.46
859.283	9803.98
859.605	9825.45
859.926	9754.94
860.248	9785.22
860.57	9713.81
860.891	9717.43
861.212	9709.52
861.534	9736.86
861.855	9616.41
862.176	9679.69
862.498	9710.42
862.819	9610.31
863.14	9694.38
863.461	9600.14
863.782	9482.63
864.103	9548.62
864.424	9476.08
864.745	9532.35
865.065	9408.28
865.386	9423.65
865.707	9403.76
866.027	9430.88
866.348	9442.86
866.668	9360.38
866.989	9307.27
867.309	9276.31
867.63	9356.08
867.95	9346.14
868.27	9247.38
868.59	9298.68
868.91	9292.58
869.23	9238.12
869.55	9263.65
869.87	9233.37
870.19	9240.6
870.51	9236.31
870.83	9173.71
871.15	9174.62
871.469	9191.79
871.789	9164.45
872.109	9209.42
872.428	9110.66
872.748	9152.02
873.067	9121.96
873.386	9119.48
873.706	9025.24
874.025	8983.89
874.344	9001.97
874.663	9051.68
874.982	8969.2
875.301	8988.63
875.62	8947.5
875.939	8956.77
876.258	8923.32
876.577	8888.98
876.896	8839.03
877.214	8861.41
877.533	8874.06
877.852	8845.81
878.17	8919.48
878.489	8832.48
878.807	8819.37
879.125	8759.04
879.444	8803.1
879.762	8733.95
880.08	8758.81
880.398	8778.7
880.716	8701.86
881.034	8640.85
881.352	8682.65
881.67	8687.4
881.988	8627.74
882.306	8625.48
882.624	8632.26
882.941	8624.58
883.259	8543.67
883.577	8455.09
883.894	8545.48
884.212	8547.52
884.529	8457.57
884.846	8446.73
885.164	8397.69
885.481	8466.16
885.798	8470.46
886.115	8340.06
886.432	8350.46
886.75	8341.87
887.067	8310.46
887.383	8317.46
887.7	8338.26
888.017	8275.43
888.334	8293.28
888.651	8246.96
888.967	8141.2
889.284	8152.27
889.6	8146.17
889.917	8132.61
890.233	8089.67
890.55	8023.24
890.866	8101.43
891.182	8026.63
891.498	8026.17
891.815	7988.21
892.131	7963.35
892.447	7963.12
892.763	7918.15
893.079	7908.21
893.395	7854.2
893.71	7858.49
894.026	7823.69
894.342	7817.14
894.657	7781.43
894.973	7726.97
895.289	7746.86
895.604	7734.88
895.92	7667.99
896.235	7655.79
896.55	7622.79
896.865	7586.64
897.181	7626.18
897.496	7640.42
897.811	7523.81
898.126	7475.23
898.441	7476.13
898.756	7461.22
899.071	7406.3
899.386	7381.22
899.7	7353.87
900.015	7298.73
900.33	7305.06
900.644	7341.22
900.959	7272.52
901.273	7274.78
901.588	7233.88
901.902	7187.55
902.216	7196.82
902.531	7148.68
902.845	7165.18
903.159	7111.85
903.473	7044.28
903.787	7012.64
904.101	6972.64
904.415	7061
904.729	6949.82
905.042	6933.09
905.356	6917.5
905.67	6838.41
905.984	6884.96
906.297	6863.94
906.611	6840.67
906.924	6825.53
907.237	6774.68
907.551	6743.27
907.864	6717.06
908.177	6675.93
908.491	6654.91
908.804	6632.54
909.117	6625.53
909.43	6589.83
909.743	6524.74
910.056	6522.71
910.368	6516.38
910.681	6480
910.994	6463.05
911.307	6452.66
911.619	6423.73
911.932	6419.44
912.244	6350.74
912.557	6291.08
912.869	6267.58
913.181	6279.78
913.494	6241.14
913.806	6221.93
914.118	6193
914.43	6177.18
914.742	6191.42
915.054	6136.51
915.366	6082.27
915.678	6061.71
915.99	6060.12
916.302	5961.82
916.613	5970.18
916.925	5974.7
917.236	5946.68
917.548	5906.68
917.859	5916.62
918.171	5906.23
918.482	5866.23
918.794	5790.75
919.105	5811.99
919.416	5802.5
919.727	5765.67
920.038	5715.05
920.349	5690.42
920.66	5661.72
920.971	5674.82
921.282	5613.58
921.593	5576.07
921.903	5586.69
922.214	5523.87
922.525	5518.89
922.835	5545.56
923.146	5499.69
923.456	5472.57
923.767	5438.44
924.077	5435.51
924.387	5400.71
924.697	5394.38
925.008	5374.04
925.318	5310.76
925.628	5316.19
925.938	5319.35
926.248	5264.89
926.558	5225.34
926.867	5213.14
927.177	5216.53
927.487	5161.84
927.796	5193.48
928.106	5186.25
928.416	5131.33
928.725	5142.41
929.034	5075.74
929.344	5060.38
929.653	5048.4
929.962	5030.09
930.271	4965.01
930.581	4994.61
930.89	4930.89
931.199	4899.25
931.508	4898.57
931.817	4917.33
932.125	4919.59
932.434	4866.71
932.743	4856.31
933.051	4758.46
933.36	4782.19
933.669	4767.28
933.977	4731.57
934.286	4699.25
934.594	4715.53
934.902	4647.5
935.21	4669.88
935.519	4622.65
935.827	4696.54
936.135	4588.3
936.443	4556.21
936.751	4544.91
937.059	4569.77
937.367	4526.83
937.674	4496.32
937.982	4537.45
938.29	4458.81
938.597	4472.59
938.905	4434.63
939.213	4419.49
939.52	4341.07
939.827	4403.67
940.135	4372.71
940.442	4310.34
940.749	4324.58
941.056	4316.44
941.363	4247.74
941.67	4291.81
941.977	4257.01
942.284	4214.75
942.591	4246.84
942.898	4248.65
943.205	4240.28
943.511	4184.01
943.818	4165.71
944.125	4138.14
944.431	4078.71
944.738	4090.91
945.044	4083.23
945.35	4034.41
945.657	4022.66
945.963	3992.61
946.269	4026.5
946.575	3989.67
946.881	3975.66
947.187	3937.02
947.493	3917.13
947.799	3916
948.105	3906.51
948.41	3875.32
948.716	3908.32
949.022	3868.32
949.327	3875.77
949.633	3814.76
949.938	3806.62
950.244	3777.47
950.549	3753.29
950.854	3750.35
951.16	3732.27
951.465	3753.74
951.77	3697.7
952.075	3719.62
952.38	3704.25
952.685	3682.33
952.99	3677.81
953.294	3654.99
953.599	3636.23
953.904	3620.64
954.209	3588.32
954.513	3571.83
954.818	3528.66
955.122	3537.7
955.426	3499.51
955.731	3516.01
956.035	3488.21
956.339	3485.5
956.643	3485.28
956.948	3460.42
957.252	3442.56
957.556	3451.83
957.86	3422.68
958.163	3436.69
958.467	3351.95
958.771	3380.65
959.075	3338.39
959.378	3352.62
959.682	3322.12
959.985	3281.21
960.289	3285.73
960.592	3301.78
960.896	3266.07
961.199	3269.69
961.502	3218.62
961.805	3236.02
962.108	3215.23
962.411	3193.98
962.714	3196.92
963.017	3169.13
963.32	3186.3
963.623	3138.62
963.926	3133.42
964.228	3149.69
964.531	3120.99
964.833	3082.8
965.136	3078.73
965.438	3043.93
965.741	3049.13
966.043	3050.03
966.345	3033.76
966.648	3000.77
966.95	3017.27
967.252	3019.53
967.554	2987.21
967.856	2937.04
968.158	2928.68
968.46	2936.59
968.761	2913.54
969.063	2914.9
969.365	2893.65
969.666	2902.92
969.968	2886.65
970.269	2852.75
970.571	2855.91
970.872	2856.37
971.174	2845.07
971.475	2824.28
971.776	2822.92
972.077	2777.95
972.378	2762.13
972.679	2797.38
972.98	2738.63
973.281	2751.96
973.582	2688.46
973.883	2719.65
974.183	2702.25
974.484	2752.64
974.785	2638.07
975.085	2646.65
975.386	2671.06
975.686	2640.1
975.986	2652.53
976.287	2601.23
976.587	2601.23
976.887	2598.52
977.187	2569.82
977.487	2586.54
977.787	2582.93
978.087	2549.48
978.387	2552.64
978.687	2486.43
978.987	2537.96
979.286	2512.65
979.586	2476.71
979.885	2510.84
980.185	2476.26
980.484	2459.99
980.784	2475.81
981.083	2451.4
981.382	2421.35
981.682	2414.34
981.981	2408.24
982.28	2411.41
982.579	2372.31
982.878	2381.58
983.177	2369.6
983.475	2361.24
983.774	2338.64
984.073	2317.4
984.372	2341.35
984.67	2344.74
984.969	2309.49
985.267	2304.29
985.566	2294.35
985.864	2288.02
986.162	2291.63
986.461	2269.26
986.759	2267.23
987.057	2251.18
987.355	2229.72
987.653	2222.26
987.951	2219.77
988.249	2197.85
988.547	2185.87
988.844	2159.89
989.142	2170.73
989.44	2135.93
989.737	2154.24
990.035	2147.91
990.332	2121.02
990.63	2144.29
990.927	2124.63
991.224	2102.71
991.521	2112.66
991.819	2107.01
992.116	2071.08
992.413	2092.32
992.71	2087.57
993.006	2059.78
993.303	2064.97
993.6	2063.39
993.897	2020.91
994.193	2040.34
994.49	2014.58
994.787	1971.64
995.083	1995.15
995.379	1991.53
995.676	1980.91
995.972	1952.21
996.268	1948.59
996.565	1907.46
996.861	1933.9
997.157	1968.25
997.453	1919.67
997.749	1869.95
998.044	1924.86
998.34	1914.92
998.636	1889.16
998.932	1900.46
999.227	1858.88
999.523	1842.15
999.818	1841.93
1000.114	1832.89
1000.409	1804.19
1000.704	1822.04
1001	1789.73
1001.295	1768.48
1001.59	1783.4
1001.885	1760.8
1002.18	1769.61
1002.475	1742.27
1002.77	1733.23
1003.065	1732.1
1003.359	1745.66
1003.654	1733.46
1003.949	1710.63
1004.243	1708.6
1004.538	1694.81
1004.832	1717.64
1005.127	1676.51
1005.421	1701.14
1005.715	1628.83
1006.009	1627.92
1006.304	1651.2
1006.598	1638.54
1006.892	1632.44
1007.186	1627.02
1007.48	1611.43
1007.773	1562.84
1008.067	1560.35
1008.361	1589.05
1008.655	1574.82
1008.948	1559.68
1009.242	1568.72
1009.535	1532.56
1009.829	1559.45
1010.122	1499.34
1010.415	1526.46
1010.708	1510.41
1011.001	1494.37
1011.295	1510.19
1011.588	1534.82
1011.881	1498.66
1012.173	1470.87
1012.466	1465.44
1012.759	1440.13
1013.052	1441.94
1013.344	1458.44
1013.637	1409.85
1013.93	1442.17
1014.222	1401.94
1014.514	1394.94
1014.807	1377.31
1015.099	1397.65
1015.391	1385.44
1015.683	1376.18
1015.976	1360.59
1016.268	1352
1016.56	1351.55
1016.851	1342.96
1017.143	1337.08
1017.435	1339.57
1017.727	1306.58
1018.018	1312.9
1018.31	1301.38
1018.602	1307.48
1018.893	1254.37
1019.185	1255.73
1019.476	1261.83
1019.767	1272.45
1020.058	1277.2
1020.35	1237.65
1020.641	1250.08
1020.932	1227.03
1021.223	1227.26
1021.514	1210.53
1021.804	1181.38
1022.095	1213.7
1022.386	1190.87
1022.677	1191.32
1022.967	1208.73
1023.258	1152.46
1023.548	1180.03
1023.839	1175.28
1024.129	1155.39
1024.419	1107.94
1024.709	1112.46
1025	1151.1
1025.29	1121.5
1025.58	1100.93
1025.87	1100.48
1026.16	1097.32
1026.449	1124.21
1026.739	1117.43
1027.029	1065
1027.319	1080.59
1027.608	1044.89
1027.898	1067.26
1028.187	1056.64
1028.477	1059.8
1028.766	1029.29
1029.055	1029.97
1029.344	1055.73
1029.634	1042.63
1029.923	1006.02
1030.212	1015.51
1030.501	1028.39
1030.79	991.78
1031.078	997.43
1031.367	974.61
1031.656	961.73
1031.945	972.35
1032.233	949.98
1032.522	970.54
1032.81	948.39
1033.099	968.28
1033.387	967.38
1033.675	937.09
1033.963	904.1
1034.251	928.28
1034.54	910.65
1034.828	922.41
1035.116	910.65
1035.403	891.67
1035.691	898
1035.979	897.32
1036.267	906.13
1036.554	891.67
1036.842	898.68
1037.129	864.33
1037.417	894.84
1037.704	864.1
1037.992	872.91
1038.279	867.04
1038.566	858
1038.853	858
1039.14	858
