Data from hue_24_FLMS001491_00013.txt Node
Date: Tue Feb 07 17:11:51 GMT 2017
User: dcchb
Spectrometer: FLMS00149
Trigger mode: 0
Integration Time (sec): 2.000000E-2
Scans to average: 10
Electric dark correction enabled: true
Nonlinearity correction enabled: false
Boxcar width: 0
XAxis mode: Wavelengths
Number of Pixels in Spectrum: 2048
>>>>>Begin Spectral Data<<<<<
341.393	-18.28
341.776	-18.28
342.16	-18.28
342.543	-66.64
342.927	-61.44
343.31	-49.69
343.693	-72.29
344.077	-67.54
344.46	-74.77
344.843	-49.46
345.226	-46.52
345.61	-13.76
345.993	-42.91
346.376	-8.33
346.759	2.06
347.142	33.47
347.525	40.25
347.908	80.48
348.291	59.46
348.674	97.65
349.057	111.89
349.44	103.53
349.823	129.29
350.206	158.44
350.588	210.87
350.971	231.43
351.354	247.25
351.737	249.06
352.119	275.05
352.502	262.85
352.884	271.89
353.267	274.6
353.65	294.48
354.032	313.69
354.414	309.4
354.797	321.6
355.179	345.33
355.562	347.14
355.944	347.82
356.326	338.78
356.709	342.39
357.091	335.84
357.473	360.02
357.855	357.31
358.238	334.48
358.62	353.01
359.002	349.62
359.384	347.59
359.766	351.43
360.148	366.35
360.53	340.58
360.912	339.23
361.294	355.95
361.676	329.51
362.057	342.17
362.439	349.62
362.821	334.03
363.203	337.19
363.584	338.55
363.966	331.54
364.348	345.33
364.729	330.64
365.111	336.52
365.493	333.35
365.874	337.19
366.256	323.64
366.637	330.42
367.019	318.89
367.4	323.64
367.781	323.18
368.163	341.04
368.544	345.78
368.925	321.6
369.306	311.88
369.688	338.1
370.069	320.7
370.45	339.68
370.831	322.73
371.212	348.49
371.593	340.36
371.974	313.92
372.355	339.23
372.736	337.65
373.117	328.83
373.498	326.8
373.879	322.05
374.26	315.73
374.641	317.08
375.021	303.52
375.402	327.93
375.783	345.33
376.163	321.38
376.544	343.52
376.925	333.13
377.305	338.78
377.686	342.84
378.066	328.61
378.447	328.61
378.827	324.77
379.208	334.48
379.588	354.6
379.968	341.94
380.349	361.37
380.729	351.88
381.109	337.65
381.489	352.56
381.87	354.14
382.25	352.34
382.63	346.69
383.01	364.09
383.39	348.49
383.77	351.21
384.15	369.51
384.53	360.92
384.91	352.79
385.29	380.13
385.67	342.84
386.049	377.19
386.429	366.12
386.809	355.5
387.189	383.75
387.568	337.19
387.948	365.89
388.328	350.75
388.707	355.5
389.087	357.08
389.466	372.67
389.846	389.85
390.225	373.35
390.605	379.45
390.984	375.16
391.363	386.91
391.743	389.4
392.122	382.84
392.501	400.02
392.881	420.58
393.26	392.11
393.639	392.11
394.018	394.14
394.397	410.86
394.776	378.78
395.155	377.87
395.534	383.07
395.913	398.66
396.292	421.26
396.671	414.03
397.05	406.57
397.429	429.62
397.808	421.03
398.186	412.22
398.565	423.07
398.944	391.43
399.323	407.93
399.701	449.28
400.08	425.33
400.458	425.33
400.837	418.1
401.215	414.48
401.594	428.27
401.972	440.92
402.351	419.68
402.729	442.73
403.107	435.05
403.486	434.82
403.864	418.77
404.242	439.34
404.62	450.19
404.999	426.01
405.377	416.06
405.755	442.28
406.133	440.02
406.511	479.79
406.889	450.41
407.267	458.55
407.645	435.05
408.023	478.66
408.401	468.26
408.779	471.65
409.156	480.92
409.534	499.9
409.912	458.1
410.29	466.68
410.667	476.63
411.045	473.24
411.422	484.99
411.8	497.42
412.178	492.22
412.555	494.25
412.933	490.41
413.31	500.81
413.687	488.83
414.065	518.66
414.442	527.92
414.819	508.94
415.197	536.06
415.574	505.33
415.951	536.06
416.328	540.35
416.705	509.17
417.082	516.17
417.46	521.6
417.837	545.1
418.214	545.1
418.591	546.23
418.967	559.34
419.344	560.24
419.721	582.39
420.098	566.79
420.475	563.18
420.852	584.19
421.228	577.87
421.605	567.7
421.982	555.49
422.358	595.49
422.735	575.38
423.111	578.32
423.488	594.59
423.864	602.95
424.241	612.89
424.617	596.4
424.994	612.22
425.37	601.14
425.746	603.18
426.123	614.48
426.499	631.88
426.875	620.8
427.251	617.19
427.627	638.43
428.003	630.52
428.379	654.7
428.756	653.34
429.132	659.9
429.507	648.37
429.883	677.52
430.259	659.67
430.635	672.1
431.011	664.42
431.387	701.7
431.763	699.22
432.138	672.1
432.514	708.48
432.89	695.6
433.265	713.46
433.641	746.68
434.016	706.9
434.392	738.09
434.767	753
435.143	756.62
435.518	750.29
435.894	788.03
436.269	767.69
436.644	767.47
437.02	774.7
437.395	803.17
437.77	777.86
438.145	786.22
438.52	802.49
438.895	813.34
439.271	803.62
439.646	833.45
440.021	826.67
440.395	830.74
440.77	838.88
441.145	854.7
441.52	824.19
441.895	859.44
442.27	853.79
442.645	856.73
443.019	866.45
443.394	888.14
443.769	861.47
444.143	866.22
444.518	900.12
444.892	893.11
445.267	877.07
445.641	889.27
446.016	918.87
446.39	906.9
446.764	932.66
447.139	928.59
447.513	952.09
447.887	921.36
448.262	910.96
448.636	928.82
449.01	961.36
449.384	955.94
449.758	939.44
450.132	974.69
450.506	948.7
450.88	986.67
451.254	981.47
451.628	978.99
452.002	991.87
452.376	1016.72
452.75	1021.24
453.123	1030.06
453.497	1032.32
453.871	1040
454.244	1069.83
454.618	1056.72
454.992	1086.55
455.365	1068.25
455.739	1091.52
456.112	1110.51
456.486	1154.35
456.859	1139.21
457.232	1139.21
457.606	1147.34
457.979	1171.3
458.352	1161.35
458.725	1195.03
459.099	1174.01
459.472	1218.98
459.845	1247
460.218	1231.41
460.591	1260.11
460.964	1246.32
461.337	1278.41
461.71	1291.52
462.083	1315.93
462.456	1318.86
462.829	1332.42
463.201	1344.63
463.574	1353.89
463.947	1352.31
464.32	1406.09
464.692	1375.59
465.065	1409.93
465.438	1445.64
465.81	1455.58
466.183	1477.5
466.555	1498.29
466.928	1520.21
467.3	1515.02
467.672	1554.11
468.045	1541.68
468.417	1605.86
468.789	1565.64
469.161	1597.5
469.534	1620.32
469.906	1667.1
470.278	1666.43
470.65	1675.24
471.022	1725.86
471.394	1745.75
471.766	1749.81
472.138	1801.11
472.51	1825.97
472.882	1843.14
473.253	1888.57
473.625	1896.7
473.997	1936.25
474.369	1971.73
474.74	1988
475.112	2047.88
475.484	2069.13
475.855	2127.66
476.227	2130.82
476.598	2195.22
476.97	2213.98
477.341	2230.7
477.713	2292.85
478.084	2318.84
478.455	2387.08
478.827	2393.86
479.198	2472.28
479.569	2479.74
479.94	2561.77
480.311	2582.33
480.682	2661.88
481.053	2706.17
481.424	2763.12
481.795	2774.42
482.166	2845.6
482.537	2860.97
482.908	2934.19
483.279	3036.33
483.65	3032.94
484.021	3096.44
484.391	3136.44
484.762	3197.68
485.133	3217.12
485.503	3253.28
485.874	3347.74
486.244	3396.55
486.615	3454.85
486.985	3532.82
487.356	3578.47
487.726	3604.91
488.097	3729.42
488.467	3710.44
488.837	3788.4
489.207	3834.73
489.578	3886.03
489.948	3952.47
490.318	4017.78
490.688	4075.18
491.058	4088.73
491.428	4143.65
491.798	4243.31
492.168	4336.64
492.538	4347.26
492.908	4427.71
493.278	4504.32
493.648	4477.88
494.017	4522.85
494.387	4601.94
494.757	4625.9
495.126	4677.19
495.496	4728.72
495.866	4751.99
496.235	4799.45
496.605	4879.45
496.974	4895.27
497.344	4984.3
497.713	4990.41
498.082	5017.3
498.452	5062.04
498.821	5106.11
499.19	5127.35
499.559	5172.1
499.928	5280.34
500.298	5235.37
500.667	5319.44
501.036	5310.17
501.405	5316.95
501.774	5365.76
502.143	5436.04
502.512	5442.6
502.88	5468.13
503.249	5483.95
503.618	5574.8
503.987	5588.13
504.356	5596.04
504.724	5664.29
505.093	5653.66
505.462	5733.66
505.83	5714
506.199	5791.97
506.567	5817.28
506.936	5840.33
507.304	5928.69
507.672	5946.31
508.041	5994.22
508.409	5995.35
508.777	6011.62
509.145	6042.36
509.514	6029.47
509.882	6080.09
510.25	6100.88
510.618	6165.29
510.986	6235.57
511.354	6204.61
511.722	6274.44
512.09	6286.19
512.458	6362.35
512.826	6320.31
513.193	6367.32
513.561	6412.29
513.929	6449.58
514.297	6528.67
514.664	6520.08
515.032	6535.22
515.4	6619.29
515.767	6668.1
516.135	6694.77
516.502	6621.55
516.869	6761.66
517.237	6690.7
517.604	6721.43
517.972	6759.4
518.339	6790.58
518.706	6805.5
519.073	6814.31
519.44	6872.39
519.808	6983.12
520.175	6925.95
520.542	7023.12
520.909	7046.4
521.276	7029.22
521.643	7062.22
522.009	7117.13
522.376	7171.82
522.743	7234.41
523.11	7285.03
523.477	7294.98
523.843	7312.6
524.21	7407.74
524.577	7447.97
524.943	7503.56
525.31	7583.56
525.676	7659.49
526.043	7674.85
526.409	7629.21
526.776	7731.8
527.142	7746.49
527.508	7850.22
527.874	7801.86
528.241	7837.11
528.607	7891.57
528.973	7961.85
529.339	7936.77
529.705	8062.42
530.071	8078.69
530.437	8166.37
530.803	8174.28
531.169	8216.99
531.535	8226.93
531.901	8221.73
532.267	8297.89
532.632	8336.31
532.998	8343.99
533.364	8385.8
533.73	8425.57
534.095	8501.95
534.461	8522.29
534.826	8588.28
535.192	8579.46
535.557	8673.25
535.923	8675.96
536.288	8708.73
536.653	8710.99
537.019	8692.23
537.384	8799.12
537.749	8830.53
538.114	8845.22
538.479	8875.28
538.845	8927.03
539.21	8870.76
539.575	8965.22
539.94	9063.29
540.305	9081.37
540.67	9043.86
541.034	9106.46
541.399	9185.1
541.764	9162.05
542.129	9242.5
542.494	9273
542.858	9294.7
543.223	9319.78
543.587	9362.95
543.952	9365.21
544.316	9373.79
544.681	9416.5
545.045	9455.6
545.41	9554.13
545.774	9586.44
546.138	9579.21
546.503	9619.89
546.867	9586.89
547.231	9708.47
547.595	9715.93
547.959	9761.81
548.324	9789.15
548.688	9754.8
549.052	9914.12
549.416	9840.45
549.779	9913.67
550.143	9920.22
550.507	10089.48
550.871	10021.23
551.235	10041.35
551.599	10186.43
551.962	10109.59
552.326	10116.6
552.689	10181.68
553.053	10190.95
553.417	10272.3
553.78	10400.66
554.143	10300.1
554.507	10366.99
554.87	10453.09
555.234	10516.81
555.597	10479.53
555.96	10442.24
556.323	10603.82
556.686	10562.01
557.05	10534.44
557.413	10572.18
557.776	10660.76
558.139	10734.44
558.502	10677.26
558.865	10758.62
559.228	10896.92
559.59	10842.46
559.953	10851.04
560.316	10907.99
560.679	10961.32
561.041	11019.4
561.404	11044.48
561.767	11090.13
562.129	10994.32
562.492	11243.35
562.854	11201.54
563.217	11183.24
563.579	11217.36
563.941	11293.29
564.304	11334.65
564.666	11396.11
565.028	11395.89
565.39	11434.76
565.753	11516.79
566.115	11637.01
566.477	11643.79
566.839	11640.63
567.201	11750.91
567.563	11755.43
567.925	11837.68
568.287	11796.55
568.648	11912.94
569.01	11956.55
569.372	12018.24
569.734	11980.73
570.095	12080.84
570.457	12025.02
570.819	12181.63
571.18	12122.2
571.542	12266.15
571.903	12262.76
572.265	12369.42
572.626	12329.42
572.987	12440.38
573.349	12496.65
573.71	12585.91
574.071	12674.72
574.432	12701.84
574.794	12797.88
575.155	12795.17
575.516	12752.69
575.877	12919.01
576.238	12975.96
576.599	13071.1
576.96	13082.17
577.32	13202.17
577.681	13381.37
578.042	13407.59
578.403	13514.25
578.763	13530.75
579.124	13631.53
579.485	13826.78
579.845	13935.26
580.206	14117.17
580.566	14052.54
580.927	14248.24
581.287	14389.48
581.648	14552.19
582.008	14703.6
582.368	14877.83
582.728	14979.52
583.089	15090.93
583.449	15278.04
583.809	15384.93
584.169	15586.51
584.529	15741.31
584.889	15989.66
585.249	16216.78
585.609	16297.23
585.969	16656.77
586.329	16688.63
586.688	16986.93
587.048	17292
587.408	17481.83
587.768	17679.56
588.127	17796.85
588.487	18145.31
588.846	18474.34
589.206	18560.67
589.565	18868.91
589.925	19153.65
590.284	19470.93
590.643	19699.62
591.003	20042.44
591.362	20391.58
591.721	20625.93
592.08	20889.2
592.44	21189.53
592.799	21434.94
593.158	21715.84
593.517	22069.96
593.876	22405.77
594.235	22610.51
594.593	23004.62
594.952	23353.31
595.311	23528.45
595.67	23888.89
596.029	24340.63
596.387	24485.26
596.746	24952.82
597.104	25098.13
597.463	25431.68
597.822	25815.39
598.18	25916.18
598.538	26386.68
598.897	26781.02
599.255	26807.46
599.613	27507.78
599.972	27608.12
600.33	27991.83
600.688	28217.59
601.046	28592.27
601.404	28891.92
601.762	29191.58
602.12	29627.5
602.478	29843.31
602.836	30235.39
603.194	30217.99
603.552	30783.63
603.91	30833.79
604.268	31240.79
604.625	31478.07
604.983	31826.99
605.341	32051.16
605.698	32305.39
606.056	32624.71
606.413	32833.97
606.771	33222.88
607.128	33459.49
607.485	33438.02
607.843	33859.02
608.2	34121.39
608.557	34571.1
608.914	34634.37
609.272	35000.92
609.629	35286.33
609.986	35640
610.343	35609.94
610.7	36058.52
611.057	36251.96
611.414	36294.89
611.771	36744.37
612.127	36976.68
612.484	37122.44
612.841	37267.97
613.198	37340.52
613.554	37489.89
613.911	37951.57
614.267	38097.11
614.624	38203.77
614.98	38217.33
615.337	38758.11
615.693	38775.73
616.05	38943.41
616.406	39353.57
616.762	39342.95
617.118	39476.96
617.475	39687.8
617.831	39850.28
618.187	40191.74
618.543	40287.1
618.899	40560.32
619.255	40614.78
619.611	40690.71
619.967	40946.97
620.323	41183.58
620.678	40994.88
621.034	40967.09
621.39	41258.6
621.746	41412.95
622.101	41697.91
622.457	41567.07
622.812	41648.65
623.168	41986.04
623.523	41924.12
623.879	42333.15
624.234	42042.09
624.589	42220.39
624.945	42311.46
625.3	42497.67
625.655	42606.59
626.01	42580.83
626.365	42892.01
626.72	42855.4
627.075	42782.63
627.43	42733.37
627.785	42827.6
628.14	42996.64
628.495	43050.65
628.85	43070.76
629.205	42966.58
629.559	43339.91
629.914	43234.15
630.269	43361.37
630.623	43170.64
630.978	43181.04
631.332	43458.32
631.687	43582.84
632.041	43400.92
632.396	43368.61
632.75	43304.2
633.104	43609.28
633.459	43364.99
633.813	43381.03
634.167	43539.9
634.521	43524.99
634.875	43604.08
635.229	43449.28
635.583	43401.15
635.937	43411.09
636.291	43467.81
636.645	43385.1
636.999	43393.46
637.352	43591.65
637.706	43337.87
638.06	43636.17
638.413	43478.89
638.767	43399.79
639.121	43670.07
639.474	43355.27
639.828	43274.6
640.181	43550.75
640.534	43453.57
640.888	43287.03
641.241	43324.09
641.594	43284.31
641.947	43529.05
642.301	43431.2
642.654	43476.17
643.007	43502.84
643.36	43483.18
643.713	43396.4
644.066	43569.5
644.419	43205.45
644.771	43117.99
645.124	42661.51
645.477	42638.68
645.83	42449.53
646.182	42370.21
646.535	42158.47
646.888	42311.23
647.24	42141.07
647.593	42332.93
647.945	42254.28
648.298	42160.05
648.65	41916.44
649.002	42006.38
649.355	42142.87
649.707	42115.31
650.059	42370.44
650.411	42814.5
650.763	42897.88
651.115	43144.66
651.467	42970.88
651.819	42958.22
652.171	42833.48
652.523	42841.39
652.875	42836.87
653.227	42738.79
653.578	43052.91
653.93	42941.95
654.282	42751.22
654.633	42757.77
654.985	42899.69
655.337	43004.1
655.688	42867.6
656.039	42967.03
656.391	42602.52
656.742	42733.59
657.094	42679.13
657.445	42900.6
657.796	42911.22
658.147	42733.37
658.498	42655.4
658.849	42749.64
659.2	42685.46
659.551	42542.41
659.902	42694.72
660.253	42753.03
660.604	42753.03
660.955	42560.04
661.306	42649.75
661.656	42617.89
662.007	42581.73
662.358	42727.49
662.708	42630.55
663.059	42653.6
663.409	42297.22
663.76	42559.36
664.11	42707.83
664.461	42715.97
664.811	42638
665.161	42515.29
665.511	42606.37
665.862	42697.66
666.212	42506.71
666.562	42661.73
666.912	42463.09
667.262	42485.24
667.612	42602.98
667.962	42733.59
668.312	42544.45
668.662	42785.8
669.011	42573.6
669.361	42432.81
669.711	42422.42
670.06	42484.79
670.41	42392.13
670.76	42233.95
671.109	42464
671.459	42268.97
671.808	42386.71
672.157	42438.01
672.507	42187.85
672.856	42154.85
673.205	42212.48
673.554	42338.8
673.904	42233.49
674.253	42324.57
674.602	42236.66
674.951	41738.37
675.3	41600.74
675.649	42081.41
675.998	42152.14
676.346	42166.38
676.695	42272.36
677.044	41951.47
677.393	42191.91
677.741	42116.66
678.09	42069.88
678.438	41960.05
678.787	42021.07
679.135	42104.46
679.484	41927.06
679.832	42018.58
680.181	41704.92
680.529	41887.29
680.877	41642.32
681.225	41656.79
681.573	41900.4
681.922	41660.85
682.27	41485.94
682.618	41409.33
682.966	41317.59
683.314	41546.28
683.661	41287.3
684.009	41276.91
684.357	41157.59
684.705	41113.98
685.053	41071.72
685.4	40988.1
685.748	40728.9
686.095	40894.32
686.443	40812.29
686.79	40737.26
687.138	40771.84
687.485	40674.89
687.832	40583.37
688.18	40603.25
688.527	40307.44
688.874	40394.22
689.221	40422.02
689.568	40268.8
689.915	40140.89
690.262	40162.81
690.609	39996.04
690.956	39913.78
691.303	39834.91
691.65	39690.28
691.997	39615.26
692.344	39380.01
692.69	39416.39
693.037	39372.55
693.383	39114.93
693.73	39248.49
694.077	39058.89
694.423	38945.22
694.769	38955.84
695.116	38788.61
695.462	38791.1
695.808	38731.21
696.155	38648.05
696.501	38313.82
696.847	38588.39
697.193	38194.96
697.539	38448.51
697.885	38010.55
698.231	38126.26
698.577	38136.65
698.923	37905.7
699.269	37725.82
699.614	37686.49
699.96	37651.24
700.306	37633.84
700.651	37431.36
700.997	37430.23
701.342	37447.86
701.688	37286.73
702.033	37255.32
702.379	37053.29
702.724	36979.85
703.069	37136.23
703.415	36726.29
703.76	36759.74
704.105	36690.14
704.45	36722.23
704.795	36369.47
705.14	36418.05
705.485	36337.38
705.83	36183.94
706.175	36127.44
706.52	36108.01
706.865	35966.99
707.209	35952.98
707.554	35791.63
707.899	35773.32
708.243	35501.69
708.588	35604.52
708.932	35271.19
709.277	35278.2
709.621	35261.93
709.966	35040.91
710.31	35267.8
710.654	34997.3
710.998	34956.17
711.342	34978.09
711.687	34779.23
712.031	34685.67
712.375	34477.99
712.719	34755.72
713.063	34742.39
713.407	34621.26
713.75	34521.61
714.094	34525.45
714.438	34464.66
714.782	34349.41
715.125	34157.77
715.469	34235.29
715.812	34065.8
716.156	33896.09
716.499	33896.54
716.843	33938.34
717.186	33763.66
717.53	33967.72
717.873	33917.78
718.216	33810.44
718.559	33632.82
718.902	33465.36
719.246	33539.71
719.589	33421.75
719.932	33290.68
720.275	33135.43
720.617	33213.39
720.96	33227.63
721.303	33225.37
721.646	33115.54
721.989	32944.02
722.331	33023.79
722.674	32874.87
723.016	32976.56
723.359	32819.73
723.701	32841.2
724.044	32752.39
724.386	32574.54
724.729	32690.24
725.071	32505.61
725.413	32514.2
725.755	32486.18
726.097	32342.68
726.439	32263.59
726.782	32217.03
727.124	32320.08
727.465	32183.81
727.807	32160.31
728.149	32025.85
728.491	32063.14
728.833	32105.85
729.175	32040.09
729.516	31869.25
729.858	31756.48
730.199	31889.13
730.541	31712.64
730.882	31865.18
731.224	31851.17
731.565	31717.16
731.906	31566.43
732.248	31694.56
732.589	31363.72
732.93	31395.13
733.271	31284.4
733.612	31457.51
733.953	31421.8
734.294	31134.8
734.635	31113.33
734.976	31230.62
735.317	30963.96
735.658	31026.56
735.999	31061.36
736.339	30963.96
736.68	31035.37
737.021	30984.98
737.361	30829.05
737.702	30951.53
738.042	30791.31
738.383	30701.82
738.723	30838.54
739.063	30791.99
739.404	30790.63
739.744	30618.66
740.084	30512.22
740.424	30559.68
740.764	30452.33
741.104	30578.43
741.444	30368.5
741.784	30303.86
742.124	30440.58
742.464	30362.62
742.804	30265.45
743.143	30328.27
743.483	30248.05
743.823	30076.07
744.162	29998.56
744.502	30164.66
744.841	30020.26
745.181	30229.52
745.52	30003.99
745.86	29919.02
746.199	29803.09
746.538	29751.79
746.877	29926.7
747.216	29899.13
747.556	29794.05
747.895	29703.2
748.234	29662.98
748.573	29650.1
748.911	29545.01
749.25	29527.16
749.589	29467.28
749.928	29604.67
750.267	29595.63
750.605	29516.77
750.944	29296.21
751.283	29228.19
751.621	29489.2
751.96	29046.27
752.298	29112.71
752.636	29179.83
752.975	28946.84
753.313	29003.11
753.651	29086.5
753.989	28907.29
754.327	28896.44
754.666	28663.91
755.004	28782.32
755.342	28792.27
755.679	28749.78
756.017	28445.16
756.355	28522.67
756.693	28447.87
757.031	28531.48
757.368	28393.41
757.706	28380.07
758.044	28198.38
758.381	28148.67
758.719	28067.54
759.056	28172.39
759.394	28040.42
759.731	27802.46
760.068	27839.52
760.405	27838.39
760.743	27708.45
761.08	27735.57
761.417	27625.74
761.754	27496.25
762.091	27557.72
762.428	27451.74
762.765	27158.41
763.102	27385.52
763.438	27245.87
763.775	27060.33
764.112	27211.06
764.449	26994.57
764.785	26999.09
765.122	26839.55
765.458	26637.07
765.795	26720
766.131	26578.54
766.467	26518.43
766.804	26354.82
767.14	26200.24
767.476	26378.32
767.812	26138.55
768.148	26149.4
768.485	25993.92
768.821	25815.62
769.157	25754.15
769.492	25644.33
769.828	25740.37
770.164	25512.8
770.5	25479.58
770.836	25370.89
771.171	25219.7
771.507	25258.57
771.842	25065.58
772.178	25057.67
772.513	25028.52
772.849	24859.49
773.184	24795.99
773.519	24733.16
773.855	24664.01
774.19	24559.38
774.525	24464.02
774.86	24544.92
775.195	24475.09
775.53	24273.51
775.865	24165.49
776.2	23969.34
776.535	23860.42
776.87	23928.66
777.205	23816.58
777.539	23661.78
777.874	23660.65
778.209	23427.43
778.543	23490.26
778.878	23311.96
779.212	23325.29
779.547	23184.73
779.881	23179.53
780.215	22977.96
780.55	23036.26
780.884	22961.91
781.218	22789.26
781.552	22878.3
781.886	22713.78
782.22	22601.69
782.554	22581.81
782.888	22323.28
783.222	22222.95
783.556	22229.05
783.889	22154.47
784.223	22081.26
784.557	21928.94
784.89	21962.61
785.224	21789.29
785.557	21695.73
785.891	21605.56
786.224	21492.12
786.558	21608.05
786.891	21448.05
787.224	21445.79
787.557	21258.9
787.891	21220.94
788.224	21220.94
788.557	21112.02
788.89	21010.78
789.223	20976.65
789.556	20953.15
789.888	20805.36
790.221	20698.24
790.554	20621.86
790.887	20517.68
791.219	20500.96
791.552	20538.92
791.884	20309.1
792.217	20312.04
792.549	20234.98
792.882	20093.06
793.214	20117.92
793.546	20043.12
793.879	19991.82
794.211	19876.34
794.543	19872.73
794.875	19820.75
795.207	19784.14
795.539	19788.21
795.871	19790.69
796.203	19524.94
796.535	19441.55
796.867	19436.13
797.198	19331.72
797.53	19288.56
797.862	19159.75
798.193	19239.97
798.525	19059.64
798.856	19061
799.188	18896.48
799.519	18809.48
799.85	18821.45
800.182	18804.05
800.513	18785.75
800.844	18543.95
801.175	18664.85
801.506	18580.56
801.837	18474.57
802.168	18369.04
802.499	18403.16
802.83	18272.54
803.161	18347.34
803.491	18197.29
803.822	18282.94
804.153	18180.12
804.483	18024.64
804.814	17969.5
805.145	17873.23
805.475	17912.78
805.805	17821.25
806.136	17774.25
806.466	17680.47
806.796	17739
807.126	17598.66
807.457	17596.18
807.787	17513.01
808.117	17466.69
808.447	17398.89
808.777	17531.77
809.107	17353.47
809.436	17382.4
809.766	17284.77
810.096	17200.93
810.426	17134.94
810.755	17208.39
811.085	17104.21
811.414	17029.64
811.744	16912.13
812.073	16938.57
812.403	16898.57
812.732	16835.97
813.061	16798.68
813.39	16690.21
813.719	16696.99
814.049	16572.7
814.378	16568.86
814.707	16536.32
815.036	16598.01
815.365	16376.55
815.693	16355.98
816.022	16386.72
816.351	16304.46
816.68	16272.82
817.008	16286.38
817.337	16111.47
817.665	16050
817.994	16090
818.322	16058.82
818.651	15976.56
818.979	15931.59
819.307	16025.14
819.636	15913.73
819.964	15865.6
820.292	15914.86
820.62	15907.86
820.948	15837.13
821.276	15850.01
821.604	15783.79
821.932	15831.25
822.259	15796.68
822.587	15846.17
822.915	15754.19
823.243	15795.55
823.57	15725.04
823.898	15796.22
824.225	15690.92
824.553	15641.2
824.88	15731.14
825.207	15792.83
825.535	15770.24
825.862	15785.15
826.189	15694.76
826.516	15760.29
826.843	15736.11
827.17	15688.2
827.497	15748.31
827.824	15762.78
828.151	15755.09
828.478	15755.32
828.805	15766.62
829.131	15694.53
829.458	15773.62
829.785	15605.49
830.111	15662.67
830.438	15729.11
830.764	15725.72
831.09	15647.98
831.417	15607.98
831.743	15692.95
832.069	15724.81
832.395	15580.86
832.722	15680.75
833.048	15631.93
833.374	15591.03
833.7	15544.93
834.026	15551.94
834.351	15645.94
834.677	15557.81
835.003	15626.28
835.329	15507.42
835.654	15501.32
835.98	15427.19
836.306	15466.74
836.631	15353.52
836.956	15445.72
837.282	15430.81
837.607	15314.65
837.932	15306.74
838.258	15232.85
838.583	15275.11
838.908	15229.68
839.233	15218.61
839.558	15198.72
839.883	15133.19
840.208	15057.03
840.533	15023.14
840.858	15003.7
841.182	15030.59
841.507	15043.02
841.832	15015.9
842.156	15014.55
842.481	14896.13
842.805	14831.28
843.13	14811.16
843.454	14785.63
843.778	14692.98
844.103	14706.53
844.427	14695.01
844.751	14606.65
845.075	14595.58
845.399	14680.32
845.723	14440.1
846.047	14530.04
846.371	14442.36
846.695	14406.88
847.019	14273.78
847.343	14325.75
847.666	14216.38
847.99	14095.25
848.313	14111.52
848.637	14004.18
848.96	13945.42
849.284	13897.74
849.607	13900.23
849.931	13802.38
850.254	13706.79
850.577	13640.57
850.9	13563.06
851.223	13505.44
851.546	13502.27
851.869	13373.69
852.192	13480.13
852.515	13442.61
852.838	13277.65
853.161	13279.23
853.483	13153.35
853.806	13162.85
854.129	13218.66
854.451	13081.72
854.774	12989.29
855.096	12923.98
855.419	12981.38
855.741	12963.98
856.063	12794.04
856.385	12913.14
856.708	12780.71
857.03	12784.1
857.352	12761.95
857.674	12698.23
857.996	12631.33
858.318	12600.15
858.64	12614.39
858.961	12497.78
859.283	12533.94
859.605	12382.98
859.926	12534.16
860.248	12479.02
860.57	12322.42
860.891	12355.86
861.212	12337.78
861.534	12307.28
861.855	12230.67
862.176	12167.39
862.498	12185.47
862.819	12147.51
863.14	12156.32
863.461	12116.77
863.782	12112.48
864.103	12109.99
864.424	12037.9
864.745	12045.59
865.065	11995.65
865.386	11936.89
865.707	11971.92
866.027	11933.5
866.348	11947.06
866.668	11905.7
866.989	11789.77
867.309	11799.27
867.63	11775.09
867.95	11737.35
868.27	11755.88
868.59	11759.95
868.91	11769.66
869.23	11726.27
869.55	11645.6
869.87	11709.1
870.19	11680.85
870.51	11718.14
870.83	11726.05
871.15	11581.42
871.469	11575.54
871.789	11608.31
872.109	11578.93
872.428	11509.56
872.748	11507.97
873.067	11478.82
873.386	11515.88
873.706	11446.28
874.025	11349.33
874.344	11346.17
874.663	11385.04
874.982	11366.96
875.301	11335.78
875.62	11362.22
875.939	11283.57
876.258	11362.22
876.577	11252.61
876.896	11274.31
877.214	11218.04
877.533	11219.39
877.852	11172.84
878.17	11200.64
878.489	11172.84
878.807	11068.89
879.125	11109.57
879.444	11099.85
879.762	11105.27
880.08	11112.28
880.398	11046.97
880.716	11015.56
881.034	11006.52
881.352	11002.45
881.67	10954.09
881.988	10972.4
882.306	10935.79
882.624	10869.57
882.941	10800.87
883.259	10757.49
883.577	10776.92
883.894	10758.84
884.212	10768.11
884.529	10783.25
884.846	10666.19
885.164	10681.56
885.481	10685.4
885.798	10687.66
886.115	10626.42
886.432	10658.05
886.75	10585.74
887.067	10664.61
887.383	10528.11
887.7	10573.99
888.017	10523.59
888.334	10508.9
888.651	10455.35
888.967	10389.59
889.284	10389.59
889.6	10277.27
889.917	10273.43
890.233	10326.31
890.55	10270.94
890.866	10199.99
891.182	10265.3
891.498	10242.02
891.815	10131.74
892.131	10089.93
892.447	10083.15
892.763	10022.14
893.079	10005.19
893.395	9960.22
893.71	9929.03
894.026	9924.97
894.342	9816.04
894.657	9829.37
894.973	9844.29
895.289	9751.41
895.604	9769.49
895.92	9721.58
896.235	9639.55
896.55	9652.66
896.865	9582.15
897.181	9673.45
897.496	9613.79
897.811	9600
898.126	9510.74
898.441	9489.04
898.756	9439.33
899.071	9384.19
899.386	9431.87
899.7	9376.28
900.015	9292.21
900.33	9240.46
900.644	9244.08
900.959	9254.25
901.273	9165.44
901.588	9169.28
901.902	9117.75
902.216	9069.17
902.531	9067.13
902.845	8986.23
903.159	8906.69
903.473	8908.04
903.787	8919.79
904.101	8814.71
904.415	8851.77
904.729	8796.86
905.042	8782.62
905.356	8756.86
905.67	8719.12
905.984	8681.83
906.297	8660.82
906.611	8668.05
906.924	8659.91
907.237	8565
907.551	8528.39
907.864	8511.44
908.177	8480.71
908.491	8453.37
908.804	8396.19
909.117	8325.69
909.43	8298.57
909.743	8289.53
910.056	8241.85
910.368	8252.47
910.681	8163.88
910.994	8169.98
911.307	8131.57
911.619	8092.92
911.932	8089.31
912.244	8018.35
912.557	8012.47
912.869	7946.49
913.181	7947.16
913.494	7859.71
913.806	7835.08
914.118	7805.92
914.43	7777.45
914.742	7740.16
915.054	7733.38
915.366	7689.77
915.678	7654.52
915.99	7598.47
916.302	7540.39
916.613	7569.09
916.925	7520.96
917.236	7503.56
917.548	7466.5
917.859	7465.59
918.171	7356.44
918.482	7381.53
918.794	7368.2
919.105	7325.26
919.416	7250.01
919.727	7274.41
920.038	7226.73
920.349	7103.12
920.66	7144.47
920.971	7167.07
921.282	7130.24
921.593	7093.63
921.903	6954.65
922.214	6980.64
922.525	6968.66
922.835	6931.6
923.146	6889.11
923.456	6874.88
923.767	6845.72
924.077	6829
924.387	6817.48
924.697	6781.54
925.008	6741.32
925.318	6699.51
925.628	6683.02
925.938	6689.57
926.248	6633.07
926.558	6626.52
926.867	6616.8
927.177	6538.16
927.487	6485.51
927.796	6473.98
928.106	6482.12
928.416	6484.6
928.725	6463.59
929.034	6373.19
929.344	6377.94
929.653	6351.5
929.962	6290.71
930.271	6272.63
930.581	6234.44
930.89	6212.29
931.199	6202.8
931.508	6180.66
931.817	6164.39
932.125	6128.23
932.434	6106.53
932.743	6094.11
933.051	5949.7
933.36	5989.93
933.669	5964.62
933.977	5953.77
934.286	5945.18
934.594	5953.32
934.902	5898.18
935.21	5839.87
935.519	5841.68
935.827	5801.01
936.135	5817.73
936.443	5738.18
936.751	5741.57
937.059	5719.2
937.367	5694.34
937.674	5711.29
937.982	5667.45
938.29	5623.38
938.597	5657.73
938.905	5543.39
939.213	5503.16
939.52	5522.82
939.827	5509.04
940.135	5445.31
940.442	5419.32
940.749	5434.91
941.056	5388.36
941.363	5374.8
941.67	5328.7
941.977	5329.15
942.284	5280.79
942.591	5283.96
942.898	5289.38
943.205	5295.71
943.511	5171.19
943.818	5133
944.125	5128.48
944.431	5130.74
944.738	5146.79
945.044	5123.96
945.35	5093.91
945.657	5068.14
945.963	5010.97
946.269	5003.06
946.575	5039.44
946.881	5008.71
947.187	4958.09
947.493	4922.38
947.799	4892.55
948.105	4878.32
948.41	4867.7
948.716	4836.51
949.022	4786.34
949.327	4779.11
949.633	4763.29
949.938	4739.34
950.244	4761.26
950.549	4688.72
950.854	4689.17
951.16	4657.76
951.465	4656.85
951.77	4622.73
952.075	4623.41
952.38	4569.4
952.685	4614.14
952.99	4549.06
953.294	4539.34
953.599	4507.48
953.904	4486.01
954.209	4455.5
954.513	4441.95
954.818	4446.24
955.122	4415.28
955.426	4427.93
955.731	4447.14
956.035	4368.27
956.339	4337.99
956.643	4310.42
956.948	4285.79
957.252	4272.01
957.556	4233.59
957.86	4244.89
958.163	4244.21
958.467	4246.24
958.771	4218.67
959.075	4176.87
959.378	4149.98
959.682	4140.71
959.985	4127.15
960.289	4099.36
960.592	4100.49
960.896	4026.82
961.199	4064.55
961.502	4061.39
961.805	3989.08
962.108	4024.33
962.411	3994.95
962.714	3934.84
963.017	3936.2
963.32	3975.74
963.623	3911.56
963.926	3843.09
964.228	3892.36
964.531	3858.23
964.833	3883.54
965.136	3811.45
965.438	3776.65
965.741	3791.12
966.043	3774.39
966.345	3775.97
966.648	3745.92
966.95	3800.15
967.252	3742.75
967.554	3671.34
967.856	3640.16
968.158	3658.01
968.46	3670.21
968.761	3619.82
969.063	3632.48
969.365	3613.94
969.666	3563.32
969.968	3559.93
970.269	3534.17
970.571	3507.28
970.872	3573.95
971.174	3503.21
971.475	3488.07
971.776	3476.1
972.077	3469.54
972.378	3442.88
972.679	3420.5
972.98	3454.17
973.281	3410.11
973.582	3388.87
973.883	3370.11
974.183	3370.79
974.484	3345.03
974.785	3323.56
975.085	3338.02
975.386	3333.73
975.686	3351.58
975.986	3285.14
976.287	3259.15
976.587	3212.83
976.887	3223.22
977.187	3228.87
977.487	3233.84
977.787	3160.85
978.087	3170.34
978.387	3156.78
978.687	3166.27
978.987	3121.75
979.286	3142.54
979.586	3109.55
979.885	3110.23
980.185	3055.77
980.484	3040.85
980.784	3054.41
981.083	3063
981.382	3041.3
981.682	3001.31
981.981	3012.83
982.28	2992.04
982.579	2975.32
982.878	2952.27
983.177	2977.58
983.475	2920.63
983.774	2944.58
984.073	2866.17
984.372	2888.09
984.67	2903.68
984.969	2859.84
985.267	2879.5
985.566	2816.9
985.864	2818.71
986.162	2812.38
986.461	2769.45
986.759	2788.2
987.057	2763.35
987.355	2727.87
987.653	2724.02
987.951	2737.58
988.249	2732.84
988.547	2704.14
988.844	2724.48
989.142	2704.82
989.44	2655.78
989.737	2663.46
990.035	2641.77
990.332	2643.57
990.63	2667.75
990.927	2655.33
991.224	2614.87
991.521	2606.97
991.819	2587.98
992.116	2566.29
992.413	2546.4
992.71	2551.15
993.006	2528.78
993.303	2500.08
993.6	2503.69
993.897	2515.67
994.193	2516.12
994.49	2467.76
994.787	2443.35
995.083	2469.12
995.379	2435.22
995.676	2397.71
995.972	2411.26
996.268	2397.71
996.565	2363.13
996.861	2371.94
997.157	2349.12
997.453	2356.12
997.749	2344.15
998.044	2308.44
998.34	2324.49
998.636	2322.45
998.932	2333.07
999.227	2270.93
999.523	2258.95
999.818	2298.05
1000.114	2241.33
1000.409	2233.19
1000.704	2221.21
1001	2225.28
1001.295	2182.12
1001.59	2225.51
1001.885	2193.87
1002.18	2171.27
1002.475	2147.77
1002.77	2130.59
1003.065	2136.7
1003.359	2097.6
1003.654	2133.08
1003.949	2128.56
1004.243	2074.32
1004.538	2084.04
1004.832	2066.41
1005.127	2036.58
1005.421	2031.39
1005.715	2021.44
1006.009	2012.86
1006.304	2023.25
1006.598	1978.51
1006.892	1978.73
1007.186	1964.72
1007.48	1969.47
1007.773	1915.91
1008.067	1938.73
1008.361	1917.49
1008.655	1896.93
1008.948	1889.7
1009.242	1890.15
1009.535	1915.68
1009.829	1900.09
1010.122	1866.87
1010.415	1849.92
1010.708	1841.11
1011.001	1824.39
1011.295	1836.14
1011.588	1796.37
1011.881	1779.64
1012.173	1807.21
1012.466	1779.64
1012.759	1725.18
1013.052	1774.9
1013.344	1787.78
1013.637	1738.97
1013.93	1751.39
1014.222	1733.77
1014.514	1715.92
1014.807	1717.95
1015.099	1707.55
1015.391	1696.48
1015.683	1698.29
1015.976	1648.57
1016.268	1637.5
1016.56	1644.05
1016.851	1601.57
1017.143	1654
1017.435	1632.98
1017.727	1598.86
1018.018	1599.08
1018.31	1567.9
1018.602	1587.78
1018.893	1579.65
1019.185	1574.45
1019.476	1562.7
1019.767	1552.53
1020.058	1544.62
1020.35	1503.72
1020.641	1503.49
1020.932	1462.14
1021.223	1477.05
1021.514	1481.12
1021.804	1477.05
1022.095	1461.46
1022.386	1448.8
1022.677	1447.45
1022.967	1441.8
1023.258	1427.79
1023.548	1418.07
1023.839	1383.72
1024.129	1381.69
1024.419	1387.79
1024.709	1352.76
1025	1370.61
1025.29	1322.93
1025.58	1351.63
1025.87	1321.8
1026.16	1343.27
1026.449	1320.67
1026.739	1308.24
1027.029	1308.69
1027.319	1303.27
1027.608	1296.72
1027.898	1300.56
1028.187	1267.79
1028.477	1252.65
1028.766	1263.5
1029.055	1244.97
1029.344	1220.56
1029.634	1235.93
1029.923	1242.03
1030.212	1235.02
1030.501	1208.58
1030.79	1203.16
1031.078	1175.82
1031.367	1173.1
1031.656	1202.03
1031.945	1173.1
1032.233	1160.68
1032.522	1139.43
1032.81	1152.77
1033.099	1129.04
1033.387	1152.31
1033.675	1108.93
1033.963	1114.8
1034.251	1125.87
1034.54	1094.46
1034.828	1107.57
1035.116	1081.13
1035.403	1081.81
1035.691	1069.38
1035.979	1070.28
1036.267	1042.49
1036.554	1056.72
1036.842	1045.65
1037.129	1020.11
1037.417	1018.31
1037.704	999.55
1037.992	1009.04
1038.279	1007.46
1038.566	1000
1038.853	1000
1039.14	1000
