Data from hue_120_FLMS001491_00001.txt Node
Date: Tue Feb 07 16:58:50 GMT 2017
User: dcchb
Spectrometer: FLMS00149
Trigger mode: 0
Integration Time (sec): 2.000000E-2
Scans to average: 10
Electric dark correction enabled: true
Nonlinearity correction enabled: false
Boxcar width: 0
XAxis mode: Wavelengths
Number of Pixels in Spectrum: 2048
>>>>>Begin Spectral Data<<<<<
341.393	-42.95
341.776	-42.95
342.16	-42.95
342.543	-71.2
342.927	-93.35
343.31	-67.13
343.693	-79.79
344.077	-61.48
344.46	-64.65
344.843	-51.31
345.226	-35.04
345.61	-10.86
345.993	-25.78
346.376	2.02
346.759	12.19
347.142	46.09
347.525	21.68
347.908	60.78
348.291	65.52
348.674	90.6
349.057	97.16
349.44	126.31
349.823	129.02
350.206	164.95
350.588	192.98
350.971	214.9
351.354	209.7
351.737	236.59
352.119	252.63
352.502	236.59
352.884	284.5
353.267	283.82
353.65	290.37
354.032	283.37
354.414	318.85
354.797	303.71
355.179	324.95
355.562	330.37
355.944	324.72
356.326	340.09
356.709	329.02
357.091	328.79
357.473	340.54
357.855	323.82
358.238	346.64
358.62	348.45
359.002	336.02
359.384	341.22
359.766	352.07
360.148	352.29
360.53	351.84
360.912	352.74
361.294	334.44
361.676	325.4
362.057	331.28
362.439	348.68
362.821	313.88
363.203	334.21
363.584	339.41
363.966	320.2
364.348	309.81
364.729	333.31
365.111	321.79
365.493	319.53
365.874	317.72
366.256	312.97
366.637	308
367.019	338.28
367.4	317.27
367.781	329.47
368.163	297.83
368.544	316.36
368.925	314.78
369.306	331.5
369.688	309.81
370.069	320.66
370.45	318.4
370.831	322.46
371.212	320.2
371.593	312.07
371.974	328.79
372.355	329.92
372.736	334.44
373.117	307.55
373.498	336.93
373.879	309.36
374.26	325.18
374.641	317.04
375.021	313.88
375.402	334.21
375.783	317.94
376.163	329.24
376.544	325.63
376.925	331.73
377.305	313.88
377.686	315.68
378.066	349.13
378.447	333.08
378.827	328.56
379.208	330.82
379.588	348.45
379.968	339.86
380.349	318.17
380.729	339.19
381.109	336.93
381.489	362.46
381.87	303.93
382.25	334.67
382.63	339.86
383.01	355.68
383.39	356.13
383.77	343.93
384.15	337.15
384.53	339.86
384.91	362.91
385.29	345.51
385.67	364.72
386.049	358.85
386.429	355
386.809	331.5
387.189	364.04
387.568	364.5
387.948	352.52
388.328	362.46
388.707	371.95
389.087	364.95
389.466	382.12
389.846	361.11
390.225	380.54
390.605	374.67
390.984	366.53
391.363	361.33
391.743	378.06
392.122	381.44
392.501	370.15
392.881	389.13
393.26	395.46
393.639	383.93
394.018	375.12
394.397	388.68
394.776	393.65
395.155	379.41
395.534	391.16
395.913	388.68
396.292	392.07
396.671	391.16
397.05	391.61
397.429	390.71
397.808	404.27
398.186	398.62
398.565	375.34
398.944	394.78
399.323	405.85
399.701	419.18
400.08	406.53
400.458	422.57
400.837	411.5
401.215	422.8
401.594	419.41
401.972	408.79
402.351	420.31
402.729	411.73
403.107	417.83
403.486	414.21
403.864	439.52
404.242	418.51
404.62	429.81
404.999	437.04
405.377	432.74
405.755	424.83
406.133	425.29
406.511	430.93
406.889	422.57
407.267	416.25
407.645	443.82
408.023	461.44
408.401	454.66
408.779	448.34
409.156	448.79
409.534	466.87
409.912	447.43
410.29	471.39
410.667	466.19
411.045	502.12
411.422	484.49
411.8	481.1
412.178	497.37
412.555	509.58
412.933	512.29
413.31	476.58
413.687	521.78
414.065	503.02
414.442	499.41
414.819	491.27
415.197	497.6
415.574	513.42
415.951	529.01
416.328	526.53
416.705	533.31
417.082	513.42
417.46	527.88
417.837	537.37
418.214	535.57
418.591	539.18
418.967	523.59
419.344	564.49
419.721	560.88
420.098	568.11
420.475	551.61
420.852	563.36
421.228	576.24
421.605	575.34
421.982	562.68
422.358	583.25
422.735	586.41
423.111	561.1
423.488	568.11
423.864	572.17
424.241	595.45
424.617	598.39
424.994	611.95
425.37	605.39
425.746	599.74
426.123	605.62
426.499	606.07
426.875	615.11
427.251	625.73
427.627	649.46
428.003	648.56
428.379	635.68
428.756	674.09
429.132	656.47
429.507	661.21
429.883	651.49
430.259	660.08
430.635	679.97
431.011	690.82
431.387	668.22
431.763	695.79
432.138	710.7
432.514	701.44
432.89	700.53
433.265	721.77
433.641	733.98
434.016	722.23
434.392	733.07
434.767	739.18
435.143	719.97
435.518	749.12
435.894	782.34
436.269	759.74
436.644	756.12
437.02	778.04
437.395	781.21
437.77	769.91
438.145	785.05
438.52	787.76
438.895	805.61
439.271	827.99
439.646	843.81
440.021	847.87
440.395	851.94
440.77	843.58
441.145	844.03
441.52	855.78
441.895	857.36
442.27	851.94
442.645	850.58
443.019	899.62
443.394	865.95
443.769	861.21
444.143	873.41
444.518	926.97
444.892	883.35
445.267	877.93
445.641	901.43
446.016	931.26
446.39	910.47
446.764	912.28
447.139	940.07
447.513	945.05
447.887	923.35
448.262	953.41
448.636	958.6
449.01	975.1
449.384	982.33
449.758	993.18
450.132	1000.41
450.506	1002.67
450.88	991.82
451.254	989.11
451.628	1014.65
452.002	1007.19
452.376	995.67
452.75	1020.98
453.123	1038.6
453.497	1049
453.871	1057.81
454.244	1072.95
454.618	1081.99
454.992	1104.14
455.365	1114.31
455.739	1140.07
456.112	1156.34
456.486	1153.18
456.859	1157.02
457.232	1208.32
457.606	1198.15
457.979	1183.46
458.352	1213.97
458.725	1225.26
459.099	1211.71
459.472	1274.98
459.845	1267.98
460.218	1295.32
460.591	1316.34
460.964	1318.37
461.337	1329.89
461.71	1378.93
462.083	1370.12
462.456	1401.98
462.829	1388.88
463.201	1433.85
463.574	1426.62
463.947	1433.39
464.32	1455.09
464.692	1478.37
465.065	1503
465.438	1544.8
465.81	1547.29
466.183	1568.08
466.555	1629.1
466.928	1650.56
467.3	1619.6
467.672	1650.11
468.045	1724.46
468.417	1714.29
468.789	1730.79
469.161	1747.96
469.534	1804.91
469.906	1833.38
470.278	1854.17
470.65	1881.29
471.022	1916.32
471.394	1971.01
471.766	2020.05
472.138	2009.2
472.51	2079.48
472.882	2141.17
473.253	2182.98
473.625	2200.83
473.997	2262.3
474.369	2310.43
474.74	2355.4
475.112	2410.09
475.484	2479.47
475.855	2493.25
476.227	2556.98
476.598	2652.35
476.97	2712.91
477.341	2807.14
477.713	2831.78
478.084	2893.47
478.455	3001.49
478.827	3060.24
479.198	3192.9
479.569	3225.44
479.94	3335.49
480.311	3408.94
480.682	3513.57
481.053	3648.25
481.424	3742.03
481.795	3812.54
482.166	3924.4
482.537	3991.75
482.908	4140.44
483.279	4224.51
483.65	4360.1
484.021	4492.98
484.391	4608.68
484.762	4693.42
485.133	4787.2
485.503	4928.9
485.874	5052.06
486.244	5205.95
486.615	5352.16
486.985	5429.67
487.356	5667.86
487.726	5692.27
488.097	5951.47
488.467	6028.75
488.837	6268.07
489.207	6341.51
489.578	6512.81
489.948	6627.83
490.318	6757.77
490.688	6901.27
491.058	7038.67
491.428	7256.29
491.798	7402.28
492.168	7559.11
492.538	7666.22
492.908	7876.61
493.278	8065.76
493.648	8121.13
494.017	8322.25
494.387	8472.31
494.757	8547.78
495.126	8756.14
495.496	8897.38
495.866	9016.02
496.235	9160.2
496.605	9349.57
496.974	9396.35
497.344	9583.46
497.713	9701.43
498.082	9885.38
498.452	9974.86
498.821	10070.91
499.19	10158.81
499.559	10374.85
499.928	10491.24
500.298	10592.93
500.667	10768.52
501.036	10766.03
501.405	10933.03
501.774	10992.92
502.143	11151.78
502.512	11198.11
502.88	11391.78
503.249	11416.63
503.618	11547.48
503.987	11606.46
504.356	11770.98
504.724	11812.78
505.093	11876.96
505.462	12039.67
505.83	12072.66
506.199	12205.77
506.567	12429.94
506.936	12378.64
507.304	12530.73
507.672	12651.4
508.041	12675.36
508.409	12732.53
508.777	12917.16
509.145	12970.49
509.514	13043.94
509.882	13075.12
510.25	13090.04
510.618	13199.86
510.986	13208.45
511.354	13403.02
511.722	13487.54
512.09	13540.42
512.458	13569.8
512.826	13631.27
513.193	13697.48
513.561	13780.19
513.929	13858.15
514.297	13935.66
514.664	13983.57
515.032	13932.27
515.4	14078.26
515.767	14172.27
516.135	14128.2
516.502	14078.49
516.869	14367.97
517.237	14311.93
517.604	14209.78
517.972	14381.3
518.339	14419.27
518.706	14476.44
519.073	14446.61
519.44	14584.24
519.808	14630.34
520.175	14567.96
520.542	14702.42
520.909	14777.9
521.276	14686.38
521.643	14812.93
522.009	14825.81
522.376	14862.42
522.743	14972.7
523.11	15007.05
523.477	15121.62
523.843	15143.32
524.21	15223.77
524.577	15281.17
524.943	15158.46
525.31	15327.72
525.676	15337.21
526.043	15348.51
526.409	15355.74
526.776	15472.12
527.142	15437.55
527.508	15426.02
527.874	15527.94
528.241	15465.57
528.607	15499.01
528.973	15583.08
529.339	15520.03
529.705	15698.78
530.071	15643.42
530.437	15593.93
530.803	15645.9
531.169	15599.12
531.535	15639.57
531.901	15529.3
532.267	15540.14
532.632	15575.62
532.998	15641.38
533.364	15546.7
533.73	15562.51
534.095	15659.91
534.461	15542.18
534.826	15627.37
535.192	15585.56
535.557	15583.53
535.923	15498.56
536.288	15541.72
536.653	15477.77
537.019	15409.75
537.384	15398.68
537.749	15374.5
538.114	15335.4
538.479	15359.81
538.845	15342.86
539.21	15209.53
539.575	15248.4
539.94	15228.96
540.305	15256.31
540.67	15165.46
541.034	15108.74
541.399	15170.43
541.764	15117.78
542.129	15077.1
542.494	15040.49
542.858	15038.01
543.223	15038.46
543.587	15029.87
543.952	14903.55
544.316	14832.14
544.681	14809.54
545.045	14819.26
545.41	14750.56
545.774	14777.22
546.138	14708.07
546.503	14675.31
546.867	14594.86
547.231	14726.6
547.595	14660.17
547.959	14555.08
548.324	14502.43
548.688	14447.74
549.052	14431.24
549.416	14443.9
549.779	14374.98
550.143	14293.85
550.507	14323.45
550.871	14254.3
551.235	14219.95
551.599	14264.7
551.962	14205.49
552.326	14062.21
552.689	14232.15
553.053	14073.06
553.417	14065.38
553.78	14168.43
554.143	14016.79
554.507	14058.15
554.87	14012.5
555.234	14036.23
555.597	13948.32
555.96	13974.31
556.323	13912.39
556.686	13847.76
557.05	13925.04
557.413	13931.14
557.776	13849.11
558.139	13964.36
558.502	13943.35
558.865	13837.81
559.228	13885.95
559.59	13831.94
559.953	13836.01
560.316	13934.53
560.679	13806.63
561.041	13896.12
561.404	13860.86
561.767	13899.28
562.129	13812.28
562.492	13897.93
562.854	13818.83
563.217	13825.16
563.579	13872.62
563.941	13958.26
564.304	13986.51
564.666	13924.82
565.028	13942.22
565.39	13947.87
565.753	13988.32
566.115	13986.06
566.477	14043.01
566.839	14085.04
567.201	14121.42
567.563	14000.75
567.925	14109.9
568.287	14029.22
568.648	14085.49
569.01	14110.8
569.372	14164.13
569.734	14088.65
570.095	14149.44
570.457	14165.94
570.819	14130.69
571.18	14166.62
571.542	14179.05
571.903	14159.84
572.265	14198.93
572.626	14204.13
572.987	14225.37
573.349	14312.6
573.71	14276.45
574.071	14310.57
574.432	14357.35
574.794	14367.52
575.155	14371.81
575.516	14221.31
575.877	14299.72
576.238	14309.67
576.599	14313.06
576.96	14348.99
577.32	14295.43
577.681	14391.02
578.042	14302.21
578.403	14322.77
578.763	14386.05
579.124	14404.58
579.485	14443.45
579.845	14419.72
580.206	14397.12
580.566	14373.62
580.927	14368.42
581.287	14392.15
581.648	14352.15
582.008	14489.77
582.368	14393.73
582.728	14397.57
583.089	14381.3
583.449	14312.83
583.809	14408.65
584.169	14402.55
584.529	14232.38
584.889	14342.66
585.249	14237.58
585.609	14172.95
585.969	14348.76
586.329	14197.8
586.688	14321.42
587.048	14288.65
587.408	14196.67
587.768	14248.42
588.127	14323.9
588.487	14191.03
588.846	14334.75
589.206	14202.1
589.565	14205.49
589.925	14169.78
590.284	14166.17
590.643	14184.25
591.003	14092.72
591.362	14228.76
591.721	14188.77
592.08	14153.74
592.44	14189.9
592.799	14111.25
593.158	14095.43
593.517	14087.98
593.876	14109.22
594.235	14084.14
594.593	14186.96
594.952	14060.63
595.311	14050.92
595.67	14136.34
596.029	14133.4
596.387	14194.64
596.746	14160.97
597.104	14082.1
597.463	14073.74
597.822	14162.33
598.18	14076.23
598.538	14083.68
598.897	14151.7
599.255	13994.42
599.613	14101.76
599.972	14088.2
600.33	14064.25
600.688	14146.73
601.046	14073.29
601.404	14024.7
601.762	14120.07
602.12	14066.51
602.478	14129.78
602.836	14111.93
603.194	14039.16
603.552	14069.22
603.91	14028.09
604.268	14016.79
604.625	14016.57
604.983	14087.53
605.341	14013.4
605.698	14082.78
606.056	14091.37
606.413	14063.8
606.771	14133.17
607.128	14107.19
607.485	14066.06
607.843	14004.36
608.2	14202.32
608.557	14246.16
608.914	14114.42
609.272	14199.61
609.629	14165.49
609.986	14263.57
610.343	14145.83
610.7	14160.97
611.057	14175.21
611.414	14189.44
611.771	14170.69
612.127	14194.64
612.484	14185.6
612.841	14218.14
613.198	14191.03
613.554	14273.28
613.911	14374.98
614.267	14191.93
614.624	14275.99
614.98	14280.74
615.337	14395.54
615.693	14348.54
616.05	14341.98
616.406	14345.6
616.762	14351.02
617.118	14397.35
617.475	14343.34
617.831	14437.57
618.187	14468.31
618.543	14412.71
618.899	14475.31
619.255	14392.15
619.611	14397.57
619.967	14411.81
620.323	14495.65
620.678	14536.55
621.034	14426.27
621.39	14438.93
621.746	14455.65
622.101	14549.66
622.457	14430.34
622.812	14530.9
623.168	14535.87
623.523	14521.41
623.879	14497.01
624.234	14369.55
624.589	14454.97
624.945	14452.71
625.3	14466.05
625.655	14499.72
626.01	14433.96
626.365	14526.38
626.72	14445.48
627.075	14463.11
627.43	14472.15
627.785	14452.26
628.14	14446.61
628.495	14415.65
628.85	14374.3
629.205	14449.55
629.559	14550.56
629.914	14437.12
630.269	14467.85
630.623	14292.27
630.978	14419.27
631.332	14407.06
631.687	14407.74
632.041	14343.11
632.396	14366.16
632.75	14369.33
633.104	14310.34
633.459	14186.28
633.813	14298.59
634.167	14217.69
634.521	14200.74
634.875	14246.62
635.229	14241.87
635.583	14105.38
635.937	14164.81
636.291	14138.37
636.645	14170.69
636.999	14069.45
637.352	14112.84
637.706	14042.1
638.06	14156.22
638.413	14050.46
638.767	14064.02
639.121	14000.75
639.474	14021.54
639.828	13975.89
640.181	13991.26
640.534	13963.91
640.888	13979.96
641.241	13977.02
641.594	13944.25
641.947	13915.1
642.301	13857.25
642.654	13948.09
643.007	13963.69
643.36	13836.46
643.713	13907.87
644.066	13965.27
644.419	13821.77
644.771	13704.48
645.124	13696.12
645.477	13589.91
645.83	13517.37
646.182	13530.93
646.535	13403.7
646.888	13498.39
647.24	13329.8
647.593	13488.9
647.945	13435.11
648.298	13418.62
648.65	13325.29
649.002	13347.66
649.355	13360.31
649.707	13407.32
650.059	13507.88
650.411	13646.86
650.763	13647.76
651.115	13711.26
651.467	13632.17
651.819	13664.03
652.171	13692.51
652.523	13694.54
652.875	13538.39
653.227	13626.29
653.578	13729.34
653.93	13736.8
654.282	13675.11
654.633	13610.48
654.985	13700.87
655.337	13742.22
655.688	13742.9
656.039	13767.99
656.391	13705.84
656.742	13702
657.094	13676.46
657.445	13720.53
657.796	13738.61
658.147	13657.03
658.498	13639.85
658.849	13629.01
659.2	13754.43
659.551	13641.66
659.902	13768.44
660.253	13724.37
660.604	13709.91
660.955	13656.35
661.306	13731.15
661.656	13719.85
662.007	13812.96
662.358	13712.62
662.708	13741.32
663.059	13640.53
663.409	13636.69
663.76	13798.72
664.11	13847.08
664.461	13821.77
664.811	13783.35
665.161	13699.74
665.511	13660.19
665.862	13774.99
666.212	13768.89
666.562	13759.85
666.912	13725.05
667.262	13680.53
667.612	13772.96
667.962	13728.66
668.312	13723.47
668.662	13743.35
669.011	13748.78
669.361	13746.52
669.711	13696.57
670.06	13698.61
670.41	13636.46
670.76	13649.57
671.109	13825.16
671.459	13686.86
671.808	13629.91
672.157	13721.43
672.507	13615
672.856	13664.26
673.205	13619.29
673.554	13650.93
673.904	13683.69
674.253	13669.91
674.602	13664.49
674.951	13407.32
675.3	13328
675.649	13577.48
675.998	13527.77
676.346	13521.21
676.695	13566.41
677.044	13497.03
677.393	13542.45
677.741	13477.15
678.09	13478.73
678.438	13504.72
678.787	13438.28
679.135	13439.86
679.484	13320.54
679.832	13367.09
680.181	13289.13
680.529	13364.15
680.877	13308.11
681.225	13251.39
681.573	13370.93
681.922	13263.37
682.27	13270.15
682.618	13241.9
682.966	13183.14
683.314	13223.82
683.661	13204.38
684.009	13110.38
684.357	13067.44
684.705	13017.04
685.053	13121.45
685.4	13007.33
685.748	12999.19
686.095	12939.53
686.443	12955.58
686.79	12909.02
687.138	12932.3
687.485	12849.14
687.832	12883.94
688.18	12897.05
688.527	12805.75
688.874	12783.6
689.221	12651.86
689.568	12675.36
689.915	12561.24
690.262	12642.59
690.609	12577.96
690.956	12525.53
691.303	12535.7
691.65	12434.01
691.997	12458.87
692.344	12347.01
692.69	12328.93
693.037	12327.8
693.383	12227.23
693.73	12265.65
694.077	12084.87
694.423	12177.97
694.769	12059.33
695.116	12045.54
695.462	11980.01
695.808	11879
696.155	11921.48
696.501	11821.6
696.847	11866.57
697.193	11790.64
697.539	11832.9
697.885	11683.07
698.231	11664.09
698.577	11709.51
698.923	11610.75
699.269	11661.83
699.614	11490.98
699.96	11469.29
700.306	11521.26
700.651	11423.41
700.997	11358.78
701.342	11385.45
701.688	11279.92
702.033	11255.28
702.379	11213.93
702.724	11191.56
703.069	11229.07
703.415	11136.42
703.76	11105
704.105	10988.85
704.45	11056.19
704.795	10959.92
705.14	10961.96
705.485	10936.2
705.83	10948.4
706.175	10905.46
706.52	10829.53
706.865	10770.32
707.209	10759.7
707.554	10719.25
707.899	10687.61
708.243	10639.93
708.588	10636.32
708.932	10514.29
709.277	10555.87
709.621	10567.39
709.966	10489.88
710.31	10527.84
710.654	10462.08
710.998	10463.21
711.342	10411.69
711.687	10382.76
712.031	10354.74
712.375	10395.64
712.719	10365.59
713.063	10327.62
713.407	10319.49
713.75	10279.94
714.094	10288.08
714.438	10195.42
714.782	10221.41
715.125	10178.7
715.469	10209.43
715.812	10169.21
716.156	10104.35
716.499	10084.47
716.843	10130.79
717.186	10083.56
717.53	10124.92
717.873	10027.29
718.216	10041.3
718.559	9996.56
718.902	9999.72
719.246	9974.64
719.589	9938.71
719.932	9904.58
720.275	9902.55
720.617	9858.26
720.96	9865.26
721.303	9914.53
721.646	9905.04
721.989	9841.76
722.331	9876.11
722.674	9844.7
723.016	9839.28
723.359	9805.6
723.701	9816
724.044	9743.68
724.386	9713.63
724.729	9776.9
725.071	9704.36
725.413	9727.19
725.755	9806.96
726.097	9660.75
726.439	9685.15
726.782	9656
727.124	9721.31
727.465	9646.51
727.807	9664.14
728.149	9662.1
728.491	9625.04
728.833	9699.39
729.175	9648.77
729.516	9686.96
729.858	9644.93
730.199	9651.03
730.541	9644.25
730.882	9654.87
731.224	9654.65
731.565	9595.89
731.906	9656
732.248	9583.24
732.589	9578.04
732.93	9565.38
733.271	9563.35
733.612	9593.63
733.953	9613.74
734.294	9504.82
734.635	9599.28
734.976	9562.45
735.317	9516.12
735.658	9493.97
735.999	9555.21
736.339	9565.84
736.68	9595.89
737.021	9597.47
737.361	9534.88
737.702	9660.75
738.042	9656.91
738.383	9590.24
738.723	9634.53
739.063	9656.68
739.404	9690.35
739.744	9694.19
740.084	9637.92
740.424	9662.33
740.764	9689.22
741.104	9727.87
741.444	9698.26
741.784	9745.49
742.124	9745.94
742.464	9764.47
742.804	9780.97
743.143	9788.2
743.483	9844.25
743.823	9840.18
744.162	9839.5
744.502	9935.32
744.841	9866.62
745.181	9997.24
745.52	9910.46
745.86	9934.41
746.199	10017.35
746.538	10047.86
746.877	10167.18
747.216	10243.78
747.556	10207.4
747.895	10204.92
748.234	10360.84
748.573	10401.52
748.911	10446.04
749.25	10495.76
749.589	10599.03
749.928	10618.69
750.267	10683.77
750.605	10752.02
750.944	10856.88
751.283	10914.95
751.621	10998.79
751.96	11067.49
752.298	11193.14
752.636	11333.93
752.975	11404.43
753.313	11511.55
753.651	11675.39
753.989	11713.12
754.327	11871.31
754.666	11872.22
755.004	12091.42
755.342	12217.74
755.679	12469.26
756.017	12565.31
756.355	12731.18
756.693	12840.1
757.031	13035.58
757.368	13080.32
757.706	13250.26
758.044	13414.55
758.381	13638.5
758.719	13766.63
759.056	13972.05
759.394	14069.22
759.731	14245.26
760.068	14460.85
760.405	14599.15
760.743	14691.35
761.08	15034.39
761.417	15200.94
761.754	15307.61
762.091	15550.99
762.428	15704.43
762.765	15819.91
763.102	16078.21
763.438	16194.59
763.775	16369.72
764.112	16544.86
764.449	16824.63
764.785	16876.6
765.122	17044.74
765.458	17171.29
765.795	17375.8
766.131	17556.36
766.467	17723.14
766.804	17848.1
767.14	18000.87
767.476	18179.62
767.812	18287.19
768.148	18451.93
768.485	18567.18
768.821	18742.77
769.157	18791.13
769.492	19020.5
769.828	19180.5
770.164	19107.05
770.5	19339.36
770.836	19472.24
771.171	19425.69
771.507	19681.05
771.842	19588.17
772.178	19729.41
772.513	19867.03
772.849	19925.79
773.184	20030.42
773.519	20131.43
773.855	20116.07
774.19	20266.57
774.525	20292.11
774.86	20371.43
775.195	20467.47
775.53	20440.58
775.865	20446.23
776.2	20515.6
776.535	20507.24
776.87	20634.47
777.205	20561.93
777.539	20690.06
777.874	20801.92
778.209	20687.58
778.543	20750.17
778.878	20713.57
779.212	20803.28
779.547	20840.57
779.881	20963.28
780.215	20871.3
780.55	20916.5
780.884	20915.14
781.218	20935.03
781.552	20915.37
781.886	20873.34
782.22	20859.1
782.554	20904.07
782.888	20768.93
783.222	20866.1
783.556	20680.35
783.889	20726.45
784.223	20693.45
784.557	20581.37
784.89	20781.59
785.224	20717.41
785.557	20643.06
785.891	20639.44
786.224	20618.43
786.558	20610.07
786.891	20604.64
787.224	20579.11
787.557	20437.19
787.891	20458.66
788.224	20501.82
788.557	20522.38
788.89	20476.51
789.223	20504.53
789.556	20391.77
789.888	20421.6
790.221	20341.6
790.554	20159.23
790.887	20093.02
791.219	20177.53
791.552	20211.43
791.884	20113.36
792.217	20111.1
792.549	19993.58
792.882	19963.53
793.214	19984.32
793.546	19983.64
793.879	19773.93
794.211	19820.93
794.543	19835.85
794.875	19743.42
795.207	19863.42
795.539	19658.23
795.871	19740.71
796.203	19579.36
796.535	19499.59
796.867	19460.72
797.198	19404.45
797.53	19388.18
797.862	19319.03
798.193	19332.81
798.525	19238.8
798.856	19273.38
799.188	19084.23
799.519	19082.87
799.85	19030.45
800.182	18984.57
800.513	18992.25
800.844	18813.05
801.175	19045.59
801.506	18985.48
801.837	18894.4
802.168	18752.71
802.499	18768.76
802.83	18735.31
803.161	18589.33
803.491	18690.34
803.822	18586.62
804.153	18492.38
804.483	18450.12
804.814	18343.23
805.145	18392.95
805.475	18368.99
805.805	18257.36
806.136	18267.08
806.466	18202.45
806.796	18249.9
807.126	18170.13
807.457	18082.45
807.787	18040.87
808.117	18030.7
808.447	17960.19
808.777	17895.11
809.107	17843.13
809.436	17877.93
809.766	17810.37
810.096	17704.38
810.426	17742.12
810.755	17673.87
811.085	17744.6
811.414	17647.66
811.744	17518.85
812.073	17546.87
812.403	17497.83
812.732	17452.86
813.061	17589.13
813.39	17363.37
813.719	17301.9
814.049	17400.43
814.378	17262.13
814.707	17193.43
815.036	17278.85
815.365	17229.14
815.693	17100.78
816.022	17043.83
816.351	16988.92
816.68	16958.64
817.008	16977.84
817.337	16816.27
817.665	16797.51
817.994	16804.97
818.322	16789.6
818.651	16830.73
818.979	16680.68
819.307	16854.01
819.636	16802.48
819.964	16605.65
820.292	16698.53
820.62	16716.61
820.948	16637.74
821.276	16636.16
821.604	16631.41
821.932	16588.48
822.259	16714.12
822.587	16588.48
822.915	16558.19
823.243	16560.45
823.57	16604.97
823.898	16542.15
824.225	16554.58
824.553	16586.22
824.88	16664.63
825.207	16620.34
825.535	16596.16
825.862	16604.52
826.189	16537.86
826.516	16630.28
826.843	16622.15
827.17	16598.42
827.497	16719.55
827.824	16668.93
828.151	16636.38
828.478	16623.73
828.805	16660.56
829.131	16664.41
829.458	16672.32
829.785	16536.05
830.111	16557.74
830.438	16648.59
830.764	16618.08
831.09	16645.2
831.417	16607.91
831.743	16578.76
832.069	16574.92
832.395	16510.96
832.722	16543.28
833.048	16543.28
833.374	16547.12
833.7	16484.3
834.026	16540.57
834.351	16521.13
834.677	16474.81
835.003	16536.27
835.329	16480
835.654	16489.04
835.98	16390.74
836.306	16439.78
836.631	16376.73
836.956	16398.88
837.282	16380.57
837.607	16304.87
837.932	16307.13
838.258	16265.09
838.583	16202.95
838.908	16141.93
839.233	16270.97
839.558	16198.2
839.883	16084.31
840.208	16119.34
840.533	16123.4
840.858	16064.87
841.182	16010.41
841.507	15994.82
841.832	16017.19
842.156	15954.59
842.481	15855.39
842.805	15936.52
843.13	15930.41
843.454	15865.33
843.778	15786.46
844.103	15749.63
844.427	15622.63
844.751	15713.92
845.075	15612.23
845.399	15557.32
845.723	15459.69
846.047	15565.45
846.371	15395.74
846.695	15433.48
847.019	15242.75
847.343	15262.64
847.666	15193.48
847.99	15065.8
848.313	15100.15
848.637	14961.63
848.96	14987.84
849.284	14901.51
849.607	14776.32
849.931	14822.87
850.254	14692.25
850.577	14517.12
850.9	14513.95
851.223	14500.4
851.546	14484.58
851.869	14326.61
852.192	14412.71
852.515	14188.77
852.838	14179.73
853.161	14116.9
853.483	14133.17
853.806	14056.11
854.129	14079.62
854.451	13984.02
854.774	13906.06
855.096	13905.83
855.419	13810.02
855.741	13729.34
856.063	13739.06
856.385	13707.42
856.708	13681.89
857.03	13647.99
857.352	13615.9
857.674	13529.8
857.996	13508.11
858.318	13420.42
858.64	13412.06
858.961	13364.83
859.283	13356.02
859.605	13183.59
859.926	13293.2
860.248	13225.63
860.57	13200.09
860.891	13269.47
861.212	13104.95
861.534	13082.58
861.855	13051.85
862.176	13116.25
862.498	13124.61
862.819	13068.57
863.14	12905.86
863.461	12997.16
863.782	12926.2
864.103	12924.62
864.424	12889.82
864.745	12880.78
865.065	12779.99
865.386	12808.46
865.707	12758.29
866.027	12812.76
866.348	12727.56
866.668	12723.49
866.989	12700.44
867.309	12682.82
867.63	12607.79
867.95	12663.38
868.27	12501.8
868.59	12626.55
868.91	12477.62
869.23	12525.31
869.55	12429.04
869.87	12584.97
870.19	12471.75
870.51	12471.07
870.83	12446.66
871.15	12376.84
871.469	12462.26
871.789	12403.05
872.109	12382.94
872.428	12332.77
872.748	12441.24
873.067	12372.32
873.386	12361.24
873.706	12243.73
874.025	12173
874.344	12182.72
874.663	12205.31
874.982	12164.19
875.301	12214.58
875.62	12082.61
875.939	12125.77
876.258	12191.3
876.577	12057.97
876.896	12044.64
877.214	12020.23
877.533	11992.89
877.852	12066.11
878.17	12026.79
878.489	11916.73
878.807	11951.99
879.125	11950.63
879.444	11874.25
879.762	11910.41
880.08	11917.19
880.398	11847.36
880.716	11748.38
881.034	11785.89
881.352	11884.87
881.67	11790.86
881.988	11690.3
882.306	11755.38
882.624	11613.92
882.941	11544.54
883.259	11603.97
883.577	11530.3
883.894	11571.88
884.212	11463.41
884.529	11525.56
884.846	11504.54
885.164	11403.75
885.481	11343.64
885.798	11428.16
886.115	11287.6
886.432	11347.48
886.75	11290.54
887.067	11296.41
887.383	11199.47
887.7	11278.11
888.017	11161.5
888.334	11234.49
888.651	11201.95
888.967	11173.7
889.284	11125.8
889.6	11047.15
889.917	10924.22
890.233	11003.54
890.55	10927.16
890.866	10962.18
891.182	10903.2
891.498	10873.6
891.815	10804.22
892.131	10793.83
892.447	10732.13
892.763	10664.11
893.079	10698.91
893.395	10738.91
893.71	10648.07
894.026	10633.6
894.342	10625.02
894.657	10545.92
894.973	10499.82
895.289	10522.87
895.604	10479.94
895.92	10391.13
896.235	10328.53
896.55	10362.43
896.865	10308.42
897.181	10305.48
897.496	10274.74
897.811	10194.97
898.126	10155.65
898.441	10158.59
898.756	10089.44
899.071	10041.3
899.386	10037.24
899.7	9959.5
900.015	9936.9
900.33	9870.01
900.644	9872.49
900.959	9834.08
901.273	9743.01
901.588	9751.14
901.902	9689.67
902.216	9678.83
902.531	9637.25
902.845	9562.9
903.159	9599.28
903.473	9490.81
903.787	9450.13
904.101	9448.78
904.415	9455.1
904.729	9369.23
905.042	9316.13
905.356	9344.82
905.67	9288.56
905.984	9347.54
906.297	9244.26
906.611	9177.37
906.924	9114.32
907.237	9108.9
907.551	9137.15
907.864	9008.34
908.177	9022.12
908.491	8973.99
908.804	8960.88
909.117	8852.63
909.43	8808.34
909.743	8769.7
910.056	8809.25
910.368	8722.92
910.681	8700.55
910.994	8709.81
911.307	8663.71
911.619	8623.94
911.932	8635.47
912.244	8581.46
912.557	8501.68
912.869	8452.87
913.181	8462.36
913.494	8426.88
913.806	8379.43
914.118	8322.25
914.43	8317.96
914.742	8288.81
915.054	8237.96
915.366	8213.1
915.678	8177.4
915.99	8096.95
916.302	8047.91
916.613	8074.35
916.925	8006.56
917.236	8063.05
917.548	8007.46
917.859	7947.35
918.171	7920.68
918.482	7907.35
918.794	7837.29
919.105	7833.9
919.416	7802.94
919.727	7709.61
920.038	7725.66
920.349	7614.02
920.66	7582.84
920.971	7640.91
921.282	7567.7
921.593	7526.79
921.903	7481.15
922.214	7499.9
922.525	7435.5
922.835	7411.32
923.146	7364.99
923.456	7349.85
923.767	7368.38
924.077	7262.39
924.387	7246.35
924.697	7219.23
925.008	7194.37
925.318	7199.57
925.628	7157.09
925.938	7122.96
926.248	7024.43
926.558	7024.21
926.867	7021.95
927.177	6973.36
927.487	6963.19
927.796	6909.41
928.106	6926.13
928.416	6852.24
928.725	6866.47
929.034	6811.56
929.344	6798
929.653	6790.09
929.962	6731.79
930.271	6693.37
930.581	6638.46
930.89	6618.57
931.199	6607.72
931.508	6599.59
931.817	6552.36
932.125	6567.72
932.434	6519.36
932.743	6440.49
933.051	6440.27
933.36	6405.24
933.669	6380.16
933.977	6420.61
934.286	6434.62
934.594	6360.5
934.902	6249.99
935.21	6264.45
935.519	6220.39
935.827	6220.16
936.135	6179.71
936.443	6139.03
936.751	6121.18
937.059	6099.03
937.367	6091.8
937.674	6021.75
937.982	6038.47
938.29	6040.51
938.597	6002.77
938.905	5958.93
939.213	5917.34
939.52	5882.54
939.827	5942.88
940.135	5864.01
940.442	5799.83
940.749	5780.85
941.056	5785.14
941.363	5731.59
941.67	5746.05
941.977	5724.81
942.284	5697.46
942.591	5663.11
942.898	5647.07
943.205	5665.37
943.511	5586.28
943.818	5601.87
944.125	5558.94
944.431	5544.7
944.738	5486.4
945.044	5475.77
945.35	5398.71
945.657	5394.65
945.963	5386.28
946.269	5323.69
946.575	5388.09
946.881	5297.47
947.187	5334.53
947.493	5243.92
947.799	5236.23
948.105	5219.28
948.41	5202.11
948.716	5187.42
949.022	5144.94
949.327	5163.01
949.633	5056.58
949.938	5142
950.244	5103.58
950.549	5034.88
950.854	5059.51
951.16	5035.33
951.465	5004.83
951.77	4921.89
952.075	4974.77
952.38	4929.12
952.685	4894.32
952.99	4827.43
953.294	4843.93
953.599	4865.62
953.904	4779.52
954.209	4769.13
954.513	4824.49
954.818	4744.72
955.122	4761.67
955.426	4703.14
955.731	4697.94
956.035	4623.82
956.339	4641.9
956.643	4617.49
956.948	4579.98
957.252	4561.22
957.556	4566.42
957.86	4540.43
958.163	4530.26
958.467	4520.77
958.771	4488.46
959.075	4485.52
959.378	4409.81
959.682	4445.52
959.985	4402.36
960.289	4406.88
960.592	4382.24
960.896	4348.12
961.199	4351.51
961.502	4314
961.805	4233.32
962.108	4276.71
962.411	4242.36
962.714	4251.17
963.017	4220.21
963.32	4246.2
963.623	4204.62
963.926	4175.92
964.228	4169.82
964.531	4116.26
964.833	4122.59
965.136	4103.38
965.438	4071.29
965.741	4086.66
966.043	4056.15
966.345	4000.33
966.648	4009.37
966.95	3999.2
967.252	3938.87
967.554	3947
967.856	3975.25
968.158	3904.97
968.46	3896.38
968.761	3893.44
969.063	3873.56
969.365	3859.09
969.666	3892.31
969.968	3848.25
970.269	3818.19
970.571	3812.32
970.872	3773.45
971.174	3716.72
971.475	3703.84
971.776	3757.18
972.077	3662.94
972.378	3689.15
972.679	3709.04
972.98	3665.43
973.281	3653.68
973.582	3656.39
973.883	3608.03
974.183	3584.07
974.484	3568.71
974.785	3561.93
975.085	3559.21
975.386	3523.96
975.686	3528.71
975.986	3509.27
976.287	3506.11
976.587	3452.1
976.887	3421.14
977.187	3449.84
977.487	3434.7
977.787	3431.99
978.087	3364.87
978.387	3386.11
978.687	3395.15
978.987	3332.1
979.286	3338.88
979.586	3351.08
979.885	3314.47
980.185	3295.49
980.484	3276.74
980.784	3245.55
981.083	3268.6
981.382	3200.35
981.682	3205.33
981.981	3221.6
982.28	3160.81
982.579	3182.95
982.878	3192.9
983.177	3128.27
983.475	3126.68
983.774	3120.58
984.073	3104.76
984.372	3085.1
984.67	3055.27
984.969	3058.21
985.267	3068.61
985.566	3044.2
985.864	3009.85
986.162	2988.16
986.461	3001.04
986.759	2996.07
987.057	2941.15
987.355	2936.63
987.653	2958.33
987.951	2945.9
988.249	2881.72
988.547	2874.94
988.844	2863.41
989.142	2843.07
989.44	2849.4
989.737	2822.96
990.035	2815.51
990.332	2787.26
990.63	2833.81
990.927	2813.92
991.224	2745.9
991.521	2751.1
991.819	2764.43
992.116	2753.13
992.413	2719.46
992.71	2703.64
993.006	2671.78
993.303	2712.46
993.6	2684.21
993.897	2679.01
994.193	2632.91
994.49	2673.14
994.787	2648.28
995.083	2603.99
995.379	2598.11
995.676	2564.21
995.972	2581.84
996.268	2561.05
996.565	2510.65
996.861	2548.39
997.157	2482.18
997.453	2500.49
997.749	2506.36
998.044	2439.7
998.34	2469.75
998.636	2443.76
998.932	2438.34
999.227	2425.91
999.523	2420.26
999.818	2371.22
1000.114	2379.13
1000.409	2376.87
1000.704	2382.3
1001	2318.79
1001.295	2307.27
1001.59	2314.95
1001.885	2320.38
1002.18	2280.6
1002.475	2276.99
1002.77	2243.99
1003.065	2255.07
1003.359	2243.09
1003.654	2243.32
1003.949	2221.17
1004.243	2206.48
1004.538	2199.25
1004.832	2155.86
1005.127	2172.36
1005.421	2179.82
1005.715	2148.18
1006.009	2147.73
1006.304	2123.55
1006.598	2110.89
1006.892	2119.7
1007.186	2056.65
1007.48	2056.2
1007.773	2060.5
1008.067	2051.01
1008.361	2030.89
1008.655	2021.63
1008.948	2010.33
1009.242	1989.54
1009.535	2015.07
1009.829	1998.13
1010.122	1978.46
1010.415	1962.42
1010.708	1945.25
1011.001	1934.17
1011.295	1903.89
1011.588	1919.26
1011.881	1922.2
1012.173	1883.33
1012.466	1883.1
1012.759	1859.15
1013.052	1895.3
1013.344	1838.13
1013.637	1840.39
1013.93	1806.04
1014.222	1785.25
1014.514	1788.64
1014.807	1811.92
1015.099	1779.37
1015.391	1778.92
1015.683	1780.05
1015.976	1762.88
1016.268	1759.94
1016.56	1740.28
1016.851	1710.9
1017.143	1700.28
1017.435	1674.52
1017.727	1717.68
1018.018	1662.09
1018.31	1677
1018.602	1644.46
1018.893	1625.25
1019.185	1613.28
1019.476	1602.88
1019.767	1605.59
1020.058	1592.03
1020.35	1590.23
1020.641	1563.79
1020.932	1552.71
1021.223	1533.96
1021.514	1557.46
1021.804	1521.53
1022.095	1515.65
1022.386	1500.29
1022.677	1513.62
1022.967	1497.8
1023.258	1458.03
1023.548	1468.42
1023.839	1449.67
1024.129	1457.57
1024.419	1437.91
1024.709	1431.59
1025	1412.38
1025.29	1392.72
1025.58	1413.28
1025.87	1380.74
1026.16	1388.2
1026.449	1406.05
1026.739	1376.22
1027.029	1354.3
1027.319	1330.57
1027.608	1341.65
1027.898	1341.42
1028.187	1307.07
1028.477	1334.41
1028.766	1293.74
1029.055	1279.27
1029.344	1304.13
1029.634	1286.51
1029.923	1265.94
1030.212	1276.11
1030.501	1276.79
1030.79	1267.07
1031.078	1220.29
1031.367	1256.45
1031.656	1216.68
1031.945	1215.1
1032.233	1214.87
1032.522	1195.43
1032.81	1188.2
1033.099	1176.45
1033.387	1190.46
1033.675	1188.2
1033.963	1180.75
1034.251	1139.16
1034.54	1154.31
1034.828	1129.9
1035.116	1118.83
1035.403	1113.85
1035.691	1130.35
1035.979	1102.78
1036.267	1100.3
1036.554	1088.77
1036.842	1088.09
1037.129	1091.71
1037.417	1066.85
1037.704	1079.73
1037.992	1072.73
1038.279	1063.69
1038.566	1058.49
1038.853	1058.49
1039.14	1058.49
