Data from hue_32_FLMS001491_00035.txt Node
Date: Tue Feb 07 17:23:18 GMT 2017
User: dcchb
Spectrometer: FLMS00149
Trigger mode: 0
Integration Time (sec): 2.000000E-2
Scans to average: 10
Electric dark correction enabled: true
Nonlinearity correction enabled: false
Boxcar width: 0
XAxis mode: Wavelengths
Number of Pixels in Spectrum: 2048
>>>>>Begin Spectral Data<<<<<
341.393	-33.21
341.776	-33.21
342.16	-33.21
342.543	-44.96
342.927	-85.63
343.31	-58.97
343.693	-66.2
344.077	-53.32
344.46	-67.78
344.843	-60.32
345.226	-43.6
345.61	-31.17
345.993	-18.74
346.376	-16.93
346.759	9.05
347.142	26.68
347.525	52.89
347.908	51.31
348.291	63.06
348.674	108.71
349.057	105.32
349.44	124.3
349.823	126.11
350.206	125.89
350.588	194.13
350.971	208.14
351.354	241.59
351.737	244.3
352.119	251.98
352.502	280.68
352.884	312.77
353.267	289.95
353.65	283.4
354.032	293.57
354.414	308.93
354.797	309.84
355.179	314.36
355.562	340.8
355.944	334.47
356.326	356.16
356.709	329.5
357.091	325.43
357.473	355.71
357.855	337.18
358.238	343.06
358.62	356.61
359.002	330.4
359.384	351.64
359.766	333.79
360.148	346.45
360.53	354.13
360.912	329.5
361.294	339.44
361.676	334.24
362.057	333.79
362.439	352.1
362.821	324.3
363.203	325.43
363.584	327.46
363.966	324.07
364.348	331.76
364.729	301.02
365.111	286.33
365.493	304.86
365.874	323.4
366.256	301.7
366.637	305.77
367.019	309.38
367.4	304.41
367.781	317.52
368.163	311.42
368.544	303.73
368.925	321.36
369.306	320.46
369.688	304.19
370.069	321.14
370.45	315.94
370.831	310.29
371.212	312.55
371.593	318.65
371.974	332.66
372.355	315.49
372.736	318.42
373.117	306.9
373.498	320.46
373.879	331.76
374.26	315.49
374.641	324.3
375.021	307.58
375.402	320.68
375.783	317.52
376.163	320.23
376.544	329.5
376.925	304.19
377.305	325.88
377.686	359.1
378.066	327.46
378.447	321.36
378.827	344.64
379.208	319.1
379.588	335.15
379.968	328.82
380.349	337.63
380.729	341.7
381.109	338.54
381.489	336.05
381.87	358.2
382.25	338.99
382.63	368.59
383.01	352.1
383.39	344.86
383.77	357.07
384.15	348.25
384.53	332.89
384.91	347.12
385.29	339.89
385.67	341.25
386.049	347.58
386.429	342.15
386.809	358.2
387.189	365.88
387.568	363.39
387.948	362.94
388.328	371.76
388.707	371.3
389.087	348.93
389.466	374.69
389.846	363.85
390.225	372.89
390.605	344.64
390.984	342.38
391.363	366.56
391.743	365.88
392.122	394.58
392.501	377.86
392.881	381.47
393.26	377.18
393.639	370.17
394.018	377.86
394.397	377.18
394.776	387.57
395.155	395.48
395.534	383.73
395.913	388.93
396.292	362.94
396.671	385.77
397.05	361.59
397.429	381.7
397.808	372.43
398.186	385.99
398.565	381.7
398.944	390.06
399.323	409.95
399.701	404.3
400.08	397.97
400.458	392.32
400.837	393
401.215	376.95
401.594	398.65
401.972	381.25
402.351	406.56
402.729	392.09
403.107	407.69
403.486	414.69
403.864	404.07
404.242	412.43
404.62	420.57
404.999	416.73
405.377	429.83
405.755	417.18
406.133	415.37
406.511	432.32
406.889	435.93
407.267	418.76
407.645	427.35
408.023	443.17
408.401	415.82
408.779	437.29
409.156	422.83
409.534	424.86
409.912	458.53
410.29	443.17
410.667	453.34
411.045	456.5
411.422	463.73
411.8	450.4
412.178	476.39
412.555	462.37
412.933	469.83
413.31	459.44
413.687	456.05
414.065	474.58
414.442	488.81
414.819	476.39
415.197	476.84
415.574	475.93
415.951	495.59
416.328	491.53
416.705	494.01
417.082	507.35
417.46	511.41
417.837	484.3
418.214	500.57
418.591	512.32
418.967	525.42
419.344	514.8
419.721	510.74
420.098	508.93
420.475	521.36
420.852	516.38
421.228	505.99
421.605	518.87
421.982	538.98
422.358	535.14
422.735	551.19
423.111	522.71
423.488	544.86
423.864	549.6
424.241	552.77
424.617	545.99
424.994	566.1
425.37	558.87
425.746	581.47
426.123	553.22
426.499	576.95
426.875	547.12
427.251	570.17
427.627	574.91
428.003	610.62
428.379	573.56
428.756	583.95
429.132	591.19
429.507	585.76
429.883	607.46
430.259	590.96
430.635	601.13
431.011	609.26
431.387	612.65
431.763	640.9
432.138	621.92
432.514	653.1
432.89	640.45
433.265	636.38
433.641	672.09
434.016	666.66
434.392	671.18
434.767	668.7
435.143	680.45
435.518	670.28
435.894	694.23
436.269	683.39
436.644	691.07
437.02	707.57
437.395	703.05
437.77	688.58
438.145	701.69
438.52	721.8
438.895	726.1
439.271	735.14
439.646	734.23
440.021	746.44
440.395	739.66
440.77	734.46
441.145	748.7
441.52	741.46
441.895	753.21
442.27	764.97
442.645	756.83
443.019	752.99
443.394	749.82
443.769	791.63
444.143	785.98
444.518	780.56
444.892	788.02
445.267	787.79
445.641	787.79
446.016	782.82
446.39	794.34
446.764	823.5
447.139	823.72
447.513	803.38
447.887	788.24
448.262	819.2
448.636	830.5
449.01	843.83
449.384	839.09
449.758	852.2
450.132	838.86
450.506	846.32
450.88	859.43
451.254	849.26
451.628	859.65
452.002	886.54
452.376	877.51
452.75	884.74
453.123	878.41
453.497	907.33
453.871	917.73
454.244	926.09
454.618	926.09
454.992	938.97
455.365	908.92
455.739	963.83
456.112	963.83
456.486	971.97
456.859	950.27
457.232	971.06
457.606	994.56
457.979	1024.85
458.352	1022.59
458.725	1034.79
459.099	1074.56
459.472	1025.75
459.845	1063.49
460.218	1050.61
460.591	1077.95
460.964	1062.59
461.337	1114.79
461.71	1104.39
462.083	1138.29
462.456	1129.02
462.829	1145.29
463.201	1151.85
463.574	1163.15
463.947	1162.92
464.32	1202.92
464.692	1204.05
465.065	1245.86
465.438	1215.58
465.81	1257.61
466.183	1306.42
466.555	1277.95
466.928	1277.04
467.3	1296.93
467.672	1300.54
468.045	1353.2
468.417	1371.96
468.789	1385.29
469.161	1384.16
469.534	1408.11
469.906	1474.78
470.278	1467.09
470.65	1463.48
471.022	1495.12
471.394	1543.7
471.766	1527.66
472.138	1567.66
472.51	1577.15
472.882	1604.04
473.253	1618.5
473.625	1654.89
473.997	1712.51
474.369	1714.09
474.74	1757.93
475.112	1802.68
475.484	1823.02
475.855	1888.1
476.227	1904.6
476.598	1965.39
476.97	1972.39
477.341	2042.45
477.713	2089.22
478.084	2086.51
478.455	2164.03
478.827	2199.73
479.198	2245.15
479.569	2329.44
479.94	2368.09
480.311	2362.44
480.682	2458.03
481.053	2500.51
481.424	2601.08
481.795	2639.72
482.166	2686.27
482.537	2722.2
482.908	2823.22
483.279	2856.44
483.65	2963.33
484.021	3033.38
484.391	3086.49
484.762	3119.25
485.133	3183.66
485.503	3217.33
485.874	3353.37
486.244	3367.16
486.615	3437.44
486.985	3582.29
487.356	3654.38
487.726	3737.09
488.097	3838.56
488.467	3834.04
488.837	3958.78
489.207	3999.68
489.578	4120.81
489.948	4159.23
490.318	4286.68
490.688	4318.32
491.058	4422.72
491.428	4519.67
491.798	4556.73
492.168	4706.11
492.538	4752.66
492.908	4842.15
493.278	4880.79
493.648	4947.23
494.017	5053.21
494.387	5116.04
494.757	5190.16
495.126	5292.53
495.496	5309.71
495.866	5396.71
496.235	5479.87
496.605	5535.69
496.974	5655.46
497.344	5710.6
497.713	5711.5
498.082	5810.03
498.452	5896.13
498.821	5957.15
499.19	5997.82
499.559	6093.87
499.928	6116.46
500.298	6203.01
500.667	6297.7
501.036	6335.67
501.405	6390.81
501.774	6396.68
502.143	6500.86
502.512	6561.2
502.88	6603.68
503.249	6616.79
503.618	6658.37
503.987	6713.28
504.356	6834.18
504.724	6857.91
505.093	6909.66
505.462	6953.96
505.83	7058.13
506.199	7084.8
506.567	7201.18
506.936	7176.77
507.304	7276.21
507.672	7264.46
508.041	7381.06
508.409	7449.08
508.777	7545.8
509.145	7526.82
509.514	7548.74
509.882	7616.31
510.25	7715.52
510.618	7741.05
510.986	7736.99
511.354	7843.88
511.722	7917.77
512.09	7932.46
512.458	7939.92
512.826	8035.96
513.193	8103.3
513.561	8088.62
513.929	8109.86
514.297	8301.26
514.664	8282.51
515.032	8320.25
515.4	8371.77
515.767	8350.3
516.135	8439.79
516.502	8364.99
516.869	8610.86
517.237	8550.75
517.604	8606.34
517.972	8677.98
518.339	8709.39
518.706	8679.56
519.073	8785.55
519.44	8806.79
519.808	8900.35
520.175	8905.09
520.542	8985.99
520.909	9031.64
521.276	9015.14
521.643	9076.16
522.009	9144.18
522.376	9195.93
522.743	9220.79
523.11	9325.42
523.477	9435.02
523.843	9447.68
524.21	9522.48
524.577	9546.66
524.943	9612.87
525.31	9661.68
525.676	9804.28
526.043	9828.46
526.409	9851.28
526.776	9927.66
527.142	9927.21
527.508	9982.58
527.874	10041.78
528.241	10111.84
528.607	10110.03
528.973	10231.16
529.339	10253.3
529.705	10387.99
530.071	10399.06
530.437	10435.67
530.803	10504.82
531.169	10586.18
531.535	10568.55
531.901	10638.15
532.267	10667.98
532.632	10693.29
532.998	10817.36
533.364	10851.03
533.73	10859.16
534.095	10946.39
534.461	10965.15
534.826	11061.19
535.192	11022.1
535.557	11103.45
535.923	11150.91
536.288	11261.19
536.653	11202.66
537.019	11175.54
537.384	11308.42
537.749	11370.79
538.114	11400.39
538.479	11388.19
538.845	11474.06
539.21	11473.84
539.575	11601.29
539.94	11624.34
540.305	11683.1
540.67	11691.68
541.034	11697.33
541.399	11782.08
541.764	11815.07
542.129	11837.44
542.494	11930.55
542.858	11965.12
543.223	11971.68
543.587	12099.36
543.952	12105.46
544.316	12127.38
544.681	12189.52
545.045	12210.77
545.41	12308.39
545.774	12288.73
546.138	12397.43
546.503	12324.66
546.867	12429.97
547.231	12533.92
547.595	12645.56
547.959	12665.44
548.324	12685.56
548.688	12730.3
549.052	12674.48
549.416	12787.7
549.779	12795.84
550.143	12827.93
550.507	12954.7
550.871	12943.18
551.235	12992.89
551.599	13034.7
551.962	13089.39
552.326	13089.39
552.689	13120.12
553.053	13141.59
553.417	13186.56
553.78	13403.05
554.143	13278.54
554.507	13355.82
554.87	13453.22
555.234	13526.66
555.597	13382.49
555.96	13587.68
556.323	13618.64
556.686	13610.5
557.05	13730.5
557.413	13710.16
557.776	13744.06
558.139	13789.93
558.502	13782.25
558.865	13956.48
559.228	14003.94
559.59	14005.75
559.953	14081.9
560.316	14180.88
560.679	14182.47
561.041	14231.5
561.404	14298.17
561.767	14301.33
562.129	14322.58
562.492	14506.3
562.854	14406.19
563.217	14454.1
563.579	14462.68
563.941	14610.25
564.304	14691.61
564.666	14710.14
565.028	14763.24
565.39	14723.69
565.753	14894.54
566.115	14911.71
566.477	14984.48
566.839	15127.53
567.201	15103.35
567.563	15131.37
567.925	15261.99
568.287	15312.15
568.648	15316
569.01	15385.6
569.372	15553.5
569.734	15469.66
570.095	15525.03
570.457	15613.61
570.819	15704.23
571.18	15692.48
571.542	15816.55
571.903	15884.79
572.265	15991.46
572.626	15959.37
572.987	16086.82
573.349	16096.54
573.71	16141.28
574.071	16260.38
574.432	16320.71
574.794	16489.07
575.155	16472.12
575.516	16589.63
575.877	16632.35
576.238	16762.74
576.599	16936.07
576.96	17064.88
577.32	17103.97
577.681	17342.16
578.042	17451.31
578.403	17508.93
578.763	17567.69
579.124	17658.31
579.485	17781.47
579.845	18029.37
580.206	18120.22
580.566	18337.39
580.927	18368.12
581.287	18649.92
581.648	18717.26
582.008	18969.23
582.368	19111.6
582.728	19280.86
583.089	19462.1
583.449	19646.28
583.809	19815.76
584.169	20111.35
584.529	20167.62
584.889	20523.54
585.249	20633.82
585.609	20781.84
585.969	21136.41
586.329	21221.83
586.688	21636.73
587.048	21751.53
587.408	21892.55
587.768	22166.66
588.127	22456.6
588.487	22674.9
588.846	22958.51
589.206	23020.2
589.565	23342.23
589.925	23756
590.284	23912.61
590.643	24232.82
591.003	24548.07
591.362	24841.62
591.721	24970.21
592.08	25393.24
592.44	25575.39
592.799	25892.89
593.158	26205.2
593.517	26444.29
593.876	26736.26
594.235	26866.88
594.593	27206.08
594.952	27541.21
595.311	27706.18
595.67	28013.29
596.029	28371.47
596.387	28644.91
596.746	28995.64
597.104	29118.57
597.463	29329.41
597.822	29615.96
598.18	29814.82
598.538	30045.78
598.897	30420.91
599.255	30510.85
599.613	31141.79
599.972	31181.34
600.33	31432.86
600.688	31696.81
601.046	32035.33
601.404	32365.72
601.762	32401.2
602.12	32640.74
602.478	32949.2
602.836	33115.75
603.194	33195.75
603.552	33596.19
603.91	33531.56
604.268	33908.5
604.625	34044.77
604.983	34409.28
605.341	34456.51
605.698	34892.66
606.056	34979.89
606.413	35203.38
606.771	35475.01
607.128	35664.84
607.485	35691.51
607.843	35877.49
608.2	36277.25
608.557	36589.56
608.914	36556.34
609.272	36930.79
609.629	37104.58
609.986	37241.52
610.343	37315.42
610.7	37479.48
611.057	37868.17
611.414	37977.77
611.771	38197.2
612.127	38298.44
612.484	38373.69
612.841	38488.72
613.198	38666.57
613.554	38759.45
613.911	38968.03
614.267	39088.25
614.624	39156.5
614.98	39286.66
615.337	39703.15
615.693	39772.08
616.05	39800.32
616.406	39974.33
616.762	40024.05
617.118	40231.5
617.475	40233.08
617.831	40386.52
618.187	40592.17
618.543	40555.33
618.899	41063.34
619.255	40982.44
619.611	40987.19
619.967	41402.54
620.323	41417.91
620.678	41355.99
621.034	41218.37
621.39	41478.7
621.746	41381.07
622.101	41908.74
622.457	41660.84
622.812	41880.27
623.168	42025.58
623.523	42002.75
623.879	42125.46
624.234	41877.56
624.589	42224.44
624.945	42394.15
625.3	42246.59
625.655	42292.01
626.01	42338.56
626.365	42389.63
626.72	42507.82
627.075	42543.98
627.43	42482.51
627.785	42509.18
628.14	42571.1
628.495	42673.47
628.85	42764.09
629.205	42411.55
629.559	42991.43
629.914	42801.15
630.269	42716.86
630.623	42717.99
630.978	42730.19
631.332	42770.87
631.687	42910.52
632.041	42801.6
632.396	43039.79
632.75	42714.82
633.104	42812.45
633.459	42672.34
633.813	42754.37
634.167	42888.38
634.521	42854.48
634.875	42891.54
635.229	42895.61
635.583	42687.03
635.937	42731.77
636.291	42718.44
636.645	42728.61
636.999	42695.16
637.352	42756.86
637.706	42619.68
638.06	42835.5
638.413	42771.09
638.767	42740.81
639.121	42732.9
639.474	42662.62
639.828	42691.55
640.181	42621.49
640.534	42663.53
640.888	42490.42
641.241	42401.39
641.594	42580.59
641.947	42732.22
642.301	42554.15
642.654	42557.99
643.007	42488.16
643.36	42506.92
643.713	42469.41
644.066	42539.69
644.419	42344.89
644.771	42075.97
645.124	41704.45
645.477	41662.42
645.83	41357.57
646.182	41334.52
646.535	41130.46
646.888	41334.75
647.24	41129.1
647.593	41322.54
647.945	41266.27
648.298	40967.75
648.65	41146.28
649.002	40959.16
649.355	41277.57
649.707	41186.95
650.059	41317.12
650.411	41661.07
650.763	41702.65
651.115	42138.12
651.467	41861.29
651.819	41936.76
652.171	41849.31
652.523	41688.86
652.875	41917.78
653.227	41674.17
653.578	41855.64
653.93	41744.45
654.282	41838.69
654.633	41673.95
654.985	41632.82
655.337	41584.23
655.688	41797.79
656.039	41868.07
656.391	41605.93
656.742	41588.53
657.094	41659.48
657.445	41836.88
657.796	41633.95
658.147	41538.81
658.498	41714.4
658.849	41728.18
659.2	41642.54
659.551	41412.48
659.902	41698.58
660.253	41472.37
660.604	41586.49
660.955	41344.01
661.306	41563.44
661.656	41552.37
662.007	41484.35
662.358	41503.78
662.708	41537.68
663.059	41538.58
663.409	41232.6
663.76	41521.63
664.11	41492.93
664.461	41372.26
664.811	41369.77
665.161	41651.57
665.511	41399.15
665.862	41390.34
666.212	41486.61
666.562	41396.89
666.912	41242.77
667.262	41242.55
667.612	41263.11
667.962	41235.54
668.312	41275.54
668.662	41597.56
669.011	41454.29
669.361	41191.25
669.711	41299.27
670.06	41321.64
670.41	41179.04
670.76	41127.75
671.109	41257.91
671.459	41199.83
671.808	41333.39
672.157	41288.65
672.507	41023.34
672.856	40961.87
673.205	41061.99
673.554	41038.94
673.904	41091.59
674.253	41287.74
674.602	41011.37
674.951	40539.74
675.3	40359.86
675.649	40940.63
675.998	40967.75
676.346	40990.8
676.695	41099.72
677.044	40732.05
677.393	40886.85
677.741	40859.5
678.09	40781.99
678.438	40653.86
678.787	40825.83
679.135	40779.73
679.484	40554.2
679.832	40736.8
680.181	40496.58
680.529	40781.09
680.877	40357.82
681.225	40492.51
681.573	40697.48
681.922	40434.21
682.27	40333.19
682.618	40242.35
682.966	40133.87
683.314	40257.03
683.661	40128.9
684.009	39977.95
684.357	39977.95
684.705	39940.21
685.053	40005.97
685.4	39860.21
685.748	39622.93
686.095	39663.15
686.443	39589.93
686.79	39357.85
687.138	39581.35
687.485	39531.4
687.832	39438.07
688.18	39509.71
688.527	39116.27
688.874	39123.73
689.221	39033.79
689.568	39020.23
689.915	39004.64
690.262	38936.62
690.609	38825.21
690.956	38693.69
691.303	38586.34
691.65	38485.56
691.997	38440.59
692.344	38213.7
692.69	38134.38
693.037	38298.67
693.383	37959.92
693.73	38139.58
694.077	37789.08
694.423	37883.31
694.769	37802.18
695.116	37763.54
695.462	37602.19
695.808	37572.81
696.155	37579.59
696.501	37237
696.847	37316.77
697.193	37059.83
697.539	37203.1
697.885	36984.13
698.231	36993.39
698.577	36929.44
698.923	36748.2
699.269	36606.51
699.614	36539.39
699.96	36399.06
700.306	36409.23
700.651	36345.05
700.997	36220.98
701.342	36014.89
701.688	36163.13
702.033	35962.46
702.379	35766.76
702.724	35772.18
703.069	35961.33
703.415	35407.9
703.76	35427.11
704.105	35469.59
704.45	35244.74
704.795	35102.59
705.14	35077.28
705.485	35009.04
705.83	34930.85
706.175	34915.71
706.52	34815.14
706.865	34709.38
707.209	34680.01
707.554	34596.62
707.899	34643.17
708.243	34478.43
708.588	34379.9
708.932	34094.94
709.277	34062.4
709.621	34162.96
709.966	34002.51
710.31	33926.58
710.654	33722.07
710.998	33701.5
711.342	33770.88
711.687	33720.94
712.031	33536.53
712.375	33362.07
712.719	33494.05
713.063	33329.76
713.407	33518.91
713.75	33281.4
714.094	33212.02
714.438	33105.36
714.782	33232.59
715.125	32892.71
715.469	33067.62
715.812	32868.08
716.156	32689.78
716.499	32675.54
716.843	32823.56
717.186	32509.67
717.53	32723.22
717.873	32638.25
718.216	32549.21
718.559	32525.49
718.902	32218.38
719.246	32296.57
719.589	32213.18
719.932	31993.75
720.275	32130.92
720.617	32198.04
720.96	31982.22
721.303	31994.2
721.646	32038.04
721.989	31625.62
722.331	31964.6
722.674	31775.45
723.016	31777.26
723.359	31865.39
723.701	31723.7
724.044	31553.99
724.386	31439.19
724.729	31530.48
725.071	31424.27
725.413	31508.56
725.755	31459.07
726.097	31249.81
726.439	31090.95
726.782	31217.05
727.124	31255.92
727.465	31003.27
727.807	30985.41
728.149	31003.94
728.491	30924.4
728.833	30929.82
729.175	30883.95
729.516	30823.38
729.858	30790.16
730.199	30610.96
730.541	30645.54
730.882	30614.8
731.224	30704.29
731.565	30500.23
731.906	30492.09
732.248	30492.32
732.589	30323.06
732.93	30151.99
733.271	30343.4
733.612	30256.62
733.953	30309.95
734.294	30228.37
734.635	29990.64
734.976	30291.42
735.317	30073.35
735.658	30048.04
735.999	30013.24
736.339	29912.22
736.68	30109.96
737.021	29870.87
737.361	29637.88
737.702	30022.95
738.042	29792.68
738.383	29754.94
738.723	29737.99
739.063	29754.71
739.404	29780.47
739.744	29628.84
740.084	29448.05
740.424	29555.4
740.764	29492.12
741.104	29540.25
741.444	29387.26
741.784	29196.08
742.124	29333.48
742.464	29202.18
742.804	29215.74
743.143	29121.73
743.483	29169.42
743.823	29045.13
744.162	28989.76
744.502	29029.99
744.841	28810.33
745.181	29036.09
745.52	28763.33
745.86	29008.74
746.199	28874.74
746.538	28766.49
746.877	28910.89
747.216	28657.34
747.556	28703.89
747.895	28854.17
748.234	28641.07
748.573	28557.23
748.911	28538.7
749.25	28507.97
749.589	28504.58
749.928	28442.66
750.267	28437.68
750.605	28433.16
750.944	28342.77
751.283	28260.06
751.621	28224.13
751.96	28250.12
752.298	28188.65
752.636	28087.41
752.975	27947.53
753.313	27850.36
753.651	27993.63
753.989	27816.46
754.327	27881.31
754.666	27716.57
755.004	27702.79
755.342	27643.13
755.679	27675.44
756.017	27492.62
756.355	27613.07
756.693	27470.93
757.031	27418.05
757.368	27266.64
757.706	27252.63
758.044	27110.94
758.381	27280.88
758.719	27093.77
759.056	27148.68
759.394	26997.95
759.731	26851.96
760.068	26809.7
760.405	26700.78
760.743	26591.41
761.08	26741.01
761.417	26665.3
761.754	26547.11
762.091	26566.77
762.428	26373.56
762.765	26256.27
763.102	26355.25
763.438	26117.07
763.775	26016.05
764.112	26160.68
764.449	26082.72
764.785	25899.9
765.122	25813.8
765.458	25598.89
765.795	25673.92
766.131	25532.45
766.467	25494.49
766.804	25411.1
767.14	25336.52
767.476	25313.47
767.812	25169.97
768.148	25187.6
768.485	25004.78
768.821	24979.24
769.157	24809.08
769.492	24812.92
769.828	24724.34
770.164	24539.03
770.5	24578.58
770.836	24548.07
771.171	24304.01
771.507	24294.52
771.842	24138.81
772.178	24125.71
772.513	24019.72
772.849	23909.89
773.184	23908.76
773.519	23903.11
773.855	23738.82
774.19	23615.66
774.525	23554.2
774.86	23542.45
775.195	23570.92
775.53	23379.29
775.865	23309.91
776.2	23044.15
776.535	23019.97
776.87	23015.91
777.205	22903.14
777.539	22883.93
777.874	22885.29
778.209	22617.95
778.543	22548.35
778.878	22461.34
779.212	22408.01
779.547	22275.13
779.881	22393.32
780.215	22116.04
780.55	22178.19
780.884	21958.98
781.218	21954.69
781.552	21884.64
781.886	21845.99
782.22	21689.39
782.554	21589.73
782.888	21499.34
783.222	21415.5
783.556	21340.02
783.889	21297.31
784.223	21148.84
784.557	21134.15
784.89	21046.01
785.224	20912.68
785.557	20833.59
785.891	20838.34
786.224	20679.92
786.558	20730.32
786.891	20442.41
787.224	20441.51
787.557	20453.04
787.891	20427.5
788.224	20268.63
788.557	20313.83
788.89	20335.3
789.223	20240.16
789.556	20071.12
789.888	20019.83
790.221	19980.73
790.554	19698.25
790.887	19726.5
791.219	19672.49
791.552	19531.93
791.884	19561.53
792.217	19516.11
792.549	19473.85
792.882	19252.62
793.214	19192.73
793.546	19186.63
793.879	19185.5
794.211	18997.25
794.543	19069.34
794.875	19033.64
795.207	19049.68
795.539	18917.93
795.871	18872.06
796.203	18689.01
796.535	18698.96
796.867	18675.91
797.198	18564.27
797.53	18548
797.862	18496.02
798.193	18467.1
798.525	18378.97
798.856	18294.45
799.188	18091.52
799.519	18178.75
799.85	18012.65
800.182	18066.88
800.513	17981.46
800.844	17877.51
801.175	17937.17
801.506	17929.03
801.837	17882.48
802.168	17788.7
802.499	17628.7
802.83	17537.41
803.161	17587.35
803.491	17536.95
803.822	17536.73
804.153	17402.72
804.483	17392.78
804.814	17221.93
805.145	17230.97
805.475	17226
805.805	17146
806.136	17024.88
806.466	17022.62
806.796	16993.69
807.126	16803.19
807.457	16836.63
807.787	16801.83
808.117	16770.42
808.447	16734.26
808.777	16775.39
809.107	16719.35
809.436	16593.93
809.766	16596.64
810.096	16541.95
810.426	16384.67
810.755	16433.25
811.085	16325.01
811.414	16377.44
811.744	16216.76
812.073	16309.19
812.403	16202.75
812.732	16187.39
813.061	16156.65
813.39	16025.58
813.719	15983.1
814.049	16090.21
814.378	15961.63
814.707	15931.8
815.036	15901.06
815.365	15800.73
815.693	15662.43
816.022	15671.01
816.351	15701.97
816.68	15539.04
817.008	15587.85
817.337	15440.06
817.665	15420.85
817.994	15526.39
818.322	15510.34
818.651	15363.45
818.979	15323.68
819.307	15421.3
819.636	15367.29
819.964	15226.51
820.292	15267.86
820.62	15292.04
820.948	15205.26
821.276	15260.86
821.604	15251.59
821.932	15195.09
822.259	15226.28
822.587	15255.88
822.915	15080.52
823.243	15208.88
823.57	15141.31
823.898	15179.95
824.225	15079.62
824.553	15052.27
824.88	15134.08
825.207	15128.88
825.535	15085.72
825.862	15050.24
826.189	15006.17
826.516	15109
826.843	15123.23
827.17	15156.45
827.497	15149.45
827.824	15050.01
828.151	15101.76
828.478	15092.95
828.805	15147.19
829.131	15064.02
829.458	15050.92
829.785	14981.77
830.111	15020.18
830.438	15136.79
830.764	15125.94
831.09	15029
831.417	14970.69
831.743	15005.95
832.069	15062.67
832.395	14957.59
832.722	15104.02
833.048	14941.09
833.374	14970.92
833.7	14992.61
834.026	14926.18
834.351	14862
834.677	14954.65
835.003	14956.68
835.329	14927.76
835.654	14880.3
835.98	14838.27
836.306	14843.01
836.631	14806.63
836.956	14841.43
837.282	14738.38
837.607	14671.04
837.932	14673.75
838.258	14667.65
838.583	14655.9
838.908	14563.7
839.233	14604.38
839.558	14555.34
839.883	14504.72
840.208	14420.2
840.533	14445.28
840.858	14426.75
841.182	14537.71
841.507	14480.76
841.832	14356.92
842.156	14356.7
842.481	14419.97
842.805	14269.02
843.13	14250.26
843.454	14166.42
843.778	14221.34
844.103	14086.2
844.427	14109.47
844.751	14111.96
845.075	13995.35
845.399	14068.34
845.723	13863.6
846.047	13950.38
846.371	13806.88
846.695	13832.42
847.019	13715.81
847.343	13638.53
847.666	13592.88
847.99	13571.63
848.313	13545.19
848.637	13454.58
848.96	13467.23
849.284	13400.79
849.607	13261.13
849.931	13221.36
850.254	13176.62
850.577	13208.03
850.9	13020.69
851.223	13082.38
851.546	12992.89
851.869	12898.88
852.192	12959
852.515	12836.51
852.838	12777.98
853.161	12748.61
853.483	12730.53
853.806	12679.68
854.129	12623.64
854.451	12554.71
854.774	12583.86
855.096	12536.41
855.419	12437.2
855.741	12463.19
856.063	12315.4
856.385	12287.15
856.708	12324.89
857.03	12334.83
857.352	12245.79
857.674	12210.31
857.996	12107.04
858.318	12064.78
858.64	12070.88
858.961	12018.23
859.283	11949.76
859.605	11976.42
859.926	11959.93
860.248	11910.66
860.57	11865.46
860.891	11857.33
861.212	11793.15
861.534	11776.2
861.855	11731.01
862.176	11770.78
862.498	11806.03
862.819	11683.1
863.14	11623.44
863.461	11684
863.782	11648.3
864.103	11654.62
864.424	11535.08
864.745	11556.77
865.065	11504.12
865.386	11537.79
865.707	11507.96
866.027	11508.41
866.348	11419.83
866.668	11478.81
866.989	11430
867.309	11345.7
867.63	11374.63
867.95	11335.99
868.27	11295.76
868.59	11311.36
868.91	11269.77
869.23	11213.28
869.55	11203.11
869.87	11231.13
870.19	11171.47
870.51	11203.56
870.83	11211.7
871.15	11158.82
871.469	11194.75
871.789	11081.3
872.109	11079.27
872.428	10995.21
872.748	11069.33
873.067	10994.98
873.386	11006.05
873.706	11024.81
874.025	10943.91
874.344	10900.29
874.663	11058.25
874.982	10971.25
875.301	10911.82
875.62	10937.35
875.939	10841.31
876.258	10884.7
876.577	10807.87
876.896	10819.62
877.214	10796.57
877.533	10739.84
877.852	10801.76
878.17	10701.43
878.489	10776.68
878.807	10690.35
879.125	10713.18
879.444	10765.38
879.762	10726.96
880.08	10633.86
880.398	10526.97
880.716	10576.46
881.034	10554.99
881.352	10559.96
881.67	10536.46
881.988	10485.16
882.306	10508.21
882.624	10436.8
882.941	10404.26
883.259	10428.44
883.577	10387.99
883.894	10310.48
884.212	10284.26
884.529	10264.6
884.846	10314.32
885.164	10292.62
885.481	10238.39
885.798	10266.86
886.115	10171.27
886.432	10175.79
886.75	10133.76
887.067	10098.73
887.383	10037.26
887.7	10110.71
888.017	10050.82
888.334	9991.84
888.651	9995.23
888.967	10014.21
889.284	9982.12
889.6	9904.39
889.917	9813.32
890.233	9878.62
890.55	9751.4
890.866	9906.65
891.182	9809.25
891.498	9740.55
891.815	9674.34
892.131	9642.7
892.447	9684.51
892.763	9613.09
893.079	9619.2
893.395	9556.37
893.71	9492.65
894.026	9535.13
894.342	9475.92
894.657	9449.48
894.973	9411.07
895.289	9423.95
895.604	9448.35
895.92	9351.41
896.235	9264.4
896.55	9226.66
896.865	9267.12
897.181	9201.81
897.496	9230.51
897.811	9175.82
898.126	9123.84
898.441	9082.94
898.756	9096.05
899.071	9018.08
899.386	9012.88
899.7	8919.55
900.015	8895.83
900.33	8807.47
900.644	8888.37
900.959	8856.5
901.273	8835.26
901.588	8837.75
901.902	8717.98
902.216	8700.12
902.531	8672.33
902.845	8663.06
903.159	8590.3
903.473	8590.52
903.787	8545.78
904.101	8493.8
904.415	8504.65
904.729	8464.2
905.042	8412
905.356	8439.57
905.67	8357.31
905.984	8311.43
906.297	8383.3
906.611	8284.99
906.924	8237.09
907.237	8242.51
907.551	8201.61
907.864	8160.93
908.177	8099.69
908.491	8087.71
908.804	7997.54
909.117	7995.06
909.43	8026.24
909.743	7908.96
910.056	7922.74
910.368	7890.2
910.681	7887.72
910.994	7819.92
911.307	7762.75
911.619	7720.04
911.932	7781.73
912.244	7696.76
912.557	7695.63
912.869	7638.23
913.181	7633.26
913.494	7571.11
913.806	7552.81
914.118	7542.41
914.43	7420.38
914.742	7471.46
915.054	7420.61
915.366	7394.85
915.678	7295.19
915.99	7341.29
916.302	7258.35
916.613	7241.18
916.925	7212.71
917.236	7223.55
917.548	7182.42
917.859	7212.48
918.171	7106.49
918.482	7059.94
918.794	7053.39
919.105	7045.93
919.416	6916.67
919.727	6962.54
920.038	6928.19
920.349	6952.15
920.66	6885.48
920.971	6907.63
921.282	6834.64
921.593	6750.8
921.903	6743.79
922.214	6710.8
922.525	6753.96
922.835	6674.64
923.146	6616.56
923.456	6643.46
923.767	6559.39
924.077	6598.94
924.387	6504.02
924.697	6480.3
925.008	6444.36
925.318	6426.29
925.628	6454.76
925.938	6393.29
926.248	6330.92
926.558	6343.58
926.867	6343.8
927.177	6298.15
927.487	6199.17
927.796	6230.81
928.106	6199.85
928.416	6206.63
928.725	6202.34
929.034	6066.52
929.344	6138.84
929.653	6084.6
929.962	6087.09
930.271	6042.34
930.581	5982.46
930.89	5977.94
931.199	5926.19
931.508	5893.42
931.817	5859.52
932.125	5834.66
932.434	5876.47
932.743	5825.17
933.051	5731.16
933.36	5733.42
933.669	5786.98
933.977	5724.16
934.286	5702.92
934.594	5692.29
934.902	5628.34
935.21	5596.7
935.519	5600.09
935.827	5577.49
936.135	5593.31
936.443	5493.2
936.751	5541.11
937.059	5502.69
937.367	5480.77
937.674	5481.45
937.982	5442.81
938.29	5431.51
938.597	5361
938.905	5348.57
939.213	5311.96
939.52	5267.45
939.827	5290.95
940.135	5216.15
940.442	5236.49
940.749	5201.69
941.056	5212.98
941.363	5157.84
941.67	5117.39
941.977	5094.34
942.284	5064.97
942.591	5096.38
942.898	5065.64
943.205	5028.58
943.511	5039.88
943.818	4955.36
944.125	4938.64
944.431	4963.27
944.738	4935.93
945.044	4862.03
945.35	4874.01
945.657	4836.05
945.963	4815.71
946.269	4811.87
946.575	4795.82
946.881	4770.28
947.187	4751.53
947.493	4748.36
947.799	4725.54
948.105	4666.33
948.41	4691.42
948.716	4675.15
949.022	4608.25
949.327	4656.61
949.633	4560.35
949.938	4563.06
950.244	4552.89
950.549	4510.86
950.854	4503.17
951.16	4541.36
951.465	4445.32
951.77	4458.65
952.075	4423.4
952.38	4434.02
952.685	4400.35
952.99	4368.26
953.294	4340.01
953.599	4290.97
953.904	4305.44
954.209	4290.3
954.513	4270.41
954.818	4259.79
955.122	4236.06
955.426	4192.9
955.731	4190.19
956.035	4164.65
956.339	4184.54
956.643	4160.58
956.948	4149.96
957.252	4140.47
957.556	4080.36
957.86	4055.5
958.163	4023.64
958.467	4051.43
958.771	4037.2
959.075	4012.79
959.378	4020.02
959.682	3999.23
959.985	3960.36
960.289	3916.07
960.592	3947.71
960.896	3916.52
961.199	3924.88
961.502	3866.35
961.805	3933.24
962.108	3823.19
962.411	3802.17
962.714	3769.18
963.017	3785.23
963.32	3789.29
963.623	3742.29
963.926	3782.97
964.228	3715.62
964.531	3706.81
964.833	3709.3
965.136	3655.29
965.438	3636.98
965.741	3632.24
966.043	3635.62
966.345	3618.22
966.648	3596.53
966.95	3585.23
967.252	3578.9
967.554	3557.66
967.856	3533.03
968.158	3516.98
968.46	3521.96
968.761	3455.06
969.063	3474.05
969.365	3512.92
969.666	3412.58
969.968	3417.33
970.269	3423.65
970.571	3389.98
970.872	3375.52
971.174	3359.93
971.475	3321.28
971.776	3332.81
972.077	3324.22
972.378	3288.97
972.679	3301.17
972.98	3314.28
973.281	3281.96
973.582	3294.39
973.883	3215.97
974.183	3221.85
974.484	3215.75
974.785	3182.98
975.085	3191.57
975.386	3201.74
975.686	3136.43
975.986	3138.69
976.287	3151.8
976.587	3116.77
976.887	3106.83
977.187	3088.97
977.487	3060.72
977.787	3058.69
978.087	3111.57
978.387	3064.34
978.687	3056.88
978.987	3025.02
979.286	3010.78
979.586	2965.13
979.885	2954.06
980.185	2890.56
980.484	2981.63
980.784	2896.89
981.083	2887.85
981.382	2904.57
981.682	2881.52
981.981	2849.88
982.28	2866.61
982.579	2889.66
982.878	2860.96
983.177	2827.96
983.475	2827.51
983.774	2781.18
984.073	2799.26
984.372	2772.82
984.67	2717
984.969	2734.18
985.267	2762.65
985.566	2728.98
985.864	2679.72
986.162	2670
986.461	2695.76
986.759	2670.9
987.057	2640.4
987.355	2661.19
987.653	2654.63
987.951	2641.75
988.249	2604.47
988.547	2599.95
988.844	2619.83
989.142	2548.42
989.44	2611.92
989.737	2586.16
990.035	2564.92
990.332	2526.5
990.63	2530.12
990.927	2540.74
991.224	2520.85
991.521	2491.93
991.819	2486.28
992.116	2476.33
992.413	2474.53
992.71	2472.04
993.006	2447.86
993.303	2469.1
993.6	2432.94
993.897	2435.66
994.193	2423.68
994.49	2392.04
994.787	2340.29
995.083	2331.93
995.379	2357.47
995.676	2368.54
995.972	2340.74
996.268	2321.31
996.565	2294.19
996.861	2280.41
997.157	2271.82
997.453	2258.49
997.749	2259.84
998.044	2281.54
998.34	2201.09
998.636	2247.64
998.932	2232.27
999.227	2178.94
999.523	2196.79
999.818	2175.55
1000.114	2168.54
1000.409	2148.43
1000.704	2132.84
1001	2161.31
1001.295	2106.85
1001.59	2115.44
1001.885	2094.87
1002.18	2119.73
1002.475	2082.67
1002.77	2067.53
1003.065	2031.15
1003.359	2009
1003.654	2024.37
1003.949	2002.9
1004.243	2010.81
1004.538	1983.69
1004.832	1965.39
1005.127	1984.37
1005.421	1966.29
1005.715	1945.05
1006.009	1938.49
1006.304	1949.79
1006.598	1954.54
1006.892	1930.13
1007.186	1866.63
1007.48	1911.6
1007.773	1883.58
1008.067	1895.11
1008.361	1812.17
1008.655	1852.62
1008.948	1844.49
1009.242	1825.5
1009.535	1802.68
1009.829	1818.5
1010.122	1771.72
1010.415	1781.66
1010.708	1753.41
1011.001	1760.19
1011.295	1731.27
1011.588	1722.91
1011.881	1742.34
1012.173	1711.38
1012.466	1700.76
1012.759	1715.22
1013.052	1706.41
1013.344	1693.08
1013.637	1712.74
1013.93	1641.78
1014.222	1657.6
1014.514	1652.17
1014.807	1628.67
1015.099	1625.28
1015.391	1619.63
1015.683	1636.58
1015.976	1604.49
1016.268	1585.96
1016.56	1563.14
1016.851	1568.33
1017.143	1576.7
1017.435	1533.53
1017.727	1529.01
1018.018	1581.89
1018.31	1508.22
1018.602	1504.83
1018.893	1505.74
1019.185	1502.57
1019.476	1505.29
1019.767	1470.94
1020.058	1472.07
1020.35	1447.43
1020.641	1435.91
1020.932	1454.67
1021.223	1417.6
1021.514	1409.69
1021.804	1418.06
1022.095	1389.81
1022.386	1360.2
1022.677	1348.68
1022.967	1369.47
1023.258	1340.77
1023.548	1348.23
1023.839	1335.57
1024.129	1320.88
1024.419	1326.53
1024.709	1326.76
1025	1313.43
1025.29	1321.56
1025.58	1297.16
1025.87	1294.22
1026.16	1268.46
1026.449	1261
1026.739	1276.14
1027.029	1261
1027.319	1255.57
1027.608	1249.92
1027.898	1235.91
1028.187	1216.93
1028.477	1216.25
1028.766	1204.5
1029.055	1177.38
1029.344	1174.45
1029.634	1174.45
1029.923	1174.45
1030.212	1196.14
1030.501	1174.9
1030.79	1182.13
1031.078	1137.61
1031.367	1127.67
1031.656	1145.97
1031.945	1129.48
1032.233	1127.22
1032.522	1104.17
1032.81	1099.42
1033.099	1079.53
1033.387	1107.33
1033.675	1068.23
1033.963	1079.99
1034.251	1067.56
1034.54	1054.9
1034.828	1050.83
1035.116	1042.7
1035.403	1033.66
1035.691	1021
1035.979	1029.14
1036.267	1020.55
1036.554	1007.67
1036.842	1002.7
1037.129	1004.96
1037.417	1017.39
1037.704	1016.94
1037.992	966.09
1038.279	976.94
1038.566	961.57
1038.853	961.57
1039.14	961.57
