Data from hue_100_FLMS001491_00048.txt Node
Date: Tue Feb 07 17:03:14 GMT 2017
User: dcchb
Spectrometer: FLMS00149
Trigger mode: 0
Integration Time (sec): 2.000000E-2
Scans to average: 10
Electric dark correction enabled: true
Nonlinearity correction enabled: false
Boxcar width: 0
XAxis mode: Wavelengths
Number of Pixels in Spectrum: 2048
>>>>>Begin Spectral Data<<<<<
341.393	-22.26
341.776	-22.26
342.16	-22.26
342.543	-60.9
342.927	-75.59
343.31	-75.59
343.693	-60.22
344.077	-62.71
344.46	-67
344.843	-57.96
345.226	-42.37
345.61	-27.46
345.993	-28.81
346.376	-1.47
346.759	3.05
347.142	26.33
347.525	55.48
347.908	52.09
348.291	88.02
348.674	79.88
349.057	118.75
349.44	120.11
349.823	143.84
350.206	172.31
350.588	200.79
350.971	208.7
351.354	231.52
351.737	259.54
352.119	277.85
352.502	259.32
352.884	265.87
353.267	280.33
353.65	291.63
354.032	302.7
354.414	326.21
354.797	323.04
355.179	314
355.562	333.66
355.944	322.36
356.326	337.05
356.709	345.19
357.091	360.33
357.473	344.74
357.855	354.91
358.238	338.41
358.62	348.35
359.002	364.62
359.384	365.53
359.766	354.91
360.148	355.36
360.53	347.22
360.912	346.54
361.294	326.88
361.676	343.38
362.057	341.12
362.439	328.92
362.821	322.14
363.203	321.23
363.584	322.36
363.966	330.73
364.348	328.47
364.729	328.24
365.111	332.08
365.493	300.22
365.874	328.24
366.256	335.7
366.637	340.67
367.019	344.06
367.4	321.23
367.781	330.5
368.163	317.17
368.544	341.12
368.925	304.51
369.306	322.59
369.688	327.34
370.069	319.43
370.45	319.65
370.831	323.49
371.212	327.34
371.593	315.13
371.974	317.17
372.355	315.58
372.736	316.94
373.117	324.17
373.498	311.07
373.879	315.36
374.26	319.2
374.641	328.24
375.021	336.15
375.402	327.34
375.783	314.23
376.163	342.48
376.544	346.09
376.925	348.58
377.305	332.53
377.686	350.39
378.066	345.19
378.447	345.87
378.827	350.61
379.208	351.97
379.588	349.26
379.968	346.32
380.349	368.92
380.729	366.21
381.109	348.13
381.489	339.77
381.87	348.58
382.25	343.83
382.63	354.45
383.01	358.97
383.39	361.69
383.77	359.88
384.15	365.3
384.53	345.87
384.91	388.58
385.29	372.98
385.67	384.74
386.049	384.06
386.429	376.37
386.809	359.2
387.189	383.61
387.568	397.39
387.948	382.7
388.328	391.74
388.707	370.95
389.087	386.32
389.466	406.88
389.846	379.09
390.225	392.42
390.605	384.51
390.984	386.77
391.363	394.23
391.743	389.03
392.122	376.15
392.501	413.66
392.881	391.97
393.26	390.84
393.639	404.62
394.018	390.16
394.397	400.1
394.776	380.89
395.155	392.19
395.534	408.24
395.913	391.29
396.292	432.19
396.671	438.07
397.05	403.04
397.429	414.11
397.808	429.71
398.186	415.47
398.565	417.5
398.944	448.69
399.323	405.07
399.701	425.41
400.08	436.26
400.458	436.49
400.837	437.62
401.215	431.06
401.594	446.43
401.972	452.98
402.351	421.8
402.729	445.53
403.107	434.68
403.486	450.95
403.864	443.94
404.242	445.3
404.62	447.33
404.999	462.02
405.377	440.78
405.755	451.63
406.133	460.44
406.511	486.65
406.889	476.71
407.267	471.06
407.645	473.32
408.023	492.98
408.401	482.13
408.779	492.98
409.156	497.73
409.534	483.49
409.912	518.97
410.29	499.08
410.667	500.21
411.045	515.35
411.422	492.53
411.8	517.84
412.178	538.63
412.555	536.37
412.933	534.79
413.31	503.15
413.687	517.16
414.065	546.77
414.442	549.93
414.819	529.14
415.197	547.22
415.574	563.49
415.951	565.3
416.328	543.38
416.705	567.56
417.082	572.98
417.46	589.25
417.837	570.95
418.214	579.76
418.591	588.12
418.967	571.85
419.344	586.31
419.721	592.87
420.098	598.52
420.475	592.41
420.852	620.21
421.228	598.29
421.605	615.92
421.982	601
422.358	622.7
422.735	621.34
423.111	615.46
423.488	641.45
423.864	632.41
424.241	641.45
424.617	671.96
424.994	656.82
425.37	676.25
425.746	643.49
426.123	661.11
426.499	660.89
426.875	665.63
427.251	669.02
427.627	690.04
428.003	693.65
428.379	722.35
428.756	698.17
429.132	714.9
429.507	697.27
429.883	735.01
430.259	735.69
430.635	752.64
431.011	752.64
431.387	747.21
431.763	765.06
432.138	762.8
432.514	796.25
432.89	786.31
433.265	773.43
433.641	824.05
434.016	809.13
434.392	781.34
434.767	851.62
435.143	822.69
435.518	846.87
435.894	853.65
436.269	852.52
436.644	841.67
437.02	865.63
437.395	890.03
437.77	887.55
438.145	885.29
438.52	907.21
438.895	907.89
439.271	909.92
439.646	931.39
440.021	925.96
440.395	939.52
440.77	934.1
441.145	932.97
441.52	931.84
441.895	935.91
442.27	941.33
442.645	960.31
443.019	961.9
443.394	975.45
443.769	1008
444.143	1006.41
444.518	992.63
444.892	970.26
445.267	993.76
445.641	1012.52
446.016	1038.05
446.39	1025.85
446.764	1023.36
447.139	1034.66
447.513	1057.49
447.887	1024.94
448.262	1049.58
448.636	1038.05
449.01	1075.34
449.384	1090.93
449.758	1094.77
450.132	1102
450.506	1145.62
450.88	1094.77
451.254	1135.22
451.628	1127.09
452.002	1135.22
452.376	1160.99
452.75	1164.38
453.123	1199.86
453.497	1195.56
453.871	1187.43
454.244	1201.44
454.618	1261.1
454.992	1231.27
455.365	1259.06
455.739	1280.08
456.112	1293.41
456.486	1271.94
456.859	1309.01
457.232	1348.1
457.606	1334.54
457.979	1338.16
458.352	1366.4
458.725	1431.04
459.099	1394.43
459.472	1442.56
459.845	1411.6
460.218	1457.93
460.591	1461.32
460.964	1474.2
461.337	1509.23
461.71	1509.45
462.083	1562.56
462.456	1553.29
462.829	1571.15
463.201	1594.2
463.574	1636.45
463.947	1633.97
464.32	1694.76
464.692	1668.09
465.065	1711.71
465.438	1729.79
465.81	1775.66
466.183	1764.81
466.555	1800.97
466.928	1816.34
467.3	1856.56
467.672	1842.1
468.045	1956.22
468.417	1900.85
468.789	1937.46
469.161	1992.6
469.534	2022.88
469.906	2071.24
470.278	2100.17
470.65	2130
471.022	2160.28
471.394	2224.69
471.766	2263.56
472.138	2301.52
472.51	2344.68
472.882	2372.93
473.253	2430.33
473.625	2461.29
473.997	2581.74
474.369	2595.52
474.74	2632.13
475.112	2645.92
475.484	2734.96
475.855	2838
476.227	2824.67
476.598	2949.64
476.97	2968.62
477.341	3107.15
477.713	3169.3
478.084	3197.77
478.455	3304.88
478.827	3397.99
479.198	3507.37
479.569	3585.78
479.94	3659.9
480.311	3746.23
480.682	3834.81
481.053	3941.25
481.424	4047.46
481.795	4170.85
482.166	4228.7
482.537	4371.3
482.908	4512.08
483.279	4577.17
483.65	4770.84
484.021	4891.51
484.391	4988.68
484.762	5104.16
485.133	5187.32
485.503	5304.38
485.874	5505.96
486.244	5573.3
486.615	5768.77
486.985	5907.3
487.356	5957.92
487.726	6123.57
488.097	6335.99
488.467	6476.1
488.837	6631.8
489.207	6740.95
489.578	6930.78
489.948	7027.5
490.318	7195.86
490.688	7314.04
491.058	7522.18
491.428	7722.85
491.798	7824.54
492.168	8067.92
492.538	8245.55
492.908	8382.49
493.278	8483.28
493.648	8584.07
494.017	8810.73
494.387	8922.36
494.757	9107.44
495.126	9226.54
495.496	9323.71
495.866	9398.28
496.235	9656.58
496.605	9771.38
496.974	9950.36
497.344	10042.33
497.713	10172.5
498.082	10364.36
498.452	10479.16
498.821	10630.34
499.19	10653.17
499.559	10826.49
499.928	10938.81
500.298	11143.55
500.667	11238.46
501.036	11308.97
501.405	11423.54
501.774	11535.63
502.143	11608.17
502.512	11678.68
502.88	11847.49
503.249	11971.78
503.618	11975.39
503.987	12069.17
504.356	12223.75
504.724	12274.37
505.093	12418.54
505.462	12524.76
505.83	12528.82
506.199	12744.64
506.567	12922.03
506.936	12921.81
507.304	13083.61
507.672	13159.77
508.041	13288.13
508.409	13363.38
508.777	13442.25
509.145	13502.58
509.514	13475.69
509.882	13635.69
510.25	13611.51
510.618	13770.37
510.986	13842.46
511.354	14049.69
511.722	14016.24
512.09	14169.01
512.458	14146.86
512.826	14374.2
513.193	14276.35
513.561	14380.75
513.929	14552.5
514.297	14547.3
514.664	14594.08
515.032	14738.03
515.4	14771.7
515.767	14858.48
516.135	14934.64
516.502	14728.31
516.869	15154.06
517.237	15089.66
517.604	15001.98
517.972	15167.62
518.339	15207.4
518.706	15185.25
519.073	15246.94
519.44	15363.1
519.808	15481.29
520.175	15446.71
520.542	15487.62
520.909	15641.74
521.276	15571.91
521.643	15744.56
522.009	15688.51
522.376	15763.54
522.743	15883.09
523.11	15973.25
523.477	16106.58
523.843	16123.98
524.21	16161.95
524.577	16214.38
524.943	16268.16
525.31	16323.3
525.676	16491.2
526.043	16539.34
526.409	16483.97
526.776	16633.57
527.142	16689.62
527.508	16646.23
527.874	16800.12
528.241	16690.75
528.607	16804.87
528.973	16794.7
529.339	16776.62
529.705	16921.93
530.071	16858.2
530.437	16984.98
530.803	16959.89
531.169	16972.32
531.535	16955.6
531.901	16937.52
532.267	16916.96
532.632	17007.35
532.998	17015.71
533.364	17004.41
533.73	16974.36
534.095	17125.99
534.461	17110.4
534.826	17086.67
535.192	17107.69
535.557	17099.32
535.923	17045.77
536.288	17161.47
536.653	17132.77
537.019	17004.86
537.384	17028.82
537.749	17016.61
538.114	17011.87
538.479	16997.18
538.845	17041.92
539.21	16800.35
539.575	16915.83
539.94	16939.1
540.305	16945.88
540.67	16880.8
541.034	16872.44
541.399	16863.62
541.764	16890.97
542.129	16762.16
542.494	16791.31
542.858	16842.38
543.223	16662.95
543.587	16808.94
543.952	16707.24
544.316	16683.52
544.681	16612.56
545.045	16723.97
545.41	16733.01
545.774	16672.22
546.138	16636.74
546.503	16665.44
546.867	16583.18
547.231	16616.17
547.595	16609.85
547.959	16535.95
548.324	16382.06
548.688	16375.5
549.052	16453.69
549.416	16448.49
549.779	16357.42
550.143	16359.46
550.507	16398.33
550.871	16475.39
551.235	16293.24
551.599	16302.96
551.962	16313.36
552.326	16343.41
552.689	16296.86
553.053	16131.21
553.417	16198.33
553.78	16285.79
554.143	16182.29
554.507	16285.11
554.87	16277.2
555.234	16296.86
555.597	16101.84
555.96	16208.27
556.323	16268.61
556.686	16149.07
557.05	16316.52
557.413	16213.02
557.776	16227.93
558.139	16218.67
558.502	16239.23
558.865	16242.85
559.228	16205.56
559.59	16223.87
559.953	16261.61
560.316	16321.04
560.679	16221.83
561.041	16360.81
561.404	16361.72
561.767	16314.94
562.129	16214.38
562.492	16382.96
562.854	16353.13
563.217	16315.84
563.579	16344.32
563.941	16422.05
564.304	16502.96
564.666	16520.58
565.028	16455.95
565.39	16449.85
565.753	16601.48
566.115	16649.84
566.477	16674.93
566.839	16696.17
567.201	16739.11
567.563	16580.47
567.925	16770.97
568.287	16800.8
568.648	16759.22
569.01	16782.27
569.372	16861.14
569.734	16725.55
570.095	16893.23
570.457	16803.29
570.819	16896.17
571.18	16995.15
571.542	16940.01
571.903	16963.51
572.265	16909.5
572.626	17067.23
572.987	16999.89
573.349	17016.84
573.71	17100.68
574.071	17079.44
574.432	17082.6
574.794	17269.04
575.155	17213.45
575.516	17149.49
575.877	17159.66
576.238	17165.99
576.599	17193.11
576.96	17204.18
577.32	17202.15
577.681	17195.82
578.042	17315.59
578.403	17183.84
578.763	17234.69
579.124	17324.18
579.485	17293.44
579.845	17379.54
580.206	17299.77
580.566	17321.47
580.927	17254.57
581.287	17324.63
581.648	17211.86
582.008	17229.49
582.368	17287.12
582.728	17296.16
583.089	17286.21
583.449	17249.83
583.809	17261.13
584.169	17246.67
584.529	17276.27
584.889	17363.95
585.249	17166.67
585.609	17147.23
585.969	17263.16
586.329	17160.57
586.688	17256.16
587.048	17198.76
587.408	17124.86
587.768	17188.14
588.127	17201.47
588.487	17114.69
588.846	17247.8
589.206	17091.19
589.565	17129.38
589.925	17191.3
590.284	17031.53
590.643	17129.83
591.003	17145.65
591.362	17160.57
591.721	17083.73
592.08	17082.38
592.44	17087.35
592.799	17164.18
593.158	17125.99
593.517	17062.49
593.876	17080.79
594.235	17125.76
594.593	17061.81
594.952	17120.34
595.311	17079.89
595.67	17062.04
596.029	17182.49
596.387	17165.99
596.746	17136.39
597.104	16990.4
597.463	16989.72
597.822	17140.45
598.18	17055.48
598.538	16962.38
598.897	17069.95
599.255	16954.47
599.613	17148.59
599.972	16998.08
600.33	17014.35
600.688	17021.59
601.046	17057.97
601.404	17105.65
601.762	17053
602.12	17129.83
602.478	17058.87
602.836	17149.27
603.194	17073.79
603.552	17038.08
603.91	16962.6
604.268	17166.44
604.625	17083.73
604.983	17115.6
605.341	17034.69
605.698	17141.81
606.056	17108.36
606.413	17054.35
606.771	17141.81
607.128	17145.65
607.485	17069.49
607.843	17116.95
608.2	17243.28
608.557	17202.37
608.914	17092.32
609.272	17305.42
609.629	17281.24
609.986	17295.48
610.343	17257.74
610.7	17332.09
611.057	17361.46
611.414	17248.92
611.771	17348.81
612.127	17434.23
612.484	17479.88
612.841	17448.47
613.198	17416.38
613.554	17341.8
613.911	17461.8
614.267	17373.89
614.624	17403.5
614.98	17480.56
615.337	17514
615.693	17504.74
616.05	17422.03
616.406	17564.85
616.762	17473.78
617.118	17502.25
617.475	17461.57
617.831	17587.67
618.187	17652.76
618.543	17619.76
618.899	17650.72
619.255	17686.2
619.611	17621.8
619.967	17722.13
620.323	17789.93
620.678	17602.14
621.034	17543.38
621.39	17524.4
621.746	17663.6
622.101	17762.81
622.457	17653.66
622.812	17690.27
623.168	17696.37
623.523	17627.67
623.879	17613.89
624.234	17664.06
624.589	17651.85
624.945	17600.33
625.3	17644.17
625.655	17638.52
626.01	17790.38
626.365	17605.07
626.72	17630.16
627.075	17582.48
627.43	17595.36
627.785	17557.62
628.14	17711.96
628.495	17635.13
628.85	17646.43
629.205	17561.91
629.559	17676.03
629.914	17608.92
630.269	17617.73
630.623	17524.17
630.978	17440.56
631.332	17590.38
631.687	17580.67
632.041	17462.48
632.396	17456.6
632.75	17469.03
633.104	17501.57
633.459	17393.33
633.813	17360.33
634.167	17284.4
634.521	17381.58
634.875	17378.19
635.229	17378.41
635.583	17294.8
635.937	17292.99
636.291	17289.15
636.645	17212.99
636.999	17235.37
637.352	17264.07
637.706	17184.29
638.06	17194.46
638.413	17175.71
638.767	17098.65
639.121	17115.82
639.474	17048.25
639.828	17031.3
640.181	17088.48
640.534	17021.59
640.888	17005.99
641.241	16879.67
641.594	16979.78
641.947	16974.36
642.301	16942.94
642.654	17049.38
643.007	16961.02
643.36	16954.7
643.713	16900.23
644.066	16919.67
644.419	16928.03
644.771	16764.64
645.124	16751.54
645.477	16618.21
645.83	16487.14
646.182	16423.86
646.535	16315.84
646.888	16316.97
647.24	16332.79
647.593	16413.69
647.945	16288.72
648.298	16255.05
648.65	16255.96
649.002	16202.62
649.355	16314.03
649.707	16332.34
650.059	16390.64
650.411	16586.34
650.763	16524.65
651.115	16839.44
651.467	16731.88
651.819	16678.32
652.171	16742.27
652.523	16691.2
652.875	16643.29
653.227	16587.02
653.578	16648.71
653.93	16674.02
654.282	16617.08
654.633	16550.86
654.985	16614.14
655.337	16584.76
655.688	16669.73
656.039	16730.52
656.391	16569.62
656.742	16559
657.094	16564.42
657.445	16686.68
657.796	16531.66
658.147	16597.42
658.498	16647.58
658.849	16594.48
659.2	16619.79
659.551	16648.71
659.902	16621.6
660.253	16609.85
660.604	16656.17
660.955	16564.42
661.306	16654.59
661.656	16587.7
662.007	16691.88
662.358	16638.55
662.708	16739.33
663.059	16694.14
663.409	16517.64
663.76	16681.48
664.11	16681.48
664.461	16655.49
664.811	16702.72
665.161	16608.49
665.511	16658.43
665.862	16594.93
666.212	16671.99
666.562	16735.04
666.912	16722.61
667.262	16764.19
667.612	16710.18
667.962	16593.12
668.312	16664.31
668.662	16763.29
669.011	16608.49
669.361	16625.44
669.711	16589.51
670.06	16656.62
670.41	16653.91
670.76	16590.41
671.109	16647.13
671.459	16617.08
671.808	16544.31
672.157	16509.96
672.507	16387.48
672.856	16484.43
673.205	16571.2
673.554	16596.51
673.904	16533.24
674.253	16527.36
674.602	16543.18
674.951	16342.73
675.3	16233.36
675.649	16503.41
675.998	16462.96
676.346	16537.31
676.695	16520.36
677.044	16310.64
677.393	16352
677.741	16438.32
678.09	16350.42
678.438	16192.68
678.787	16320.14
679.135	16399.91
679.484	16227.93
679.832	16267.93
680.181	16126.69
680.529	16170.76
680.877	16088.5
681.225	16057.32
681.573	16165.56
681.922	16091.89
682.27	15906.59
682.618	16088.05
682.966	15946.59
683.314	16001.05
683.661	15871.33
684.009	15886.02
684.357	15796.08
684.705	15748.85
685.053	15754.28
685.4	15803.77
685.748	15693.71
686.095	15690.77
686.443	15600.83
686.79	15657.33
687.138	15608.74
687.485	15591.79
687.832	15599.02
688.18	15554.28
688.527	15476.32
688.874	15424.57
689.221	15379.82
689.568	15299.37
689.915	15332.37
690.262	15378.92
690.609	15295.3
690.956	15130.11
691.303	15169.21
691.65	15122.88
691.997	15161.07
692.344	14948.87
692.69	14992.49
693.037	14943.45
693.383	14830.46
693.73	14856.45
694.077	14709.78
694.423	14812.6
694.769	14747.97
695.116	14623.01
695.462	14686.28
695.808	14643.57
696.155	14668.43
696.501	14440.86
696.847	14503.69
697.193	14294.2
697.539	14361.32
697.885	14217.14
698.231	14187.31
698.577	14232.73
698.923	14143.47
699.269	14028.9
699.614	14037.03
699.96	13957.49
700.306	13996.36
700.651	13923.14
700.997	13846.98
701.342	13884.95
701.688	13821.22
702.033	13771.28
702.379	13633.2
702.724	13650.38
703.069	13610.83
703.415	13574.45
703.76	13510.94
704.105	13503.03
704.45	13409.25
704.795	13382.36
705.14	13303.27
705.485	13218.3
705.83	13187.79
706.175	13265.07
706.52	13161.35
706.865	13150.28
707.209	13114.34
707.554	13060.79
707.899	13086.32
708.243	12977.85
708.588	12974.91
708.932	12826.67
709.277	12879.55
709.621	12858.31
709.966	12816.05
710.31	12756.84
710.654	12714.81
710.998	12724.75
711.342	12659.44
711.687	12680.68
712.031	12550.07
712.375	12546.9
712.719	12541.7
713.063	12504.87
713.407	12552.33
713.75	12457.86
714.094	12502.84
714.438	12484.3
714.782	12365.21
715.125	12325.44
715.469	12363.4
715.812	12259.23
716.156	12192.79
716.499	12281.15
716.843	12353.01
717.186	12194.59
717.53	12226.91
717.873	12149.62
718.216	12269.39
718.559	12103.75
718.902	12053.36
719.246	12086.8
719.589	12089.96
719.932	11987.59
720.275	12032.56
720.617	12035.5
720.96	12016.97
721.303	12023.53
721.646	11999.12
721.989	11930.42
722.331	11927.93
722.674	11945.79
723.016	11972.91
723.359	11892
723.701	11916.41
724.044	11808.16
724.386	11861.72
724.729	11888.61
725.071	11819.46
725.413	11830.31
725.755	11756.87
726.097	11783.08
726.439	11680.26
726.782	11656.3
727.124	11753.25
727.465	11666.92
727.807	11671.67
728.149	11658.34
728.491	11677.09
728.833	11701.05
729.175	11619.47
729.516	11607.27
729.858	11641.61
730.199	11569.07
730.541	11660.82
730.882	11603.2
731.224	11647.26
731.565	11547.15
731.906	11597.55
732.248	11592.8
732.589	11579.47
732.93	11520.49
733.271	11600.03
733.612	11609.53
733.953	11546.93
734.294	11546.7
734.635	11528.85
734.976	11622.63
735.317	11525.23
735.658	11519.36
735.999	11581.96
736.339	11501.28
736.68	11595.74
737.021	11546.7
737.361	11537.21
737.702	11558.45
738.042	11541.28
738.383	11518
738.723	11588.06
739.063	11548.96
739.404	11603.2
739.744	11611.79
740.084	11538.11
740.424	11633.93
740.764	11554.61
741.104	11626.25
741.444	11574.27
741.784	11553.71
742.124	11647.94
742.464	11706.25
742.804	11699.01
743.143	11671.67
743.483	11642.29
743.823	11672.57
744.162	11677.09
744.502	11767.49
744.841	11796.64
745.181	11765.45
745.52	11821.27
745.86	11866.69
746.199	11924.09
746.538	11901.27
746.877	12045.67
747.216	12136.97
747.556	12101.94
747.895	12149.85
748.234	12125.67
748.573	12170.64
748.911	12341.94
749.25	12382.61
749.589	12406.11
749.928	12458.54
750.267	12628.26
750.605	12580.35
750.944	12675.71
751.283	12734.92
751.621	12890.62
751.96	12848.14
752.298	13037.74
752.636	13051.3
752.975	13145.08
753.313	13199.31
753.651	13470.95
753.989	13452.87
754.327	13591.17
754.666	13612.41
755.004	13765.17
755.342	13949.8
755.679	14061.66
756.017	14197.25
756.355	14400.64
756.693	14440.64
757.031	14637.02
757.368	14658.26
757.706	14889.89
758.044	14992.49
758.381	15146.61
758.719	15222.76
759.056	15506.82
759.394	15694.39
759.731	15709.08
760.068	15916.76
760.405	16142.97
760.743	16158.56
761.08	16394.94
761.417	16424.54
761.754	16715.15
762.091	16860.69
762.428	17021.59
762.765	17147.91
763.102	17365.98
763.438	17497.05
763.775	17601.68
764.112	17754
764.449	18010.03
764.785	18209.8
765.122	18114.44
765.458	18368.22
765.795	18492.06
766.131	18632.62
766.467	18758.94
766.804	18771.6
767.14	18906.28
767.476	19130.91
767.812	19132.04
768.148	19331.36
768.485	19382.2
768.821	19539.03
769.157	19592.14
769.492	19701.52
769.828	19823.77
770.164	19830.78
770.5	19892.47
770.836	20062.86
771.171	20008.17
771.507	20173.82
771.842	20220.6
772.178	20368.62
772.513	20423.3
772.849	20471.21
773.184	20504.66
773.519	20678.67
773.855	20741.49
774.19	20668.27
774.525	20682.28
774.86	20950.97
775.195	20973.8
775.53	20976.96
775.865	20811.77
776.2	20861.26
776.535	20824.42
776.87	20955.27
777.205	20925.66
777.539	20969.05
777.874	21077.75
778.209	20902.61
778.543	20966.57
778.878	20943.97
779.212	20994.36
779.547	20935.38
779.881	21009.73
780.215	20980.58
780.55	21140.8
780.884	21010.63
781.218	21067.58
781.552	21138.09
781.886	21020.58
782.22	20966.12
782.554	20873.69
782.888	20772
783.222	20873.69
783.556	20793.24
783.889	20773.58
784.223	20728.38
784.557	20681.38
784.89	20730.42
785.224	20699.68
785.557	20700.13
785.891	20634.37
786.224	20628.27
786.558	20586.69
786.891	20469.63
787.224	20472.12
787.557	20397.09
787.891	20517.31
788.224	20394.15
788.557	20446.36
788.89	20334.95
789.223	20357.09
789.556	20324.78
789.888	20227.38
790.221	20156.87
790.554	20064.9
790.887	20059.25
791.219	20119.58
791.552	19963.2
791.884	19892.25
792.217	19842.53
792.549	19945.58
792.882	19834.85
793.214	19678.92
793.546	19939.93
793.879	19652.03
794.211	19626.04
794.543	19657.22
794.875	19580.84
795.207	19702.42
795.539	19543.33
795.871	19482.09
796.203	19351.24
796.535	19223.11
796.867	19290
797.198	19236.67
797.53	19258.82
797.862	19042.32
798.193	19245.71
798.525	19005.04
798.856	19164.35
799.188	18867.64
799.519	18853.4
799.85	18872.39
800.182	18809.56
800.513	18769.34
800.844	18699.06
801.175	18793.97
801.506	18696.57
801.837	18631.71
802.168	18581.55
802.499	18426.3
802.83	18424.94
803.161	18397.6
803.491	18510.81
803.822	18537.25
804.153	18276.69
804.483	18179.75
804.814	18156.02
805.145	18170.48
805.475	18171.84
805.805	18012.52
806.136	18110.37
806.466	18125.96
806.796	17960.09
807.126	17830.6
807.457	17813.2
807.787	17955.35
808.117	17777.95
808.447	17771.17
808.777	17748.35
809.107	17664.28
809.436	17626.32
809.766	17664.73
810.096	17542.93
810.426	17523.27
810.755	17501.57
811.085	17424.06
811.414	17420.9
811.744	17267.23
812.073	17260.45
812.403	17220.45
812.732	17161.47
813.061	17219.77
813.39	17051.42
813.719	17071.53
814.049	17120.11
814.378	17024.75
814.707	17012.1
815.036	17038.54
815.365	16883.51
815.693	16782.04
816.022	16802.38
816.351	16784.98
816.68	16713.12
817.008	16775.27
817.337	16622.73
817.665	16570.07
817.994	16592.67
818.322	16581.37
818.651	16492.56
818.979	16479.45
819.307	16616.17
819.636	16541.37
819.964	16461.15
820.292	16472
820.62	16443.52
820.948	16396.97
821.276	16484.43
821.604	16392.45
821.932	16391.77
822.259	16355.62
822.587	16423.41
822.915	16341.38
823.243	16393.13
823.57	16295.73
823.898	16426.12
824.225	16307.93
824.553	16316.97
824.88	16361.49
825.207	16396.97
825.535	16369.63
825.862	16411.66
826.189	16277.88
826.516	16353.58
826.843	16416.4
827.17	16374.15
827.497	16393.35
827.824	16419.79
828.151	16335.5
828.478	16410.75
828.805	16360.81
829.131	16387.7
829.458	16439.91
829.785	16307.25
830.111	16305.45
830.438	16420.92
830.764	16326.69
831.09	16327.14
831.417	16310.42
831.743	16381.15
832.069	16248.27
832.395	16274.94
832.722	16284.66
833.048	16234.26
833.374	16267.48
833.7	16245.34
834.026	16225.45
834.351	16174.6
834.677	16227.93
835.003	16197.88
835.329	16228.61
835.654	16184.32
835.98	16096.19
836.306	16153.13
836.631	16052.8
836.956	16065.91
837.282	16029.52
837.607	16042.63
837.932	16062.06
838.258	15970.31
838.583	15993.59
838.908	15895.51
839.233	15934.84
839.558	15844.89
839.883	15835.4
840.208	15805.35
840.533	15870.66
840.858	15793.14
841.182	15778.91
841.507	15695.75
841.832	15701.62
842.156	15641.74
842.481	15581.85
842.805	15568.74
843.13	15614.17
843.454	15535.07
843.778	15418.92
844.103	15499.37
844.427	15345.47
844.751	15340.05
845.075	15271.8
845.399	15294.63
845.723	15180.05
846.047	15222.54
846.371	15114.97
846.695	15121.52
847.019	14964.24
847.343	14964.01
847.666	14893.73
847.99	14859.16
848.313	14762.89
848.637	14684.92
848.96	14707.3
849.284	14695.55
849.607	14481.54
849.931	14459.39
850.254	14420.52
850.577	14415.33
850.9	14181.66
851.223	14315.22
851.546	14180.76
851.869	14080.42
852.192	14135.11
852.515	13974.66
852.838	14004.26
853.161	13910.26
853.483	13905.06
853.806	13820.54
854.129	13773.08
854.451	13798.17
854.774	13709.58
855.096	13656.03
855.419	13623.26
855.741	13611.96
856.063	13516.14
856.385	13487.67
856.708	13433.43
857.03	13352.3
857.352	13383.04
857.674	13288.13
857.996	13237.51
858.318	13218.75
858.64	13235.47
858.961	13172.2
859.283	13099.2
859.605	12962.48
859.926	13053.1
860.248	13070.73
860.57	12996.38
860.891	12979.43
861.212	12821.24
861.534	12814.47
861.855	12766.11
862.176	12808.82
862.498	12872.54
862.819	12813.34
863.14	12763.85
863.461	12832.77
863.782	12738.31
864.103	12646.79
864.424	12576.28
864.745	12663.06
865.065	12598.65
865.386	12567.69
865.707	12586.22
866.027	12593
866.348	12509.39
866.668	12561.14
866.989	12542.38
867.309	12424.19
867.63	12420.58
867.95	12407.02
868.27	12388.04
868.59	12392.33
868.91	12440.46
869.23	12326.79
869.55	12276.17
869.87	12331.77
870.19	12283.41
870.51	12301.26
870.83	12284.54
871.15	12195.95
871.469	12175.39
871.789	12184.88
872.109	12182.17
872.428	12104.65
872.748	12168.38
873.067	12194.37
873.386	12086.12
873.706	12130.64
874.025	12005.22
874.344	11976.07
874.663	11963.19
874.982	12021.27
875.301	11897.2
875.62	11996.41
875.939	11884.09
876.258	11890.2
876.577	11859.69
876.896	11859.91
877.214	11753.48
877.533	11834.15
877.852	11808.39
878.17	11704.44
878.489	11831.44
878.807	11775.85
879.125	11766.36
879.444	11744.21
879.762	11665.12
880.08	11662.63
880.398	11588.51
880.716	11590.99
881.034	11538.57
881.352	11593.25
881.67	11507.83
881.988	11465.8
882.306	11482.07
882.624	11449.08
882.941	11357.78
883.259	11291.79
883.577	11384.45
883.894	11338.35
884.212	11368.18
884.529	11289.08
884.846	11285.24
885.164	11255.18
885.481	11235.52
885.798	11236.88
886.115	11091.35
886.432	11121.63
886.75	11094.06
887.067	11094.28
887.383	11172.93
887.7	11063.32
888.017	11041.4
888.334	11080.27
888.651	10988.3
888.967	10981.07
889.284	10862.2
889.6	10951.24
889.917	10793.5
890.233	10809.77
890.55	10789.43
890.866	10712.6
891.182	10731.13
891.498	10697.23
891.815	10711.02
892.131	10682.32
892.447	10602.09
892.763	10606.84
893.079	10527.97
893.395	10504.7
893.71	10428.77
894.026	10427.64
894.342	10462.44
894.657	10293.18
894.973	10278.26
895.289	10240.3
895.604	10320.75
895.92	10225.61
896.235	10221.99
896.55	10122.78
896.865	10152.16
897.181	10042.79
897.496	10099.73
897.811	10001.66
898.126	9999.4
898.441	10000.3
898.756	9916.01
899.071	9871.49
899.386	9868.1
899.7	9820.19
900.015	9749.24
900.33	9696.36
900.644	9719.18
900.959	9735
901.273	9557.15
901.588	9606.64
901.902	9562.57
902.216	9564.38
902.531	9513.99
902.845	9461.33
903.159	9411.62
903.473	9347.21
903.787	9311.28
904.101	9238.97
904.415	9203.49
904.729	9253.2
905.042	9194.9
905.356	9171.4
905.67	9131.4
905.984	9133.43
906.297	9118.74
906.611	9035.81
906.924	9033.77
907.237	9002.81
907.551	8929.37
907.864	8923.04
908.177	8895.7
908.491	8906.09
908.804	8806.89
909.117	8756.49
909.43	8713.1
909.743	8666.1
910.056	8658.87
910.368	8556.72
910.681	8535.48
910.994	8551.75
911.307	8539.1
911.619	8511.3
911.932	8423.62
912.244	8391.3
912.557	8396.95
912.869	8322.15
913.181	8267.24
913.494	8271.76
913.806	8237.86
914.118	8146.57
914.43	8203.06
914.742	8127.81
915.054	8100.24
915.366	8061.6
915.678	8001.71
915.99	8037.87
916.302	7936.18
916.613	7867.7
916.925	7958.32
917.236	7833.13
917.548	7897.31
917.859	7882.84
918.171	7736.86
918.482	7724.88
918.794	7689.18
919.105	7714.26
919.416	7576.41
919.727	7568.05
920.038	7584.32
920.349	7574.15
920.66	7502.51
920.971	7534.38
921.282	7439.47
921.593	7411.22
921.903	7381.84
922.214	7361.28
922.525	7273.59
922.835	7255.06
923.146	7221.39
923.456	7281.05
923.767	7224.78
924.077	7192.69
924.387	7071.79
924.697	7101.4
925.008	7062.98
925.318	7001.28
925.628	7072.24
925.938	7015.07
926.248	6972.36
926.558	6945.92
926.867	6864.79
927.177	6855.98
927.487	6873.6
927.796	6802.87
928.106	6791.8
928.416	6758.35
928.725	6760.84
929.034	6714.51
929.344	6717.45
929.653	6656.44
929.962	6605.36
930.271	6572.82
930.581	6537.34
930.89	6510.9
931.199	6565.82
931.508	6473.16
931.817	6510.22
932.125	6476.33
932.434	6426.84
932.743	6367.4
933.051	6367.86
933.36	6297.12
933.669	6264.13
933.977	6217.12
934.286	6254.86
934.594	6243.56
934.902	6167.63
935.21	6150.46
935.519	6130.57
935.827	6132.83
936.135	6035.43
936.443	6104.36
936.751	6003.34
937.059	6026.17
937.367	5941.88
937.674	5945.27
937.982	5979.39
938.29	5904.59
938.597	5905.72
938.905	5850.81
939.213	5834.31
939.52	5783.01
939.827	5840.41
940.135	5771.71
940.442	5697.36
940.749	5699.62
941.056	5682.9
941.363	5607.42
941.67	5595.67
941.977	5610.81
942.284	5593.64
942.591	5561.1
942.898	5576.24
943.205	5537.59
943.511	5470.48
943.818	5472.74
944.125	5412.63
944.431	5434.32
944.738	5406.75
945.044	5359.29
945.35	5332.18
945.657	5308.67
945.963	5305.96
946.269	5254.89
946.575	5297.15
946.881	5279.3
947.187	5197.94
947.493	5218.28
947.799	5101.22
948.105	5122.24
948.41	5096.02
948.716	5119.75
949.022	5101.67
949.327	5074.1
949.633	5027.1
949.938	5023.26
950.244	5002.69
950.549	4950.49
950.854	4963.37
951.16	4941
951.465	4851.51
951.77	4870.49
952.075	4870.04
952.38	4832.08
952.685	4824.39
952.99	4805.41
953.294	4811.51
953.599	4737.62
953.904	4727.22
954.209	4708.92
954.513	4714.11
954.818	4696.71
955.122	4667.79
955.426	4663.04
955.731	4598.18
956.035	4621.23
956.339	4615.58
956.643	4546.66
956.948	4545.53
957.252	4484.29
957.556	4528.13
957.86	4468.47
958.163	4513.89
958.467	4468.92
958.771	4439.32
959.075	4421.69
959.378	4396.83
959.682	4335.82
959.985	4333.33
960.289	4357.96
960.592	4287.91
960.896	4282.03
961.199	4268.48
961.502	4306.21
961.805	4248.59
962.108	4192.55
962.411	4224.18
962.714	4161.36
963.017	4196.61
963.32	4155.48
963.623	4139.44
963.926	4110.06
964.228	4078.2
964.531	4084.75
964.833	4083.4
965.136	4041.14
965.438	3999.78
965.741	3980.12
966.043	3978.99
966.345	3969.27
966.648	3957.75
966.95	3906.45
967.252	3869.39
967.554	3898.54
967.856	3865.77
968.158	3825.32
968.46	3870.75
968.761	3817.41
969.063	3819
969.365	3777.64
969.666	3803.4
969.968	3775.83
970.269	3730.86
970.571	3764.31
970.872	3672.33
971.174	3689.96
971.475	3651.99
971.776	3707.13
972.077	3626.68
972.378	3618.32
972.679	3588.49
972.98	3667.14
973.281	3607.02
973.582	3594.37
973.883	3595.05
974.183	3558.44
974.484	3561.6
974.785	3518.44
975.085	3500.36
975.386	3502.85
975.686	3502.39
975.986	3441.38
976.287	3462.17
976.587	3396.86
976.887	3433.92
977.187	3412.23
977.487	3365.9
977.787	3414.03
978.087	3361.61
978.387	3342.85
978.687	3303.08
978.987	3313.25
979.286	3221.5
979.586	3291.1
979.885	3253.81
980.185	3239.8
980.484	3228.73
980.784	3200.71
981.083	3190.31
981.382	3186.24
981.682	3194.83
981.981	3159.35
982.28	3150.99
982.579	3124.78
982.878	3129.97
983.177	3120.71
983.475	3092.69
983.774	3068.28
984.073	3058.34
984.372	3054.04
984.67	3026.47
984.969	3012.01
985.267	2995.51
985.566	2965.01
985.864	2977.89
986.162	2939.02
986.461	2935.86
986.759	2926.36
987.057	2899.02
987.355	2891.56
987.653	2921.84
987.951	2876.42
988.249	2875.97
988.547	2856.76
988.844	2815.41
989.142	2863.77
989.44	2820.38
989.737	2812.69
990.035	2783.32
990.332	2784.45
990.63	2791
990.927	2742.41
991.224	2730.66
991.521	2754.16
991.819	2720.27
992.116	2684.79
992.413	2673.72
992.71	2679.36
993.006	2654.28
993.303	2651.34
993.6	2656.54
993.897	2596.2
994.193	2610.21
994.49	2596.2
994.787	2600.04
995.083	2568.63
995.379	2559.14
995.676	2532.93
995.972	2541.29
996.268	2524.34
996.565	2518.01
996.861	2486.6
997.157	2480.05
997.453	2482.08
997.749	2471.01
998.044	2452.7
998.34	2452.03
998.636	2416.55
998.932	2424
999.227	2397.56
999.523	2393.5
999.818	2392.14
1000.114	2385.81
1000.409	2331.58
1000.704	2286.61
1001	2323.44
1001.295	2296.32
1001.59	2329.54
1001.885	2283.44
1002.18	2309.88
1002.475	2284.12
1002.77	2285.7
1003.065	2210.22
1003.359	2219.72
1003.654	2211.13
1003.949	2217.68
1004.243	2165.71
1004.538	2189.21
1004.832	2168.42
1005.127	2153.95
1005.421	2125.03
1005.715	2125.93
1006.009	2090.91
1006.304	2133.16
1006.598	2072.83
1006.892	2099.94
1007.186	2081.64
1007.48	2062.88
1007.773	2017.69
1008.067	2010.91
1008.361	2004.81
1008.655	2004.58
1008.948	2011.59
1009.242	2000.51
1009.535	1977.24
1009.829	1963.68
1010.122	1943.56
1010.415	1920.29
1010.708	1923.9
1011.001	1884.13
1011.295	1899.72
1011.588	1877.58
1011.881	1852.72
1012.173	1851.82
1012.466	1814.98
1012.759	1874.87
1013.052	1848.88
1013.344	1843.23
1013.637	1814.3
1013.93	1827.86
1014.222	1793.06
1014.514	1808.65
1014.807	1775.66
1015.099	1756.9
1015.391	1752.61
1015.683	1730.91
1015.976	1768.88
1016.268	1723.46
1016.56	1714.87
1016.851	1668.32
1017.143	1706.28
1017.435	1651.82
1017.727	1664.02
1018.018	1662.22
1018.31	1620.64
1018.602	1638.94
1018.893	1597.59
1019.185	1600.97
1019.476	1623.35
1019.767	1632.39
1020.058	1589.68
1020.35	1579.05
1020.641	1560.75
1020.932	1566.4
1021.223	1545.61
1021.514	1535.44
1021.804	1483.46
1022.095	1498.38
1022.386	1498.15
1022.677	1496.8
1022.967	1461.09
1023.258	1473.75
1023.548	1463.13
1023.839	1464.26
1024.129	1453.41
1024.419	1460.64
1024.709	1428.32
1025	1406.86
1025.29	1391.71
1025.58	1412.28
1025.87	1391.94
1026.16	1366.4
1026.449	1379.06
1026.739	1359.63
1027.029	1341.32
1027.319	1331.83
1027.608	1314.88
1027.898	1352.85
1028.187	1304.71
1028.477	1313.75
1028.766	1331.38
1029.055	1280.76
1029.344	1287.08
1029.634	1288.21
1029.923	1247.31
1030.212	1261.1
1030.501	1256.13
1030.79	1240.53
1031.078	1238.27
1031.367	1243.47
1031.656	1224.26
1031.945	1209.35
1032.233	1224.94
1032.522	1182
1032.81	1177.26
1033.099	1157.37
1033.387	1145.17
1033.675	1147.43
1033.963	1166.64
1034.251	1136.58
1034.54	1147.65
1034.828	1133.42
1035.116	1165.96
1035.403	1094.32
1035.691	1080.31
1035.979	1089.58
1036.267	1117.37
1036.554	1080.99
1036.842	1049.58
1037.129	1066.3
1037.417	1066.07
1037.704	1040.99
1037.992	1043.25
1038.279	1021.1
1038.566	1011.61
1038.853	1011.61
1039.14	1011.61
