Data from hue_260_FLMS001491_00057.txt Node
Date: Tue Feb 07 15:59:12 GMT 2017
User: dcchb
Spectrometer: FLMS00149
Trigger mode: 0
Integration Time (sec): 2.000000E-2
Scans to average: 10
Electric dark correction enabled: true
Nonlinearity correction enabled: false
Boxcar width: 0
XAxis mode: Wavelengths
Number of Pixels in Spectrum: 2048
>>>>>Begin Spectral Data<<<<<
341.393	-31.68
341.776	-31.68
342.16	-31.68
342.543	-58.12
342.927	-62.87
343.31	-62.87
343.693	-53.6
344.077	-60.61
344.46	-46.59
344.843	-56.76
345.226	-49.08
345.61	-24.22
345.993	-28.97
346.376	-14.51
346.759	-14.28
347.142	30.69
347.525	50.8
347.908	65.04
348.291	66.85
348.674	94.19
349.057	103.91
349.44	95.77
349.823	145.94
350.206	130.58
350.588	189.11
350.971	184.81
351.354	208.31
351.737	232.04
352.119	227.07
352.502	256.9
352.884	262.78
353.267	256.9
353.65	300.51
354.032	269.78
354.414	286.05
354.797	282.89
355.179	304.36
355.562	301.64
355.944	309.55
356.326	320.85
356.709	312.94
357.091	325.15
357.473	344.58
357.855	306.16
358.238	340.29
358.62	345.03
359.002	315.43
359.384	324.24
359.766	316.56
360.148	314.3
360.53	331.7
360.912	337.12
361.294	303
361.676	328.31
362.057	334.86
362.439	327.63
362.821	311.81
363.203	307.07
363.584	329.89
363.966	316.79
364.348	309.78
364.729	306.39
365.111	304.36
365.493	323.56
365.874	321.31
366.256	292.61
366.637	305.03
367.019	300.29
367.4	315.88
367.781	310.46
368.163	302.1
368.544	300.06
368.925	297.8
369.306	316.79
369.688	313.85
370.069	291.02
370.45	313.4
370.831	298.25
371.212	315.88
371.593	308.2
371.974	302.1
372.355	285.83
372.736	321.98
373.117	314.75
373.498	305.03
373.879	311.81
374.26	306.16
374.641	294.41
375.021	309.78
375.402	292.83
375.783	311.36
376.163	305.71
376.544	314.3
376.925	320.63
377.305	325.6
377.686	305.94
378.066	313.62
378.447	300.29
378.827	299.61
379.208	302.77
379.588	306.62
379.968	329.89
380.349	328.99
380.729	317.24
381.109	330.34
381.489	328.31
381.87	343.45
382.25	335.32
382.63	316.56
383.01	329.89
383.39	319.05
383.77	310.01
384.15	337.12
384.53	349.1
384.91	356.56
385.29	342.1
385.67	343.68
386.049	342.55
386.429	320.85
386.809	340.97
387.189	362.66
387.568	328.31
387.948	349.55
388.328	351.36
388.707	342.77
389.087	358.82
389.466	355.43
389.846	342.55
390.225	362.66
390.605	339.16
390.984	345.49
391.363	366.73
391.743	356.33
392.122	338.93
392.501	361.3
392.881	384.13
393.26	381.19
393.639	377.12
394.018	357.69
394.397	381.64
394.776	377.57
395.155	373.51
395.534	371.02
395.913	358.37
396.292	386.61
396.671	382.09
397.05	369.89
397.429	385.03
397.808	393.39
398.186	382.32
398.565	379.16
398.944	375.77
399.323	395.43
399.701	402.43
400.08	397.91
400.458	415.77
400.837	405.14
401.215	418.03
401.594	409.89
401.972	415.09
402.351	415.31
402.729	418.25
403.107	402.43
403.486	438.14
403.864	419.83
404.242	434.3
404.62	432.71
404.999	432.94
405.377	439.72
405.755	423.45
406.133	447.63
406.511	458.7
406.889	473.39
407.267	451.25
407.645	473.39
408.023	478.14
408.401	477.91
408.779	455.31
409.156	484.69
409.534	465.48
409.912	504.13
410.29	500.96
410.667	514.07
411.045	519.27
411.422	519.04
411.8	512.49
412.178	526.5
412.555	522.88
412.933	534.86
413.31	544.8
413.687	550.23
414.065	547.74
414.442	578.93
414.819	563.33
415.197	555.42
415.574	602.2
415.951	598.36
416.328	613.73
416.705	606.72
417.082	603.11
417.46	615.99
417.837	629.09
418.214	633.84
418.591	636.1
418.967	644.46
419.344	671.58
419.721	676.78
420.098	648.53
420.475	670.45
420.852	677.91
421.228	704.57
421.605	681.52
421.982	694.63
422.358	714.06
422.735	741.18
423.111	745.47
423.488	749.09
423.864	771.46
424.241	785.93
424.617	795.64
424.994	787.51
425.37	797.68
425.746	802.87
426.123	851.01
426.499	823.66
426.875	824.34
427.251	867.51
427.627	865.92
428.003	900.95
428.379	888.3
428.756	888.97
429.132	900.72
429.507	909.99
429.883	915.64
430.259	920.39
430.635	925.36
431.011	965.13
431.387	959.03
431.763	996.09
432.138	986.37
432.514	989.76
432.89	1021.63
433.265	1027.28
433.641	1036.09
434.016	1077.22
434.392	1099.59
434.767	1114.5
435.143	1115.41
435.518	1122.19
435.894	1135.3
436.269	1162.86
436.644	1180.27
437.02	1201.96
437.395	1214.84
437.77	1217.33
438.145	1253.03
438.52	1274.05
438.895	1280.15
439.271	1306.59
439.646	1332.35
440.021	1316.99
440.395	1331.22
440.77	1340.71
441.145	1343.65
441.52	1402.86
441.895	1401.95
442.27	1397.21
442.645	1409.86
443.019	1443.54
443.394	1439.02
443.769	1452.8
444.143	1466.36
444.518	1475.85
444.892	1462.07
445.267	1485.57
445.641	1473.59
446.016	1497.09
446.39	1533.7
446.764	1512.01
447.139	1548.17
447.513	1539.8
447.887	1573.02
448.262	1576.87
448.636	1595.4
449.01	1620.25
449.384	1608.28
449.758	1627.94
450.132	1647.37
450.506	1632.46
450.88	1653.25
451.254	1673.36
451.628	1677.65
452.002	1678.78
452.376	1722.85
452.75	1727.37
453.123	1761.27
453.497	1787.93
453.871	1758.33
454.244	1798.33
454.618	1821.83
454.992	1826.58
455.365	1839.68
455.739	1872.9
456.112	1867.71
456.486	1890.08
456.859	1904.31
457.232	1956.97
457.606	1940.25
457.979	1972.56
458.352	2013.24
458.725	2036.06
459.099	2093.69
459.472	2061.82
459.845	2106.79
460.218	2088.49
460.591	2135.49
460.964	2128.94
461.337	2177.98
461.71	2219.79
462.083	2240.35
462.456	2235.15
462.829	2269.5
463.201	2265.43
463.574	2283.29
463.947	2319.67
464.32	2347.24
464.692	2390.4
465.065	2366.9
465.438	2423.4
465.81	2459.33
466.183	2427.69
466.555	2513.34
466.928	2528.03
467.3	2509.04
467.672	2587.01
468.045	2606.44
468.417	2638.98
468.789	2670.4
469.161	2668.14
469.534	2694.8
469.906	2765.99
470.278	2771.86
470.65	2806.66
471.022	2864.29
471.394	2930.5
471.766	2928.69
472.138	2949.26
472.51	3024.28
472.882	3046.43
473.253	3070.16
473.625	3091.4
473.997	3168.69
474.369	3189.03
474.74	3223.6
475.112	3274.22
475.484	3337.95
475.855	3340.21
476.227	3368
476.598	3477.83
476.97	3477.38
477.341	3541.11
477.713	3622.01
478.084	3610.71
478.455	3656.36
478.827	3725.96
479.198	3805.06
479.569	3799.86
479.94	3901.55
480.311	3953.98
480.682	4000.3
481.053	4101.54
481.424	4099.28
481.795	4142.67
482.166	4199.62
482.537	4231.94
482.908	4313.97
483.279	4369.56
483.65	4407.98
484.021	4491.82
484.391	4529.1
484.762	4600.51
485.133	4614.98
485.503	4697.46
485.874	4786.05
486.244	4791.02
486.615	4832.6
486.985	4927.51
487.356	4950.56
487.726	5017.23
488.097	5082.76
488.467	5100.84
488.837	5241.4
489.207	5203.44
489.578	5319.59
489.948	5344.68
490.318	5414.28
490.688	5449.76
491.058	5521.39
491.428	5551.68
491.798	5626.93
492.168	5671.67
492.538	5699.47
492.908	5750.99
493.278	5800.48
493.648	5847.94
494.017	5926.58
494.387	5940.59
494.757	5948.05
495.126	6009.52
495.496	6015.84
495.866	6008.84
496.235	6093.36
496.605	6176.52
496.974	6134.71
497.344	6261.71
497.713	6277.98
498.082	6317.98
498.452	6308.94
498.821	6363.86
499.19	6447.47
499.559	6363.86
499.928	6405.89
500.298	6449.51
500.667	6524.31
501.036	6526.79
501.405	6532.89
501.774	6532.22
502.143	6595.49
502.512	6595.72
502.88	6641.14
503.249	6659.22
503.618	6671.87
503.987	6667.8
504.356	6722.94
504.724	6793.45
505.093	6784.41
505.462	6776.28
505.83	6790.74
506.199	6841.36
506.567	6927.23
506.936	6889.04
507.304	6906.89
507.672	6901.92
508.041	7007.46
508.409	7038.87
508.777	7063.05
509.145	7046.55
509.514	7121.58
509.882	7052.43
510.25	7111.86
510.618	7143.05
510.986	7129.49
511.354	7171.07
511.722	7264.85
512.09	7249.71
512.458	7226.21
512.826	7288.13
513.193	7345.08
513.561	7259.65
513.929	7359.09
514.297	7374
514.664	7405.19
515.032	7383.27
515.4	7416.03
515.767	7434.56
516.135	7476.15
516.502	7410.61
516.869	7511.17
517.237	7530.16
517.604	7424.17
517.972	7553.66
518.339	7578.52
518.706	7543.26
519.073	7555.47
519.44	7604.5
519.808	7604.28
520.175	7605.86
520.542	7623.49
520.909	7727.21
521.276	7606.76
521.643	7679.08
522.009	7739.19
522.376	7740.09
522.743	7812.86
523.11	7788.68
523.477	7871.62
523.843	7896.47
524.21	7905.29
524.577	7934.89
524.943	7937.83
525.31	7926.08
525.676	8030.71
526.043	8026.19
526.409	7978.28
526.776	8055.34
527.142	8015.34
527.508	8054.89
527.874	8023.02
528.241	8109.57
528.607	8116.58
528.973	8121.55
529.339	8127.43
529.705	8142.79
530.071	8143.92
530.437	8222.34
530.803	8193.41
531.169	8211.72
531.535	8163.58
531.901	8198.84
532.267	8205.62
532.632	8216.46
532.998	8202.68
533.364	8276.12
533.73	8244.94
534.095	8263.7
534.461	8256.01
534.826	8271.83
535.192	8279.29
535.557	8365.39
535.923	8273.64
536.288	8290.36
536.653	8248.78
537.019	8230.02
537.384	8257.82
537.749	8294.2
538.114	8254.66
538.479	8264.37
538.845	8253.53
539.21	8195.22
539.575	8210.14
539.94	8235.9
540.305	8222.11
540.67	8187.09
541.034	8239.74
541.399	8250.36
541.764	8141.89
542.129	8216.46
542.494	8239.29
542.858	8180.53
543.223	8201.78
543.587	8278.38
543.952	8149.57
544.316	8226.63
544.681	8157.26
545.045	8176.01
545.41	8180.76
545.774	8104.15
546.138	8154.32
546.503	8157.03
546.867	8137.82
547.231	8203.58
547.595	8169.91
547.959	8174.43
548.324	8177.37
548.688	8130.59
549.052	8161.1
549.416	8116.81
549.779	8111.61
550.143	8140.76
550.507	8135.79
550.871	8142.12
551.235	8081.1
551.599	8196.35
551.962	8153.42
552.326	8131.04
552.689	8140.99
553.053	8073.87
553.417	8055.79
553.78	8196.35
554.143	8136.47
554.507	8138.05
554.87	8142.12
555.234	8165.84
555.597	8175.11
555.96	8104.83
556.323	8136.01
556.686	8092.17
557.05	8155.68
557.413	8154.09
557.776	8187.99
558.139	8207.43
558.502	8248.1
558.865	8226.18
559.228	8246.75
559.59	8282.9
559.953	8263.47
560.316	8314.32
560.679	8310.7
561.041	8352.51
561.404	8329.23
561.767	8371.71
562.129	8310.25
562.492	8322.22
562.854	8367.42
563.217	8357.93
563.579	8426.18
563.941	8447.65
564.304	8379.17
564.666	8493.29
565.028	8468.89
565.39	8473.63
565.753	8457.36
566.115	8534.42
566.477	8571.26
566.839	8546.63
567.201	8578.49
567.563	8666.17
567.925	8612.16
568.287	8542.11
568.648	8600.41
569.01	8653.06
569.372	8741.2
569.734	8679.73
570.095	8742.78
570.457	8718.82
570.819	8741.42
571.18	8835.88
571.542	8837.01
571.903	8797.01
572.265	8897.58
572.626	8895.54
572.987	8818.03
573.349	8884.92
573.71	8910.91
574.071	8952.26
574.432	8956.78
574.794	9052.37
575.155	9055.54
575.516	9028.19
575.877	9097.35
576.238	9053.73
576.599	9131.92
576.96	9151.36
577.32	9123.33
577.681	9174.41
578.042	9184.8
578.403	9210.56
578.763	9178.47
579.124	9232.03
579.485	9203.33
579.845	9259.6
580.206	9202.88
580.566	9300.5
580.927	9299.6
581.287	9365.36
581.648	9316.1
582.008	9356.77
582.368	9381.18
582.728	9365.36
583.089	9415.76
583.449	9400.16
583.809	9386.83
584.169	9510.89
584.529	9476.32
584.889	9521.97
585.249	9473.38
585.609	9556.99
585.969	9554.73
586.329	9481.52
586.688	9530.33
587.048	9583.43
587.408	9548.41
587.768	9573.94
588.127	9588.86
588.487	9611.23
588.846	9631.79
589.206	9531.01
589.565	9616.43
589.925	9728.06
590.284	9723.77
590.643	9716.99
591.003	9741.62
591.362	9732.36
591.721	9704.56
592.08	9771.9
592.44	9780.94
592.799	9811
593.158	9797.89
593.517	9778.68
593.876	9776.42
594.235	9821.39
594.593	9819.59
594.952	9867.72
595.311	9843.99
595.67	9874.95
596.029	9928.51
596.387	9876.08
596.746	9891.9
597.104	9866.14
597.463	9870.88
597.822	9929.87
598.18	9866.82
598.538	9828.4
598.897	9981.84
599.255	9883.77
599.613	9991.56
599.972	9969.19
600.33	10032.69
600.688	10013.71
601.046	9992.46
601.404	10030.65
601.762	9983.42
602.12	10069.52
602.478	10003.31
602.836	10013.03
603.194	9967.38
603.552	10039.02
603.91	10016.42
604.268	10066.81
604.625	10034.04
604.983	10113.36
605.341	10091.9
605.698	10040.6
606.056	10086.92
606.413	10050.54
606.771	10105.68
607.128	10088.28
607.485	10072.24
607.843	10054.16
608.2	10141.16
608.557	10148.17
608.914	10137.54
609.272	10205.34
609.629	10299.57
609.986	10213.93
610.343	10200.37
610.7	10228.84
611.057	10276.52
611.414	10221.38
611.771	10227.03
612.127	10232.68
612.484	10281.04
612.841	10336.86
613.198	10266.81
613.554	10279.46
613.911	10290.31
614.267	10322.85
614.624	10293.7
614.98	10328.05
615.337	10379.57
615.693	10335.73
616.05	10400.81
616.406	10473.58
616.762	10382.06
617.118	10400.81
617.475	10376.86
617.831	10359.23
618.187	10381.83
618.543	10443.07
618.899	10519.46
619.255	10528.04
619.611	10441.04
619.967	10467.25
620.323	10493.02
620.678	10470.42
621.034	10453.47
621.39	10425.45
621.746	10348.39
622.101	10455.95
622.457	10433.58
622.812	10540.25
623.168	10524.43
623.523	10452.34
623.879	10521.49
624.234	10379.12
624.589	10471.55
624.945	10502.05
625.3	10526.91
625.655	10469.29
626.01	10512.45
626.365	10444.88
626.72	10433.58
627.075	10403.3
627.43	10443.98
627.785	10381.61
628.14	10464.77
628.495	10436.97
628.85	10505.44
629.205	10424.99
629.559	10473.58
629.914	10412.34
630.269	10427.93
630.623	10404.66
630.978	10353.13
631.332	10383.41
631.687	10439.91
632.041	10340.93
632.396	10373.92
632.75	10355.17
633.104	10367.82
633.459	10244.89
633.813	10332.57
634.167	10275.39
634.521	10219.12
634.875	10246.47
635.229	10239.91
635.583	10186.58
635.937	10233.13
636.291	10230.2
636.645	10266.13
636.999	10234.49
637.352	10215.51
637.706	10138.22
638.06	10167.83
638.413	10119.01
638.767	10046.93
639.121	10027.72
639.474	10108.39
639.828	10002.18
640.181	10006.7
640.534	10076.08
640.888	9986.59
641.241	10000.6
641.594	9953.82
641.947	9950.88
642.301	10012.12
642.654	10014.16
643.007	10053.48
643.36	9945.23
643.713	9922.86
644.066	9935.97
644.419	9846.7
644.771	9887.38
645.124	9811.68
645.477	9794.73
645.83	9735.29
646.182	9731.68
646.535	9728.29
646.888	9653.26
647.24	9603.77
647.593	9661.85
647.945	9640.38
648.298	9590.67
648.65	9498.46
649.002	9551.34
649.355	9606.94
649.707	9600.84
650.059	9648.07
650.411	9727.16
650.763	9738.23
651.115	9931.67
651.467	9778.91
651.819	9902.3
652.171	9742.75
652.523	9841.51
652.875	9833.15
653.227	9824.56
653.578	9879.92
653.93	9811.9
654.282	9780.27
654.633	9783.66
654.985	9794.73
655.337	9764.9
655.688	9786.37
656.039	9787.5
656.391	9709.08
656.742	9775.29
657.094	9721.51
657.445	9763.77
657.796	9755.41
658.147	9753.15
658.498	9779.81
658.849	9776.42
659.2	9785.92
659.551	9670.89
659.902	9820.49
660.253	9753.83
660.604	9795.63
660.955	9759.93
661.306	9794.28
661.656	9763.99
662.007	9757.22
662.358	9794.73
662.708	9753.15
663.059	9679.03
663.409	9662.3
663.76	9851.22
664.11	9804.9
664.461	9824.78
664.811	9774.39
665.161	9870.21
665.511	9746.37
665.862	9763.09
666.212	9821.62
666.562	9809.87
666.912	9780.04
667.262	9769.87
667.612	9734.84
667.962	9766.71
668.312	9760.83
668.662	9835.86
669.011	9722.19
669.361	9701.17
669.711	9707.05
670.06	9814.61
670.41	9781.17
670.76	9764.45
671.109	9813.71
671.459	9746.82
671.808	9765.12
672.157	9686.48
672.507	9692.13
672.856	9680.16
673.205	9640.38
673.554	9712.92
673.904	9677.44
674.253	9725.35
674.602	9678.35
674.951	9559.03
675.3	9543.89
675.649	9691
675.998	9682.64
676.346	9611.46
676.695	9636.77
677.044	9622.08
677.393	9592.25
677.741	9637.67
678.09	9577.78
678.438	9519.93
678.787	9571.91
679.135	9520.39
679.484	9464.57
679.832	9497.11
680.181	9528.07
680.529	9491.46
680.877	9472.02
681.225	9414.17
681.573	9531.68
681.922	9382.08
682.27	9426.6
682.618	9416.43
682.966	9429.31
683.314	9386.6
683.661	9367.39
684.009	9329.88
684.357	9267.74
684.705	9281.75
685.053	9364.68
685.4	9246.49
685.748	9224.35
686.095	9214.4
686.443	9226.83
686.79	9151.58
687.138	9145.48
687.485	9189.77
687.832	9153.39
688.18	9143.22
688.527	9013.05
688.874	9029.55
689.221	9017.8
689.568	9001.98
689.915	8953.39
690.262	8955.43
690.609	8952.49
690.956	8880.63
691.303	8905.03
691.65	8850.12
691.997	8813.51
692.344	8787.98
692.69	8752.04
693.037	8730.8
693.383	8681.09
693.73	8723.8
694.077	8618.49
694.423	8616.45
694.769	8619.39
695.116	8569
695.462	8531.03
695.808	8438.38
696.155	8500.75
696.501	8473.18
696.847	8472.96
697.193	8377.59
697.539	8393.41
697.885	8329
698.231	8340.08
698.577	8327.2
698.923	8321.55
699.269	8228.89
699.614	8167.43
699.96	8183.92
700.306	8150.03
700.651	8165.39
700.997	8131.72
701.342	8079.75
701.688	8104.6
702.033	8035.23
702.379	8023.02
702.724	8017.83
703.069	8013.98
703.415	7903.93
703.76	7942.57
704.105	7913.2
704.45	7871.84
704.795	7842.46
705.14	7764.73
705.485	7776.48
705.83	7759.08
706.175	7787.32
706.52	7775.57
706.865	7663.71
707.209	7722.24
707.554	7617.38
707.899	7646.31
708.243	7630.04
708.588	7581.23
708.932	7556.82
709.277	7580.78
709.621	7564.05
709.966	7455.58
710.31	7511.85
710.654	7456.71
710.998	7416.71
711.342	7431.17
711.687	7406.54
712.031	7315.25
712.375	7362.93
712.719	7265.3
713.063	7350.95
713.407	7324.51
713.75	7338.75
714.094	7294
714.438	7258.3
714.782	7266.43
715.125	7208.58
715.469	7227.79
715.812	7228.47
716.156	7218.98
716.499	7164.74
716.843	7127.23
717.186	7135.82
717.53	7202.25
717.873	7156.38
718.216	7131.97
718.559	7108.25
718.902	7055.59
719.246	7092.43
719.589	7089.49
719.932	7037.74
720.275	7065.08
720.617	7062.6
720.96	7021.02
721.303	7048.36
721.646	7025.99
721.989	7022.15
722.331	7018.76
722.674	7015.14
723.016	7014.91
723.359	7044.07
723.701	7001.58
724.044	6960.68
724.386	6889.95
724.729	6963.62
725.071	6949.61
725.413	6898.76
725.755	6920
726.097	6970.85
726.439	6879.1
726.782	6927.23
727.124	6910.06
727.465	6858.08
727.807	6873
728.149	6912.77
728.491	6872.77
728.833	6884.97
729.175	6833.9
729.516	6862.15
729.858	6797.97
730.199	6921.58
730.541	6885.88
730.882	6819.44
731.224	6897.63
731.565	6815.82
731.906	6839.33
732.248	6879.55
732.589	6796.16
732.93	6786.67
733.271	6764.98
733.612	6800.46
733.953	6820.12
734.294	6747.12
734.635	6784.86
734.976	6822.83
735.317	6757.52
735.658	6828.93
735.999	6789.84
736.339	6773.56
736.68	6775.37
737.021	6743.74
737.361	6777.18
737.702	6818.54
738.042	6730.18
738.383	6802.04
738.723	6800.46
739.063	6809.04
739.404	6841.13
739.744	6812.66
740.084	6776.73
740.424	6834.13
740.764	6861.25
741.104	6874.81
741.444	6822.15
741.784	6802.49
742.124	6830.96
742.464	6873.22
742.804	6912.09
743.143	6925.88
743.483	6937.4
743.823	6903.73
744.162	6885.65
744.502	6970.4
744.841	6938.31
745.181	6983.28
745.52	7024.63
745.86	7070.73
746.199	7073.9
746.538	7104.4
746.877	7142.37
747.216	7174.23
747.556	7152.31
747.895	7169.03
748.234	7289.26
748.573	7255.59
748.911	7334.91
749.25	7350.5
749.589	7377.16
749.928	7472.53
750.267	7513.43
750.605	7555.24
750.944	7649.25
751.283	7626.42
751.621	7747.32
751.96	7760.43
752.298	7866.87
752.636	7861.22
752.975	7948.9
753.313	7984.15
753.651	8133.08
753.989	8201.78
754.327	8210.36
754.666	8336.24
755.004	8394.09
755.342	8482.22
755.679	8587.75
756.017	8658.26
756.355	8836.11
756.693	8903.23
757.031	8966.73
757.368	9132.37
757.706	9147.29
758.044	9295.76
758.381	9451.23
758.719	9483.78
759.056	9691.68
759.394	9731.45
759.731	9859.36
760.068	9952.01
760.405	10069.07
760.743	10145.23
761.08	10347.71
761.417	10441.27
761.754	10544.77
762.091	10667.25
762.428	10827.7
762.765	10906.79
763.102	11053.68
763.438	11142.72
763.775	11233.33
764.112	11455.25
764.449	11483.5
764.785	11600.56
765.122	11720.55
765.458	11844.84
765.795	11907.89
766.131	12007.33
766.467	12198.73
766.804	12234.44
767.14	12338.84
767.476	12507.88
767.812	12539.97
768.148	12697.48
768.485	12754.42
768.821	12837.59
769.157	12949.9
769.492	13071.48
769.828	13094.53
770.164	13185.37
770.5	13221.98
770.836	13356.67
771.171	13375.88
771.507	13526.83
771.842	13444.8
772.178	13601.41
772.513	13619.26
772.849	13686.38
773.184	13720.05
773.519	13815.19
773.855	13827.16
774.19	13969.76
774.525	13919.14
774.86	13994.39
775.195	14052.24
775.53	14048.4
775.865	14056.09
776.2	14096.31
776.535	14066.03
776.87	14141.96
777.205	14194.39
777.539	14140.38
777.874	14264.67
778.209	14207.27
778.543	14155.52
778.878	14235.06
779.212	14279.13
779.547	14213.14
779.881	14307.38
780.215	14313.25
780.55	14382.86
780.884	14283.42
781.218	14261.73
781.552	14294.72
781.886	14264.22
782.22	14191.45
782.554	14315.06
782.888	14157.1
783.222	14131.56
783.556	14141.96
783.889	14166.59
784.223	14125.91
784.557	14223.54
784.89	14154.61
785.224	14175.4
785.557	14146.93
785.891	14080.04
786.224	14130.21
786.558	14082.07
786.891	14050.66
787.224	13960.49
787.557	14009.08
787.891	13985.13
788.224	13964.56
788.557	13913.04
788.89	14031
789.223	14056.99
789.556	13969.31
789.888	13923.43
790.221	13875.07
790.554	13832.36
790.887	13912.13
791.219	13830.33
791.552	13796.21
791.884	13783.1
792.217	13708.52
792.549	13672.82
792.882	13669.65
793.214	13647.28
793.546	13643.67
793.879	13541.75
794.211	13534.74
794.543	13586.95
794.875	13456.33
795.207	13576.32
795.539	13546.95
795.871	13492.03
796.203	13358.7
796.535	13327.06
796.867	13393.05
797.198	13311.47
797.53	13351.47
797.862	13290.23
798.193	13295.2
798.525	13212.49
798.856	13214.75
799.188	13139.05
799.519	13105.6
799.85	13019.95
800.182	13064.25
800.513	13038.71
800.844	12956
801.175	13000.07
801.506	12902.9
801.837	12924.36
802.168	12817.02
802.499	12844.59
802.83	12802.33
803.161	12769.57
803.491	12771.15
803.822	12742.67
804.153	12746.52
804.483	12568.67
804.814	12589.23
805.145	12619.29
805.475	12578.84
805.805	12475.56
806.136	12515.11
806.466	12593.07
806.796	12505.39
807.126	12415.68
807.457	12417.26
807.787	12398.5
808.117	12293.87
808.447	12268.79
808.777	12263.14
809.107	12303.59
809.436	12249.81
809.766	12213.2
810.096	12186.08
810.426	12160.32
810.755	12172.29
811.085	12099.3
811.414	12050.04
811.744	11976.82
812.073	11966.2
812.403	12010.94
812.732	11930.49
813.061	11952.64
813.39	11979.3
813.719	11854.56
814.049	11984.95
814.378	11918.06
814.707	11815.01
815.036	11812.08
815.365	11804.39
815.693	11666.54
816.022	11663.38
816.351	11691.85
816.68	11696.15
817.008	11681.91
817.337	11530.73
817.665	11603.95
817.994	11619.09
818.322	11516.72
818.651	11486.89
818.979	11533.67
819.307	11505.64
819.636	11400.79
819.964	11356.95
820.292	11466.1
820.62	11411.86
820.948	11405.08
821.276	11504.74
821.604	11470.39
821.932	11465.42
822.259	11433.33
822.587	11463.16
822.915	11376.38
823.243	11349.94
823.57	11410.51
823.898	11359.21
824.225	11318.3
824.553	11373.67
824.88	11326.44
825.207	11364.86
825.535	11358.53
825.862	11420.45
826.189	11354.46
826.516	11427.45
826.843	11501.12
827.17	11395.59
827.497	11428.81
827.824	11407.12
828.151	11443.27
828.478	11392.65
828.805	11494.8
829.131	11439.2
829.458	11415.48
829.785	11333.22
830.111	11422.71
830.438	11469.03
830.764	11398.08
831.09	11457.51
831.417	11368.02
831.743	11392.2
832.069	11463.61
832.395	11406.44
832.722	11393.56
833.048	11405.08
833.374	11453.44
833.7	11356.04
834.026	11384.07
834.351	11346.33
834.677	11346.33
835.003	11321.47
835.329	11342.94
835.654	11359.43
835.98	11261.81
836.306	11300.68
836.631	11246.67
836.956	11263.84
837.282	11238.53
837.607	11192.43
837.932	11286.89
838.258	11183.62
838.583	11152.66
838.908	11126.22
839.233	11145.43
839.558	11082.38
839.883	11153.34
840.208	11092.55
840.533	11086.45
840.858	10995.6
841.182	10980.91
841.507	10950.4
841.832	10938.88
842.156	10987.24
842.481	10956.51
842.805	10834.25
843.13	10865.43
843.454	10870.18
843.778	10863.4
844.103	10780.24
844.427	10772.1
844.751	10719.45
845.075	10834.7
845.399	10608.49
845.723	10601.49
846.047	10633.35
846.371	10543.41
846.695	10556.52
847.019	10463.64
847.343	10502.05
847.666	10348.39
847.99	10351.55
848.313	10345.67
848.637	10305.45
848.96	10167.83
849.284	10200.14
849.607	10160.14
849.931	10168.28
850.254	10086.92
850.577	9999.02
850.9	9956.31
851.223	9940.49
851.546	9911.34
851.869	9921.96
852.192	9940.49
852.515	9865.23
852.838	9778.91
853.161	9796.76
853.483	9749.98
853.806	9695.52
854.129	9714.05
854.451	9644.9
854.774	9633.15
855.096	9609.87
855.419	9566.03
855.741	9596.77
856.063	9444.23
856.385	9455.75
856.708	9404.91
857.03	9411.46
857.352	9439.26
857.674	9345.7
857.996	9310.67
858.318	9265.93
858.64	9220.73
858.961	9223.9
859.283	9258.25
859.605	9223.9
859.926	9252.6
860.248	9160.62
860.57	9110
860.891	9164.01
861.212	9092.83
861.534	9024.81
861.855	9008.31
862.176	9050.12
862.498	8994.98
862.819	9040.17
863.14	9007.63
863.461	8979.83
863.782	8920.4
864.103	8967.41
864.424	8926.28
864.745	8925.15
865.065	8806.28
865.386	8819.16
865.707	8852.15
866.027	8862.32
866.348	8858.26
866.668	8791.82
866.989	8759.5
867.309	8686.96
867.63	8734.42
867.95	8718.6
868.27	8705.94
868.59	8675.44
868.91	8595.89
869.23	8677.7
869.55	8584.82
869.87	8632.05
870.19	8622.33
870.51	8688.54
870.83	8593.86
871.15	8623.23
871.469	8538.49
871.789	8629.79
872.109	8587.3
872.428	8503.91
872.748	8547.98
873.067	8560.41
873.386	8511.37
873.706	8536.68
874.025	8518.15
874.344	8472.28
874.663	8442.9
874.982	8410.58
875.301	8446.06
875.62	8432.28
875.939	8408.32
876.258	8375.33
876.577	8370.81
876.896	8371.04
877.214	8378.95
877.533	8382.56
877.852	8325.16
878.17	8300.53
878.489	8305.5
878.807	8279.97
879.125	8297.14
879.444	8223.47
879.762	8228.67
880.08	8270.93
880.398	8240.64
880.716	8173.53
881.034	8171.95
881.352	8162.91
881.67	8096.02
881.988	8084.49
882.306	8061.89
882.624	8123.13
882.941	8081.33
883.259	8043.14
883.577	8014.89
883.894	8011.05
884.212	8018.05
884.529	7945.74
884.846	7988.45
885.164	7924.72
885.481	7912.52
885.798	7905.06
886.115	7826.64
886.432	7860.09
886.75	7839.3
887.067	7783.93
887.383	7756.36
887.7	7809.7
888.017	7777.15
888.334	7792.07
888.651	7787.32
888.967	7756.14
889.284	7616.03
889.6	7682.24
889.917	7602.7
890.233	7655.35
890.55	7622.81
890.866	7571.28
891.182	7555.92
891.498	7532.19
891.815	7554.34
892.131	7455.58
892.447	7495.35
892.763	7387.79
893.079	7403.38
893.395	7389.82
893.71	7411.29
894.026	7401.34
894.342	7358.86
894.657	7338.97
894.973	7300.78
895.289	7267.79
895.604	7251.29
895.92	7175.36
896.235	7196.15
896.55	7136.49
896.865	7153.67
897.181	7135.82
897.496	7159.09
897.811	7102.6
898.126	7086.1
898.441	7023.95
898.756	7038.42
899.071	7005.2
899.386	6971.53
899.7	6856.27
900.015	6904.63
900.33	6843.17
900.644	6846.11
900.959	6824.64
901.273	6793.45
901.588	6756.62
901.902	6734.24
902.216	6720.23
902.531	6724.53
902.845	6683.17
903.159	6639.78
903.473	6618.77
903.787	6581.71
904.101	6572.89
904.415	6583.51
904.729	6519.33
905.042	6453.8
905.356	6503.97
905.67	6491.76
905.984	6489.5
906.297	6443.4
906.611	6391.88
906.924	6395.27
907.237	6351.2
907.551	6379
907.864	6305.55
908.177	6260.81
908.491	6259.91
908.804	6235.5
909.117	6177.2
909.43	6187.14
909.743	6157.31
910.056	6111.21
910.368	6098.55
910.681	6050.87
910.994	6109.4
911.307	6044.32
911.619	5981.5
911.932	5973.59
912.244	5906.92
912.557	5925.45
912.869	5902.85
913.181	5889.75
913.494	5869.86
913.806	5851.1
914.118	5790.31
914.43	5745.8
914.742	5808.17
915.054	5730.65
915.366	5683.88
915.678	5662.41
915.99	5694.95
916.302	5688.62
916.613	5572.92
916.925	5653.37
917.236	5611.34
917.548	5591.22
917.859	5541.28
918.171	5516.42
918.482	5486.37
918.794	5466.93
919.105	5454.05
919.416	5429.65
919.727	5426.71
920.038	5402.53
920.349	5340.61
920.66	5340.83
920.971	5328.41
921.282	5330.89
921.593	5308.07
921.903	5302.19
922.214	5231.68
922.525	5241.4
922.835	5201.4
923.146	5207.96
923.456	5139.03
923.767	5132.7
924.077	5147.17
924.387	5135.19
924.697	5103.33
925.008	5087.51
925.318	5023.78
925.628	5047.51
925.938	4976.78
926.248	4960.28
926.558	4993.05
926.867	4958.25
927.177	4921.64
927.487	4944.23
927.796	4882.77
928.106	4867.63
928.416	4838.7
928.725	4844.8
929.034	4786.27
929.344	4821.53
929.653	4724.13
929.962	4732.04
930.271	4741.53
930.581	4689.78
930.89	4727.06
931.199	4614.98
931.508	4613.85
931.817	4606.62
932.125	4638.93
932.434	4546.73
932.743	4560.06
933.051	4538.14
933.36	4527.3
933.669	4508.99
933.977	4452.72
934.286	4481.87
934.594	4460.18
934.902	4458.15
935.21	4392.61
935.519	4408.2
935.827	4355.32
936.135	4400.97
936.443	4317.36
936.751	4352.16
937.059	4326.85
937.367	4289.34
937.674	4271.71
937.982	4308.32
938.29	4246.85
938.597	4266.96
938.905	4187.64
939.213	4205.5
939.52	4132.5
939.827	4184.03
940.135	4133.41
940.442	4148.78
940.749	4101.77
941.056	4092.05
941.363	4065.61
941.67	4025.84
941.977	4012.96
942.284	4034.43
942.591	3993.52
942.898	3981.77
943.205	4026.29
943.511	3935
943.818	3923.7
944.125	3938.16
944.431	3933.64
944.738	3881.21
945.044	3881.21
945.35	3882.34
945.657	3835.56
945.963	3824.49
946.269	3769.8
946.575	3780.88
946.881	3756.24
947.187	3776.36
947.493	3706.75
947.799	3723.7
948.105	3728.45
948.41	3711.72
948.716	3671.95
949.022	3682.8
949.327	3641.44
949.633	3596.47
949.938	3634.44
950.244	3631.05
950.549	3537.49
950.854	3546.31
951.16	3577.49
951.465	3525.06
951.77	3504.72
952.075	3509.92
952.38	3502.01
952.685	3464.27
952.99	3439.64
953.294	3430.6
953.599	3442.8
953.904	3383.37
954.209	3437.83
954.513	3378.63
954.818	3337.5
955.122	3387.67
955.426	3353.99
955.731	3321.68
956.035	3315.12
956.339	3307.67
956.643	3314.45
956.948	3290.04
957.252	3300.21
957.556	3262.02
957.86	3267.22
958.163	3263.6
958.467	3229.48
958.771	3231.51
959.075	3245.75
959.378	3198.52
959.682	3186.77
959.985	3143.15
960.289	3176.82
960.592	3132.53
960.896	3092.08
961.199	3101.57
961.502	3115.81
961.805	3068.13
962.108	3060.67
962.411	3048.24
962.714	3035.36
963.017	3066.54
963.32	3055.02
963.623	3005.08
963.926	3008.69
964.228	2968.69
964.531	2988.81
964.833	2980.44
965.136	2954.23
965.438	2953.78
965.741	2929.15
966.043	2898.41
966.345	2880.11
966.648	2885.53
966.95	2866.55
967.252	2846.21
967.554	2801.01
967.856	2822.93
968.158	2799.21
968.46	2762.6
968.761	2799.88
969.063	2755.59
969.365	2790.39
969.666	2762.14
969.968	2768.92
970.269	2746.78
970.571	2705.65
970.872	2693.45
971.174	2680.79
971.475	2676.95
971.776	2656.84
972.077	2666.1
972.378	2684.63
972.679	2631.3
972.98	2643.73
973.281	2604.63
973.582	2596.5
973.883	2589.04
974.183	2586.78
974.484	2593.34
974.785	2560.57
975.085	2532.55
975.386	2549.27
975.686	2515.15
975.986	2511.98
976.287	2503.85
976.587	2508.37
976.887	2493.9
977.187	2477.41
977.487	2468.37
977.787	2423.62
978.087	2484.41
978.387	2448.03
978.687	2432.44
978.987	2401.93
979.286	2411.65
979.586	2394.92
979.885	2419.1
980.185	2402.83
980.484	2326
980.784	2379.1
981.083	2316.05
981.382	2330.97
981.682	2299.78
981.981	2301.82
982.28	2294.59
982.579	2294.13
982.878	2276.06
983.177	2288.94
983.475	2264.08
983.774	2232.67
984.073	2243.51
984.372	2204.19
984.67	2204.19
984.969	2205.78
985.267	2248.49
985.566	2163.97
985.864	2184.31
986.162	2189.96
986.461	2169.62
986.759	2133.23
987.057	2134.59
987.355	2172.1
987.653	2114.03
987.951	2113.12
988.249	2093.01
988.547	2105.21
988.844	2068.15
989.142	2100.69
989.44	2045.78
989.737	2071.32
990.035	2047.81
990.332	2054.37
990.63	2028.83
990.927	2007.59
991.224	2043.07
991.521	2020.24
991.819	1988.38
992.116	2013.24
992.413	1954.71
992.71	1978.21
993.006	1977.76
993.303	1944.99
993.6	1942.96
993.897	1930.75
994.193	1939.79
994.49	1949.74
994.787	1891.66
995.083	1923.07
995.379	1899.57
995.676	1880.36
995.972	1843.98
996.268	1878.1
996.565	1847.82
996.861	1854.6
997.157	1857.76
997.453	1813.92
997.749	1821.6
998.044	1816.18
998.34	1820.93
998.636	1783.64
998.932	1742.06
999.227	1787.48
999.523	1744.09
999.818	1794.71
1000.114	1753.81
1000.409	1743.87
1000.704	1761.27
1001	1725.34
1001.295	1719.23
1001.59	1686.92
1001.885	1700.03
1002.18	1690.08
1002.475	1693.7
1002.77	1691.66
1003.065	1667.03
1003.359	1643.76
1003.654	1638.11
1003.949	1656.64
1004.243	1647.6
1004.538	1615.96
1004.832	1611.67
1005.127	1618.67
1005.421	1611.89
1005.715	1571.22
1006.009	1566.02
1006.304	1568.28
1006.598	1547.04
1006.892	1549.75
1007.186	1534.15
1007.48	1548.62
1007.773	1532.57
1008.067	1496.87
1008.361	1499.35
1008.655	1519.01
1008.948	1499.81
1009.242	1473.37
1009.535	1467.72
1009.829	1470.2
1010.122	1444.44
1010.415	1457.77
1010.708	1469.3
1011.001	1426.59
1011.295	1441.28
1011.588	1431.56
1011.881	1420.71
1012.173	1402.41
1012.466	1356.31
1012.759	1374.38
1013.052	1366.7
1013.344	1394.5
1013.637	1384.78
1013.93	1355.85
1014.222	1331.67
1014.514	1328.74
1014.807	1334.84
1015.099	1314.5
1015.391	1302.07
1015.683	1290.32
1015.976	1290.32
1016.268	1290.77
1016.56	1252.13
1016.851	1314.05
1017.143	1284.22
1017.435	1242.86
1017.727	1275.4
1018.018	1240.15
1018.31	1230.89
1018.602	1244.9
1018.893	1232.47
1019.185	1226.14
1019.476	1222.75
1019.767	1196.31
1020.058	1208.29
1020.35	1214.61
1020.641	1176.65
1020.932	1200.15
1021.223	1166.03
1021.514	1159.93
1021.804	1150.44
1022.095	1170.55
1022.386	1157.44
1022.677	1145.01
1022.967	1113.6
1023.258	1122.19
1023.548	1110.44
1023.839	1105.47
1024.129	1105.47
1024.419	1102.75
1024.709	1098.69
1025	1091.91
1025.29	1081.29
1025.58	1085.13
1025.87	1069.99
1026.16	1076.77
1026.449	1049.87
1026.739	1042.87
1027.029	1038.57
1027.319	1036.99
1027.608	1027.28
1027.898	1027.95
1028.187	1012.13
1028.477	1014.85
1028.766	988.41
1029.055	988.18
1029.344	998.58
1029.634	970.1
1029.923	983.43
1030.212	949.31
1030.501	980.95
1030.79	965.13
1031.078	935.75
1031.367	941.18
1031.656	946.83
1031.945	951.12
1032.233	912.93
1032.522	950.67
1032.81	939.37
1033.099	928.52
1033.387	912.93
1033.675	911.57
1033.963	902.08
1034.251	909.76
1034.54	882.87
1034.828	892.59
1035.116	910.22
1035.403	876.09
1035.691	870.67
1035.979	887.17
1036.267	884.91
1036.554	844.91
1036.842	860.73
1037.129	847.39
1037.417	826.83
1037.704	836.77
1037.992	807.17
1038.279	812.37
1038.566	797.68
1038.853	797.68
1039.14	797.68
