Data from hue_290_FLMS001491_00035.txt Node
Date: Tue Feb 07 15:52:39 GMT 2017
User: dcchb
Spectrometer: FLMS00149
Trigger mode: 0
Integration Time (sec): 2.000000E-2
Scans to average: 10
Electric dark correction enabled: true
Nonlinearity correction enabled: false
Boxcar width: 0
XAxis mode: Wavelengths
Number of Pixels in Spectrum: 2048
>>>>>Begin Spectral Data<<<<<
341.393	-16.65
341.776	-16.65
342.16	-16.65
342.543	-81.28
342.927	-65.46
343.31	-67.72
343.693	-63.43
344.077	-55.07
344.46	-55.97
344.843	-66.14
345.226	-42.41
345.61	-33.37
345.993	-4.22
346.376	-0.83
346.759	-1.51
347.142	21.09
347.525	36.23
347.908	76.68
348.291	71.93
348.674	96.79
349.057	87.98
349.44	121.42
349.823	138.15
350.206	147.86
350.588	192.61
350.971	194.42
351.354	215.21
351.737	220.4
352.119	227.18
352.502	220.63
352.884	238.26
353.267	274.87
353.65	266.73
354.032	281.19
354.414	310.12
354.797	277.58
355.179	311.7
355.562	325.49
355.944	320.06
356.326	316.9
356.709	313.06
357.091	313.73
357.473	348.54
357.855	346.5
358.238	318.48
358.62	318.93
359.002	331.59
359.384	323
359.766	306.96
360.148	328.42
360.53	332.94
360.912	327.29
361.294	335.66
361.676	325.71
362.057	333.17
362.439	300.18
362.821	314.19
363.203	312.83
363.584	330.23
363.966	316.45
364.348	279.39
364.729	312.15
365.111	302.66
365.493	325.49
365.874	316.9
366.256	306.5
366.637	306.73
367.019	298.59
367.4	307.86
367.781	320.97
368.163	294.07
368.544	312.83
368.925	284.36
369.306	322.32
369.688	305.6
370.069	306.05
370.45	296.11
370.831	316.22
371.212	305.37
371.593	330.01
371.974	316.22
372.355	315.09
372.736	300.63
373.117	291.59
373.498	279.61
373.879	292.04
374.26	304.02
374.641	319.84
375.021	308.09
375.402	300.85
375.783	283.45
376.163	316.22
376.544	306.96
376.925	315.99
377.305	303.79
377.686	335.66
378.066	335.88
378.447	330.91
378.827	339.5
379.208	323
379.588	298.14
379.968	316.9
380.349	316.9
380.729	307.63
381.109	306.96
381.489	331.14
381.87	318.48
382.25	324.58
382.63	339.72
383.01	335.88
383.39	305.83
383.77	344.92
384.15	325.26
384.53	330.46
384.91	344.69
385.29	333.17
385.67	314.41
386.049	338.37
386.429	333.17
386.809	342.21
387.189	342.43
387.568	358.25
387.948	349.67
388.328	347.63
388.707	362.77
389.087	357.58
389.466	384.69
389.846	371.36
390.225	362.09
390.605	357.58
390.984	334.53
391.363	370
391.743	369.55
392.122	342.43
392.501	387.63
392.881	361.42
393.26	359.16
393.639	357.8
394.018	342.89
394.397	349.89
394.776	363
395.155	378.14
395.534	367.07
395.913	390.34
396.292	391.7
396.671	374.07
397.05	386.95
397.429	386.73
397.808	401.42
398.186	356.22
398.565	394.18
398.944	404.13
399.323	399.83
399.701	396.67
400.08	409.78
400.458	391.7
400.837	396.9
401.215	417.23
401.594	405.94
401.972	410
402.351	414.07
402.729	420.62
403.107	427.4
403.486	431.7
403.864	427.18
404.242	424.69
404.62	424.01
404.999	437.8
405.377	424.24
405.755	454.75
406.133	442.32
406.511	442.54
406.889	493.39
407.267	480.96
407.645	475.76
408.023	472.6
408.401	454.97
408.779	473.28
409.156	458.14
409.534	481.64
409.912	497.01
410.29	483.67
410.667	484.58
411.045	521.86
411.422	539.04
411.8	522.09
412.178	517.35
412.555	543.33
412.933	533.84
413.31	536.78
413.687	567.74
414.065	573.16
414.442	583.56
414.819	581.52
415.197	582.43
415.574	591.47
415.951	586.95
416.328	592.6
416.705	614.07
417.082	621.75
417.46	626.49
417.837	642.31
418.214	645.7
418.591	669.21
418.967	668.3
419.344	664.46
419.721	680.96
420.098	693.84
420.475	672.6
420.852	684.12
421.228	689.77
421.605	717.79
421.982	721.41
422.358	726.83
422.735	728.41
423.111	761.41
423.488	762.31
423.864	760.5
424.241	773.84
424.617	787.62
424.994	786.04
425.37	785.13
425.746	826.26
426.123	825.13
426.499	814.06
426.875	832.82
427.251	841.4
427.627	862.19
428.003	833.95
428.379	872.14
428.756	888.18
429.132	915.75
429.507	902.65
429.883	928.41
430.259	932.7
430.635	950.1
431.011	953.49
431.387	954.4
431.763	1003.21
432.138	982.19
432.514	1005.92
432.89	1006.6
433.265	1043.43
433.641	1028.74
434.016	1058.8
434.392	1054.73
434.767	1072.58
435.143	1069.65
435.518	1090.66
435.894	1101.74
436.269	1144.67
436.644	1136.76
437.02	1152.36
437.395	1176.99
437.77	1153.26
438.145	1208.17
438.52	1205.24
438.895	1205.91
439.271	1216.54
439.646	1244.33
440.021	1269.42
440.395	1252.24
440.77	1248.85
441.145	1242.75
441.52	1266.25
441.895	1278.91
442.27	1306.02
442.645	1266.03
443.019	1315.74
443.394	1327.95
443.769	1310.09
444.143	1303.31
444.518	1362.75
444.892	1350.09
445.267	1362.75
445.641	1344.89
446.016	1357.55
446.39	1371.11
446.764	1403.2
447.139	1391.9
447.513	1381.5
447.887	1351.67
448.262	1378.79
448.636	1417.89
449.01	1435.51
449.384	1432.35
449.758	1420.15
450.132	1461.5
450.506	1452.24
450.88	1465.57
451.254	1449.75
451.628	1470.54
452.002	1486.36
452.376	1447.94
452.75	1489.3
453.123	1495.4
453.497	1501.27
453.871	1507.15
454.244	1546.02
454.618	1554.61
454.992	1607.26
455.365	1558.45
455.739	1602.29
456.112	1597.32
456.486	1590.99
456.859	1639.58
457.232	1652.68
457.606	1639.58
457.979	1669.18
458.352	1684.32
458.725	1733.81
459.099	1696.52
459.472	1737.88
459.845	1738.56
460.218	1751.44
460.591	1781.72
460.964	1743.98
461.337	1809.29
461.71	1798.44
462.083	1854.26
462.456	1837.76
462.829	1828.72
463.201	1866.01
463.574	1856.97
463.947	1884.54
464.32	1915.95
464.692	1939.45
465.065	1955.05
465.438	1974.03
465.81	1955.5
466.183	1996.63
466.555	2025.33
466.928	2008.38
467.3	2031.43
467.672	2061.26
468.045	2096.51
468.417	2120.92
468.789	2113.46
469.161	2123.86
469.534	2126.57
469.906	2151.43
470.278	2189.84
470.65	2167.7
471.022	2252.21
471.394	2237.3
471.766	2289.5
472.138	2286.79
472.51	2329.73
472.882	2360.91
473.253	2352.55
473.625	2393
473.997	2430.06
474.369	2429.84
474.74	2451.76
475.112	2473.68
475.484	2550.06
475.855	2555.71
476.227	2567.69
476.598	2618.31
476.97	2640.68
477.341	2724.74
477.713	2697.63
478.084	2700.11
478.455	2772.43
478.827	2754.35
479.198	2823.5
479.569	2832.54
479.94	2884.29
480.311	2919.54
480.682	2968.81
481.053	3022.36
481.424	3048.8
481.795	3058.07
482.166	3102.36
482.537	3091.97
482.908	3190.95
483.279	3183.04
483.65	3278.63
484.021	3273.66
484.391	3303.94
484.762	3332.41
485.133	3333.32
485.503	3385.97
485.874	3459.64
486.244	3469.13
486.615	3475.91
486.985	3516.14
487.356	3577.38
487.726	3596.36
488.097	3658.96
488.467	3662.57
488.837	3689.24
489.207	3755.23
489.578	3787.99
489.948	3802.23
490.318	3838.61
490.688	3825.73
491.058	3895.56
491.428	3949.57
491.798	4013.98
492.168	4009.91
492.538	4058.04
492.908	4013.98
493.278	4133.75
493.648	4097.36
494.017	4149.79
494.387	4166.06
494.757	4200.64
495.126	4244.03
495.496	4233.41
495.866	4251.03
496.235	4296.91
496.605	4305.27
496.974	4376.68
497.344	4324.93
497.713	4381.65
498.082	4399.05
498.452	4418.26
498.821	4462.55
499.19	4497.35
499.559	4501.42
499.928	4517.24
500.298	4524.25
500.667	4538.71
501.036	4572.61
501.405	4576.22
501.774	4584.36
502.143	4604.02
502.512	4650.57
502.88	4695.31
503.249	4658.25
503.618	4728.99
503.987	4693.96
504.356	4721.75
504.724	4724.01
505.093	4719.04
505.462	4769.66
505.83	4773.28
506.199	4831.36
506.567	4887.85
506.936	4809.44
507.304	4905.93
507.672	4878.59
508.041	4913.39
508.409	4892.37
508.777	4966.49
509.145	4985.02
509.514	4955.42
509.882	4993.84
510.25	5001.3
510.618	5049.66
510.986	5014.4
511.354	5028.19
511.722	5037
512.09	5129.88
512.458	5111.57
512.826	5118.58
513.193	5074.06
513.561	5101.86
513.929	5157.45
514.297	5214.62
514.664	5216.88
515.032	5228.86
515.4	5227.05
515.767	5236.77
516.135	5301.63
516.502	5248.75
516.869	5346.14
517.237	5303.21
517.604	5221.85
517.972	5321.29
518.339	5351.79
518.706	5365.58
519.073	5349.31
519.44	5356.54
519.808	5402.41
520.175	5354.28
520.542	5487.61
520.909	5430.21
521.276	5479.02
521.643	5513.82
522.009	5486.93
522.376	5534.84
522.743	5526.03
523.11	5555.63
523.477	5628.17
523.843	5576.42
524.21	5660.03
524.577	5703.88
524.943	5666.81
525.31	5696.87
525.676	5749.3
526.043	5772.12
526.409	5826.58
526.776	5826.81
527.142	5818.67
527.508	5876.75
527.874	5842.4
528.241	5907.26
528.607	5917.66
528.973	5973.47
529.339	5994.49
529.705	6022.96
530.071	6061.61
530.437	6111.77
530.803	6083.53
531.169	6126.01
531.535	6083.75
531.901	6109.06
532.267	6134.15
532.632	6194.94
532.998	6176.63
533.364	6229.29
533.73	6212.56
534.095	6238.55
534.461	6257.08
534.826	6346.8
535.192	6330.75
535.557	6338.89
535.923	6371.2
536.288	6312.67
536.653	6409.62
537.019	6350.19
537.384	6378.66
537.749	6432.44
538.114	6422.05
538.479	6468.38
538.845	6473.57
539.21	6445.78
539.575	6472.22
539.94	6525.77
540.305	6532.33
540.67	6542.27
541.034	6564.19
541.399	6564.19
541.764	6556.28
542.129	6654.36
542.494	6647.35
542.858	6671.99
543.223	6748.37
543.587	6769.61
543.952	6717.63
544.316	6796.73
544.681	6756.73
545.045	6751.76
545.41	6793.11
545.774	6804.64
546.138	6893.9
546.503	6838.99
546.867	6864.97
547.231	6920.79
547.595	6861.59
547.959	6928.48
548.324	6947.46
548.688	6968.93
549.052	6935.93
549.416	6981.36
549.779	6957.18
550.143	7004.41
550.507	6995.59
550.871	6996.04
551.235	7013.22
551.599	7061.35
551.962	7059.32
552.326	7076.95
552.689	7114.23
553.053	7089.38
553.417	7118.53
553.78	7154.68
554.143	7158.07
554.507	7192.42
554.87	7139.54
555.234	7207.34
555.597	7158.75
555.96	7213.67
556.323	7226.55
556.686	7280.11
557.05	7319.88
557.413	7352.19
557.776	7295.7
558.139	7356.94
558.502	7335.24
558.865	7411.85
559.228	7373.21
559.59	7414.79
559.953	7449.37
560.316	7535.69
560.679	7480.1
561.041	7554.9
561.404	7523.04
561.767	7583.37
562.129	7598.06
562.492	7651.62
562.854	7613.66
563.217	7656.82
563.579	7687.33
563.941	7685.74
564.304	7706.76
564.666	7746.99
565.028	7768
565.39	7812.75
565.753	7803.93
566.115	7833.08
566.477	7861.33
566.839	7896.81
567.201	7904.5
567.563	7974.1
567.925	7968.67
568.287	7980.65
568.648	7991.5
569.01	8009.58
569.372	8096.13
569.734	8067.43
570.095	8105.85
570.457	8120.31
570.819	8177.48
571.18	8197.37
571.542	8196.01
571.903	8302.45
572.265	8297.93
572.626	8306.74
572.987	8349.23
573.349	8356.24
573.71	8401.21
574.071	8488.89
574.432	8459.74
574.794	8516.23
575.155	8559.39
575.516	8562.33
575.877	8643.01
576.238	8661.31
576.599	8708.32
576.96	8788.77
577.32	8822.66
577.681	8917.35
578.042	9019.04
578.403	8991.25
578.763	9006.61
579.124	9034.18
579.485	9182.88
579.845	9212.71
580.206	9333.84
580.566	9288.41
580.927	9349.66
581.287	9509.43
581.648	9510.33
582.008	9640.5
582.368	9742.19
582.728	9770.44
583.089	9889.08
583.449	9965.01
583.809	10058.79
584.169	10147.83
584.529	10313.47
584.889	10401.83
585.249	10498.78
585.609	10591.2
585.969	10727.7
586.329	10763.18
586.688	10902.16
587.048	11044.07
587.408	11124.75
587.768	11271.64
588.127	11409.94
588.487	11481.58
588.846	11671.63
589.206	11698.52
589.565	11821.23
589.925	12049.7
590.284	12127.66
590.643	12295.57
591.003	12469.8
591.362	12608.55
591.721	12694.43
592.08	12768.32
592.44	13003.57
592.799	13168.54
593.158	13237.91
593.517	13387.06
593.876	13498.92
594.235	13649.43
594.593	13812.59
594.952	13889.42
595.311	13908.86
595.67	14198.34
596.029	14429.3
596.387	14510.2
596.746	14641.95
597.104	14721.27
597.463	14902.5
597.822	15062.5
598.18	15069.28
598.538	15223.85
598.897	15517.18
599.255	15422.04
599.613	15789.71
599.972	15743.16
600.33	15933.21
600.688	15959.88
601.046	16107.67
601.404	16335.23
601.762	16353.54
602.12	16452.75
602.478	16662.46
602.836	16703.81
603.194	16727.77
603.552	16925.05
603.91	16935.44
604.268	17066.97
604.625	17085.05
604.983	17312.61
605.341	17220.86
605.698	17386.05
606.056	17634.86
606.413	17644.35
606.771	17810.22
607.128	17820.84
607.485	17763.67
607.843	17916.44
608.2	18081.86
608.557	18196.88
608.914	18242.98
609.272	18307.16
609.629	18514.39
609.986	18641.61
610.343	18522.52
610.7	18728.17
611.057	18706.7
611.414	18828.95
611.771	18862.17
612.127	18990.98
612.484	18983.07
612.841	19214.71
613.198	19191.2
613.554	19259.23
613.911	19410.63
614.267	19395.27
614.624	19447.92
614.98	19505.77
615.337	19696.73
615.693	19707.58
616.05	19699.21
616.406	19702.38
616.762	19801.81
617.118	19833.9
617.475	19966.33
617.831	20004.52
618.187	20007.45
618.543	20191.63
618.899	20243.61
619.255	20217.39
619.611	20236.15
619.967	20350.72
620.323	20352.98
620.678	20366.99
621.034	20344.85
621.39	20394.11
621.746	20402.92
622.101	20670.94
622.457	20496.48
622.812	20523.15
623.168	20666.19
623.523	20631.62
623.879	20642.24
624.234	20648.34
624.589	20752.75
624.945	20773.76
625.3	20858.73
625.655	20791.16
626.01	20848.34
626.365	20873.42
626.72	20802.69
627.075	20894.66
627.43	20888.79
627.785	20823.93
628.14	20910.26
628.495	20957.49
628.85	20989.8
629.205	20924.27
629.559	21031.16
629.914	20931.72
630.269	20884.72
630.623	20884.04
630.978	20826.42
631.332	20978.05
631.687	20943.02
632.041	20806.53
632.396	20953.19
632.75	20825.74
633.104	20867.54
633.459	20853.76
633.813	20906.64
634.167	20747.32
634.521	20805.17
634.875	20972.4
635.229	20765.63
635.583	20821.22
635.937	20750.03
636.291	20700.09
636.645	20715.91
636.999	20745.74
637.352	20783.7
637.706	20607.66
638.06	20747.77
638.413	20786.19
638.767	20738.06
639.121	20704.84
639.474	20638.85
639.828	20630.49
640.181	20695.12
640.534	20802.01
640.888	20595.69
641.241	20606.08
641.594	20545.97
641.947	20780.54
642.301	20630.26
642.654	20672.75
643.007	20572.86
643.36	20591.85
643.713	20585.74
644.066	20647.21
644.419	20465.07
644.771	20369.48
645.124	20210.61
645.477	20251.06
645.83	20152.08
646.182	20065.31
646.535	20004.74
646.888	20106.21
647.24	19842.71
647.593	20058.75
647.945	19858.76
648.298	19868.93
648.65	19882.03
649.002	19801.58
649.355	19978.98
649.707	19948.02
650.059	20063.95
650.411	20265.07
650.763	20322.02
651.115	20520.21
651.467	20438.18
651.819	20434.56
652.171	20348.24
652.523	20382.13
652.875	20341.23
653.227	20287.67
653.578	20402.7
653.93	20400.66
654.282	20392.75
654.633	20223.95
654.985	20376.26
655.337	20361.8
655.688	20444.5
656.039	20547.33
656.391	20273.44
656.742	20403.38
657.094	20490.15
657.445	20510.72
657.796	20480.66
658.147	20471.85
658.498	20372.64
658.849	20565.63
659.2	20402.25
659.551	20467.33
659.902	20438.63
660.253	20438.4
660.604	20469.36
660.955	20381.91
661.306	20428.69
661.656	20463.49
662.007	20516.37
662.358	20478.85
662.708	20448.8
663.059	20551.17
663.409	20362.02
663.76	20547.1
664.11	20417.39
664.461	20574.9
664.811	20487.89
665.161	20471.4
665.511	20527.89
665.862	20528.12
666.212	20554.78
666.562	20598.4
666.912	20538.29
667.262	20493.77
667.612	20505.29
667.962	20556.37
668.312	20487.89
668.662	20538.97
669.011	20446.31
669.361	20416.26
669.711	20456.71
670.06	20439.31
670.41	20365.41
670.76	20423.94
671.109	20483.83
671.459	20420.55
671.808	20451.06
672.157	20467.78
672.507	20421.23
672.856	20275.02
673.205	20303.72
673.554	20475.01
673.904	20317.5
674.253	20293.77
674.602	20258.75
674.951	20130.61
675.3	19943.5
675.649	20236.83
675.998	20153.66
676.346	20205.42
676.695	20342.36
677.044	20195.47
677.393	20180.78
677.741	20263.72
678.09	20101.46
678.438	20144.4
678.787	20170.16
679.135	20181.23
679.484	20081.35
679.832	20024.63
680.181	20094.68
680.529	20002.03
680.877	20010.84
681.225	19980.11
681.573	20034.8
681.922	19804.3
682.27	19844.75
682.618	19825.76
682.966	19811.98
683.314	19849.72
683.661	19806.56
684.009	19592.1
684.357	19637.29
684.705	19545.09
685.053	19601.59
685.4	19634.81
685.748	19479.78
686.095	19466.45
686.443	19426.9
686.79	19284.76
687.138	19424.42
687.485	19373.57
687.832	19236.85
688.18	19209.28
688.527	19118.89
688.874	19178.1
689.221	19126.12
689.568	18980.36
689.915	19004.09
690.262	19014.49
690.609	18937.43
690.956	18869.63
691.303	18834.15
691.65	18705.79
691.997	18694.27
692.344	18534.95
692.69	18513.03
693.037	18555.29
693.383	18554.39
693.73	18574.05
694.077	18372.02
694.423	18346.48
694.769	18303.32
695.116	18227.84
695.462	18205.24
695.808	18088.18
696.155	18094.28
696.501	17948.53
696.847	17950.33
697.193	17887.74
697.539	17887.51
697.885	17737.01
698.231	17703.11
698.577	17727.74
698.923	17662.88
699.269	17573.17
699.614	17488.88
699.96	17400.74
700.306	17390.57
700.651	17277.13
700.997	17337.92
701.342	17264.25
701.688	17108.1
702.033	17149.45
702.379	17078.94
702.724	17003.92
703.069	17030.36
703.415	16890.93
703.76	16829.23
704.105	16870.59
704.45	16742.23
704.795	16683.47
705.14	16587.21
705.485	16537.49
705.83	16525.06
706.175	16459.98
706.52	16430.83
706.865	16407.1
707.209	16378.17
707.554	16329.13
707.899	16355.35
708.243	16231.73
708.588	16275.8
708.932	16105.64
709.277	16052.98
709.621	16055.69
709.966	15915.58
710.31	16049.59
710.654	15858.41
710.998	15856.38
711.342	15895.02
711.687	15865.64
712.031	15724.4
712.375	15719.66
712.719	15660.68
713.063	15629.04
713.407	15748.58
713.75	15574.58
714.094	15670.17
714.438	15540
714.782	15527.35
715.125	15505.65
715.469	15448.93
715.812	15336.16
716.156	15298.65
716.499	15293.91
716.843	15376.62
717.186	15209.16
717.53	15324.64
717.873	15395.6
718.216	15310.18
718.559	15112.89
718.902	15008.94
719.246	15111.54
719.589	15106.11
719.932	15034.25
720.275	15022.73
720.617	15082.61
720.96	14999.45
721.303	15094.59
721.646	15086.68
721.989	15009.17
722.331	15039
722.674	14970.98
723.016	14998.32
723.359	15007.59
723.701	15019.79
724.044	14723.3
724.386	14871.32
724.729	14812.34
725.071	14806.91
725.413	14789.74
725.755	14831.55
726.097	14682.85
726.439	14664.77
726.782	14681.49
727.124	14703.86
727.465	14647.37
727.807	14739.34
728.149	14675.39
728.491	14667.26
728.833	14721.49
729.175	14612.57
729.516	14637.65
729.858	14594.49
730.199	14747.25
730.541	14583.64
730.882	14612.34
731.224	14580.03
731.565	14555.39
731.906	14562.17
732.248	14507.26
732.589	14537.54
732.93	14461.84
733.271	14483.53
733.612	14476.75
733.953	14545.45
734.294	14410.99
734.635	14508.39
734.976	14545
735.317	14458.9
735.658	14385.23
735.999	14516.75
736.339	14408.51
736.68	14489.18
737.021	14433.82
737.361	14396.08
737.702	14500.93
738.042	14509.29
738.383	14458.22
738.723	14449.41
739.063	14427.94
739.404	14497.77
739.744	14495.06
740.084	14474.94
740.424	14470.2
740.764	14498.45
741.104	14594.26
741.444	14499.12
741.784	14491.67
742.124	14555.17
742.464	14549.74
742.804	14527.6
743.143	14488.96
743.483	14611.89
743.823	14614.15
744.162	14638.78
744.502	14629.52
744.841	14651.21
745.181	14758.1
745.52	14690.31
745.86	14687.37
746.199	14817.76
746.538	14806.01
746.877	14922.39
747.216	14956.97
747.556	14966
747.895	14999.9
748.234	15031.77
748.573	15023.4
748.911	15068.6
749.25	15122.38
749.589	15180.46
749.928	15302.27
750.267	15337.29
750.605	15344.53
750.944	15384.3
751.283	15487.8
751.621	15610.28
751.96	15537.29
752.298	15674.23
752.636	15800.79
752.975	15807.34
753.313	15934.11
753.651	16035.36
753.989	16085.07
754.327	16187.67
754.666	16189.02
755.004	16361.22
755.342	16586.98
755.679	16629.01
756.017	16706.07
756.355	16809.57
756.693	16800.31
757.031	17083.24
757.368	17055.44
757.706	17249.11
758.044	17261.09
758.381	17425.83
758.719	17425.6
759.056	17651.58
759.394	17654.07
759.731	17703.79
760.068	17796.89
760.405	17938.81
760.743	18065.58
761.08	18085.02
761.417	18263.32
761.754	18320.04
762.091	18464.22
762.428	18438.46
762.765	18467.16
763.102	18703.53
763.438	18684.78
763.775	18666.47
764.112	18837.09
764.449	19000.93
764.785	19142.62
765.122	19054.94
765.458	19088.61
765.795	19183.07
766.131	19229.17
766.467	19212.22
766.804	19220.36
767.14	19221.94
767.476	19430.75
767.812	19315.72
768.148	19418.54
768.485	19470.07
768.821	19513.23
769.157	19596.84
769.492	19596.84
769.828	19598.43
770.164	19464.19
770.5	19546.45
770.836	19688.59
771.171	19710.29
771.507	19684.75
771.842	19508.03
772.178	19608.37
772.513	19626.22
772.849	19682.72
773.184	19627.8
773.519	19716.84
773.855	19578.99
774.19	19602.49
774.525	19552.1
774.86	19676.16
775.195	19506.9
775.53	19491.08
775.865	19558.88
776.2	19483.4
776.535	19470.07
776.87	19331.31
777.205	19360.69
777.539	19391.88
777.874	19387.36
778.209	19309.62
778.543	19288.83
778.878	19227.14
779.212	19225.1
779.547	19161.83
779.881	19187.14
780.215	19109.4
780.55	19258.77
780.884	19093.13
781.218	19010.42
781.552	19017.42
781.886	18956.63
782.22	18878.22
782.554	18829.63
782.888	18709.64
783.222	18783.53
783.556	18652.69
783.889	18570.66
784.223	18451.34
784.557	18491.56
784.89	18586.25
785.224	18427.61
785.557	18341.74
785.891	18415.86
786.224	18273.26
786.558	18258.12
786.891	18159.59
787.224	18062.65
787.557	18003.21
787.891	18122.76
788.224	17989.2
788.557	18068.75
788.89	17952.14
789.223	17936.32
789.556	17867.85
789.888	17784.24
790.221	17701.98
790.554	17594.86
790.887	17656.33
791.219	17495.88
791.552	17558.03
791.884	17470.12
792.217	17395.55
792.549	17404.58
792.882	17252.27
793.214	17203.69
793.546	17189.9
793.879	17058.61
794.211	17009.79
794.543	17058.61
794.875	16985.84
795.207	16991.04
795.539	16939.06
795.871	16907.2
796.203	16864.49
796.535	16722.34
796.867	16708.11
797.198	16674.21
797.53	16687.77
797.862	16538.84
798.193	16612.06
798.525	16457.04
798.856	16473.99
799.188	16330.49
799.519	16306.53
799.85	16245.75
800.182	16137.95
800.513	16255.69
800.844	16071.51
801.175	16186.54
801.506	16177.27
801.837	16107.44
802.168	15883.49
802.499	16025.19
802.83	15909.48
803.161	15822.93
803.491	15795.36
803.822	15783.38
804.153	15795.59
804.483	15634.01
804.814	15598.98
805.145	15542.03
805.475	15639.66
805.805	15465.65
806.136	15432.66
806.466	15464.07
806.796	15453.22
807.126	15294.58
807.457	15256.17
807.787	15240.12
808.117	15267.69
808.447	15196.28
808.777	15246
809.107	15162.84
809.436	15039.45
809.766	15038.55
810.096	15038.32
810.426	14908.61
810.755	14948.15
811.085	14958.77
811.414	14932.79
811.744	14848.95
812.073	14801.94
812.403	14801.04
812.732	14666.13
813.061	14738.67
813.39	14612.12
813.719	14532.34
814.049	14657.54
814.378	14555.85
814.707	14484.21
815.036	14444.66
815.365	14491.67
815.693	14333.48
816.022	14329.64
816.351	14290.77
816.68	14189.08
817.008	14282.63
817.337	14159.02
817.665	14104.78
817.994	14215.74
818.322	14117.21
818.651	13966.03
818.979	13979.59
819.307	14079.7
819.636	14024.33
819.964	13952.47
820.292	14019.59
820.62	13986.6
820.948	13904.34
821.276	13995.41
821.604	13841.74
821.932	13901.85
822.259	13853.72
822.587	13871.34
822.915	13886.03
823.243	13942.08
823.57	13942.08
823.898	13842.64
824.225	13885.36
824.553	13854.85
824.88	13779.82
825.207	13944.56
825.535	13876.09
825.862	13827.96
826.189	13795.19
826.516	13812.14
826.843	13938.69
827.17	13872.25
827.497	13865.92
827.824	13989.08
828.151	13903.21
828.478	13811.46
828.805	13942.08
829.131	13787.5
829.458	13772.14
829.785	13786.6
830.111	13829.76
830.438	13914.51
830.764	13838.58
831.09	13887.16
831.417	13797.45
831.743	13723.55
832.069	13786.37
832.395	13701.86
832.722	13827.96
833.048	13799.26
833.374	13727.39
833.7	13707.05
834.026	13711.8
834.351	13656.89
834.677	13634.06
835.003	13811.01
835.329	13764.45
835.654	13599.04
835.98	13553.61
836.306	13615.98
836.631	13501.18
836.956	13584.35
837.282	13618.47
837.607	13531.92
837.932	13467.74
838.258	13537.79
838.583	13480.39
838.908	13374.41
839.233	13348.42
839.558	13370.34
839.883	13304.58
840.208	13329.21
840.533	13234.3
840.858	13295.31
841.182	13321.98
841.507	13267.07
841.832	13191.36
842.156	13145.26
842.481	13165.37
842.805	13131.25
843.13	13133.06
843.454	13064.81
843.778	13052.16
844.103	13032.04
844.427	12964.48
844.751	12957.02
845.075	13004.02
845.399	12865.95
845.723	12834.54
846.047	12835.21
846.371	12783.46
846.695	12694.65
847.019	12628.67
847.343	12536.46
847.666	12480.65
847.99	12464.6
848.313	12449.01
848.637	12337.15
848.96	12425.05
849.284	12240.2
849.607	12162.46
849.931	12237.94
850.254	12133.08
850.577	12065.97
850.9	12077.95
851.223	12011.73
851.546	11900.32
851.869	11866.65
852.192	11939.19
852.515	11734.45
852.838	11718.18
853.161	11839.08
853.483	11719.31
853.806	11712.08
854.129	11584.4
854.451	11529.03
854.774	11542.14
855.096	11454.23
855.419	11430.5
855.741	11481.12
856.063	11331.52
856.385	11344.86
856.708	11315.25
857.03	11269.38
857.352	11263.96
857.674	11206.33
857.996	11221.02
858.318	11076.16
858.64	11130.85
858.961	10984.41
859.283	11040.01
859.605	10978.76
859.926	10992.1
860.248	10985.77
860.57	10888.15
860.891	11002.95
861.212	10905.77
861.534	10841.82
861.855	10840.01
862.176	10848.15
862.498	10814.7
862.819	10758.21
863.14	10774.7
863.461	10751.2
863.782	10706.68
864.103	10673.91
864.424	10759.11
864.745	10636.63
865.065	10589.62
865.386	10536.97
865.707	10550.75
866.027	10608.83
866.348	10615.38
866.668	10522.96
866.989	10540.36
867.309	10458.1
867.63	10504.43
867.95	10530.87
868.27	10421.49
868.59	10421.27
868.91	10404.54
869.23	10343.53
869.55	10322.06
869.87	10360.48
870.19	10272.12
870.51	10334.49
870.83	10359.12
871.15	10285.45
871.469	10254.49
871.789	10284.55
872.109	10245.9
872.428	10176.75
872.748	10216.3
873.067	10230.99
873.386	10205.68
873.706	10160.93
874.025	10151.44
874.344	10117.77
874.663	10093.82
874.982	10153.93
875.301	10112.35
875.62	10035.96
875.939	10049.75
876.258	10012.24
876.577	9988.73
876.896	9957.55
877.214	9940.6
877.533	9946.25
877.852	9912.58
878.17	9941.28
878.489	9899.02
878.807	9954.61
879.125	9831.45
879.444	9788.29
879.762	9825.35
880.08	9802.3
880.398	9759.36
880.716	9719.36
881.034	9724.11
881.352	9741.51
881.67	9721.62
881.988	9771.34
882.306	9698.8
882.624	9599.82
882.941	9621.29
883.259	9554.4
883.577	9585.58
883.894	9576.77
884.212	9568.41
884.529	9538.35
884.846	9492.48
885.164	9547.16
885.481	9447.28
885.798	9467.84
886.115	9376.55
886.432	9395.98
886.75	9322.31
887.067	9308.53
887.383	9327.28
887.7	9317.57
888.017	9220.17
888.334	9241.64
888.651	9249.54
888.967	9205.03
889.284	9152.15
889.6	9192.82
889.917	9113.96
890.233	9061.75
890.55	8981.76
890.866	9035.09
891.182	9038.48
891.498	8974.52
891.815	8971.81
892.131	8924.58
892.447	8928.42
892.763	8790.12
893.079	8795.55
893.395	8892.27
893.71	8799.84
894.026	8764.36
894.342	8809.78
894.657	8630.58
894.973	8736.34
895.289	8670.8
895.604	8628.77
895.92	8603.91
896.235	8530.47
896.55	8523.46
896.865	8530.24
897.181	8533.18
897.496	8491.15
897.811	8445.72
898.126	8362.56
898.441	8350.59
898.756	8389.45
899.071	8357.36
899.386	8317.59
899.7	8280.98
900.015	8233.75
900.33	8149.91
900.644	8159.18
900.959	8164.83
901.273	8162.79
901.588	8096.35
901.902	8048.22
902.216	8001.89
902.531	7996.24
902.845	7963.7
903.159	7958.96
903.473	7868.79
903.787	7857.94
904.101	7814.1
904.415	7776.36
904.729	7748.12
905.042	7706.31
905.356	7718.74
905.67	7693.2
905.984	7731.62
906.297	7659.08
906.611	7646.88
906.924	7584.28
907.237	7616.14
907.551	7525.52
907.864	7530.95
908.177	7464.06
908.491	7440.33
908.804	7392.42
909.117	7390.61
909.43	7383.15
909.743	7297.51
910.056	7302.48
910.368	7205.3
910.681	7280.78
910.994	7201.92
911.307	7211.41
911.619	7070.62
911.932	7107.45
912.244	7052.77
912.557	7008.47
912.869	6985.65
913.181	7005.54
913.494	6989.49
913.806	6913.79
914.118	6906.1
914.43	6891.87
914.742	6853.22
915.054	6804.19
915.366	6793.79
915.678	6791.08
915.99	6754.92
916.302	6705.21
916.613	6656.62
916.925	6687.35
917.236	6660.46
917.548	6630.86
917.859	6580.01
918.171	6523.06
918.482	6535.49
918.794	6436.06
919.105	6507.92
919.416	6467.92
919.727	6476.96
920.038	6368.49
920.349	6326.23
920.66	6355.16
920.971	6349.73
921.282	6299.11
921.593	6265.22
921.903	6184.99
922.214	6201.04
922.525	6188.16
922.835	6189.74
923.146	6105.67
923.456	6086.01
923.767	6087.37
924.077	6036.07
924.387	6014.38
924.697	6008.27
925.008	5984.55
925.318	5966.47
925.628	5913.36
925.938	5905.68
926.248	5817.09
926.558	5822.97
926.867	5826.58
927.177	5801.73
927.487	5768.28
927.796	5740.26
928.106	5735.96
928.416	5739.13
928.725	5688.28
929.034	5640.15
929.344	5637.21
929.653	5607.83
929.962	5564.22
930.271	5579.58
930.581	5516.99
930.89	5519.02
931.199	5425.24
931.508	5456.65
931.817	5486.03
932.125	5415.52
932.434	5375.75
932.743	5342.98
933.051	5315.41
933.36	5324.22
933.669	5319.7
933.977	5266.37
934.286	5269.08
934.594	5223.44
934.902	5175.75
935.21	5165.81
935.519	5188.18
935.827	5142.53
936.135	5105.25
936.443	5085.13
936.751	5052.59
937.059	5053.72
937.367	5014.63
937.674	5049.88
937.982	5027.96
938.29	4983.22
938.597	4975.31
938.905	4913.16
939.213	4948.64
939.52	4897.34
939.827	4912.26
940.135	4838.81
940.442	4822.32
940.749	4828.19
941.056	4851.92
941.363	4780.06
941.67	4754.97
941.977	4723.79
942.284	4686.05
942.591	4730.12
942.898	4669.78
943.205	4653.96
943.511	4606.5
943.818	4627.75
944.125	4566.28
944.431	4611.02
944.738	4608.76
945.044	4527.18
945.35	4478.14
945.657	4484.92
945.963	4448.09
946.269	4409.67
946.575	4456.9
946.881	4434.76
947.187	4461.42
947.493	4339.84
947.799	4381.42
948.105	4340.07
948.41	4300.07
948.716	4313.4
949.022	4323.57
949.327	4267.98
949.633	4247.87
949.938	4242.67
950.244	4226.63
950.549	4174.88
950.854	4169.45
951.16	4165.84
951.465	4132.39
951.77	4117.7
952.075	4082.68
952.38	4047.87
952.685	4074.99
952.99	4038.61
953.294	4048.78
953.599	3979.85
953.904	3970.81
954.209	3966.52
954.513	3960.19
954.818	3929.68
955.122	3904.15
955.426	3912.96
955.731	3880.87
956.035	3820.54
956.339	3844.49
956.643	3853.98
956.948	3812.63
957.252	3776.92
957.556	3837.26
957.86	3753.87
958.163	3768.11
958.467	3724.49
958.771	3733.76
959.075	3694.89
959.378	3674.32
959.682	3667.54
959.985	3654.66
960.289	3672.52
960.592	3653.76
960.896	3633.42
961.199	3593.42
961.502	3592.74
961.805	3557.49
962.108	3557.72
962.411	3563.37
962.714	3548
963.017	3534.67
963.32	3531.96
963.623	3516.14
963.926	3435.69
964.228	3440.43
964.531	3437.27
964.833	3436.14
965.136	3390.04
965.438	3394.11
965.741	3350.04
966.043	3361.79
966.345	3329.93
966.648	3349.59
966.95	3346.88
967.252	3299.19
967.554	3310.72
967.856	3279.08
968.158	3276.82
968.46	3231.62
968.761	3223.49
969.063	3192.76
969.365	3184.62
969.666	3179.2
969.968	3183.04
970.269	3159.54
970.571	3157.05
970.872	3148.69
971.174	3127.9
971.475	3141.23
971.776	3108.92
972.077	3088.58
972.378	3068.24
972.679	3068.24
972.98	3093.77
973.281	3002.93
973.582	3006.09
973.883	3040.89
974.183	2994.34
974.484	2994.79
974.785	2946.21
975.085	2950.95
975.386	2998.86
975.686	2922.93
975.986	2908.92
976.287	2908.02
976.587	2888.81
976.887	2875.25
977.187	2857.4
977.487	2836.15
977.787	2838.41
978.087	2833.89
978.387	2789.15
978.687	2811.75
978.987	2769.04
979.286	2759.32
979.586	2781.69
979.885	2722.48
980.185	2718.87
980.484	2714.58
980.784	2718.19
981.083	2695.14
981.382	2652.43
981.682	2674.35
981.981	2676.61
982.28	2656.05
982.579	2631.87
982.878	2665.76
983.177	2586.9
983.475	2615.82
983.774	2597.97
984.073	2578.76
984.372	2586.9
984.67	2529.72
984.969	2540.57
985.267	2555.94
985.566	2553
985.864	2497.18
986.162	2510.97
986.461	2449.72
986.759	2477.97
987.057	2443.62
987.355	2470.74
987.653	2464.41
987.951	2447.69
988.249	2443.85
988.547	2441.14
988.844	2399.1
989.142	2407.24
989.44	2399.1
989.737	2364.75
990.035	2346
990.332	2372.44
990.63	2329.95
990.927	2318.65
991.224	2301.93
991.521	2285.89
991.819	2313
992.116	2297.19
992.413	2273.46
992.71	2258.77
993.006	2239.79
993.303	2243.4
993.6	2259.9
993.897	2219
994.193	2227.36
994.49	2211.99
994.787	2179.22
995.083	2162.05
995.379	2148.49
995.676	2142.84
995.972	2155.04
996.268	2108.04
996.565	2170.64
996.861	2115.72
997.157	2091.32
997.453	2104.65
997.749	2066.91
998.044	2075.27
998.34	2056.29
998.636	2039.11
998.932	2021.49
999.227	2026.23
999.523	2009.96
999.818	1990.3
1000.114	1983.52
1000.409	1995.5
1000.704	1990.75
1001	1963.41
1001.295	1940.36
1001.59	1969.06
1001.885	1931.55
1002.18	1910.3
1002.475	1931.09
1002.77	1917.53
1003.065	1843.86
1003.359	1879.34
1003.654	1865.78
1003.949	1845.45
1004.243	1836.86
1004.538	1814.94
1004.832	1858.1
1005.127	1809.97
1005.421	1814.71
1005.715	1787.37
1006.009	1814.03
1006.304	1774.94
1006.598	1800.48
1006.892	1787.59
1007.186	1750.53
1007.48	1760.7
1007.773	1728.84
1008.067	1725.67
1008.361	1701.04
1008.655	1705.56
1008.948	1720.25
1009.242	1689.07
1009.535	1681.38
1009.829	1654.49
1010.122	1646.36
1010.415	1643.19
1010.708	1619.01
1011.001	1629.18
1011.295	1608.62
1011.588	1625.11
1011.881	1599.8
1012.173	1569.52
1012.466	1569.29
1012.759	1619.92
1013.052	1586.02
1013.344	1542.85
1013.637	1558
1013.93	1556.64
1014.222	1553.02
1014.514	1516.41
1014.807	1516.41
1015.099	1509.41
1015.391	1496.98
1015.683	1485
1015.976	1498.56
1016.268	1461.95
1016.56	1428.96
1016.851	1473.25
1017.143	1445.23
1017.435	1443.2
1017.727	1423.99
1018.018	1406.81
1018.31	1415.17
1018.602	1419.92
1018.893	1408.62
1019.185	1386.93
1019.476	1366.59
1019.767	1349.87
1020.058	1346.48
1020.35	1325.69
1020.641	1345.8
1020.932	1318.45
1021.223	1332.92
1021.514	1307.83
1021.804	1282.3
1022.095	1312.8
1022.386	1285.46
1022.677	1278.91
1022.967	1250.21
1023.258	1255.63
1023.548	1251.56
1023.839	1269.87
1024.129	1242.07
1024.419	1228.51
1024.709	1228.06
1025	1223.09
1025.29	1230.32
1025.58	1198.46
1025.87	1190.1
1026.16	1166.14
1026.449	1192.58
1026.739	1163.2
1027.029	1147.16
1027.319	1134.5
1027.608	1133.6
1027.898	1137.67
1028.187	1126.82
1028.477	1136.54
1028.766	1121.17
1029.055	1109.87
1029.344	1095.41
1029.634	1084.34
1029.923	1106.71
1030.212	1081.4
1030.501	1079.82
1030.79	1067.16
1031.078	1053.38
1031.367	1051.79
1031.656	1037.78
1031.945	1045.69
1032.233	1065.35
1032.522	1049.53
1032.81	1001.63
1033.099	1027.16
1033.387	996.65
1033.675	973.83
1033.963	994.62
1034.251	962.31
1034.54	992.59
1034.828	987.39
1035.116	992.81
1035.403	982.42
1035.691	964.57
1035.979	969.76
1036.267	936.09
1036.554	931.12
1036.842	943.77
1037.129	937.22
1037.417	914.4
1037.704	938.8
1037.992	933.83
1038.279	894.96
1038.566	900.39
1038.853	900.39
1039.14	900.39
