Data from hue_70_FLMS001491_67.txt Node
Date: Mon Feb 06 15:21:16 GMT 2017
User: dcchb
Spectrometer: FLMS00149
Trigger mode: 0
Integration Time (sec): 2.000000E-2
Scans to average: 10
Electric dark correction enabled: true
Nonlinearity correction enabled: false
Boxcar width: 0
XAxis mode: Wavelengths
Number of Pixels in Spectrum: 2048
>>>>>Begin Spectral Data<<<<<
341.393	-5.31
341.776	-5.31
342.16	-5.31
342.543	-64.07
342.927	-66.55
343.31	-54.57
343.693	-57.06
344.077	-69.94
344.46	-60.45
344.843	-66.1
345.226	-42.15
345.61	-16.61
345.993	-37.4
346.376	-3.95
346.759	3.05
347.142	8.7
347.525	66.55
347.908	52.32
348.291	88.7
348.674	81.92
349.057	107
349.44	111.52
349.823	125.31
350.206	162.59
350.588	202.37
350.971	196.94
351.354	209.82
351.737	221.8
352.119	253.21
352.502	276.26
352.884	279.2
353.267	271.97
353.65	309.26
354.032	285.08
354.414	295.7
354.797	301.12
355.179	329.14
355.562	338.86
355.944	337.96
356.326	322.14
356.709	333.89
357.091	346.09
357.473	349.71
357.855	338.18
358.238	360.56
358.62	337.96
359.002	323.95
359.384	344.51
359.766	342.7
360.148	346.54
360.53	337.28
360.912	328.47
361.294	323.95
361.676	355.81
362.057	344.74
362.439	322.59
362.821	332.31
363.203	305.87
363.584	328.24
363.966	331.4
364.348	306.55
364.729	317.84
365.111	331.18
365.493	323.95
365.874	332.53
366.256	312.87
366.637	308.13
367.019	313.1
367.4	301.57
367.781	307.9
368.163	308.35
368.544	325.3
368.925	303.61
369.306	335.02
369.688	312.65
370.069	314.91
370.45	327.11
370.831	319.43
371.212	320.78
371.593	317.62
371.974	303.38
372.355	310.84
372.736	309.71
373.117	309.94
373.498	316.94
373.879	307.9
374.26	307.45
374.641	325.98
375.021	291.86
375.402	318.52
375.783	324.4
376.163	319.2
376.544	317.84
376.925	340.89
377.305	322.82
377.686	343.83
378.066	332.08
378.447	337.05
378.827	316.49
379.208	345.64
379.588	337.51
379.968	325.3
380.349	334.12
380.729	336.15
381.109	323.72
381.489	335.47
381.87	311.97
382.25	344.74
382.63	329.14
383.01	348.8
383.39	329.6
383.77	339.09
384.15	355.36
384.53	347.22
384.91	325.53
385.29	347.67
385.67	328.92
386.049	335.92
386.429	346.77
386.809	353.55
387.189	351.74
387.568	338.41
387.948	346.54
388.328	355.36
388.707	342.7
389.087	357.39
389.466	376.6
389.846	349.26
390.225	361.23
390.605	358.97
390.984	343.38
391.363	367.56
391.743	348.58
392.122	368.24
392.501	362.14
392.881	371.85
393.26	390.84
393.639	379.09
394.018	370.72
394.397	359.2
394.776	374.11
395.155	395.13
395.534	383.15
395.913	380.22
396.292	385.19
396.671	391.29
397.05	387.9
397.429	390.39
397.808	371.4
398.186	392.87
398.565	374.79
398.944	373.21
399.323	385.41
399.701	377.28
400.08	383.61
400.458	381.35
400.837	379.09
401.215	407.33
401.594	396.26
401.972	405.98
402.351	402.81
402.729	400.33
403.107	392.65
403.486	387.67
403.864	397.16
404.242	411.4
404.62	417.96
404.999	410.27
405.377	418.41
405.755	413.66
406.133	413.89
406.511	408.92
406.889	384.28
407.267	412.98
407.645	419.99
408.023	420.89
408.401	417.96
408.779	418.41
409.156	424.73
409.534	430.38
409.912	434.23
410.29	440.33
410.667	417.5
411.045	441.91
411.422	443.04
411.8	449.37
412.178	436.94
412.555	457.95
412.933	469.03
413.31	474
413.687	452.08
414.065	461.57
414.442	481.68
414.819	468.12
415.197	468.58
415.574	467.67
415.951	447.56
416.328	471.74
416.705	478.07
417.082	482.81
417.46	472.42
417.837	500.44
418.214	492.08
418.591	493.66
418.967	486.88
419.344	513.77
419.721	487.11
420.098	511.29
420.475	502.02
420.852	494.79
421.228	497.28
421.605	535.92
421.982	491.63
422.358	501.79
422.735	532.3
423.111	481.46
423.488	527.56
423.864	537.27
424.241	556.03
424.617	515.58
424.994	544.96
425.37	554
425.746	522.13
426.123	550.61
426.499	551.51
426.875	564.39
427.251	568.46
427.627	572.53
428.003	545.18
428.379	564.84
428.756	577.5
429.132	576.6
429.507	591.51
429.883	563.04
430.259	599.65
430.635	592.87
431.011	620.89
431.387	589.48
431.763	589.7
432.138	632.19
432.514	624.05
432.89	617.95
433.265	627.22
433.641	646.88
434.016	612.98
434.392	637.84
434.767	658.63
435.143	644.62
435.518	659.53
435.894	662.24
436.269	657.72
436.644	687.33
437.02	683.26
437.395	695.24
437.77	684.61
438.145	690.94
438.52	691.85
438.895	690.94
439.271	694.56
439.646	709.25
440.021	705.41
440.395	719.87
440.77	715.57
441.145	708.79
441.52	709.47
441.895	737.72
442.27	715.8
442.645	737.27
443.019	737.95
443.394	757.83
443.769	756.93
444.143	729.81
444.518	774.1
444.892	768
445.267	771.17
445.641	772.3
446.016	785.4
446.39	798.51
446.764	776.14
447.139	804.84
447.513	797.15
447.887	795.12
448.262	798.06
448.636	791.73
449.01	790.83
449.384	821.79
449.758	800.77
450.132	830.6
450.506	837.61
450.88	859.3
451.254	830.83
451.628	859.07
452.002	854.33
452.376	862.24
452.75	892.52
453.123	840.77
453.497	885.97
453.871	891.61
454.244	887.32
454.618	910.82
454.992	915.8
455.365	907.43
455.739	941.78
456.112	942.24
456.486	945.85
456.859	967.55
457.232	964.16
457.606	961.44
457.979	971.16
458.352	1013.19
458.725	1004.15
459.099	1059.52
459.472	1040.99
459.845	1047.77
460.218	1046.19
460.591	1067.66
460.964	1065.62
461.337	1097.26
461.71	1115.11
462.083	1122.57
462.456	1119.86
462.829	1129.8
463.201	1124.6
463.574	1167.99
463.947	1191.04
464.32	1193.3
464.692	1220.65
465.065	1238.27
465.438	1204.6
465.81	1243.47
466.183	1276.24
466.555	1287.76
466.928	1304.03
467.3	1280.08
467.672	1346.07
468.045	1367.31
468.417	1384.48
468.789	1385.61
469.161	1394.88
469.534	1444.37
469.906	1470.58
470.278	1485.05
470.65	1485.05
471.022	1548.09
471.394	1564.82
471.766	1620.41
472.138	1638.49
472.51	1680.75
472.882	1685.94
473.253	1732.95
473.625	1747.64
473.997	1814.3
474.369	1849.78
474.74	1864.7
475.112	1904.47
475.484	1953.51
475.855	1992.15
476.227	2051.36
476.598	2092.04
476.97	2126.61
477.341	2187.4
477.713	2273.5
478.084	2287.28
478.455	2337.68
478.827	2393.95
479.198	2526.15
479.569	2540.61
479.94	2639.14
480.311	2676.88
480.682	2762.53
481.053	2870.32
481.424	2901.96
481.795	2994.16
482.166	3136.53
482.537	3188.73
482.908	3296.07
483.279	3311.21
483.65	3471.21
484.021	3558.66
484.391	3625.55
484.762	3724.31
485.133	3750.97
485.503	3919.33
485.874	4103.06
486.244	4131.98
486.615	4273.45
486.985	4379.66
487.356	4519.32
487.726	4609.94
488.097	4755.69
488.467	4811.74
488.837	4984.16
489.207	5122.69
489.578	5231.84
489.948	5402.91
490.318	5531.94
490.688	5570.59
491.058	5774.2
491.428	5886.51
491.798	6043.57
492.168	6228.88
492.538	6318.59
492.908	6392.49
493.278	6598.81
493.648	6708.41
494.017	6823.66
494.387	6999.03
494.757	7131.22
495.126	7267.04
495.496	7406.25
495.866	7508.16
496.235	7704.54
496.605	7835.61
496.974	7999.68
497.344	8090.52
497.713	8267.92
498.082	8362.83
498.452	8506.1
498.821	8635.37
499.19	8725.31
499.559	8852.31
499.928	9023.15
500.298	9140.89
500.667	9259.3
501.036	9335.23
501.405	9551.95
501.774	9645.96
502.143	9740.65
502.512	9749.46
502.88	9989
503.249	10111.71
503.618	10197.13
503.987	10247.3
504.356	10441.65
504.724	10577.69
505.093	10660.17
505.462	10805.93
505.83	10936.32
506.199	11006.38
506.567	11135.19
506.936	11196.88
507.304	11363.2
507.672	11503.31
508.041	11614.5
508.409	11702.86
508.777	11823.08
509.145	11963.19
509.514	11959.12
509.882	12145.33
510.25	12161.83
510.618	12361.14
510.986	12430.75
511.354	12575.83
511.722	12689.5
512.09	12856.27
512.458	12835.26
512.826	13054.46
513.193	13069.6
513.561	13150.28
513.929	13277.96
514.297	13406.99
514.664	13505.29
515.032	13575.8
515.4	13681.56
515.767	13719.53
516.135	13817.38
516.502	13822.12
516.869	13998.84
517.237	14045.39
517.604	14126.52
517.972	14324.93
518.339	14346.4
518.706	14327.87
519.073	14492.84
519.44	14672.04
519.808	14643.34
520.175	14754.98
520.542	14997.46
520.909	15053.28
521.276	14994.75
521.643	15230.67
522.009	15293.72
522.376	15353.83
522.743	15447.84
523.11	15632.92
523.477	15730.77
523.843	15712.92
524.21	15967.15
524.577	16048.28
524.943	16076.3
525.31	16118.11
525.676	16281.27
526.043	16352.23
526.409	16436.97
526.776	16603.52
527.142	16651.88
527.508	16628.38
527.874	16831.53
528.241	16906.11
528.607	16895.26
528.973	17073.79
529.339	17053.68
529.705	17197.63
530.071	17334.57
530.437	17336.61
530.803	17467.68
531.169	17398.53
531.535	17499.09
531.901	17541.8
532.267	17667.9
532.632	17666.54
532.998	17704.73
533.364	17886.42
533.73	17846.42
534.095	17907.44
534.461	18025.85
534.826	17983.59
535.192	18159.41
535.557	18227.88
535.923	18099.07
536.288	18237.37
536.653	18259.07
537.019	18201.89
537.384	18355.34
537.749	18359.63
538.114	18310.37
538.479	18335.68
538.845	18483.24
539.21	18369.8
539.575	18464.71
539.94	18528.67
540.305	18606.86
540.67	18491.83
541.034	18569.57
541.399	18683.01
541.764	18625.39
542.129	18629.68
542.494	18736.8
542.858	18756.23
543.223	18728.66
543.587	18871.26
543.952	18742.22
544.316	18849.33
544.681	18744.25
545.045	18857.02
545.41	18954.87
545.774	18935.21
546.138	19022.66
546.503	18861.54
546.867	18835.32
547.231	19108.76
547.595	18998.94
547.959	19093.4
548.324	18965.94
548.688	19094.07
549.052	19080.74
549.416	19085.26
549.779	19204.58
550.143	19127.52
550.507	19229.66
550.871	19139.5
551.235	19301.98
551.599	19348.76
551.962	19238.25
552.326	19322.32
552.689	19515.76
553.053	19418.13
553.417	19357.8
553.78	19569.77
554.143	19521.86
554.507	19537.23
554.87	19629.2
555.234	19667.39
555.597	19606.6
555.96	19685.7
556.323	19697
556.686	19701.74
557.05	19811.34
557.413	19817.22
557.776	19841.4
558.139	19955.75
558.502	19991
558.865	19913.94
559.228	20110.54
559.59	20116.65
559.953	20186.25
560.316	20394.83
560.679	20269.86
561.041	20445.9
561.404	20462.4
561.767	20534.26
562.129	20447.48
562.492	20579.68
562.854	20588.5
563.217	20606.35
563.579	20663.52
563.941	20792.56
564.304	20915.72
564.666	20890.41
565.028	20990.07
565.39	20924.99
565.753	21055.6
566.115	21150.29
566.477	21203.62
566.839	21247.46
567.201	21300.34
567.563	21362.49
567.925	21438.65
568.287	21508.93
568.648	21506.67
569.01	21595.93
569.372	21619.88
569.734	21570.39
570.095	21750.05
570.457	21812.87
570.819	21971.74
571.18	21897.84
571.542	22006.77
571.903	21999.99
572.265	22024.84
572.626	22054.45
572.987	22108.68
573.349	22209.7
573.71	22269.36
574.071	22248.57
574.432	22309.13
574.794	22428
575.155	22506.87
575.516	22390.48
575.877	22416.02
576.238	22537.37
576.599	22554.32
576.96	22580.54
577.32	22604.26
577.681	22721.1
578.042	22694.88
578.403	22839.06
578.763	22660.99
579.124	22736.92
579.485	22742.34
579.845	22825.73
580.206	22778.5
580.566	22822.11
580.927	22822.11
581.287	22909.57
581.648	22870.02
582.008	22877.7
582.368	22872.51
582.728	22936.23
583.089	22932.84
583.449	22872.05
583.809	22898.95
584.169	23003.35
584.529	22943.69
584.889	23088.55
585.249	22880.19
585.609	22889.68
585.969	23047.87
586.329	22983.01
586.688	22964.71
587.048	23034.31
587.408	22921.32
587.768	22973.07
588.127	22916.35
588.487	22823.92
588.846	23095.32
589.206	22837.25
589.565	22956.57
589.925	23047.42
590.284	22991.37
590.643	22958.15
591.003	23033.41
591.362	22968.77
591.721	22892.62
592.08	23004.03
592.44	23055.33
592.799	22971.71
593.158	23042.67
593.517	22943.69
593.876	23046.96
594.235	22975.33
594.593	23057.81
594.952	23070.92
595.311	22984.37
595.67	22985.27
596.029	23130.13
596.387	23121.76
596.746	23138.94
597.104	23010.81
597.463	22926.52
597.822	23018.49
598.18	23110.24
598.538	23007.87
598.897	23175.77
599.255	22938.94
599.613	23309.1
599.972	23090.81
600.33	23195.44
600.688	23052.84
601.046	23179.16
601.404	23336.22
601.762	23282.21
602.12	23286.05
602.478	23312.04
602.836	23297.81
603.194	23190.24
603.552	23220.75
603.91	23165.83
604.268	23252.16
604.625	23248.54
604.983	23404.47
605.341	23239.05
605.698	23360.85
606.056	23415.32
606.413	23416.67
606.771	23500.74
607.128	23453.73
607.485	23342.32
607.843	23352.04
608.2	23505.03
608.557	23596.1
608.914	23485.6
609.272	23653.73
609.629	23730.56
609.986	23738.25
610.343	23632.49
610.7	23877
611.057	23797.23
611.414	23784.57
611.771	23785.48
612.127	23797.23
612.484	23869.32
612.841	23998.35
613.198	23866.83
613.554	23926.26
613.911	24104.56
614.267	24048.97
614.624	24105.69
614.98	24082.42
615.337	24201.96
615.693	24089.65
616.05	24101.17
616.406	24311.34
616.762	24089.42
617.118	24045.81
617.475	24240.38
617.831	24303.88
618.187	24196.31
618.543	24340.94
618.899	24433.37
619.255	24519.24
619.611	24356.53
619.967	24392.92
620.323	24516.98
620.678	24455.74
621.034	24362.64
621.39	24378.46
621.746	24402.86
622.101	24651.89
622.457	24515.85
622.812	24568.73
623.168	24486.25
623.523	24583.42
623.879	24692.35
624.234	24504.55
624.589	24508.85
624.945	24716.75
625.3	24691.22
625.655	24661.16
626.01	24649.18
626.365	24667.04
626.72	24566.25
627.075	24584.33
627.43	24572.12
627.785	24581.61
628.14	24576.42
628.495	24615.06
628.85	24533.48
629.205	24587.94
629.559	24686.24
629.914	24566.47
630.269	24523.54
630.623	24624.78
630.978	24460.49
631.332	24492.58
631.687	24513.82
632.041	24529.19
632.396	24505.01
632.75	24392.47
633.104	24398.79
633.459	24399.7
633.813	24351.11
634.167	24414.39
634.521	24346.37
634.875	24451.9
635.229	24412.8
635.583	24227.5
635.937	24301.39
636.291	24193.6
636.645	24349.76
636.999	24137.33
637.352	24339.36
637.706	24133.94
638.06	24275.18
638.413	24284.45
638.767	24127.39
639.121	24206.48
639.474	24004.91
639.828	24082.87
640.181	23970.1
640.534	24080.84
640.888	23994.51
641.241	23862.31
641.594	23929.43
641.947	24059.59
642.301	23876.77
642.654	23960.39
643.007	23957.45
643.36	23893.04
643.713	23744.35
644.066	24020.05
644.419	23746.83
644.771	23658.02
645.124	23388.88
645.477	23456.67
645.83	23235.89
646.182	23163.35
646.535	23169.22
646.888	23202.89
647.24	23009.23
647.593	23087.42
647.945	23127.41
648.298	22947.08
648.65	22918.38
649.002	22890.36
649.355	23089.9
649.707	23037.47
650.059	23152.27
650.411	23393.85
650.763	23387.29
651.115	23691.47
651.467	23566.72
651.819	23656.44
652.171	23412.83
652.523	23465.94
652.875	23462.55
653.227	23356.11
653.578	23554.97
653.93	23416.22
654.282	23408.54
654.633	23379.16
654.985	23432.04
655.337	23494.41
655.688	23479.5
656.039	23450.34
656.391	23250.35
656.742	23326.96
657.094	23318.6
657.445	23434.53
657.796	23392.94
658.147	23302.55
658.498	23319.95
658.849	23440.17
659.2	23319.73
659.551	23340.52
659.902	23397.01
660.253	23398.14
660.604	23357.46
660.955	23349.56
661.306	23339.84
661.656	23331.93
662.007	23358.82
662.358	23324.92
662.708	23367.41
663.059	23347.97
663.409	23236.34
663.76	23472.49
664.11	23340.74
664.461	23450.34
664.811	23373.96
665.161	23456.22
665.511	23270.24
665.862	23359.5
666.212	23419.61
666.562	23364.92
666.912	23351.59
667.262	23305.71
667.612	23430.46
667.962	23373.06
668.312	23304.81
668.662	23443.79
669.011	23292.83
669.361	23326.51
669.711	23274.98
670.06	23253.51
670.41	23308.43
670.76	23228.2
671.109	23267.98
671.459	23180.97
671.808	23232.72
672.157	23262.33
672.507	23060.98
672.856	23129
673.205	23121.76
673.554	23209.67
673.904	22937.59
674.253	23310.69
674.602	23125.38
674.951	22861.66
675.3	22708.89
675.649	23031.82
675.998	23051.94
676.346	22950.02
676.695	23127.19
677.044	22957.48
677.393	23068.43
677.741	23012.16
678.09	22939.85
678.438	22790.93
678.787	22943.01
679.135	22939.85
679.484	22692.17
679.832	22864.6
680.181	22709.57
680.529	22676.13
680.877	22680.87
681.225	22644.72
681.573	22728.1
681.922	22663.25
682.27	22542.35
682.618	22539.86
682.966	22561.33
683.314	22529.01
683.661	22463.48
684.009	22282.46
684.357	22346.87
684.705	22236.14
685.053	22164.73
685.4	22268.91
685.748	22124.05
686.095	22157.5
686.443	22115.46
686.79	22029.14
687.138	22027.1
687.485	22043.38
687.832	22051.51
688.18	21943.49
688.527	21848.13
688.874	21835.47
689.221	21731.74
689.568	21640
689.915	21638.41
690.262	21676.38
690.609	21631.18
690.956	21486.55
691.303	21419.89
691.65	21343.05
691.997	21280.23
692.344	21254.47
692.69	21201.82
693.037	21181.48
693.383	21094.47
693.73	21143.74
694.077	20936.51
694.423	21012.67
694.769	20820.36
695.116	20827.59
695.462	20730.42
695.808	20755.95
696.155	20816.97
696.501	20529.52
696.847	20544.21
697.193	20339.92
697.539	20433.7
697.885	20303.76
698.231	20201.62
698.577	20132.24
698.923	20132.92
699.269	20034.39
699.614	19949.42
699.96	19868.29
700.306	19875.75
700.651	19737.45
700.997	19639.6
701.342	19730.67
701.688	19551.46
702.033	19530.22
702.379	19576.55
702.724	19426.72
703.069	19445.03
703.415	19272.83
703.76	19313.96
704.105	19297.68
704.45	19150.8
704.795	19128.65
705.14	19106.28
705.485	19044.36
705.83	18979.73
706.175	18913.29
706.52	18954.42
706.865	18860.41
707.209	18730.47
707.554	18735.44
707.899	18767.76
708.243	18598.27
708.588	18619.06
708.932	18479.4
709.277	18462.45
709.621	18497.03
709.966	18352.4
710.31	18297.26
710.654	18249.12
710.998	18198.73
711.342	18310.14
711.687	18237.15
712.031	18140.88
712.375	18081.67
712.719	18006.42
713.063	18017.27
713.407	18089.13
713.75	17956.03
714.094	18004.84
714.438	17941.11
714.782	17821.57
715.125	17756.93
715.469	17827.67
715.812	17719.87
716.156	17573.44
716.499	17586.77
716.843	17578.86
717.186	17540.22
717.53	17660.89
717.873	17578.86
718.216	17526.43
718.559	17376.15
718.902	17384.51
719.246	17420.22
719.589	17341.8
719.932	17403.05
720.275	17271.52
720.617	17295.03
720.96	17250.73
721.303	17207.34
721.646	17282.37
721.989	17170.73
722.331	17088.93
722.674	17103.84
723.016	17272.65
723.359	17152.88
723.701	17061.59
724.044	16919.22
724.386	16940.46
724.729	17017.07
725.071	16950.85
725.413	16939.55
725.755	16970.51
726.097	16881.25
726.439	16781.82
726.782	16790.86
727.124	16977.52
727.465	16711.76
727.807	16821.59
728.149	16676.74
728.491	16729.84
728.833	16816.62
729.175	16710.86
729.516	16683.29
729.858	16670.64
730.199	16610.07
730.541	16696.62
730.882	16653.69
731.224	16641.94
731.565	16609.17
731.906	16554.03
732.248	16660.01
732.589	16558.1
732.93	16550.41
733.271	16478.55
733.612	16527.36
733.953	16515.16
734.294	16456.18
734.635	16486.69
734.976	16508.83
735.317	16332.56
735.658	16421.83
735.999	16430.64
736.339	16437.87
736.68	16444.43
737.021	16404.43
737.361	16377.31
737.702	16458.66
738.042	16326.01
738.383	16376.63
738.723	16396.07
739.063	16359.46
739.404	16467.48
739.744	16337.99
740.084	16261.61
740.424	16289.63
740.764	16300.7
741.104	16406.24
741.444	16209.18
741.784	16279.01
742.124	16344.32
742.464	16408.04
742.804	16251.44
743.143	16305.22
743.483	16343.41
743.823	16353.81
744.162	16234.04
744.502	16411.66
744.841	16388.16
745.181	16514.03
745.52	16370.3
745.86	16489.62
746.199	16477.42
746.538	16416.63
746.877	16598.32
747.216	16538.89
747.556	16457.53
747.895	16606.23
748.234	16582.28
748.573	16538.66
748.911	16597.87
749.25	16587.02
749.589	16564.88
749.928	16705.44
750.267	16846.45
750.605	16691.2
750.944	16783.63
751.283	16770.29
751.621	16939.33
751.96	16916.5
752.298	16984.3
752.636	17050.06
752.975	16999.44
753.313	17086.67
753.651	17223.39
753.989	17215.48
754.327	17218.64
754.666	17239.66
755.004	17356.49
755.342	17516.94
755.679	17502.7
756.017	17472.65
756.355	17659.31
756.693	17601.01
757.031	17736.82
757.368	17656.37
757.706	17812.75
758.044	17859.08
758.381	17867.89
758.719	17979.3
759.056	18059.98
759.394	18171.61
759.731	18104.95
760.068	18183.36
760.405	18115.79
760.743	18303.36
761.08	18361.66
761.417	18319.86
761.754	18420.19
762.091	18537.25
762.428	18442.79
762.765	18465.39
763.102	18616.8
763.438	18544.94
763.775	18608.21
764.112	18686.63
764.449	18824.48
764.785	18781.09
765.122	18721.88
765.458	18759.85
765.795	18803.46
766.131	18769.34
766.467	18835.78
766.804	18850.01
767.14	18729.79
767.476	18915.1
767.812	18925.72
768.148	18879.39
768.485	18796.91
768.821	18795.1
769.157	18863.8
769.492	18909.9
769.828	18829.22
770.164	18712.62
770.5	18803.91
770.836	18817.92
771.171	18791.26
771.507	18733.18
771.842	18687.08
772.178	18742.22
772.513	18690.92
772.849	18664.71
773.184	18614.76
773.519	18654.76
773.855	18577.03
774.19	18603.24
774.525	18558.27
774.86	18641.43
775.195	18617.48
775.53	18507.42
775.865	18353.08
776.2	18367.77
776.535	18238.28
776.87	18388.56
777.205	18211.16
777.539	18298.84
777.874	18289.35
778.209	18058.17
778.543	18074.89
778.878	18002.35
779.212	18064.72
779.547	17903.37
779.881	18024.5
780.215	17818.4
780.55	17838.51
780.884	17735.47
781.218	17800.1
781.552	17769.59
781.886	17666.09
782.22	17608.24
782.554	17545.87
782.888	17488.01
783.222	17419.99
783.556	17233.11
783.889	17285.08
784.223	17189.27
784.557	17101.13
784.89	17213.9
785.224	17111.53
785.557	17036.05
785.891	17022.04
786.224	16864.08
786.558	16977.29
786.891	16801.03
787.224	16800.35
787.557	16678.77
787.891	16704.76
788.224	16781.14
788.557	16649.62
788.89	16577.3
789.223	16585.44
789.556	16453.01
789.888	16411.66
790.221	16394.48
790.554	16256.86
790.887	16307.25
791.219	16220.48
791.552	16267.71
791.884	16080.82
792.217	16135.28
792.549	16075.4
792.882	15924.89
793.214	15815.29
793.546	15817.55
793.879	15813.71
794.211	15698.46
794.543	15799.7
794.875	15711.34
795.207	15755.4
795.539	15693.71
795.871	15606.48
796.203	15491.01
796.535	15400.16
796.867	15405.58
797.198	15412.14
797.53	15350.22
797.862	15255.98
798.193	15286.72
798.525	15232.93
798.856	15183.22
799.188	15026.38
799.519	15001.3
799.85	14985.03
800.182	14938.25
800.513	14971.7
800.844	14788.88
801.175	14872.26
801.506	14844.47
801.837	14750.46
802.168	14747.3
802.499	14696.45
802.83	14576.9
803.161	14585.27
803.491	14544.14
803.822	14636.11
804.153	14560.18
804.483	14382.11
804.814	14355.89
805.145	14292.84
805.475	14321.54
805.805	14255.56
806.136	14299.17
806.466	14182.11
806.796	14214.88
807.126	14052.62
807.457	14061.44
807.787	13979.86
808.117	13946.19
808.447	13855.34
808.777	13976.24
809.107	13850.82
809.436	13802.24
809.766	13853.76
810.096	13769.92
810.426	13708.68
810.755	13697.15
811.085	13658.74
811.414	13627.33
811.744	13514.79
812.073	13533.99
812.403	13535.12
812.732	13454
813.061	13449.93
813.39	13409.25
813.719	13385.52
814.049	13361.8
814.378	13332.64
814.707	13260.1
815.036	13292.19
815.365	13163.16
815.693	13080.67
816.022	13164.29
816.351	13082.93
816.68	12973.33
817.008	13070.73
817.337	12942.37
817.665	12936.5
817.994	12937.63
818.322	12956.38
818.651	12893.11
818.979	12842.71
819.307	12959.09
819.636	12862.83
819.964	12790.29
820.292	12764.75
820.62	12835.93
820.948	12793.45
821.276	12803.17
821.604	12690.4
821.932	12780.34
822.259	12718.2
822.587	12739.89
822.915	12675.26
823.243	12781.47
823.57	12690.4
823.898	12665.09
824.225	12643.62
824.553	12647.24
824.88	12691.76
825.207	12667.8
825.535	12661.7
825.862	12724.98
826.189	12623.28
826.516	12656.28
826.843	12735.82
827.17	12678.88
827.497	12732.21
827.824	12640.68
828.151	12746.67
828.478	12623.74
828.805	12665.32
829.131	12602.95
829.458	12702.38
829.785	12548.48
830.111	12615.83
830.438	12677.52
830.764	12587.35
831.09	12650.18
831.417	12558.65
831.743	12666.9
832.069	12658.54
832.395	12617.18
832.722	12646.33
833.048	12558.88
833.374	12574.25
833.7	12509.84
834.026	12591.65
834.351	12524.76
834.677	12564.98
835.003	12521.82
835.329	12511.65
835.654	12501.71
835.98	12472.55
836.306	12393.69
836.631	12430.29
836.956	12473.91
837.282	12481.14
837.607	12319.56
837.932	12311.43
838.258	12345.78
838.583	12336.29
838.908	12288.83
839.233	12272.78
839.558	12255.61
839.883	12182.39
840.208	12204.09
840.533	12161.38
840.858	12115.27
841.182	12147.59
841.507	12145.78
841.832	12110.3
842.156	12077.08
842.481	12056.52
842.805	12054.26
843.13	11974.71
843.454	11935.39
843.778	11898.78
844.103	11873.02
844.427	11889.07
844.751	11812.91
845.075	11842.97
845.399	11779.24
845.723	11769.07
846.047	11722.52
846.371	11663.08
846.695	11691.11
847.019	11578.11
847.343	11485.69
847.666	11440.26
847.99	11379.25
848.313	11377.21
848.637	11322.75
848.96	11285.92
849.284	11249.31
849.607	11205.24
849.931	11116.43
850.254	11091.35
850.577	11025.13
850.9	11004.34
851.223	10948.3
851.546	10938.13
851.869	10853.84
852.192	10849.09
852.515	10772.03
852.838	10720.96
853.161	10754.63
853.483	10660.4
853.806	10597.8
854.129	10571.59
854.451	10581.08
854.774	10543.34
855.096	10473.28
855.419	10452.95
855.741	10481.87
856.063	10403.46
856.385	10340.41
856.708	10374.3
857.03	10310.58
857.352	10333.85
857.674	10274.19
857.996	10245.49
858.318	10151.71
858.64	10185.16
858.961	10182.22
859.283	10063.58
859.605	10040.98
859.926	10044.82
860.248	10029.45
860.57	9928.21
860.891	10003.01
861.212	9940.87
861.534	9876.46
861.855	9880.98
862.176	9953.75
862.498	9931.6
862.819	9848.22
863.14	9807.76
863.461	9796.69
863.782	9787.2
864.103	9786.07
864.424	9668.56
864.745	9716.47
865.065	9661.1
865.386	9690.93
865.707	9661.55
866.027	9689.12
866.348	9669.24
866.668	9645.28
866.989	9539.98
867.309	9487.32
867.63	9543.82
867.95	9554.21
868.27	9558.96
868.59	9520.77
868.91	9523.25
869.23	9479.64
869.55	9464.95
869.87	9508.56
870.19	9369.13
870.51	9476.02
870.83	9446.87
871.15	9384.95
871.469	9415.01
871.789	9399.19
872.109	9419.53
872.428	9327.33
872.748	9385.63
873.067	9311.73
873.386	9352.86
873.706	9301.79
874.025	9178.85
874.344	9201.23
874.663	9296.59
874.982	9247.33
875.301	9241.9
875.62	9137.73
875.939	9165.52
876.258	9139.31
876.577	9128.91
876.896	9118.52
877.214	9090.5
877.533	9083.26
877.852	9026.32
878.17	9045.52
878.489	9064.06
878.807	8976.15
879.125	9017.73
879.444	9025.19
879.762	9004.4
880.08	8942.7
880.398	8955.81
880.716	8951.74
881.034	8918.52
881.352	8900.67
881.67	8884.4
881.988	8847.79
882.306	8834.91
882.624	8798.98
882.941	8749.94
883.259	8720.11
883.577	8749.71
883.894	8727.79
884.212	8684.4
884.529	8705.19
884.846	8725.08
885.164	8615.48
885.481	8626.33
885.798	8622.94
886.115	8574.8
886.432	8597.18
886.75	8583.84
887.067	8558.76
887.383	8529.15
887.7	8507.01
888.017	8440.57
888.334	8461.59
888.651	8452.09
888.967	8451.42
889.284	8338.88
889.6	8344.53
889.917	8296.84
890.233	8297.97
890.55	8298.88
890.866	8275.83
891.182	8253.68
891.498	8225.43
891.815	8218.43
892.131	8133.23
892.447	8159.45
892.763	8087.81
893.079	8131.2
893.395	8056.4
893.71	8074.02
894.026	8026.57
894.342	8050.07
894.657	7967.59
894.973	7968.27
895.289	7940.7
895.604	7902.28
895.92	7881.71
896.235	7845.33
896.55	7842.39
896.865	7830.64
897.181	7796.07
897.496	7760.13
897.811	7749.97
898.126	7755.16
898.441	7685.79
898.756	7670.19
899.071	7637.43
899.386	7621.38
899.7	7545.9
900.015	7536.19
900.33	7417.55
900.644	7486.02
900.959	7486.47
901.273	7432.01
901.588	7387.04
901.902	7395.4
902.216	7324.89
902.531	7311.56
902.845	7338.23
903.159	7289.64
903.473	7256.42
903.787	7182.52
904.101	7172.58
904.415	7179.81
904.729	7143.88
905.042	7095.07
905.356	7023.66
905.67	7008.74
905.984	7121.73
906.297	7019.59
906.611	6933.49
906.924	6929.42
907.237	6924.45
907.551	6848.29
907.864	6908.63
908.177	6866.15
908.491	6920.83
908.804	6760.61
909.117	6758.58
909.43	6753.16
909.743	6704.57
910.056	6655.53
910.368	6641.52
910.681	6651.24
910.994	6584.12
911.307	6566.72
911.619	6538.25
911.932	6578.02
912.244	6472.26
912.557	6468.42
912.869	6449.43
913.181	6406.5
913.494	6356.1
913.806	6351.58
914.118	6361.98
914.43	6303.22
914.742	6290.34
915.054	6283.56
915.366	6235.43
915.678	6238.14
915.99	6202.66
916.302	6147.52
916.613	6106.85
916.925	6141.65
917.236	6021.88
917.548	6043.12
917.859	6070.69
918.171	6004.02
918.482	5970.35
918.794	5976.9
919.105	5915.21
919.416	5948.88
919.727	5880.64
920.038	5946.62
920.349	5802.45
920.66	5795.67
920.971	5781.2
921.282	5786.85
921.593	5721.54
921.903	5672.73
922.214	5718.15
922.525	5727.87
922.835	5623.24
923.146	5588.21
923.456	5625.28
923.767	5602.9
924.077	5599.74
924.387	5584.37
924.697	5496.24
925.008	5539.85
925.318	5511.15
925.628	5429.57
925.938	5427.77
926.248	5420.54
926.558	5395
926.867	5346.41
927.177	5360.2
927.487	5314.1
927.796	5267.55
928.106	5302.57
928.416	5261.67
928.725	5215.57
929.034	5221.9
929.344	5186.64
929.653	5166.98
929.962	5165.63
930.271	5116.59
930.581	5092.18
930.89	5083.37
931.199	5085.63
931.508	5065.06
931.817	4969.93
932.125	4987.78
932.434	5027.78
932.743	4985.97
933.051	4953.2
933.36	4879.08
933.669	4862.13
933.977	4908.01
934.286	4861.23
934.594	4856.03
934.902	4765.64
935.21	4749.14
935.519	4772.64
935.827	4777.84
936.135	4705.75
936.443	4668.46
936.751	4656.71
937.059	4638.41
937.367	4646.77
937.674	4615.81
937.982	4625.53
938.29	4607.22
938.597	4617.17
938.905	4513.89
939.213	4550.5
939.52	4550.95
939.827	4517.96
940.135	4463.5
940.442	4497.4
940.749	4425.99
941.056	4491.29
941.363	4374.24
941.67	4457.17
941.977	4325.65
942.284	4320.45
942.591	4329.72
942.898	4308.93
943.205	4274.35
943.511	4242.04
943.818	4226.22
944.125	4232.54
944.431	4180.34
944.738	4193.9
945.044	4197.06
945.35	4185.09
945.657	4149.38
945.963	4157.29
946.269	4109.84
946.575	4106.45
946.881	4058.76
947.187	4040.68
947.493	4023.51
947.799	4018.99
948.105	3980.12
948.41	3978.99
948.716	3988.71
949.022	3958.2
949.327	3966.79
949.633	3915.26
949.938	3894.02
950.244	3894.02
950.549	3835.27
950.854	3848.15
951.16	3868.49
951.465	3787.58
951.77	3835.04
952.075	3746.91
952.38	3724.31
952.685	3769.73
952.99	3775.83
953.294	3722.28
953.599	3725.44
953.904	3704.2
954.209	3664.65
954.513	3642.73
954.818	3663.52
955.122	3620.36
955.426	3620.58
955.731	3617.19
956.035	3562.73
956.339	3568.38
956.643	3564.09
956.948	3519.79
957.252	3531.55
957.556	3532.68
957.86	3534.94
958.163	3490.64
958.467	3496.29
958.771	3451.55
959.075	3460.14
959.378	3425.56
959.682	3407.26
959.985	3400.25
960.289	3364.77
960.592	3348.73
960.896	3344.21
961.199	3315.96
961.502	3309.18
961.805	3297.88
962.108	3290.65
962.411	3316.64
962.714	3288.61
963.017	3231.67
963.32	3247.49
963.623	3232.8
963.926	3224.43
964.228	3178.33
964.531	3183.76
964.833	3136.75
965.136	3128.17
965.438	3096.53
965.741	3124.1
966.043	3100.14
966.345	3115.74
966.648	3094.72
966.95	3088.39
967.252	3059.02
967.554	3053.37
967.856	3031.67
968.158	2993.48
968.46	3017.89
968.761	2980.15
969.063	2974.5
969.365	3026.47
969.666	2971.33
969.968	2928.62
970.269	2940.15
970.571	2914.16
970.872	2928.62
971.174	2872.35
971.475	2928.62
971.776	2854.95
972.077	2824.22
972.378	2851.34
972.679	2825.58
972.98	2823.09
973.281	2788.97
973.582	2800.72
973.883	2767.95
974.183	2789.19
974.484	2740.83
974.785	2732.02
975.085	2767.5
975.386	2720.72
975.686	2743.32
975.986	2689.99
976.287	2693.83
976.587	2659.93
976.887	2725.24
977.187	2641.4
977.487	2643.89
977.787	2625.81
978.087	2650.66
978.387	2594.17
978.687	2591.68
978.987	2566.6
979.286	2571.57
979.586	2560.05
979.885	2529.09
980.185	2536.77
980.484	2551.23
980.784	2525.7
981.083	2480.5
981.382	2484.57
981.682	2485.25
981.981	2461.52
982.28	2464.45
982.579	2447.05
982.878	2438.47
983.177	2437.56
983.475	2446.38
983.774	2403.89
984.073	2394.63
984.372	2385.36
984.67	2418.13
984.969	2396.66
985.267	2359.37
985.566	2367.73
985.864	2374.51
986.162	2322.54
986.461	2343.78
986.759	2300.84
987.057	2259.04
987.355	2285.25
987.653	2256.78
987.951	2267.17
988.249	2282.99
988.547	2265.59
988.844	2282.54
989.142	2250.9
989.44	2223.11
989.737	2201.19
990.035	2179.94
990.332	2179.04
990.63	2183.78
990.927	2158.47
991.224	2154.63
991.521	2170.45
991.819	2144.69
992.116	2095.43
992.413	2141.3
992.71	2096.33
993.006	2093.84
993.303	2082.09
993.6	2090.45
993.897	2077.8
994.193	2083.22
994.49	2049.55
994.787	2061.3
995.083	2070.12
995.379	2022.88
995.676	2018.37
995.972	2043.22
996.268	1993.05
996.565	1966.84
996.861	1964.81
997.157	1971.59
997.453	1966.16
997.749	1960.06
998.044	1968.87
998.34	1926.84
998.636	1905.83
998.932	1927.75
999.227	1909.89
999.523	1878.03
999.818	1894.53
1000.114	1874.19
1000.409	1873.51
1000.704	1878.03
1001	1869.44
1001.295	1833.29
1001.59	1830.35
1001.885	1825.38
1002.18	1812.27
1002.475	1814.75
1002.77	1790.12
1003.065	1748.54
1003.359	1787.18
1003.654	1786.73
1003.949	1745.6
1004.243	1761.42
1004.538	1726.4
1004.832	1738.15
1005.127	1706.51
1005.421	1725.49
1005.715	1697.7
1006.009	1709.45
1006.304	1666.96
1006.598	1673.52
1006.892	1651.37
1007.186	1644.82
1007.48	1643.91
1007.773	1630.13
1008.067	1604.14
1008.361	1585.16
1008.655	1605.49
1008.948	1588.32
1009.242	1572.73
1009.535	1590.81
1009.829	1578.15
1010.122	1562.56
1010.415	1569.34
1010.708	1545.16
1011.001	1515.1
1011.295	1544.03
1011.588	1515.55
1011.881	1503.58
1012.173	1500.64
1012.466	1481.2
1012.759	1514.2
1013.052	1469.45
1013.344	1488.44
1013.637	1452.5
1013.93	1440.53
1014.222	1429
1014.514	1466.97
1014.807	1415.44
1015.099	1442.33
1015.391	1427.65
1015.683	1417.93
1015.976	1398.04
1016.268	1341.55
1016.56	1384.48
1016.851	1376.8
1017.143	1331.83
1017.435	1353.98
1017.727	1360.3
1018.018	1324.37
1018.31	1315.78
1018.602	1331.38
1018.893	1323.24
1019.185	1306.29
1019.476	1283.47
1019.767	1302
1020.058	1296.35
1020.35	1281.21
1020.641	1247.54
1020.932	1264.03
1021.223	1266.52
1021.514	1222.23
1021.804	1238.72
1022.095	1223.13
1022.386	1231.95
1022.677	1183.36
1022.967	1209.8
1023.258	1201.66
1023.548	1192.85
1023.839	1192.4
1024.129	1180.19
1024.419	1191.49
1024.709	1169.35
1025	1165.51
1025.29	1142.68
1025.58	1142
1025.87	1127.54
1026.16	1095.45
1026.449	1128.44
1026.739	1080.54
1027.029	1117.82
1027.319	1112.4
1027.608	1101.1
1027.898	1084.6
1028.187	1081.44
1028.477	1074.66
1028.766	1058.16
1029.055	1029.69
1029.344	1046.87
1029.634	1044.38
1029.923	1033.08
1030.212	1015.68
1030.501	1030.59
1030.79	1031.72
1031.078	1015
1031.367	1007.54
1031.656	1003.25
1031.945	1007.09
1032.233	981.56
1032.522	984.49
1032.81	983.36
1033.099	984.27
1033.387	956.02
1033.675	955.57
1033.963	961.9
1034.251	946.98
1034.54	962.35
1034.828	913.99
1035.116	936.13
1035.403	918.05
1035.691	911.73
1035.979	934.78
1036.267	918.05
1036.554	904.72
1036.842	872.41
1037.129	883.03
1037.417	880.99
1037.704	876.25
1037.992	896.13
1038.279	864.27
1038.566	875.57
1038.853	875.57
1039.14	875.57
