Data from hue_170_FLMS001491_00007.txt Node
Date: Tue Feb 07 16:48:10 GMT 2017
User: dcchb
Spectrometer: FLMS00149
Trigger mode: 0
Integration Time (sec): 2.000000E-2
Scans to average: 10
Electric dark correction enabled: true
Nonlinearity correction enabled: false
Boxcar width: 0
XAxis mode: Wavelengths
Number of Pixels in Spectrum: 2048
>>>>>Begin Spectral Data<<<<<
341.393	-26.09
341.776	-26.09
342.16	-26.09
342.543	-73.54
342.927	-61.11
343.31	-57.05
343.693	-60.44
344.077	-57.72
344.46	-63.6
344.843	-54.33
345.226	-53.66
345.61	-41.45
345.993	-27.44
346.376	2.84
346.759	9.84
347.142	20.92
347.525	53.01
347.908	56.17
348.291	83.51
348.674	94.59
349.057	94.81
349.44	142.5
349.823	127.81
350.206	168.71
350.588	177.52
350.971	204.64
351.354	228.14
351.737	200.12
352.119	245.32
352.502	257.3
352.884	280.35
353.267	288.93
353.65	279.67
354.032	299.1
354.414	287.58
354.797	308.59
355.179	302.49
355.562	321.7
355.944	327.58
356.326	314.24
356.709	338.2
357.091	323.51
357.473	333.68
357.855	345.88
358.238	341.36
358.62	330.06
359.002	342.27
359.384	328.03
359.766	331.87
360.148	328.48
360.53	325.32
360.912	348.14
361.294	348.14
361.676	336.39
362.057	327.8
362.439	345.43
362.821	317.63
363.203	343.39
363.584	297.97
363.966	321.93
364.348	310.4
364.729	305.43
365.111	300.23
365.493	333.45
365.874	319.89
366.256	323.51
366.637	317.86
367.019	310.85
367.4	326.22
367.781	310.18
368.163	316.73
368.544	303.85
368.925	317.63
369.306	314.47
369.688	306.11
370.069	299.33
370.45	321.7
370.831	311.76
371.212	302.94
371.593	316.05
371.974	322.6
372.355	300.23
372.736	314.47
373.117	312.44
373.498	317.63
373.879	321.25
374.26	344.75
374.641	325.99
375.021	316.5
375.402	309.05
375.783	335.26
376.163	329.38
376.544	330.29
376.925	327.35
377.305	340.46
377.686	317.63
378.066	345.2
378.447	346.78
378.827	332.55
379.208	336.39
379.588	340.68
379.968	340.91
380.349	314.47
380.729	346.56
381.109	329.16
381.489	341.81
381.87	340.91
382.25	330.29
382.63	333.68
383.01	314.24
383.39	343.17
383.77	319.44
384.15	352.66
384.53	357.18
384.91	356.05
385.29	370.29
385.67	341.81
386.049	329.38
386.429	343.62
386.809	350.17
387.189	346.56
387.568	374.81
387.948	339.1
388.328	357.18
388.707	357.63
389.087	358.76
389.466	338.42
389.846	356.73
390.225	359.44
390.605	373
390.984	377.74
391.363	369.16
391.743	353.56
392.122	376.16
392.501	362.83
392.881	369.61
393.26	365.09
393.639	375.48
394.018	378.2
394.397	382.26
394.776	369.16
395.155	393.79
395.534	398.08
395.913	388.14
396.292	379.78
396.671	372.55
397.05	380
397.429	390.17
397.808	383.85
398.186	395.37
398.565	393.79
398.944	396.05
399.323	391.08
399.701	400.57
400.08	411.19
400.458	428.14
400.837	409.83
401.215	415.03
401.594	414.13
401.972	430.62
402.351	406.67
402.729	409.83
403.107	421.58
403.486	431.75
403.864	436.05
404.242	417.52
404.62	422.04
404.999	446.22
405.377	423.84
405.755	430.17
406.133	445.54
406.511	444.64
406.889	441.92
407.267	445.54
407.645	466.56
408.023	476.72
408.401	460.68
408.779	477.18
409.156	443.96
409.534	495.93
409.912	471.75
410.29	460.45
410.667	484.18
411.045	496.84
411.422	511.07
411.8	499.1
412.178	494.35
412.555	519.66
412.933	517.63
413.31	529.83
413.687	573.45
414.065	543.62
414.442	520.34
414.819	537.29
415.197	533.67
415.574	550.85
415.951	572.77
416.328	558.08
416.705	561.92
417.082	552.43
417.46	581.35
417.837	579.32
418.214	578.87
418.591	589.49
418.967	611.41
419.344	610.73
419.721	612.31
420.098	606.89
420.475	617.51
420.852	632.2
421.228	645.31
421.605	635.59
421.982	635.36
422.358	656.83
422.735	653.44
423.111	642.14
423.488	670.62
423.864	683.5
424.241	704.29
424.617	690.05
424.994	683.95
425.37	714.91
425.746	729.6
426.123	703.84
426.499	737.28
426.875	716.72
427.251	737.06
427.627	754.01
428.003	768.02
428.379	785.42
428.756	750.16
429.132	763.27
429.507	781.8
429.883	785.87
430.259	808.47
430.635	784.29
431.011	801.91
431.387	844.17
431.763	850.73
432.138	831.74
432.514	845.75
432.89	869.03
433.265	874.45
433.641	872.87
434.016	879.65
434.392	883.49
434.767	896.83
435.143	927.56
435.518	931.18
435.894	952.64
436.269	963.27
436.644	994.68
437.02	992.64
437.395	1016.15
437.77	987.45
438.145	1012.76
438.52	1019.54
438.895	1059.99
439.271	1058.63
439.646	1050.27
440.021	1062.02
440.395	1094.56
440.77	1084.39
441.145	1095.69
441.52	1119.65
441.895	1099.08
442.27	1127.78
442.645	1164.16
443.019	1148.35
443.394	1136.14
443.769	1160.77
444.143	1136.37
444.518	1206.65
444.892	1178.85
445.267	1184.28
445.641	1207.55
446.016	1211.17
446.39	1226.76
446.764	1246.65
447.139	1251.17
447.513	1248.46
447.887	1265.4
448.262	1273.31
448.636	1300.88
449.01	1298.62
449.384	1329.36
449.758	1307.66
450.132	1335.23
450.506	1341.79
450.88	1348.34
451.254	1360.77
451.628	1363.26
452.002	1353.76
452.376	1397.15
452.75	1438.51
453.123	1417.26
453.497	1447.55
453.871	1447.09
454.244	1484.38
454.618	1488.22
454.992	1529.13
455.365	1509.24
455.739	1582.23
456.112	1563.48
456.486	1590.37
456.859	1599.86
457.232	1608.22
457.606	1652.29
457.979	1631.5
458.352	1702.91
458.725	1705.39
459.099	1733.19
459.472	1752.4
459.845	1784.94
460.218	1793.3
460.591	1816.58
460.964	1840.08
461.337	1837.82
461.71	1895.67
462.083	1892.73
462.456	1899.29
462.829	1926.18
463.201	1971.15
463.574	1983.13
463.947	2029.68
464.32	2070.81
464.692	2091.37
465.065	2106.06
465.438	2146.74
465.81	2159.39
466.183	2219.96
466.555	2230.12
466.928	2298.82
467.3	2284.59
467.672	2360.74
468.045	2373.17
468.417	2427.41
468.789	2439.61
469.161	2453.17
469.534	2526.61
469.906	2594.18
470.278	2586.73
470.65	2655.2
471.022	2719.15
471.394	2772.48
471.766	2832.14
472.138	2848.64
472.51	2930.22
472.882	2931.58
473.253	3042.53
473.625	3063.78
473.997	3163.89
474.369	3188.97
474.74	3251.12
475.112	3330.21
475.484	3408.17
475.855	3459.7
476.227	3502.41
476.598	3674.38
476.97	3697.21
477.341	3788.73
477.713	3811.1
478.084	3892.68
478.455	4044.31
478.827	4108.04
479.198	4257.19
479.569	4268.26
479.94	4375.15
480.311	4507.13
480.682	4613.11
481.053	4720.23
481.424	4854.91
481.795	4900.34
482.166	5033.89
482.537	5115.25
482.908	5298.52
483.279	5357.95
483.65	5488.12
484.021	5631.62
484.391	5763.37
484.762	5830.71
485.133	5919.97
485.503	6055.56
485.874	6257.59
486.244	6293.75
486.615	6484.48
486.985	6577.36
487.356	6739.38
487.726	6804.02
488.097	7003.56
488.467	7092.14
488.837	7264.34
489.207	7450.33
489.578	7494.62
489.948	7683.54
490.318	7888.51
490.688	7952.23
491.058	8073.81
491.428	8267.71
491.798	8337.76
492.168	8532.11
492.538	8613.46
492.908	8720.58
493.278	8917.18
493.648	9010.06
494.017	9112.66
494.387	9243.95
494.757	9342.48
495.126	9516.71
495.496	9590.61
495.866	9590.16
496.235	9781.79
496.605	9942.01
496.974	9984.95
497.344	10182.46
497.713	10143.59
498.082	10299.52
498.452	10416.58
498.821	10492.05
499.19	10554.43
499.559	10685.72
499.928	10747.64
500.298	10817.24
500.667	10969.56
501.036	10988.99
501.405	11044.13
501.774	11163.68
502.143	11264.01
502.512	11297.23
502.88	11408.19
503.249	11413.39
503.618	11519.15
503.987	11573.83
504.356	11763.43
504.724	11665.36
505.093	11739.93
505.462	11857.89
505.83	11930.89
506.199	11981.06
506.567	12152.8
506.936	12130.2
507.304	12249.52
507.672	12336.98
508.041	12359.58
508.409	12473.92
508.777	12480.93
509.145	12568.61
509.514	12607.03
509.882	12678.66
510.25	12658.33
510.618	12744.42
510.986	12760.24
511.354	12925.89
511.722	12972.67
512.09	12983.74
512.458	12951.65
512.826	13073.23
513.193	13083.17
513.561	13057.18
513.929	13118.88
514.297	13267.57
514.664	13301.47
515.032	13355.48
515.4	13432.32
515.767	13349.38
516.135	13493.11
516.502	13324.97
516.869	13573.56
517.237	13542.37
517.604	13470.96
517.972	13658.07
518.339	13663.04
518.706	13599.09
519.073	13625.08
519.44	13658.75
519.808	13871.63
520.175	13763.83
520.542	13844.06
520.909	13885.41
521.276	13838.18
521.643	13887.67
522.009	13985.07
522.376	13971.51
522.743	13939.65
523.11	14083.37
523.477	14097.38
523.843	14098.06
524.21	14313.88
524.577	14281.79
524.943	14294.21
525.31	14291.5
525.676	14339.41
526.043	14399.97
526.409	14510.71
526.776	14460.76
527.142	14357.04
527.508	14434.1
527.874	14498.05
528.241	14501.21
528.607	14488.56
528.973	14595.45
529.339	14509.58
529.705	14529.91
530.071	14625.28
530.437	14611.04
530.803	14594.77
531.169	14568.78
531.535	14324.27
531.901	14469.35
532.267	14466.41
532.632	14531.95
532.998	14521.1
533.364	14525.39
533.73	14552.06
534.095	14516.58
534.461	14411.73
534.826	14468
535.192	14522.46
535.557	14453.98
535.923	14288.56
536.288	14356.59
536.653	14403.82
537.019	14197.27
537.384	14231.17
537.749	14251.5
538.114	14271.16
538.479	14215.35
538.845	14223.03
539.21	14116.59
539.575	14148
539.94	14160.66
540.305	14145.74
540.67	13926.09
541.034	14001.11
541.399	13917.05
541.764	13903.04
542.129	13892.87
542.494	13846.09
542.858	13876.6
543.223	13773.55
543.587	13743.95
543.952	13710.73
544.316	13691.29
544.681	13681.8
545.045	13646.1
545.41	13619.66
545.774	13559.32
546.138	13528.81
546.503	13471.19
546.867	13440
547.231	13422.37
547.595	13376.27
547.959	13377.18
548.324	13297.4
548.688	13244.3
549.052	13272.32
549.416	13267.8
549.779	13184.64
550.143	13084.53
550.507	13166.56
550.871	13091.76
551.235	13040.46
551.599	13047.24
551.962	12995.27
552.326	12993.01
552.689	12975.15
553.053	12876.4
553.417	12859.9
553.78	12881.82
554.143	12855.83
554.507	12797.53
554.87	12734.03
555.234	12848.6
555.597	12710.98
555.96	12697.87
556.323	12642.96
556.686	12643.64
557.05	12628.27
557.413	12665.56
557.776	12656.74
558.139	12643.41
558.502	12589.4
558.865	12637.08
559.228	12629.85
559.59	12580.81
559.953	12558.44
560.316	12668.04
560.679	12545.33
561.041	12613.35
561.404	12584.2
561.767	12671.43
562.129	12581.49
562.492	12657.65
562.854	12677.99
563.217	12565.9
563.579	12584.2
563.941	12665.33
564.304	12651.32
564.666	12651.32
565.028	12613.35
565.39	12684.31
565.753	12635.5
566.115	12640.7
566.477	12712.11
566.839	12580.59
567.201	12736.74
567.563	12713.69
567.925	12725.89
568.287	12654.26
568.648	12632.11
569.01	12670.08
569.372	12736.97
569.734	12713.69
570.095	12780.81
570.457	12763.18
570.819	12773.58
571.18	12776.29
571.542	12800.69
571.903	12790.53
572.265	12825.78
572.626	12811.09
572.987	12784.2
573.349	12864.65
573.71	12797.76
574.071	12739.68
574.432	12841.37
574.794	12897.42
575.155	12873.46
575.516	12800.24
575.877	12849.51
576.238	12884.76
576.599	12921.37
576.96	12887.47
577.32	12805.44
577.681	12902.84
578.042	12901.71
578.403	12883.63
578.763	12859.9
579.124	12859.22
579.485	12900.8
579.845	12943.97
580.206	12974.25
580.566	12890.86
580.927	12838.89
581.287	12917.53
581.648	12876.62
582.008	12914.59
582.368	12808.38
582.728	12742.84
583.089	12844.31
583.449	12875.95
583.809	12837.98
584.169	12861.03
584.529	12782.39
584.889	12823.52
585.249	12746.91
585.609	12673.47
585.969	12811.09
586.329	12720.02
586.688	12817.19
587.048	12748.04
587.408	12696.06
587.768	12663.97
588.127	12741.49
588.487	12673.47
588.846	12720.7
589.206	12692.67
589.565	12588.27
589.925	12789.85
590.284	12618.55
590.643	12710.98
591.003	12661.49
591.362	12704.43
591.721	12691.32
592.08	12587.14
592.44	12648.61
592.799	12670.3
593.158	12632.56
593.517	12583.98
593.876	12661.04
594.235	12554.83
594.593	12654.94
594.952	12573.81
595.311	12518.44
595.67	12579.01
596.029	12680.92
596.387	12591.21
596.746	12592.79
597.104	12525.67
597.463	12454.49
597.822	12554.6
598.18	12533.81
598.538	12470.31
598.897	12551.44
599.255	12397.77
599.613	12581.49
599.972	12525.45
600.33	12475.28
600.688	12416.07
601.046	12585.56
601.404	12556.86
601.762	12544.43
602.12	12629.17
602.478	12599.34
602.836	12553.24
603.194	12453.58
603.552	12513.47
603.91	12517.54
604.268	12551.44
604.625	12529.52
604.983	12618.1
605.341	12456.3
605.698	12510.98
606.056	12604.32
606.413	12453.36
606.771	12542.4
607.128	12559.57
607.485	12439.8
607.843	12462.17
608.2	12612.22
608.557	12686.12
608.914	12573.58
609.272	12596.41
609.629	12697.87
609.986	12664.65
610.343	12600.7
610.7	12656.52
611.057	12699.45
611.414	12652.68
611.771	12655.39
612.127	12662.39
612.484	12698.1
612.841	12770.41
613.198	12672.34
613.554	12582.17
613.911	12685.44
614.267	12661.04
614.624	12664.2
614.98	12668.04
615.337	12762.05
615.693	12780.81
616.05	12689.51
616.406	12742.16
616.762	12758.21
617.118	12764.31
617.475	12677.53
617.831	12793.46
618.187	12796.63
618.543	12755.5
618.899	12903.97
619.255	12798.21
619.611	12821.48
619.967	12866
620.323	12777.64
620.678	12803.86
621.034	12765.67
621.39	12868.04
621.746	12842.5
622.101	12916.17
622.457	12836.4
622.812	12812.9
623.168	12877.98
623.523	12970.41
623.879	12944.42
624.234	12743.07
624.589	12868.26
624.945	12858.09
625.3	12958.2
625.655	12881.82
626.01	12865.33
626.365	12879.79
626.72	12797.98
627.075	12814.71
627.43	12799.11
627.785	12850.64
628.14	12822.39
628.495	12773.35
628.85	12827.59
629.205	12780.58
629.559	12850.86
629.914	12758.44
630.269	12775.61
630.623	12722.05
630.978	12698.55
631.332	12758.66
631.687	12701.94
632.041	12714.37
632.396	12724.54
632.75	12691.54
633.104	12644.09
633.459	12670.75
633.813	12698.32
634.167	12536.75
634.521	12617.2
634.875	12648.61
635.229	12594.6
635.583	12552.57
635.937	12522.96
636.291	12478.22
636.645	12593.47
636.999	12501.49
637.352	12498.33
637.706	12496.75
638.06	12526.58
638.413	12486.8
638.767	12379.46
639.121	12461.27
639.474	12378.56
639.828	12339.46
640.181	12376.3
640.534	12357.99
640.888	12376.3
641.241	12303.31
641.594	12298.33
641.947	12296.75
642.301	12329.75
642.654	12280.71
643.007	12292.01
643.36	12253.14
643.713	12310.09
644.066	12337.43
644.419	12109.19
644.771	12237.55
645.124	12013.37
645.477	12013.14
645.83	11941.96
646.182	11977.67
646.535	11912.58
646.888	11885.92
647.24	11848.4
647.593	11871.91
647.945	11896.09
648.298	11839.36
648.65	11792.36
649.002	11750.78
649.355	11923.66
649.707	11878.01
650.059	11856.99
650.411	12028.06
650.763	11993.48
651.115	12136.76
651.467	12186.7
651.819	12122.75
652.171	12045.46
652.523	12134.5
652.875	12081.84
653.227	11959.59
653.578	12174.5
653.93	12141.5
654.282	12058.12
654.633	12154.16
654.985	12095.85
655.337	12101.28
655.688	12105.57
656.039	12153.25
656.391	12038.45
656.742	12175.63
657.094	12152.58
657.445	12158.9
657.796	12171.78
658.147	12041.62
658.498	12169.75
658.849	12162.29
659.2	12082.75
659.551	12093.59
659.902	12165.91
660.253	12172.46
660.604	12082.97
660.955	12088.62
661.306	12193.7
661.656	12130.66
662.007	12182.63
662.358	12195.29
662.708	12191.22
663.059	12167.04
663.409	12055.4
663.76	12259.47
664.11	12163.2
664.461	12217.88
664.811	12172.91
665.161	12221.73
665.511	12081.17
665.862	12199.13
666.212	12217.43
666.562	12143.76
666.912	12193.03
667.262	12247.49
667.612	12172.69
667.962	12228.96
668.312	12181.95
668.662	12225.12
669.011	12243.65
669.361	12172.91
669.711	12197.09
670.06	12158.45
670.41	12127.49
670.76	12162.07
671.109	12176.98
671.459	12097.21
671.808	12131.79
672.157	12177.43
672.507	12085.69
672.856	12109.64
673.205	12046.36
673.554	12095.85
673.904	12127.27
674.253	12035.97
674.602	11995.74
674.951	11955.52
675.3	11792.59
675.649	12086.14
675.998	12066.02
676.346	11977.89
676.695	12044.1
677.044	11908.29
677.393	11966.59
677.741	12013.82
678.09	11941.96
678.438	11912.13
678.787	11954.39
679.135	11949.87
679.484	11852.24
679.832	11931.79
680.181	11756.2
680.529	11814.28
680.877	11753.26
681.225	11740.38
681.573	11790.78
681.922	11740.61
682.27	11691.57
682.618	11753.26
682.966	11708.75
683.314	11672.36
683.661	11641.85
684.009	11547.17
684.357	11549.88
684.705	11485.7
685.053	11536.32
685.4	11497
685.748	11466.04
686.095	11481.41
686.443	11392.37
686.79	11371.58
687.138	11424.46
687.485	11425.59
687.832	11340.39
688.18	11440.96
688.527	11186.95
688.874	11262.43
689.221	11213.17
689.568	11133.62
689.915	11143.11
690.262	11191.02
690.609	11096.78
690.956	11088.2
691.303	11040.29
691.65	10922.78
691.997	10998.03
692.344	10815.66
692.69	10933.85
693.037	10885.04
693.383	10768.21
693.73	10811.14
694.077	10783.12
694.423	10725.49
694.769	10676.68
695.116	10636.23
695.462	10641.43
695.808	10578.38
696.155	10610.24
696.501	10479.4
696.847	10474.2
697.193	10448.44
697.539	10469.23
697.885	10384.26
698.231	10283.25
698.577	10359.63
698.923	10265.17
699.269	10117.6
699.614	10217.26
699.96	10173.64
700.306	10156.24
700.651	10087.77
700.997	10086.87
701.342	9992.63
701.688	9959.19
702.033	9919.41
702.379	9952.41
702.724	9881.22
703.069	9803.03
703.415	9752.19
703.76	9807.33
704.105	9801
704.45	9733.2
704.795	9709.48
705.14	9638.74
705.485	9586.54
705.83	9568.24
706.175	9611.63
706.52	9559.65
706.865	9451.18
707.209	9489.82
707.554	9412.31
707.899	9443.49
708.243	9391.07
708.588	9285.53
708.932	9273.78
709.277	9340.9
709.621	9276.27
709.966	9234.91
710.31	9304.29
710.654	9142.03
710.998	9169.83
711.342	9185.87
711.687	9087.8
712.031	9072.66
712.375	9013.68
712.719	9029.27
713.063	9032.66
713.407	9095.48
713.75	9019.78
714.094	9016.39
714.438	9040.57
714.782	8962.6
715.125	8952.89
715.469	8906.33
715.812	8987.01
716.156	8831.08
716.499	8814.36
716.843	8885.54
717.186	8788.6
717.53	8816.39
717.873	8870.18
718.216	8814.13
718.559	8738.65
718.902	8726.9
719.246	8764.42
719.589	8684.42
719.932	8705.21
720.275	8672.89
720.617	8702.27
720.96	8655.04
721.303	8662.27
721.646	8661.37
721.989	8602.84
722.331	8702.27
722.674	8530.52
723.016	8581.37
723.359	8522.16
723.701	8503.41
724.044	8523.74
724.386	8512.9
724.729	8559.68
725.071	8530.52
725.413	8551.54
725.755	8549.96
726.097	8552.44
726.439	8495.5
726.782	8528.04
727.124	8537.98
727.465	8504.08
727.807	8510.19
728.149	8464.99
728.491	8449.4
728.833	8526.46
729.175	8474.93
729.516	8430.64
729.858	8479
730.199	8454.59
730.541	8478.1
730.882	8438.32
731.224	8500.92
731.565	8450.53
731.906	8451.43
732.248	8491.66
732.589	8443.97
732.93	8371.43
733.271	8422.5
733.612	8450.53
733.953	8452.56
734.294	8418.44
734.635	8442.62
734.976	8465.22
735.317	8459.11
735.658	8424.76
735.999	8415.5
736.339	8408.27
736.68	8520.36
737.021	8497.08
737.361	8403.75
737.702	8454.82
738.042	8413.24
738.383	8525.33
738.723	8512.45
739.063	8495.5
739.404	8565.1
739.744	8495.72
740.084	8509.28
740.424	8488.72
740.764	8467.48
741.104	8585.21
741.444	8509.28
741.784	8544.76
742.124	8652.55
742.464	8658.2
742.804	8660.92
743.143	8695.04
743.483	8644.65
743.823	8681.93
744.162	8705.89
744.502	8714.93
744.841	8714.7
745.181	8879.67
745.52	8778.2
745.86	8882.38
746.199	8950.4
746.538	8943.85
746.877	9000.34
747.216	9043.28
747.556	9063.39
747.895	9139.1
748.234	9180
748.573	9264.74
748.911	9346.32
749.25	9338.86
749.589	9363.72
749.928	9495.47
750.267	9591.97
750.605	9590.61
750.944	9685.07
751.283	9761.68
751.621	9882.58
751.96	9966.42
752.298	10089.35
752.636	10149.01
752.975	10212.51
753.313	10222.01
753.651	10457.25
753.989	10511.49
754.327	10668.1
754.666	10797.13
755.004	10891.14
755.342	11078.48
755.679	11218.82
756.017	11320.06
756.355	11456.1
756.693	11615.19
757.031	11692.7
757.368	11862.19
757.706	11966.14
758.044	12161.39
758.381	12346.02
758.719	12442.74
759.056	12699.68
759.394	12909.62
759.731	12958.66
760.068	13091.76
760.405	13333.11
760.743	13450.17
761.08	13620.79
761.417	13808.58
761.754	13937.16
762.091	14150.49
762.428	14263.03
762.765	14329.47
763.102	14677.93
763.438	14706.86
763.775	14930.36
764.112	15181.87
764.449	15408.99
764.785	15462.77
765.122	15507.06
765.458	15788.41
765.795	15923.32
766.131	16090.55
766.467	16268.85
766.804	16276.99
767.14	16489.64
767.476	16668.62
767.812	16837.88
768.148	16968.27
768.485	16989.51
768.821	17078.32
769.157	17267.92
769.492	17483.74
769.828	17554.02
770.164	17528.48
770.5	17730.06
770.836	17959.2
771.171	17852.31
771.507	18027
771.842	18106.77
772.178	18141.8
772.513	18210.72
772.849	18444.84
773.184	18520.09
773.519	18553.09
773.855	18594.67
774.19	18640.99
774.525	18809.35
774.86	18769.8
775.195	18812.06
775.53	18877.6
775.865	18909.69
776.2	18856.81
776.535	18822.46
776.87	18978.16
777.205	18983.58
777.539	18993.98
777.874	19220.19
778.209	19158.49
778.543	19099.29
778.878	19131.6
779.212	19217.7
779.547	19075.33
779.881	19366.4
780.215	19246.4
780.55	19348.54
780.884	19309
781.218	19317.59
781.552	19302.22
781.886	19349
782.22	19329.79
782.554	19278.26
782.888	19207.53
783.222	19210.47
783.556	19269.45
783.889	19210.7
784.223	19092.05
784.557	19125.5
784.89	19249.79
785.224	19158.49
785.557	19178.61
785.891	19045.73
786.224	19057.03
786.558	19021.32
786.891	18983.36
787.224	19015.22
787.557	18979.06
787.891	18996.24
788.224	18972.51
788.557	19012.96
788.89	19043.69
789.223	18975.9
789.556	18907.88
789.888	18883.47
790.221	18794.89
790.554	18709.01
790.887	18700.65
791.219	18662.46
791.552	18648.9
791.884	18674.89
792.217	18623.37
792.549	18586.98
792.882	18434.9
793.214	18525.74
793.546	18549.24
793.879	18391.28
794.211	18266.99
794.543	18389.25
794.875	18333.66
795.207	18373.43
795.539	18360.32
795.871	18302.7
796.203	18139.99
796.535	18126.66
796.867	18063.83
797.198	17995.59
797.53	18129.37
797.862	17964.17
798.193	18063.83
798.525	17904.52
798.856	17932.08
799.188	17724.63
799.519	17736.61
799.85	17562.83
800.182	17633.79
800.513	17633.79
800.844	17571.64
801.175	17667.01
801.506	17655.71
801.837	17467.92
802.168	17473.11
802.499	17436.96
802.83	17343.63
803.161	17348.82
803.491	17374.59
803.822	17354.02
804.153	17223.63
804.483	17068.15
804.814	17007.36
805.145	17128.26
805.475	17017.31
805.805	17010.75
806.136	17060.7
806.466	16990.41
806.796	16980.92
807.126	16814.83
807.457	16801.27
807.787	16834.03
808.117	16759.46
808.447	16618
808.777	16645.57
809.107	16548.39
809.436	16582.06
809.766	16559.01
810.096	16439.69
810.426	16420.26
810.755	16473.59
811.085	16364.22
811.414	16467.72
811.744	16263.43
812.073	16211.9
812.403	16230.89
812.732	16194.96
813.061	16230.21
813.39	16101.85
813.719	16093.72
814.049	16212.81
814.378	16069.99
814.707	15992.02
815.036	15985.02
815.365	15929.65
815.693	15825.7
816.022	15983.21
816.351	15787.96
816.68	15856.89
817.008	15815.3
817.337	15659.83
817.665	15684.46
817.994	15676.78
818.322	15712.48
818.651	15617.12
818.979	15587.29
819.307	15641.07
819.636	15558.81
819.964	15530.57
820.292	15557.23
820.62	15521.53
820.948	15408.76
821.276	15531.92
821.604	15447.86
821.932	15551.58
822.259	15487.4
822.587	15454.64
822.915	15413.28
823.243	15501.87
823.57	15441.98
823.898	15460.29
824.225	15323.11
824.553	15329.89
824.88	15431.59
825.207	15522.88
825.535	15451.92
825.862	15394.75
826.189	15434.98
826.516	15511.81
826.843	15544.35
827.17	15463.22
827.497	15592.94
827.824	15507.97
828.151	15501.19
828.478	15495.54
828.805	15591.81
829.131	15482.88
829.458	15504.35
829.785	15402.89
830.111	15515.43
830.438	15551.58
830.764	15544.8
831.09	15466.16
831.417	15430.23
831.743	15456.67
832.069	15503.45
832.395	15399.27
832.722	15414.64
833.048	15426.61
833.374	15433.39
833.7	15314.53
834.026	15272.27
834.351	15472.26
834.677	15411.25
835.003	15394.52
835.329	15347.75
835.654	15267.97
835.98	15297.35
836.306	15229.11
836.631	15269.33
836.956	15233.4
837.282	15246.51
837.607	15256.22
837.932	15152.5
838.258	15166.06
838.583	15168.09
838.908	15045.83
839.233	14994.99
839.558	15104.36
839.883	15017.81
840.208	14884.03
840.533	14926.29
840.858	14986.4
841.182	14999.05
841.507	14951.82
841.832	14772.85
842.156	14843.13
842.481	14933.52
842.805	14778.72
843.13	14786.4
843.454	14727.88
843.778	14663.02
844.103	14719.29
844.427	14609.46
844.751	14662.57
845.075	14592.06
845.399	14540.99
845.723	14424.38
846.047	14458.73
846.371	14313.88
846.695	14370.6
847.019	14181.68
847.343	14200.43
847.666	14126.54
847.99	14033.2
848.313	14042.7
848.637	13857.39
848.96	13950.95
849.284	13892.87
849.607	13785.98
849.931	13701.24
850.254	13700.56
850.577	13559.32
850.9	13506.44
851.223	13505.31
851.546	13518.19
851.869	13408.81
852.192	13424.41
852.515	13298.76
852.838	13206.33
853.161	13284.52
853.483	13192.1
853.806	13098.31
854.129	13079.33
854.451	12923.4
854.774	12945.55
855.096	12969.28
855.419	12813.58
855.741	12839.56
856.063	12781.49
856.385	12827.81
856.708	12699.68
857.03	12675.05
857.352	12662.39
857.674	12678.66
857.996	12583.53
858.318	12534.71
858.64	12532
858.961	12500.82
859.283	12428.95
859.605	12417.88
859.926	12392.8
860.248	12393.02
860.57	12277.09
860.891	12258.11
861.212	12245.91
861.534	12247.04
861.855	12220.14
862.176	12163.88
862.498	12196.19
862.819	12147.6
863.14	12126.36
863.461	12139.47
863.782	12015.63
864.103	12008.4
864.424	12022.18
864.745	11994.39
865.065	11981.28
865.386	11946.93
865.707	11947.84
866.027	11916.88
866.348	11896.99
866.668	11948.29
866.989	11847.73
867.309	11780.16
867.63	11831.68
867.95	11762.76
868.27	11767.95
868.59	11772.92
868.91	11691.35
869.23	11679.37
869.55	11607.96
869.87	11654.06
870.19	11598.69
870.51	11692.93
870.83	11672.36
871.15	11540.39
871.469	11565.02
871.789	11626.26
872.109	11542.65
872.428	11524.34
872.748	11444.57
873.067	11447.51
873.386	11458.36
873.706	11461.75
874.025	11365.48
874.344	11334.07
874.663	11402.54
874.982	11306.72
875.301	11376.78
875.62	11309.89
875.939	11355.99
876.258	11247.06
876.577	11250.68
876.896	11239.15
877.214	11182.66
877.533	11175.65
877.852	11236.89
878.17	11184.69
878.489	11192.38
878.807	11167.97
879.125	11134.52
879.444	11062.66
879.762	11090.23
880.08	11122.09
880.398	10998.93
880.716	11013.4
881.034	10981.08
881.352	11006.62
881.67	10992.61
881.988	10979.5
882.306	10909.67
882.624	10877.81
882.941	10885.49
883.259	10858.82
883.577	10825.38
883.894	10829.67
884.212	10809.79
884.529	10707.42
884.846	10720.52
885.164	10731.14
885.481	10606.63
885.798	10667.42
886.115	10640.07
886.432	10548.32
886.75	10507.65
887.067	10589.68
887.383	10493.18
887.7	10496.8
888.017	10472.39
888.334	10549.68
888.651	10405.05
888.967	10384.03
889.284	10353.3
889.6	10303.81
889.917	10258.16
890.233	10247.99
890.55	10250.03
890.866	10238.05
891.182	10141.33
891.498	10175.9
891.815	10073.53
892.131	10128.9
892.447	10032.63
892.763	9964.61
893.079	9997.6
893.395	9944.95
893.71	9943.37
894.026	9905.86
894.342	9843.71
894.657	9713.54
894.973	9758.51
895.289	9754.67
895.604	9802.13
895.92	9707.89
896.235	9640.55
896.55	9577.95
896.865	9610.72
897.181	9543.15
897.496	9562.59
897.811	9541.12
898.126	9469.03
898.441	9405.76
898.756	9415.7
899.071	9393.33
899.386	9347.9
899.7	9281.92
900.015	9320.56
900.33	9175.25
900.644	9149.94
900.959	9171.19
901.273	9175.71
901.588	9079.21
901.902	9089.38
902.216	9071.75
902.531	9047.8
902.845	8965.99
903.159	8894.81
903.473	8892.77
903.787	8885.09
904.101	8880.8
904.415	8760.8
904.729	8788.82
905.042	8722.84
905.356	8696.62
905.67	8642.61
905.984	8692.78
906.297	8575.49
906.611	8561.48
906.924	8571.88
907.237	8517.19
907.551	8511.77
907.864	8475.38
908.177	8467.93
908.491	8462.73
908.804	8354.48
909.117	8262.28
909.43	8243.98
909.743	8238.33
910.056	8258.44
910.368	8166.92
910.681	8140.25
910.994	8073.81
911.307	8115.85
911.619	8004.66
911.932	8061.38
912.244	7982.97
912.557	7978.22
912.869	7936.19
913.181	7863.65
913.494	7825.46
913.806	7794.27
914.118	7780.94
914.43	7685.57
914.742	7708.4
915.054	7738.91
915.366	7644.67
915.678	7583.66
915.99	7592.47
916.302	7549.08
916.613	7472.25
916.925	7497.78
917.236	7469.31
917.548	7473.6
917.859	7431.34
918.171	7411.68
918.482	7336.66
918.794	7331.46
919.105	7247.62
919.416	7246.04
919.727	7246.26
920.038	7202.42
920.349	7159.94
920.66	7157.68
920.971	7162.65
921.282	7078.81
921.593	7036.55
921.903	6966.5
922.214	7050.34
922.525	6937.57
922.835	6909.1
923.146	6850.12
923.456	6930.57
923.767	6771.02
924.077	6864.58
924.387	6767.63
924.697	6718.82
925.008	6721.31
925.318	6706.62
925.628	6704.81
925.938	6654.64
926.248	6639.5
926.558	6584.81
926.867	6513.63
927.177	6575.77
927.487	6538.03
927.796	6441.77
928.106	6451.93
928.416	6432.27
928.725	6387.08
929.034	6393.86
929.344	6349.56
929.653	6364.03
929.962	6273.18
930.271	6155.9
930.581	6202
930.89	6217.14
931.199	6160.42
931.508	6209.68
931.817	6147.54
932.125	6163.81
932.434	6114.54
932.743	6034.77
933.051	5983.25
933.36	6024.38
933.669	6018.27
933.977	5969.01
934.286	5911.84
934.594	5923.81
934.902	5832.52
935.21	5841.1
935.519	5868.22
935.827	5852.18
936.135	5780.09
936.443	5817.15
936.751	5733.99
937.059	5691.28
937.367	5680.88
937.674	5677.04
937.982	5671.62
938.29	5608.79
938.597	5596.59
938.905	5554.33
939.213	5500.1
939.52	5521.34
939.827	5532.64
940.135	5515.01
940.442	5447.22
940.749	5392.98
941.056	5456.03
941.363	5387.33
941.67	5409.02
941.977	5271.4
942.284	5337.16
942.591	5347.33
942.898	5249.48
943.205	5261.23
943.511	5256.49
943.818	5242.02
944.125	5198.63
944.431	5164.96
944.738	5180.1
945.044	5077.06
945.35	5050.16
945.657	5069.82
945.963	5020.56
946.269	5034.57
946.575	4996.38
946.881	4952.99
947.187	4972.43
947.493	4950.28
947.799	4931.52
948.105	4881.81
948.41	4862.37
948.716	4857.85
949.022	4809.72
949.327	4829.38
949.633	4757.97
949.938	4807.46
950.244	4767.69
950.549	4668.48
950.854	4724.97
951.16	4709.61
951.465	4657.41
951.77	4677.29
952.075	4620.34
952.38	4586
952.685	4570.63
952.99	4517.97
953.294	4487.69
953.599	4588.03
953.904	4524.3
954.209	4487.47
954.513	4474.59
954.818	4428.49
955.122	4401.37
955.426	4425.1
955.731	4381.93
956.035	4385.77
956.339	4343.74
956.643	4327.02
956.948	4250.41
957.252	4358.66
957.556	4256.74
957.86	4268.04
958.163	4254.48
958.467	4266.68
958.771	4203.86
959.075	4195.5
959.378	4150.3
959.682	4139.23
959.985	4127.93
960.289	4129.74
960.592	4114.6
960.896	4108.49
961.199	4081.6
961.502	4042.28
961.805	4050.19
962.108	3999.57
962.411	3991.21
962.714	3933.13
963.017	3960.47
963.32	3935.84
963.623	3933.13
963.926	3901.72
964.228	3870.76
964.531	3907.14
964.833	3845
965.136	3807.71
965.438	3804.09
965.741	3820.14
966.043	3777.65
966.345	3813.13
966.648	3767.71
966.95	3755.96
967.252	3722.06
967.554	3717.32
967.856	3696.3
968.158	3669.41
968.46	3643.65
968.761	3625.79
969.063	3636.87
969.365	3614.27
969.666	3612.24
969.968	3551.22
970.269	3536.08
970.571	3569.52
970.872	3553.25
971.174	3506.02
971.475	3499.7
971.776	3474.39
972.077	3486.82
972.378	3444.33
972.679	3474.39
972.98	3454.27
973.281	3405.91
973.582	3378.8
973.883	3405.24
974.183	3343.77
974.484	3330.89
974.785	3354.16
975.085	3357.55
975.386	3325.46
975.686	3321.4
975.986	3280.27
976.287	3294.28
976.587	3274.17
976.887	3240.95
977.187	3272.81
977.487	3197.33
977.787	3192.36
978.087	3193.26
978.387	3167.05
978.687	3181.06
978.987	3109.2
979.286	3122.08
979.586	3115.3
979.885	3103.1
980.185	3065.81
980.484	3071.23
980.784	3048.63
981.083	3062.42
981.382	3040.73
981.682	3020.16
981.981	2966.6
982.28	3009.77
982.579	2983.33
982.878	2985.59
983.177	2966.38
983.475	2944.46
983.774	2920.73
984.073	2917.79
984.372	2920.28
984.67	2873.5
984.969	2861.75
985.267	2851.35
985.566	2828.75
985.864	2833.05
986.162	2818.13
986.461	2828.08
986.759	2819.04
987.057	2759.38
987.355	2758.47
987.653	2741.75
987.951	2713.73
988.249	2705.82
988.547	2729.32
988.844	2712.37
989.142	2699.72
989.44	2650.23
989.737	2640.28
990.035	2630.79
990.332	2665.82
990.63	2643.67
990.927	2597.57
991.224	2612.04
991.521	2556.22
991.819	2621.08
992.116	2572.94
992.413	2553.28
992.71	2527.52
993.006	2511.25
993.303	2488.88
993.6	2485.26
993.897	2511.93
994.193	2476.22
994.49	2452.72
994.787	2451.14
995.083	2442.55
995.379	2458.14
995.676	2435.77
995.972	2411.59
996.268	2413.62
996.565	2368.43
996.861	2386.51
997.157	2336.79
997.453	2345.38
997.749	2349.67
998.044	2355.32
998.34	2317.58
998.636	2314.19
998.932	2283.46
999.227	2275.55
999.523	2253.18
999.818	2294.3
1000.114	2223.35
1000.409	2254.98
1000.704	2245.27
1001	2222.67
1001.295	2224.7
1001.59	2171.82
1001.885	2196.45
1002.18	2162.56
1002.475	2150.13
1002.77	2127.08
1003.065	2111.94
1003.359	2095.89
1003.654	2086.63
1003.949	2095.67
1004.243	2089.56
1004.538	2077.13
1004.832	2028.1
1005.127	2036.68
1005.421	2042.79
1005.715	2024.71
1006.009	2003.46
1006.304	2013.86
1006.598	1980.64
1006.892	1984.48
1007.186	1937.25
1007.48	1964.82
1007.773	1946.52
1008.067	1955.33
1008.361	1937.03
1008.655	1898.83
1008.948	1914.88
1009.242	1902
1009.535	1892.73
1009.829	1872.39
1010.122	1839.63
1010.415	1842.56
1010.708	1816.35
1011.001	1825.84
1011.295	1791.72
1011.588	1813.19
1011.881	1794.2
1012.173	1775.9
1012.466	1773.19
1012.759	1774.77
1013.052	1732.96
1013.344	1744.49
1013.637	1740.65
1013.93	1687.09
1014.222	1693.42
1014.514	1702.91
1014.807	1694.09
1015.099	1674.21
1015.391	1679.63
1015.683	1674.66
1015.976	1646.19
1016.268	1636.02
1016.56	1602.12
1016.851	1640.54
1017.143	1603.93
1017.435	1598.28
1017.727	1583.81
1018.018	1575.9
1018.31	1576.36
1018.602	1567.32
1018.893	1558.96
1019.185	1541.1
1019.476	1511.27
1019.767	1538.17
1020.058	1496.58
1020.35	1469.02
1020.641	1489.13
1020.932	1481.67
1021.223	1450.94
1021.514	1471.27
1021.804	1454.1
1022.095	1441.22
1022.386	1445.74
1022.677	1449.13
1022.967	1401.67
1023.258	1400.32
1023.548	1374.78
1023.839	1366.87
1024.129	1382.24
1024.419	1384.72
1024.709	1370.94
1025	1362.35
1025.29	1350.15
1025.58	1334.1
1025.87	1311.05
1026.16	1320.54
1026.449	1291.39
1026.739	1296.36
1027.029	1279.64
1027.319	1285.29
1027.608	1259.98
1027.898	1272.86
1028.187	1249.59
1028.477	1255.24
1028.766	1234.9
1029.055	1228.34
1029.344	1192.86
1029.634	1224.05
1029.923	1211.39
1030.212	1204.84
1030.501	1179.08
1030.79	1158.29
1031.078	1191.73
1031.367	1168.68
1031.656	1153.54
1031.945	1143.15
1032.233	1127.33
1032.522	1137.72
1032.81	1134.11
1033.099	1129.14
1033.387	1123.26
1033.675	1103.83
1033.963	1070.83
1034.251	1107.22
1034.54	1073.32
1034.828	1091.17
1035.116	1068.8
1035.403	1070.61
1035.691	1055.24
1035.979	1056.14
1036.267	1062.7
1036.554	1025.64
1036.842	1032.42
1037.129	1008.91
1037.417	996.94
1037.704	1000.1
1037.992	1007.56
1038.279	1002.59
1038.566	978.63
1038.853	978.63
1039.14	978.63
