Data from hue_32_FLMS001491_00082.txt Node
Date: Tue Feb 07 17:24:01 GMT 2017
User: dcchb
Spectrometer: FLMS00149
Trigger mode: 0
Integration Time (sec): 2.000000E-2
Scans to average: 10
Electric dark correction enabled: true
Nonlinearity correction enabled: false
Boxcar width: 0
XAxis mode: Wavelengths
Number of Pixels in Spectrum: 2048
>>>>>Begin Spectral Data<<<<<
341.393	-29.45
341.776	-29.45
342.16	-29.45
342.543	-73.06
342.927	-65.83
343.31	-67.41
343.693	-53.85
344.077	-52.95
344.46	-60.41
344.843	-57.92
345.226	-34.42
345.61	-35.1
345.993	-5.49
346.376	-14.99
346.759	-12.27
347.142	31.12
347.525	32.92
347.908	52.13
348.291	98.23
348.674	81.51
349.057	98.91
349.44	121.96
349.823	137.33
350.206	155.18
350.588	193.6
350.971	211.45
351.354	219.81
351.737	229.98
352.119	255.74
352.502	265.69
352.884	256.19
353.267	291.67
353.65	303.88
354.032	306.14
354.414	310.2
354.797	305.23
355.179	311.79
355.562	329.19
355.944	314.27
356.326	325.34
356.709	321.28
357.091	349.3
357.473	342.07
357.855	350.65
358.238	333.48
358.62	343.88
359.002	353.37
359.384	323.31
359.766	321.5
360.148	345.68
360.53	350.88
360.912	338.45
361.294	330.09
361.676	366.93
362.057	337.1
362.439	343.88
362.821	337.77
363.203	332.8
363.584	325.34
363.966	322.86
364.348	336.42
364.729	322.41
365.111	333.93
365.493	330.77
365.874	312.01
366.256	308.4
366.637	323.76
367.019	308.85
367.4	302.52
367.781	319.92
368.163	315.4
368.544	312.92
368.925	310.2
369.306	328.96
369.688	326.25
370.069	316.31
370.45	315.63
370.831	334.84
371.212	315.4
371.593	323.54
371.974	326.93
372.355	343.65
372.736	326.93
373.117	308.62
373.498	325.34
373.879	328.06
374.26	324.21
374.641	328.96
375.021	318.57
375.402	324.67
375.783	330.99
376.163	339.36
376.544	322.63
376.925	325.57
377.305	329.41
377.686	314.27
378.066	346.59
378.447	340.26
378.827	340.71
379.208	330.09
379.588	353.14
379.968	333.93
380.349	357.43
380.729	333.48
381.109	330.77
381.489	347.04
381.87	341.16
382.25	362.86
382.63	317.66
383.01	340.03
383.39	356.76
383.77	354.5
384.15	339.81
384.53	354.5
384.91	360.6
385.29	352.24
385.67	359.92
386.049	338.45
386.429	352.91
386.809	354.5
387.189	345.23
387.568	337.55
387.948	365.57
388.328	359.47
388.707	361.05
389.087	359.69
389.466	348.17
389.846	393.37
390.225	362.18
390.605	382.07
390.984	382.07
391.363	366.02
391.743	356.08
392.122	379.13
392.501	378.68
392.881	395.17
393.26	376.42
393.639	373.7
394.018	364.89
394.397	389.75
394.776	373.25
395.155	393.82
395.534	402.86
395.913	366.7
396.292	378.22
396.671	380.03
397.05	391.11
397.429	387.94
397.808	418.68
398.186	387.26
398.565	397.21
398.944	393.37
399.323	411.9
399.701	400.37
400.08	420.26
400.458	401.73
400.837	408.73
401.215	391.78
401.594	416.87
401.972	409.18
402.351	432.69
402.729	421.61
403.107	418.68
403.486	427.71
403.864	406.92
404.242	422.97
404.62	420.26
404.999	429.3
405.377	430.43
405.755	438.79
406.133	434.27
406.511	459.58
406.889	422.52
407.267	448.51
407.645	452.35
408.023	453.93
408.401	464.55
408.779	450.99
409.156	459.13
409.534	451.67
409.912	468.62
410.29	457.09
410.667	474.04
411.045	450.99
411.422	470.2
411.8	467.94
412.178	476.3
412.555	470.43
412.933	496.19
413.31	498.45
413.687	487.15
414.065	520.37
414.442	494.61
414.819	488.05
415.197	498.67
415.574	486.24
415.951	501.84
416.328	513.81
416.705	498.9
417.082	517.66
417.46	527.37
417.837	520.59
418.214	526.24
418.591	513.36
418.967	510.2
419.344	528.96
419.721	521.27
420.098	505.68
420.475	539.8
420.852	533.7
421.228	566.24
421.605	557.88
421.982	555.62
422.358	560.82
422.735	584.32
423.111	562.85
423.488	563.76
423.864	570.31
424.241	580.25
424.617	580.25
424.994	586.81
425.37	586.81
425.746	598.11
426.123	587.26
426.499	603.08
426.875	596.3
427.251	601.27
427.627	608.05
428.003	634.94
428.379	627.94
428.756	614.83
429.132	645.34
429.507	636.52
429.883	649.18
430.259	631.78
430.635	638.33
431.011	630.42
431.387	660.03
431.763	650.31
432.138	647.82
432.514	673.36
432.89	678.78
433.265	679.69
433.641	702.28
434.016	692.79
434.392	699.8
434.767	706.13
435.143	717.88
435.518	725.11
435.894	731.44
436.269	740.7
436.644	738.22
437.02	737.31
437.395	749.06
437.77	749.51
438.145	731.89
438.52	759.01
438.895	767.59
439.271	751.1
439.646	777.76
440.021	766.91
440.395	807.59
440.77	798.1
441.145	790.64
441.52	821.15
441.895	803.75
442.27	802.39
442.645	798.55
443.019	804.88
443.394	797.65
443.769	790.64
444.143	816.86
444.518	862.73
444.892	857.53
445.267	876.06
445.641	859.57
446.016	850.3
446.39	861.15
446.764	860.7
447.139	870.64
447.513	885.33
447.887	876.74
448.262	871.32
448.636	891.43
449.01	880.58
449.384	912.45
449.758	898.66
450.132	898.89
450.506	890.08
450.88	941.15
451.254	911.54
451.628	921.04
452.002	931.43
452.376	936.85
452.75	978.21
453.123	967.36
453.497	975.04
453.871	994.93
454.244	1016.17
454.618	1004.87
454.992	1004.2
455.365	1037.87
455.739	1041.71
456.112	1041.26
456.486	1064.31
456.859	1063.86
457.232	1067.92
457.606	1078.09
457.979	1101.6
458.352	1084.19
458.725	1119.45
459.099	1100.24
459.472	1150.41
459.845	1183.18
460.218	1163.29
460.591	1184.31
460.964	1194.47
461.337	1228.37
461.71	1211.2
462.083	1239.44
462.456	1276.51
462.829	1253.91
463.201	1274.02
463.574	1280.12
463.947	1290.74
464.32	1316.73
464.692	1332.32
465.065	1355.15
465.438	1334.81
465.81	1369.38
466.183	1389.27
466.555	1423.39
466.928	1427.69
467.3	1450.96
467.672	1459.78
468.045	1502.94
468.417	1501.36
468.789	1515.6
469.161	1534.58
469.534	1577.06
469.906	1605.76
470.278	1630.17
470.65	1618.87
471.022	1638.76
471.394	1715.59
471.766	1721.69
472.138	1735.48
472.51	1781.58
472.882	1798.75
473.253	1834.46
473.625	1858.19
473.997	1916.94
474.369	1922.14
474.74	1954.91
475.112	2007.79
475.484	2048.69
475.855	2096.15
476.227	2140.89
476.598	2196.48
476.97	2210.94
477.341	2264.05
477.713	2349.7
478.084	2321.22
478.455	2424.72
478.827	2496.13
479.198	2521.67
479.569	2528
479.94	2626.75
480.311	2675.79
480.682	2778.84
481.053	2848.22
481.424	2837.14
481.795	2928.67
482.166	3005.95
482.537	3032.39
482.908	3182.44
483.279	3200.98
483.65	3294.08
484.021	3390.57
484.391	3399.16
484.762	3493.4
485.133	3568.42
485.503	3637.35
485.874	3754.63
486.244	3825.14
486.615	3888.64
486.985	4001.41
487.356	4090.67
487.726	4097
488.097	4258.12
488.467	4255.41
488.837	4455.18
489.207	4493.6
489.578	4596.19
489.948	4707.6
490.318	4766.13
490.688	4807.26
491.058	4921.83
491.428	5039.8
491.798	5108.72
492.168	5264.42
492.538	5327.7
492.908	5378.55
493.278	5526.56
493.648	5551.65
494.017	5637.97
494.387	5710.74
494.757	5800.23
495.126	5888.36
495.496	5891.75
495.866	5975.59
496.235	6102.14
496.605	6154.34
496.974	6252.42
497.344	6359.76
497.713	6355.24
498.082	6430.49
498.452	6564.5
498.821	6639.53
499.19	6661.68
499.559	6750.49
499.928	6847.88
500.298	6914.32
500.667	6983.93
501.036	7006.52
501.405	7122.23
501.774	7096.69
502.143	7260.53
502.512	7249
502.88	7307.53
503.249	7406.06
503.618	7425.27
503.987	7526.74
504.356	7613.97
504.724	7606.74
505.093	7641.76
505.462	7770.35
505.83	7776.45
506.199	7813.28
506.567	8002.2
506.936	8021.19
507.304	8092.37
507.672	8182.31
508.041	8166.27
508.409	8293.27
508.777	8378.92
509.145	8358.35
509.514	8394.06
509.882	8426.83
510.25	8460.05
510.618	8598.57
510.986	8651.45
511.354	8676.54
511.722	8717.21
512.09	8800.83
512.458	8821.17
512.826	8911.33
513.193	8994.5
513.561	8957.66
513.929	9080.37
514.297	9172.57
514.664	9201.27
515.032	9204.21
515.4	9294.15
515.767	9331.66
516.135	9387.03
516.502	9340.7
516.869	9559.23
517.237	9570.98
517.604	9486.01
517.972	9596.29
518.339	9638.32
518.706	9641.26
519.073	9730.52
519.44	9784.76
519.808	9889.39
520.175	9883.51
520.542	10006.22
520.909	10075.14
521.276	10070.17
521.643	10157.63
522.009	10226.33
522.376	10220.45
522.743	10314.91
523.11	10345.19
523.477	10510.61
523.843	10534.79
524.21	10644.62
524.577	10696.37
524.943	10696.6
525.31	10681
525.676	10873.77
526.043	10919.19
526.409	10958.96
526.776	11064.5
527.142	11139.75
527.508	11165.96
527.874	11271.27
528.241	11299.52
528.607	11330.93
528.973	11404.15
529.339	11477.37
529.705	11549.23
530.071	11620.41
530.437	11720.3
530.803	11759.39
531.169	11739.51
531.535	11777.92
531.901	11900.18
532.267	11934.53
532.632	11996.22
532.998	11982.21
533.364	12143.79
533.73	12169.1
534.095	12176.33
534.461	12288.19
534.826	12334.75
535.192	12357.34
535.557	12491.58
535.923	12443.9
536.288	12521.63
536.653	12648.86
537.019	12598.24
537.384	12635.53
537.749	12753.72
538.114	12768.41
538.479	12802.3
538.845	12837.33
539.21	12749.88
539.575	12872.81
539.94	12919.36
540.305	13053.6
540.67	13051.11
541.034	13142.63
541.399	13213.37
541.764	13154.39
542.129	13220.82
542.494	13298.11
542.858	13412.91
543.223	13477.09
543.587	13527.94
543.952	13558.44
544.316	13605.45
544.681	13626.01
545.045	13632.11
545.41	13739
545.774	13785.56
546.138	13846.34
546.503	13835.72
546.867	13849.28
547.231	14078.88
547.595	14073.01
547.959	14009.96
548.324	14094.25
548.688	14092.21
549.052	14226.22
549.416	14225.54
549.779	14236.84
550.143	14243.85
550.507	14475.48
550.871	14384.41
551.235	14390.29
551.599	14634.57
551.962	14539.89
552.326	14677.74
552.689	14727
553.053	14629.83
553.417	14607
553.78	14998.63
554.143	14818.3
554.507	15018.52
554.87	15018.07
555.234	15105.97
555.597	15033.88
555.96	15119.98
556.323	15145.52
556.686	15160.66
557.05	15309.36
557.413	15309.36
557.776	15315.46
558.139	15483.59
558.502	15450.14
558.865	15505.51
559.228	15577.6
559.59	15646.75
559.953	15663.47
560.316	15790.47
560.679	15844.03
561.041	15872.73
561.404	15937.59
561.767	16170.58
562.129	16057.13
562.492	16207.86
562.854	16125.38
563.217	16195.21
563.579	16233.85
563.941	16223.68
564.304	16376.9
564.666	16453.73
565.028	16500.06
565.39	16526.95
565.753	16644.92
566.115	16699.6
566.477	16813.5
566.839	16852.37
567.201	17007.17
567.563	16983.66
567.925	17045.36
568.287	17051.01
568.648	17085.58
569.01	17296.88
569.372	17265.92
569.734	17202.64
570.095	17365.57
570.457	17538.23
570.819	17559.02
571.18	17511.79
571.542	17703.87
571.903	17716.53
572.265	17822.96
572.626	17895.96
572.987	17986.35
573.349	18076.97
573.71	18171.43
574.071	18255.27
574.432	18294.82
574.794	18428.6
575.155	18467.69
575.516	18519.67
575.877	18701.58
576.238	18789.27
576.599	18977.51
576.96	18977.06
577.32	19067
577.681	19331.62
578.042	19375.01
578.403	19590.37
578.763	19599.41
579.124	19724.61
579.485	19942.46
579.845	19946.98
580.206	20149.46
580.566	20278.49
580.927	20534.76
581.287	20744.47
581.648	20805.71
582.008	21048.64
582.368	21116.89
582.728	21351.91
583.089	21604.11
583.449	21662.64
583.809	21985.11
584.169	22092.46
584.529	22292
584.889	22563.4
585.249	22765.88
585.609	23000.45
585.969	23301.01
586.329	23434.57
586.688	23610.61
587.048	23837.04
587.408	24052.4
587.768	24194.32
588.127	24505.73
588.487	24703.91
588.846	25097.12
589.206	25111.59
589.565	25281.98
589.925	25698.01
590.284	25851.23
590.643	26112.69
591.003	26573.47
591.362	26844.87
591.721	26907.02
592.08	27318.99
592.44	27550.39
592.799	27772.31
593.158	28016.59
593.517	28310.15
593.876	28520.08
594.235	28764.82
594.593	28933.18
594.952	29361.19
595.311	29427.18
595.67	29813.83
596.029	30294.27
596.387	30490.43
596.746	30696.52
597.104	30819.91
597.463	30947.59
597.822	31348.26
598.18	31504.19
598.538	31752.99
598.897	32225.75
599.255	32247.67
599.613	32794.55
599.972	32737.6
600.33	33026.63
600.688	33134.88
601.046	33425.04
601.404	33800.85
601.762	34017.57
602.12	34178.47
602.478	34480.83
602.836	34589.08
603.194	34797.66
603.552	34982.06
603.91	35099.12
604.268	35397.87
604.625	35644.87
604.983	35858.2
605.341	35752.66
605.698	36194.91
606.056	36384.28
606.413	36524.39
606.771	36716.7
607.128	36939.75
607.485	37093.64
607.843	37171.83
608.2	37594.87
608.557	37753.29
608.914	37833.74
609.272	38119.38
609.629	38216.1
609.986	38366.6
610.343	38354.18
610.7	38816.99
611.057	38931.11
611.414	38968.17
611.771	39221.05
612.127	39316.18
612.484	39527.48
612.841	39765.21
613.198	39726.57
613.554	39814.7
613.911	40145.54
614.267	40121.81
614.624	40256.05
614.98	40397.74
615.337	40636.15
615.693	40783.72
616.05	40717.95
616.406	41140.09
616.762	41149.58
617.118	41178.06
617.475	41185.51
617.831	41562.45
618.187	41558.16
618.543	41655.78
618.899	41937.13
619.255	41860.52
619.611	41937.58
619.967	42200.63
620.323	42338.25
620.678	42192.04
621.034	42181.65
621.39	42340.06
621.746	42274.07
622.101	42867.5
622.457	42524.01
622.812	42671.12
623.168	42830.67
623.523	42794.28
623.879	43058.68
624.234	42857.79
624.589	43161.28
624.945	43123.99
625.3	43250.32
625.655	43252.58
626.01	43401.05
626.365	43346.59
626.72	43382.07
627.075	43344.1
627.43	43413.03
627.785	43361.28
628.14	43506.81
628.495	43599.46
628.85	43508.16
629.205	43341.39
629.559	43620.93
629.914	43519.69
630.269	43572.34
630.623	43526.02
630.978	43465
631.332	43743.64
631.687	43840.58
632.041	43669.06
632.396	43887.81
632.75	43639.46
633.104	43796.29
633.459	43538.45
633.813	43629.29
634.167	43768.5
634.521	43752
634.875	43733.69
635.229	43712.45
635.583	43349.07
635.937	43499.12
636.291	43605.11
636.645	43658.67
636.999	43434.04
637.352	43642.62
637.706	43482.63
638.06	43718.33
638.413	43420.03
638.767	43377.09
639.121	43499.58
639.474	43257.32
639.828	43270.66
640.181	43445.79
640.534	43347.72
640.888	43225.01
641.241	43172.81
641.594	43191.11
641.947	43390.88
642.301	43227.27
642.654	43286.7
643.007	43332.8
643.36	43385.46
643.713	43307.94
644.066	43552.68
644.419	43172.81
644.771	42987.95
645.124	42640.84
645.477	42509.55
645.83	42337.57
646.182	42042.21
646.535	41962.67
646.888	42158.14
647.24	41889.22
647.593	42153.85
647.945	41962.89
648.298	41821.43
648.65	41713.41
649.002	41716.57
649.355	41979.39
649.707	41878.38
650.059	42077.47
650.411	42406.95
650.763	42417.35
651.115	42855.53
651.467	42737.56
651.819	42697.11
652.171	42696.21
652.523	42612.82
652.875	42655.98
653.227	42482.88
653.578	42601.52
653.93	42571.47
654.282	42537.79
654.633	42394.97
654.985	42575.99
655.337	42542.77
655.688	42545.93
656.039	42529.66
656.391	42259.16
656.742	42460.51
657.094	42430.45
657.445	42375.09
657.796	42357.69
658.147	42243.56
658.498	42388.42
658.849	42494.63
659.2	42369.89
659.551	42228.2
659.902	42537.57
660.253	42330.34
660.604	42409.89
660.955	42287.86
661.306	42471.36
661.656	42237.24
662.007	42190.46
662.358	42278.82
662.708	42248.54
663.059	42192.04
663.409	42047.41
663.76	42274.07
664.11	42300.74
664.461	42428.87
664.811	42260.97
665.161	42255.09
665.511	42138.03
665.862	42194.07
666.212	42299.83
666.562	42227.75
666.912	42162.89
667.262	42109.1
667.612	42092.16
667.962	41993.85
668.312	42088.99
668.662	42331.02
669.011	42284.69
669.361	42081.31
669.711	41977.13
670.06	42072.27
670.41	41984.14
670.76	41932.84
671.109	42107.97
671.459	42039.95
671.808	41936.91
672.157	42039.28
672.507	41732.39
672.856	41751.37
673.205	41847.42
673.554	41894.65
673.904	41849.9
674.253	41984.36
674.602	41772.16
674.951	41260.99
675.3	41111.39
675.649	41740.07
675.998	41629.12
676.346	41912.5
676.695	41819.39
677.044	41543.92
677.393	41716.12
677.741	41712.05
678.09	41583.69
678.438	41469.35
678.787	41594.99
679.135	41653.07
679.484	41351.84
679.832	41401.55
680.181	41305.06
680.529	41377.37
680.877	41197.04
681.225	41138.06
681.573	41421.89
681.922	41110.49
682.27	41006.53
682.618	41049.02
682.966	40830.95
683.314	40988.46
683.661	40854.9
684.009	40691.29
684.357	40667.33
684.705	40756.82
685.053	40670.05
685.4	40646.09
685.748	40507.56
686.095	40430.73
686.443	40335.82
686.79	40236.61
687.138	40286.55
687.485	40382.37
687.832	40073.68
688.18	40159.33
688.527	40005.66
688.874	39819.45
689.221	39951.42
689.568	39656.29
689.915	39610.87
690.262	39736.96
690.609	39574.93
690.956	39437.31
691.303	39318.22
691.65	39344.21
691.997	39192.57
692.344	38955.97
692.69	38912.13
693.037	38967.72
693.383	38621.29
693.73	38867.61
694.077	38575.19
694.423	38503.32
694.769	38532.48
695.116	38367.96
695.462	38461.74
695.808	38315.76
696.155	38281.41
696.501	38069.89
696.847	37978.37
697.193	37704.47
697.539	37968.2
697.885	37667.64
698.231	37510.58
698.577	37711.71
698.923	37489.57
699.269	37273.07
699.614	37257.71
699.96	37192.17
700.306	37197.37
700.651	36962.12
700.997	36854.1
701.342	36825.63
701.688	36815.23
702.033	36666.76
702.379	36484.39
702.724	36514.22
703.069	36664.95
703.415	36203.72
703.76	36257.06
704.105	36223.84
704.45	36059.55
704.795	35884.18
705.14	35926.89
705.485	35770.29
705.83	35578.43
706.175	35752.21
706.52	35648.94
706.865	35460.24
707.209	35413.69
707.554	35299.57
707.899	35368.04
708.243	35234.94
708.588	34960.14
708.932	34914.27
709.277	34909.97
709.621	35049.4
709.966	34760.82
710.31	34659.58
710.654	34404.67
710.998	34496.88
711.342	34454.84
711.687	34417.78
712.031	34300.27
712.375	34094.63
712.719	34251.46
713.063	34197.67
713.407	34225.92
713.75	33938.47
714.094	33891.92
714.438	33807.4
714.782	34038.58
715.125	33768.76
715.469	33805.82
715.812	33429.56
716.156	33454.19
716.499	33541.42
716.843	33369.67
717.186	33251.03
717.53	33408.77
717.873	33350.69
718.216	33301.2
718.559	33161.77
718.902	32985.5
719.246	32960.64
719.589	32785.73
719.932	32670.48
720.275	32802.91
720.617	32751.84
720.96	32649.92
721.303	32713.65
721.646	32658.05
721.989	32404.28
722.331	32560.88
722.674	32479.53
723.016	32542.8
723.359	32379.19
723.701	32331.06
724.044	32264.62
724.386	31981.91
724.729	32242.7
725.071	32110.72
725.413	32136.71
725.755	32033.21
726.097	32028.92
726.439	31794.57
726.782	31813.33
727.124	31985.3
727.465	31700.11
727.807	31736.27
728.149	31745.31
728.491	31602.26
728.833	31702.15
729.175	31467.12
729.516	31483.4
729.858	31340.8
730.199	31386
730.541	31427.8
730.882	31290.63
731.224	31480.23
731.565	31120.92
731.906	31165.44
732.248	31280.46
732.589	30979.91
732.93	30890.42
733.271	30994.37
733.612	31077.3
733.953	30960.25
734.294	30880.02
734.635	30811.32
734.976	30836.86
735.317	30602.97
735.658	30649.74
735.999	30621.95
736.339	30593.48
736.68	30570.88
737.021	30546.7
737.361	30467.83
737.702	30486.36
738.042	30489.75
738.383	30366.36
738.723	30505.34
739.063	30189.19
739.404	30302.64
739.744	30108.29
740.084	30045.92
740.424	30144.67
740.764	30066.26
741.104	30092.7
741.444	29962.98
741.784	29789.65
742.124	29985.58
742.464	29862.87
742.804	29650.45
743.143	29741.07
743.483	29840.05
743.823	29569.55
744.162	29667.4
744.502	29738.81
744.841	29473.28
745.181	29620.17
745.52	29462.88
745.86	29539.49
746.199	29456.56
746.538	29342.66
746.877	29491.36
747.216	29478.02
747.556	29447.06
747.895	29306.73
748.234	29152.84
748.573	29139.95
748.911	29168.2
749.25	29140.18
749.589	28959.85
749.928	29006.62
750.267	29023.12
750.605	29002.78
750.944	28895.44
751.283	28858.15
751.621	28910.58
751.96	28629.46
752.298	28738.83
752.636	28755.33
752.975	28619.74
753.313	28509.46
753.651	28591.95
753.989	28463.14
754.327	28455.68
754.666	28360.31
755.004	28304.95
755.342	28360.77
755.679	28223.82
756.017	28048.91
756.355	28170.49
756.693	27996.26
757.031	28005.52
757.368	27791.29
757.706	27698.86
758.044	27749.48
758.381	27711.52
758.719	27669.94
759.056	27657.73
759.394	27599.66
759.731	27347.23
760.068	27337.97
760.405	27167.12
760.743	27174.81
761.08	27263.85
761.417	27029.28
761.754	27035.38
762.091	26964.64
762.428	26875.38
762.765	26717.64
763.102	26736.18
763.438	26599.91
763.775	26479.91
764.112	26564.65
764.449	26621.83
764.785	26400.37
765.122	26194.27
765.458	25984.78
765.795	26039.47
766.131	25979.13
766.467	25944.33
766.804	25879.47
767.14	25693.04
767.476	25761.51
767.812	25696.65
768.148	25634.96
768.485	25468.41
768.821	25318.36
769.157	25278.81
769.492	25212.15
769.828	25316.33
770.164	24997.46
770.5	24926.73
770.836	24985.94
771.171	24691.03
771.507	24823.68
771.842	24647.42
772.178	24645.38
772.513	24477.48
772.849	24486.07
773.184	24305.73
773.519	24379.18
773.855	24089.24
774.19	24041.11
774.525	23956.14
774.86	23964.05
775.195	23891.28
775.53	23703.71
775.865	23750.72
776.2	23480.22
776.535	23341.46
776.87	23383.95
777.205	23326.32
777.539	23116.61
777.874	23235.02
778.209	23160.22
778.543	22991.19
778.878	22869.16
779.212	22811.31
779.547	22720.01
779.881	22760.69
780.215	22488.15
780.55	22581.48
780.884	22510.52
781.218	22447.02
781.552	22454.48
781.886	22099.01
782.22	22216.07
782.554	22084.32
782.888	21882.74
783.222	21732.92
783.556	21745.8
783.889	21753.48
784.223	21601.17
784.557	21524.34
784.89	21596.2
785.224	21377.9
785.557	21334.51
785.891	21305.58
786.224	21215.64
786.558	21007.96
786.891	20932.49
787.224	20868.31
787.557	20771.13
787.891	20820.62
788.224	20816.56
788.557	20724.58
788.89	20601.2
789.223	20639.39
789.556	20466.51
789.888	20370.24
790.221	20339.28
790.554	20106.29
790.887	20157.37
791.219	20046.18
791.552	20105.62
791.884	19985.17
792.217	19906.07
792.549	19839.18
792.882	19639.41
793.214	19607.32
793.546	19684.61
793.879	19452.98
794.211	19386.54
794.543	19445.29
794.875	19406.65
795.207	19357.61
795.539	19212.53
795.871	19248.91
796.203	19075.59
796.535	18971.86
796.867	18899.09
797.198	18841.69
797.53	18918.98
797.862	18818.19
798.193	18829.04
798.525	18682.38
798.856	18654.35
799.188	18478.77
799.519	18332.78
799.85	18380.01
800.182	18405.1
800.513	18331.88
800.844	18145.67
801.175	18294.14
801.506	18281.93
801.837	18193.35
802.168	17943.41
802.499	18000.59
802.83	17935.5
803.161	17856.41
803.491	17812.12
803.822	17870.65
804.153	17794.49
804.483	17579.13
804.814	17565.8
805.145	17506.59
805.475	17582.52
805.805	17444.89
806.136	17394.73
806.466	17446.48
806.796	17374.84
807.126	17244
807.457	17149.08
807.787	17187.95
808.117	17111.34
808.447	17075.64
808.777	17153.83
809.107	17047.62
809.436	16915.42
809.766	16930.11
810.096	16876.77
810.426	16785.02
810.755	16775.76
811.085	16734.4
811.414	16685.82
811.744	16482.66
812.073	16569.44
812.403	16533.51
812.732	16498.93
813.061	16423.45
813.39	16370.12
813.719	16242.44
814.049	16379.39
814.378	16239.5
814.707	16224.36
815.036	16100.75
815.365	16126.96
815.693	15997.25
816.022	15990.47
816.351	15997.47
816.68	15826.86
817.008	15928.32
817.337	15730.36
817.665	15716.58
817.994	15755.45
818.322	15743.47
818.651	15713.87
818.979	15670.93
819.307	15665.28
819.636	15614.66
819.964	15501.22
820.292	15583.02
820.62	15522.23
820.948	15420.54
821.276	15557.03
821.604	15475.91
821.932	15418.51
822.259	15530.37
822.587	15525.17
822.915	15428.22
823.243	15526.53
823.57	15436.36
823.898	15421.67
824.225	15380.77
824.553	15437.94
824.88	15401.33
825.207	15527.2
825.535	15414.89
825.862	15479.52
826.189	15339.87
826.516	15460.99
826.843	15435
827.17	15421.44
827.497	15476.36
827.824	15406.08
828.151	15394.78
828.478	15355.91
828.805	15385.29
829.131	15401.11
829.458	15367.43
829.785	15274.33
830.111	15254.22
830.438	15432.74
830.764	15326.53
831.09	15298.51
831.417	15254.22
831.743	15315.23
832.069	15315.46
832.395	15225.52
832.722	15375.57
833.048	15221
833.374	15270.94
833.7	15166.76
834.026	15252.41
834.351	15235.24
834.677	15211.96
835.003	15229.59
835.329	15165.86
835.654	15077.95
835.98	15113.88
836.306	15084.05
836.631	15088.35
836.956	15166.54
837.282	15077.27
837.607	14999.76
837.932	15031.4
838.258	14920.44
838.583	14962.02
838.908	14883.83
839.233	14921.12
839.558	14904.85
839.883	14847.45
840.208	14770.39
840.533	14696.49
840.858	14673.67
841.182	14784.17
841.507	14649.71
841.832	14626.66
842.156	14542.37
842.481	14551.86
842.805	14587.12
843.13	14506.44
843.454	14480.23
843.778	14538.53
844.103	14359.33
844.427	14381.25
844.751	14434.58
845.075	14233.91
845.399	14290.4
845.723	14159.11
846.047	14206.56
846.371	14058.77
846.695	14141.03
847.019	13973.8
847.343	13852.67
847.666	13757.99
847.99	13754.6
848.313	13898.32
848.637	13703.98
848.96	13680.7
849.284	13611.1
849.607	13567.93
849.931	13431.89
850.254	13457.65
850.577	13308.05
850.9	13280.48
851.223	13303.99
851.546	13290.2
851.869	13072.81
852.192	13158.45
852.515	13094.05
852.838	12967.27
853.161	13051.79
853.483	12918.01
853.806	12870.78
854.129	12884.79
854.451	12777.67
854.774	12790.55
855.096	12655.19
855.419	12733.38
855.741	12659.03
856.063	12556.44
856.385	12538.81
856.708	12511.01
857.03	12483.22
857.352	12427.63
857.674	12378.13
857.996	12398.47
858.318	12290.91
858.64	12325.48
858.961	12244.58
859.283	12240.74
859.605	12194.64
859.926	12145.15
860.248	12125.49
860.57	12097.69
860.891	12094.98
861.212	11963.46
861.534	11947.19
861.855	11917.81
862.176	11955.55
862.498	11899.05
862.819	11914.42
863.14	11854.53
863.461	11840.97
863.782	11807.53
864.103	11763.01
864.424	11810.92
864.745	11740.86
865.065	11736.57
865.386	11703.58
865.707	11652.5
866.027	11723.01
866.348	11651.83
866.668	11668.78
866.989	11611.15
867.309	11537.48
867.63	11604.6
867.95	11544.26
868.27	11454.09
868.59	11393.75
868.91	11511.27
869.23	11428.33
869.55	11393.08
869.87	11431.04
870.19	11440.53
870.51	11412.96
870.83	11436.46
871.15	11319.86
871.469	11335.68
871.789	11363.7
872.109	11332.96
872.428	11276.47
872.748	11281.89
873.067	11156.02
873.386	11200.99
873.706	11238.28
874.025	11233.53
874.344	11145.63
874.663	11205.74
874.982	11088.23
875.301	11087.1
875.62	11103.82
875.939	11079.19
876.258	11046.64
876.577	11022.46
876.896	10977.27
877.214	10935.91
877.533	10975.69
877.852	10944.05
878.17	10963.48
878.489	10934.11
878.807	10982.47
879.125	10871.73
879.444	10868.57
879.762	10885.74
880.08	10873.32
880.398	10888.91
880.716	10768.91
881.034	10751.29
881.352	10783.37
881.67	10777.27
881.988	10718.74
882.306	10689.37
882.624	10633.77
882.941	10561.69
883.259	10474.68
883.577	10607.79
883.894	10568.24
884.212	10494.79
884.529	10540.67
884.846	10483.72
885.164	10427
885.481	10404.4
885.798	10497.96
886.115	10371.86
886.432	10346.1
886.75	10332.09
887.067	10296.16
887.383	10244.86
887.7	10307
888.017	10249.38
888.334	10138.42
888.651	10232.88
888.967	10186.55
889.284	10155.37
889.6	10087.8
889.917	10025.88
890.233	10022.49
890.55	9963.06
890.866	9982.49
891.182	9959.89
891.498	9978.42
891.815	9961.02
892.131	9861.59
892.447	9879.44
892.763	9766.9
893.079	9792.44
893.395	9782.95
893.71	9703.4
894.026	9672.9
894.342	9728.26
894.657	9586.12
894.973	9582.95
895.289	9539.11
895.604	9568.72
895.92	9417.76
896.235	9489.85
896.55	9439
896.865	9432
897.181	9398.78
897.496	9377.99
897.811	9286.69
898.126	9309.52
898.441	9279.46
898.756	9258.44
899.071	9225.9
899.386	9205.79
899.7	9098.9
900.015	9124.44
900.33	9018.9
900.644	9014.38
900.959	9005.79
901.273	8976.64
901.588	8948.39
901.902	8877.21
902.216	8885.57
902.531	8866.59
902.845	8787.95
903.159	8822.52
903.473	8665.69
903.787	8632.92
904.101	8663.2
904.415	8685.12
904.729	8595.86
905.042	8610.32
905.356	8574.85
905.67	8529.87
905.984	8525.58
906.297	8487.62
906.611	8423.89
906.924	8419.14
907.237	8374.4
907.551	8324.46
907.864	8265.93
908.177	8243.78
908.491	8254.4
908.804	8219.83
909.117	8166.95
909.43	8086.72
909.743	8074.75
910.056	8081.98
910.368	8065.25
910.681	8074.97
910.994	7997.91
911.307	7968.76
911.619	7888.76
911.932	7858.03
912.244	7780.74
912.557	7803.34
912.869	7752.04
913.181	7700.29
913.494	7734.87
913.806	7666.62
914.118	7592.05
914.43	7664.13
914.742	7649.67
915.054	7555.66
915.366	7561.09
915.678	7471.6
915.99	7453.97
916.302	7434.08
916.613	7373.97
916.925	7335.56
917.236	7311.83
917.548	7326.29
917.859	7319.28
918.171	7228.21
918.482	7191.83
918.794	7204.71
919.105	7207.2
919.416	7167.88
919.727	7104.83
920.038	7124.49
920.349	7058.73
920.66	6998.84
920.971	6980.99
921.282	6952.06
921.593	6864.83
921.903	6913.65
922.214	6831.16
922.525	6781.9
922.835	6765.18
923.146	6747.1
923.456	6683.37
923.767	6675.69
924.077	6692.63
924.387	6655.12
924.697	6648.12
925.008	6549.59
925.318	6552.07
925.628	6568.34
925.938	6528.57
926.248	6439.76
926.558	6475.01
926.867	6425.75
927.177	6385.3
927.487	6375.35
927.796	6294.91
928.106	6327.67
928.416	6300.33
928.725	6338.07
929.034	6195.02
929.344	6243.38
929.653	6259.65
929.962	6166.77
930.271	6150.05
930.581	6122.48
930.89	6095.59
931.199	6049.94
931.508	6042.48
931.817	6040
932.125	6009.04
932.434	5978.53
932.743	5985.76
933.051	5912.09
933.36	5863.28
933.669	5828.02
933.977	5808.59
934.286	5825.76
934.594	5793.68
934.902	5762.04
935.21	5724.75
935.519	5748.93
935.827	5681.14
936.135	5674.13
936.443	5605.21
936.751	5640.01
937.059	5653.57
937.367	5560.46
937.674	5500.35
937.982	5487.69
938.29	5456.74
938.597	5457.19
938.905	5440.69
939.213	5402.73
939.52	5325.67
939.827	5355.72
940.135	5302.61
940.442	5297.19
940.749	5267.36
941.056	5331.99
941.363	5259.23
941.67	5243.86
941.977	5218.32
942.284	5194.6
942.591	5190.53
942.898	5162.51
943.205	5089.29
943.511	5133.13
943.818	5065.56
944.125	5037.31
944.431	5027.37
944.738	4984.43
945.044	4928.61
945.35	4984.21
945.657	4952.34
945.963	4904.66
946.269	4876.86
946.575	4872.8
946.881	4813.81
947.187	4837.99
947.493	4786.7
947.799	4737.21
948.105	4735.4
948.41	4752.57
948.716	4731.1
949.022	4752.57
949.327	4732.23
949.633	4655.17
949.938	4644.55
950.244	4653.59
950.549	4548.06
950.854	4617.89
951.16	4565.91
951.465	4580.15
951.77	4486.14
952.075	4543.99
952.38	4470.09
952.685	4496.76
952.99	4445.91
953.294	4428.97
953.599	4406.82
953.904	4376.09
954.209	4343.77
954.513	4369.98
954.818	4346.26
955.122	4392.58
955.426	4341.51
955.731	4315.52
956.035	4234.62
956.339	4238.69
956.643	4257.22
956.948	4249.08
957.252	4195.75
957.556	4213.83
957.86	4160.05
958.163	4143.78
958.467	4120.05
958.771	4106.04
959.075	4080.27
959.378	4068.07
959.682	4068.75
959.985	4024.91
960.289	4034.85
960.592	3992.59
960.896	3984.91
961.199	3962.76
961.502	3961.18
961.805	3930.45
962.108	3921.41
962.411	3897.91
962.714	3846.61
963.017	3874.18
963.32	3869.43
963.623	3826.95
963.926	3809.32
964.228	3804.8
964.531	3782.2
964.833	3799.38
965.136	3756.67
965.438	3720.96
965.741	3714.63
966.043	3689.1
966.345	3668.99
966.648	3673.51
966.95	3692.94
967.252	3633.73
967.554	3596.67
967.856	3603
968.158	3546.95
968.46	3603
968.761	3542.44
969.063	3548.08
969.365	3492.27
969.666	3532.94
969.968	3483.45
970.269	3429.44
970.571	3445.71
970.872	3450.91
971.174	3427.86
971.475	3381.31
971.776	3402.33
972.077	3353.97
972.378	3410.01
972.679	3349.45
972.98	3333.85
973.281	3326.17
973.582	3326.85
973.883	3328.43
974.183	3250.69
974.484	3241.2
974.785	3250.69
975.085	3265.15
975.386	3210.47
975.686	3198.04
975.986	3155.33
976.287	3167.98
976.587	3158.04
976.887	3151.26
977.187	3131.37
977.487	3119.62
977.787	3133.86
978.087	3129.34
978.387	3085.95
978.687	3067.87
978.987	3075.1
979.286	3067.65
979.586	3030.81
979.885	3015.44
980.185	2997.14
980.484	2991.26
980.784	2968.21
981.083	2976.57
981.382	2945.61
981.682	2942
981.981	2914.88
982.28	2908.78
982.579	2878.27
982.878	2883.7
983.177	2857.26
983.475	2866.52
983.774	2838.95
984.073	2841.21
984.372	2873.07
984.67	2814.32
984.969	2785.84
985.267	2796.92
985.566	2771.61
985.864	2740.65
986.162	2711.04
986.461	2719.63
986.759	2720.54
987.057	2684.6
987.355	2696.36
987.653	2685.51
987.951	2670.82
988.249	2667.66
988.547	2678.73
988.844	2647.09
989.142	2629.69
989.44	2642.35
989.737	2620.65
990.035	2574.55
990.332	2592.18
990.63	2558.05
990.927	2558.51
991.224	2537.26
991.521	2547.66
991.819	2531.84
992.116	2518.73
992.413	2523.48
992.71	2456.14
993.006	2483.71
993.303	2471.28
993.6	2441.9
993.897	2423.82
994.193	2443.71
994.49	2417.04
994.787	2414.78
995.083	2388.79
995.379	2366.42
995.676	2372.97
995.972	2378.17
996.268	2326.65
996.565	2338.62
996.861	2307.89
997.157	2296.37
997.453	2286.87
997.749	2250.27
998.044	2268.12
998.34	2260.43
998.636	2247.33
998.932	2242.13
999.227	2215.92
999.523	2204.17
999.818	2209.59
1000.114	2165.75
1000.409	2177.95
1000.704	2152.87
1001	2168.69
1001.295	2146.09
1001.59	2144.05
1001.885	2130.27
1002.18	2109.7
1002.475	2106.54
1002.77	2066.99
1003.065	2103.15
1003.359	2084.85
1003.654	2066.09
1003.949	2048.69
1004.243	2050.5
1004.538	2007.11
1004.832	2012.53
1005.127	1989.03
1005.421	1978.18
1005.715	1937.51
1006.009	1968.24
1006.304	1986.54
1006.598	1953.55
1006.892	1967.56
1007.186	1942.03
1007.48	1922.59
1007.773	1898.64
1008.067	1905.87
1008.361	1880.78
1008.655	1882.37
1008.948	1892.53
1009.242	1856.38
1009.535	1846.21
1009.829	1833.33
1010.122	1819.32
1010.415	1831.29
1010.708	1808.02
1011.001	1801.01
1011.295	1807.11
1011.588	1752.88
1011.881	1771.41
1012.173	1742.03
1012.466	1724.86
1012.759	1730.96
1013.052	1726.89
1013.344	1692.09
1013.637	1703.84
1013.93	1672.2
1014.222	1677.63
1014.514	1676.04
1014.807	1662.26
1015.099	1658.87
1015.391	1635.14
1015.683	1638.98
1015.976	1616.84
1016.268	1615.48
1016.56	1583.84
1016.851	1604.63
1017.143	1583.84
1017.435	1581.36
1017.727	1570.06
1018.018	1561.7
1018.31	1546.1
1018.602	1544.07
1018.893	1519.21
1019.185	1464.75
1019.476	1521.7
1019.767	1504.52
1020.058	1502.94
1020.35	1472.21
1020.641	1455.94
1020.932	1448.93
1021.223	1474.92
1021.514	1416.39
1021.804	1411.87
1022.095	1411.42
1022.386	1418.88
1022.677	1400.57
1022.967	1365.54
1023.258	1351.98
1023.548	1372.32
1023.839	1344.98
1024.129	1368.48
1024.419	1356.5
1024.709	1325.77
1025	1307.01
1025.29	1292.78
1025.58	1309.05
1025.87	1320.12
1026.16	1300.23
1026.449	1269.5
1026.739	1253.68
1027.029	1255.94
1027.319	1279.9
1027.608	1266.56
1027.898	1223.4
1028.187	1211.42
1028.477	1231.08
1028.766	1232.89
1029.055	1248.94
1029.344	1188.15
1029.634	1198.32
1029.923	1187.69
1030.212	1172.33
1030.501	1175.04
1030.79	1165.32
1031.078	1138.88
1031.367	1152.67
1031.656	1144.08
1031.945	1139.11
1032.233	1142.72
1032.522	1132.1
1032.81	1126.23
1033.099	1111.09
1033.387	1117.41
1033.675	1101.14
1033.963	1082.84
1034.251	1106.11
1034.54	1107.24
1034.828	1053.46
1035.116	1066.34
1035.403	1044.2
1035.691	1029.28
1035.979	1044.42
1036.267	1021.37
1036.554	1026.12
1036.842	1041.26
1037.129	1002.84
1037.417	994.93
1037.704	1007.36
1037.992	995.84
1038.279	959.9
1038.566	971.43
1038.853	971.43
1039.14	971.43
