Data from hue_36_FLMS001491_00022.txt Node
Date: Tue Feb 07 17:29:35 GMT 2017
User: dcchb
Spectrometer: FLMS00149
Trigger mode: 0
Integration Time (sec): 2.000000E-2
Scans to average: 10
Electric dark correction enabled: true
Nonlinearity correction enabled: false
Boxcar width: 0
XAxis mode: Wavelengths
Number of Pixels in Spectrum: 2048
>>>>>Begin Spectral Data<<<<<
341.393	13.73
341.776	13.73
342.16	13.73
342.543	-54.74
342.927	-87.74
343.31	-65.59
343.693	-83.44
344.077	-60.17
344.46	-53.61
344.843	-65.37
345.226	-46.83
345.61	-25.14
345.993	3.79
346.376	4.92
346.759	-0.06
347.142	26.61
347.525	31.58
347.908	70.45
348.291	72.71
348.674	91.47
349.057	98.7
349.44	132.14
349.823	142.54
350.206	142.09
350.588	192.25
350.971	196.55
351.354	213.5
351.737	234.74
352.119	250.78
352.502	258.24
352.884	270.22
353.267	273.16
353.65	290.56
354.032	282.65
354.414	308.86
354.797	313.16
355.179	322.19
355.562	323.1
355.944	330.56
356.326	322.42
356.709	339.14
357.091	333.04
357.473	340.73
357.855	338.47
358.238	353.61
358.62	352.25
359.002	344.57
359.384	354.74
359.766	319.71
360.148	327.39
360.53	358.13
360.912	356.77
361.294	309.99
361.676	333.49
362.057	339.82
362.439	328.07
362.821	331.46
363.203	324.68
363.584	330.33
363.966	318.13
364.348	297.79
364.729	318.13
365.111	321.29
365.493	319.48
365.874	306.83
366.256	327.17
366.637	319.48
367.019	325.36
367.4	319.03
367.781	319.94
368.163	321.97
368.544	316.55
368.925	307.73
369.306	314.29
369.688	296.43
370.069	314.06
370.45	307.28
370.831	302.53
371.212	310.9
371.593	287.85
371.974	307.51
372.355	333.95
372.736	313.16
373.117	315.64
373.498	314.74
373.879	288.07
374.26	297.56
374.641	318.35
375.021	309.31
375.402	317.45
375.783	323.32
376.163	340.5
376.544	314.51
376.925	319.94
377.305	317.9
377.686	320.16
378.066	322.19
378.447	311.57
378.827	331.23
379.208	333.49
379.588	329.65
379.968	337.79
380.349	336.88
380.729	330.56
381.109	333.72
381.489	341.86
381.87	334.4
382.25	347.5
382.63	332.82
383.01	320.16
383.39	346.83
383.77	332.82
384.15	363.1
384.53	340.05
384.91	339.37
385.29	336.21
385.67	357.67
386.049	354.28
386.429	372.59
386.809	341.86
387.189	354.74
387.568	349.99
387.948	352.7
388.328	355.19
388.707	351.57
389.087	351.35
389.466	359.03
389.846	380.27
390.225	346.15
390.605	391.8
390.984	359.03
391.363	363.32
391.743	364.23
392.122	370.33
392.501	354.96
392.881	368.07
393.26	344.34
393.639	350.22
394.018	383.89
394.397	360.84
394.776	397.22
395.155	389.31
395.534	371.23
395.913	374.85
396.292	381.63
396.671	383.44
397.05	381.4
397.429	364.45
397.808	384.11
398.186	380.95
398.565	376.88
398.944	380.05
399.323	385.24
399.701	373.49
400.08	388.41
400.458	398.8
400.837	365.13
401.215	380.95
401.594	385.02
401.972	388.18
402.351	385.24
402.729	414.85
403.107	402.87
403.486	420.95
403.864	412.81
404.242	404
404.62	397.45
404.999	374.4
405.377	410.33
405.755	396.54
406.133	396.77
406.511	409.2
406.889	403.55
407.267	435.86
407.645	433.83
408.023	411.23
408.401	438.35
408.779	434.51
409.156	407.16
409.534	422.98
409.912	431.12
410.29	448.97
410.667	432.47
411.045	446.71
411.422	431.12
411.8	456.65
412.178	444.68
412.555	427.95
412.933	439.03
413.31	468.86
413.687	460.27
414.065	466.15
414.442	451.46
414.819	468.63
415.197	467.73
415.574	486.71
415.951	488.97
416.328	459.37
416.705	448.29
417.082	471.8
417.46	467.05
417.837	500.95
418.214	479.03
418.591	488.52
418.967	486.03
419.344	499.82
419.721	501.63
420.098	519.7
420.475	504.79
420.852	480.16
421.228	531.68
421.605	507.5
421.982	509.76
422.358	520.83
422.735	514.73
423.111	520.16
423.488	528.74
423.864	557.89
424.241	531.23
424.617	527.84
424.994	501.85
425.37	526.71
425.746	519.93
426.123	540.04
426.499	533.94
426.875	541.4
427.251	562.41
427.627	565.13
428.003	578.23
428.379	593.37
428.756	565.13
429.132	582.98
429.507	573.04
429.883	585.92
430.259	606.03
430.635	608.06
431.011	576.88
431.387	600.38
431.763	618.23
432.138	625.46
432.514	626.82
432.89	635.18
433.265	619.81
433.641	621.17
434.016	655.75
434.392	648.97
434.767	650.1
435.143	658.46
435.518	655.29
435.894	673.15
436.269	670.21
436.644	669.76
437.02	690.77
437.395	664.33
437.77	657.33
438.145	684.9
438.52	696.2
438.895	715.4
439.271	671.79
439.646	710.43
440.021	722.18
440.395	730.32
440.77	712.24
441.145	712.24
441.52	741.62
441.895	729.42
442.27	735.74
442.645	748.85
443.019	745.01
443.394	731
443.769	756.76
444.143	749.98
444.518	773.93
444.892	763.09
445.267	768.06
445.641	776.65
446.016	741.17
446.39	763.99
446.764	771.9
447.139	775.06
447.513	793.82
447.887	786.82
448.262	782.52
448.636	809.41
449.01	794.27
449.384	812.35
449.758	788.4
450.132	825.01
450.506	821.84
450.88	828.62
451.254	825.23
451.628	815.29
452.002	863.2
452.376	825.91
452.75	847.15
453.123	845.35
453.497	860.71
453.871	854.84
454.244	901.61
454.618	919.92
454.992	932.8
455.365	921.28
455.739	922.63
456.112	950.65
456.486	957.21
456.859	935.51
457.232	939.58
457.606	999.01
457.979	985.68
458.352	992.23
458.725	986.81
459.099	999.92
459.472	1017.77
459.845	1033.59
460.218	1041.72
460.591	1026.81
460.964	1056.19
461.337	1081.5
461.71	1102.06
462.083	1088.95
462.456	1112.23
462.829	1096.64
463.201	1122.17
463.574	1140.25
463.947	1154.04
464.32	1164.21
464.692	1172.79
465.065	1192.68
465.438	1201.27
465.81	1191.78
466.183	1236.3
466.555	1253.24
466.928	1272.9
467.3	1276.29
467.672	1304.32
468.045	1321.49
468.417	1333.69
468.789	1343.41
469.161	1366.46
469.534	1367.37
469.906	1420.47
470.278	1420.92
470.65	1421.15
471.022	1478.1
471.394	1517.19
471.766	1535.5
472.138	1531.43
472.51	1585.21
472.882	1615.04
473.253	1632.44
473.625	1662.05
473.997	1662.5
474.369	1730.52
474.74	1776.39
475.112	1808.26
475.484	1855.71
475.855	1895.71
476.227	1897.29
476.598	1980.23
476.97	1987.24
477.341	2019.78
477.713	2106.55
478.084	2114.69
478.455	2200.56
478.827	2235.14
479.198	2295.48
479.569	2331.41
479.94	2400.11
480.311	2440.78
480.682	2546.32
481.053	2586.32
481.424	2662.47
481.795	2729.14
482.166	2814.11
482.537	2857.5
482.908	2953.31
483.279	2977.94
483.65	3074.44
484.021	3194.21
484.391	3261.55
484.762	3306.52
485.133	3352.62
485.503	3469.91
485.874	3607.98
486.244	3640.3
486.615	3712.61
486.985	3781.99
487.356	3919.16
487.726	3972.72
488.097	4117.12
488.467	4147.63
488.837	4299.94
489.207	4386.49
489.578	4445.48
489.948	4552.14
490.318	4638.69
490.688	4705.81
491.058	4885.46
491.428	4956.65
491.798	5010.21
492.168	5177.89
492.538	5275.29
492.908	5347.15
493.278	5415.85
493.648	5469.86
494.017	5654.26
494.387	5698.32
494.757	5744.65
495.126	5917.3
495.496	5980.13
495.866	6034.59
496.235	6123.62
496.605	6225.77
496.974	6326.33
497.344	6437.97
497.713	6480
498.082	6568.58
498.452	6714.57
498.821	6768.35
499.19	6872.08
499.559	6951.63
499.928	7015.8
500.298	7064.84
500.667	7171.05
501.036	7218.74
501.405	7337.6
501.774	7370.15
502.143	7442.01
502.512	7470.26
502.88	7608.11
503.249	7632.51
503.618	7718.61
503.987	7820.75
504.356	7862.79
504.724	7968.1
505.093	8009.22
505.462	8067.08
505.83	8176.9
506.199	8213.29
506.567	8334.41
506.936	8382.77
507.304	8489.66
507.672	8546.61
508.041	8612.6
508.409	8669.55
508.777	8799.71
509.145	8799.03
509.514	8830.9
509.882	8881.52
510.25	8986.15
510.618	9091.68
510.986	9070.44
511.354	9148.63
511.722	9308.63
512.09	9356.99
512.458	9362.86
512.826	9482.86
513.193	9493.71
513.561	9575.06
513.929	9635.17
514.297	9686.47
514.664	9728.5
515.032	9782.29
515.4	9878.1
515.767	9890.3
516.135	9968.04
516.502	9922.17
516.869	10187.47
517.237	10147.93
517.604	10105.67
517.972	10258.88
518.339	10317.19
518.706	10362.83
519.073	10356.51
519.44	10496.84
519.808	10506.11
520.175	10582.04
520.542	10705.88
520.909	10792.88
521.276	10836.72
521.643	10846.21
522.009	10892.09
522.376	11036.49
522.743	11005.3
523.11	11155.81
523.477	11320.1
523.843	11340.89
524.21	11412.3
524.577	11469.92
524.943	11549.47
525.31	11626.53
525.676	11683.03
526.043	11810.03
526.409	11820.2
526.776	11874.66
527.142	11954.66
527.508	12070.13
527.874	12114.2
528.241	12207.31
528.607	12267.64
528.973	12353.52
529.339	12323.24
529.705	12502.67
530.071	12554.19
530.437	12623.11
530.803	12715.32
531.169	12786.95
531.535	12780.62
531.901	12818.14
532.267	12887.29
532.632	13042.76
532.998	13012.93
533.364	13043.44
533.73	13189.2
534.095	13318.92
534.461	13297.22
534.826	13328.18
535.192	13408.18
535.557	13434.84
535.923	13446.6
536.288	13560.49
536.653	13592.58
537.019	13535.41
537.384	13702.18
537.749	13758
538.114	13811.78
538.479	13824.66
538.845	13937.2
539.21	13910.76
539.575	13936.75
539.94	13992.34
540.305	14159.35
540.67	14102.4
541.034	14144.88
541.399	14298.78
541.764	14329.28
542.129	14341.49
542.494	14393.24
542.858	14448.83
543.223	14473.24
543.587	14651.76
543.952	14625.77
544.316	14646.11
544.681	14732.89
545.045	14792.32
545.41	14835.26
545.774	14880.68
546.138	14988.02
546.503	14976.5
546.867	15007.01
547.231	15058.76
547.595	15171.3
547.959	15170.39
548.324	15205.65
548.688	15309.82
549.052	15326.09
549.416	15324.29
549.779	15407.22
550.143	15356.15
550.507	15525.19
550.871	15525.86
551.235	15541.23
551.599	15772.41
551.962	15767.66
552.326	15736.48
552.689	15952.97
553.053	15839.98
553.417	15917.27
553.78	16133.53
554.143	16043.14
554.507	16111.16
554.87	16090.37
555.234	16332.17
555.597	16249.69
555.96	16298.72
556.323	16537.59
556.686	16460.08
557.05	16572.16
557.413	16608.32
557.776	16547.31
558.139	16733.06
558.502	16730.35
558.865	16765.6
559.228	16948.2
559.59	16955.66
559.953	17016.22
560.316	17168.08
560.679	17156.55
561.041	17328.98
561.404	17380.96
561.767	17429.99
562.129	17428.64
562.492	17576.66
562.854	17466.15
563.217	17535.75
563.579	17616.2
563.941	17693.72
564.304	17792.47
564.666	17911.79
565.028	17918.79
565.39	17951.11
565.753	17949.98
566.115	17978.91
566.477	18210.76
566.839	18195.85
567.201	18396.07
567.563	18377.77
567.925	18468.16
568.287	18622.28
568.648	18582.05
569.01	18623.86
569.372	18886
569.734	18785.21
570.095	18947.24
570.457	19009.39
570.819	19055.49
571.18	19008.94
571.542	19249.61
571.903	19221.13
572.265	19325.76
572.626	19342.49
572.987	19440.11
573.349	19568.92
573.71	19545.19
574.071	19672.87
574.432	19781.57
574.794	20059.76
575.155	19950.38
575.516	20073.99
575.877	20151.28
576.238	20205.97
576.599	20461.1
576.96	20442.34
577.32	20496.58
577.681	20715.33
578.042	20824.71
578.403	20925.27
578.763	21019.28
579.124	21149.22
579.485	21319.61
579.845	21539.72
580.206	21479.83
580.566	21765.7
580.927	21913.94
581.287	22168.17
581.648	22125.46
582.008	22413.59
582.368	22478.45
582.728	22616.75
583.089	22786.91
583.449	22921.15
583.809	23242.27
584.169	23385.09
584.529	23447.91
584.889	23834.12
585.249	23835.93
585.609	23992.98
585.969	24234.11
586.329	24458.51
586.688	24665.96
587.048	24853.3
587.408	25013.07
587.768	25237.7
588.127	25461.42
588.487	25597.69
588.846	26111.57
589.206	26042.42
589.565	26227.28
589.925	26603.99
590.284	26717.43
590.643	27076.97
591.003	27225.22
591.362	27634.47
591.721	27641.93
592.08	27838.31
592.44	28133.89
592.799	28385.64
593.158	28481.45
593.517	28680.09
593.876	28946.3
594.235	29111.04
594.593	29372.5
594.952	29636
595.311	29730.46
595.67	29952.83
596.029	30448.86
596.387	30516.66
596.746	30767.04
597.104	30826.7
597.463	31118.9
597.822	31335.62
598.18	31545.78
598.538	31504.88
598.897	31990.51
599.255	31903.51
599.613	32471.18
599.972	32472.31
600.33	32685.41
600.688	32731.29
601.046	33063.25
601.404	33362.23
601.762	33467.54
602.12	33803.57
602.478	33796.79
602.836	34011.48
603.194	34055.55
603.552	34232.04
603.91	34339.83
604.268	34697.79
604.625	34854.62
604.983	34938.46
605.341	34970.32
605.698	35284.21
606.056	35563.98
606.413	35559.91
606.771	35852.33
607.128	35878.32
607.485	35885.78
607.843	35938.21
608.2	36297.07
608.557	36554.46
608.914	36452.77
609.272	36871.74
609.629	36908.58
609.986	37126.88
610.343	37134.33
610.7	37524.38
611.057	37544.27
611.414	37559.41
611.771	37725.96
612.127	37800.31
612.484	37972.28
612.841	38179.73
613.198	38183.12
613.554	38273.74
613.911	38503.11
614.267	38627.18
614.624	38664.01
614.98	38745.14
615.337	39156.65
615.693	39052.7
616.05	38954.85
616.406	39368.4
616.762	39338.12
617.118	39423.09
617.475	39489.53
617.831	39734.04
618.187	39790.76
618.543	39856.97
618.899	39921.61
619.255	40098.78
619.611	40092.22
619.967	40331.54
620.323	40380.35
620.678	40332.67
621.034	40362.95
621.39	40358.43
621.746	40387.13
622.101	40838.64
622.457	40629.84
622.812	40808.36
623.168	40829.6
623.523	40908.92
623.879	41096.04
624.234	40835.03
624.589	41078.64
624.945	41143.95
625.3	41278.63
625.655	41163.38
626.01	41238.63
626.365	41458.51
626.72	41285.86
627.075	41345.75
627.43	41297.39
627.785	41280.44
628.14	41429.59
628.495	41516.82
628.85	41437.5
629.205	41257.62
629.559	41615.57
629.914	41393.66
630.269	41397.27
630.623	41390.27
630.978	41502.36
631.332	41645.85
631.687	41728.56
632.041	41521.34
632.396	41582.13
632.75	41319.31
633.104	41579.42
633.459	41399.98
633.813	41547.33
634.167	41480.66
634.521	41449.48
634.875	41464.39
635.229	41509.81
635.583	41350.04
635.937	41461.9
636.291	41505.74
636.645	41445.18
636.999	41394.11
637.352	41511.62
637.706	41201.35
638.06	41437.27
638.413	41379.19
638.767	41449.25
639.121	41298.97
639.474	41155.92
639.828	41195.47
640.181	41192.76
640.534	41214.68
640.888	41143.27
641.241	41012.42
641.594	41083.16
641.947	41246.32
642.301	41104.4
642.654	41112.99
643.007	41201.57
643.36	41063.5
643.713	41046.55
644.066	41195.47
644.419	40983.72
644.771	40685.65
645.124	40369.73
645.477	40205.44
645.83	40059
646.182	39921.83
646.535	39916.63
646.888	39835.51
647.24	39628.05
647.593	39984.43
647.945	39804.32
648.298	39614.95
648.65	39561.84
649.002	39661.05
649.355	39733.36
649.707	39734.27
650.059	39763.42
650.411	40274.36
650.763	40400.46
651.115	40698.99
651.467	40618.76
651.819	40522.72
652.171	40364.08
652.523	40455.38
652.875	40386.9
653.227	40327.24
653.578	40583.74
653.93	40442.04
654.282	40351.65
654.633	40234.37
654.985	40281.6
655.337	40277.53
655.688	40237.3
656.039	40389.62
656.391	40011.32
656.742	40201.15
657.094	40134.71
657.445	40247.92
657.796	40242.05
658.147	40142.84
658.498	40088.61
658.849	40185.78
659.2	40265.33
659.551	40126.8
659.902	40269.85
660.253	40075.73
660.604	40229.85
660.955	40068.49
661.306	40195.72
661.656	40076.86
662.007	40057.87
662.358	39945.79
662.708	40140.58
663.059	40022.62
663.409	39788.73
663.76	40125.22
664.11	40115.72
664.461	40112.11
664.811	40125.22
665.161	40044.99
665.511	39903.98
665.862	39968.84
666.212	40008.84
666.562	39939.23
666.912	39954.37
667.262	39894.04
667.612	39852.23
667.962	39934.71
668.312	39844.09
668.662	40109.62
669.011	39960.93
669.361	39828.95
669.711	39876.86
670.06	39839.57
670.41	39651.1
670.76	39662.86
671.109	39917.54
671.459	39675.51
671.808	39745.11
672.157	39806.35
672.507	39450.43
672.856	39628.28
673.205	39557.77
673.554	39727.03
673.904	39655.62
674.253	39892
674.602	39645.23
674.951	39069.42
675.3	38917.34
675.649	39474.61
675.998	39493.14
676.346	39598.45
676.695	39591.9
677.044	39284.33
677.393	39535.4
677.741	39536.53
678.09	39301.06
678.438	39288.85
678.787	39479.58
679.135	39431.9
679.484	39184.22
679.832	39327.5
680.181	39144.9
680.529	39148.29
680.877	39097.45
681.225	38965.02
681.573	39277.55
681.922	38925.02
682.27	38880.05
682.618	38846.61
682.966	38809.77
683.314	38852.71
683.661	38806.15
684.009	38640.96
684.357	38543.56
684.705	38540.17
685.053	38549.44
685.4	38465.82
685.748	38345.83
686.095	38270.58
686.443	38121.65
686.79	38133.63
687.138	38252.5
687.485	38198.26
687.832	37955.33
688.18	38044.14
688.527	37769.57
688.874	37886.18
689.221	37767.76
689.568	37785.16
689.915	37640.76
690.262	37627.43
690.609	37585.62
690.956	37404.16
691.303	37274.44
691.65	37203.49
691.997	37197.38
692.344	36955.36
692.69	36991.06
693.037	37100.21
693.383	36551.52
693.73	36801.91
694.077	36451.41
694.423	36664.74
694.769	36451.64
695.116	36297.75
695.462	36339.78
695.808	36336.84
696.155	36266.56
696.501	36036.28
696.847	36079.9
697.193	35780.7
697.539	35993.8
697.885	35700.7
698.231	35631.55
698.577	35545.22
698.923	35462.29
699.269	35296.64
699.614	35253.71
699.96	35086.7
700.306	35196.53
700.651	34928.06
700.997	34956.31
701.342	34943.21
701.688	34873.15
702.033	34632.25
702.379	34744.11
702.724	34590.45
703.069	34727.84
703.415	34234.3
703.76	34272.71
704.105	34269.32
704.45	34124.7
704.795	34039.95
705.14	33805.83
705.485	33950.92
705.83	33733.52
706.175	33791.6
706.52	33644.26
706.865	33648.55
707.209	33539.63
707.554	33426.64
707.899	33474.32
708.243	33244.72
708.588	33322.91
708.932	32949.13
709.277	33026.42
709.621	33079.07
709.966	32817.61
710.31	32942.35
710.654	32653.1
710.998	32711.17
711.342	32609.93
711.687	32487.68
712.031	32439.77
712.375	32293.56
712.719	32394.57
713.063	32398.19
713.407	32347.34
713.75	32212.43
714.094	32080.91
714.438	32089.27
714.782	32161.81
715.125	31872.55
715.469	31946.67
715.812	31773.57
716.156	31604.08
716.499	31631.43
716.843	31700.58
717.186	31595.5
717.53	31777.87
717.873	31538.32
718.216	31496.97
718.559	31366.35
718.902	31219.46
719.246	31185.79
719.589	31247.03
719.932	31163.19
720.275	31021.73
720.617	31160.03
720.96	30975.17
721.303	30929.53
721.646	30918.68
721.989	30794.84
722.331	30890.66
722.674	30811.56
723.016	30907.15
723.359	30627.16
723.701	30798.46
724.044	30428.07
724.386	30386.04
724.729	30531.34
725.071	30413.83
725.413	30554.85
725.755	30419.26
726.097	30225.14
726.439	30071.47
726.782	30175.87
727.124	30139.49
727.465	30033.05
727.807	30046.39
728.149	29930.91
728.491	29925.71
728.833	29918.93
729.175	29811.82
729.516	29647.3
729.858	29642.33
730.199	29691.59
730.541	29542.67
730.882	29541.99
731.224	29587.64
731.565	29558.26
731.906	29487.53
732.248	29482.33
732.589	29367.76
732.93	29229.01
733.271	29214.77
733.612	29326.63
733.953	29305.84
734.294	29178.84
734.635	29208.22
734.976	29235.56
735.317	29028.33
735.658	28967.32
735.999	29045.06
736.339	28881.22
736.68	28989.92
737.021	28879.41
737.361	28793.99
737.702	28985.17
738.042	28796.02
738.383	28640.32
738.723	28782.24
739.063	28609.36
739.404	28757.15
739.744	28583.37
740.084	28437.16
740.424	28476.71
740.764	28506.09
741.104	28556.71
741.444	28387.67
741.784	28245.08
742.124	28365.53
742.464	28333.66
742.804	28248.47
743.143	28092.54
743.483	28114.46
743.823	27958.08
744.162	27924.41
744.502	28114.91
744.841	27897.29
745.181	27901.58
745.52	27902.03
745.86	27883.28
746.199	27816.84
746.538	27783.85
746.877	27775.94
747.216	27737.75
747.556	27655.49
747.895	27691.42
748.234	27529.84
748.573	27524.64
748.911	27415.95
749.25	27484.42
749.589	27366.68
749.928	27407.13
750.267	27328.49
750.605	27284.42
750.944	27212.56
751.283	27134.6
751.621	27142.05
751.96	27053.02
752.298	26966.92
752.636	27056.41
752.975	26860.03
753.313	26782.29
753.651	26905.45
753.989	26767.6
754.327	26778
754.666	26512.47
755.004	26664.33
755.342	26694.16
755.679	26493.94
756.017	26338.69
756.355	26526.25
756.693	26308.86
757.031	26332.36
757.368	26212.14
757.706	26304.11
758.044	26037.45
758.381	26084.68
758.719	26001.75
759.056	26009.88
759.394	25837.23
759.731	25819.15
760.068	25779.6
760.405	25580.51
760.743	25563.57
761.08	25553.4
761.417	25373.29
761.754	25388.65
762.091	25413.51
762.428	25203.35
762.765	25068.21
763.102	25247.87
763.438	25017.14
763.775	24835.9
764.112	24961.1
764.449	25073.86
764.785	24760.65
765.122	24589.13
765.458	24517.26
765.795	24475.91
766.131	24503.93
766.467	24381.45
766.804	24201.79
767.14	24256.71
767.476	24251.51
767.812	24206.99
768.148	24057.16
768.485	23921.12
768.821	23800.45
769.157	23707.12
769.492	23723.16
769.828	23703.5
770.164	23510.06
770.5	23483.62
770.836	23446.78
771.171	23256.51
771.507	23293.79
771.842	23127.47
772.178	23079.56
772.513	23004.76
772.849	22987.36
773.184	22857.87
773.519	22892.45
773.855	22659.23
774.19	22528.16
774.525	22386.47
774.86	22521.84
775.195	22355.51
775.53	22166.14
775.865	22273.48
776.2	22094.73
776.535	21934.28
776.87	21881.18
777.205	21833.04
777.539	21813.83
777.874	21859.48
778.209	21611.8
778.543	21504.24
778.878	21350.57
779.212	21383.34
779.547	21305.6
779.881	21340.85
780.215	21165.26
780.55	21079.16
780.884	21019.05
781.218	20974.99
781.552	20975.21
781.886	20856.34
782.22	20756.69
782.554	20509.46
782.888	20431.04
783.222	20330.26
783.556	20351.27
783.889	20198.96
784.223	20076.93
784.557	19976.14
784.89	20116.93
785.224	19955.35
785.557	19903.15
785.891	19900.21
786.224	19877.16
786.558	19759.42
786.891	19671.29
787.224	19558.75
787.557	19453.9
787.891	19488.47
788.224	19446.89
788.557	19428.36
788.89	19290.51
789.223	19401.24
789.556	19155.82
789.888	19153.79
790.221	19014.81
790.554	18914.25
790.887	18986.34
791.219	18937.75
791.552	18822.5
791.884	18686.68
792.217	18704.08
792.549	18565.56
792.882	18481.72
793.214	18347.94
793.546	18406.92
793.879	18336.86
794.211	18116.53
794.543	18248.05
794.875	18118.11
795.207	18137.77
795.539	18046.47
795.871	18025.23
796.203	17968.51
796.535	17710.44
796.867	17703.66
797.198	17696.65
797.53	17730.78
797.862	17619.37
798.193	17614.4
798.525	17513.16
798.856	17479.48
799.188	17345.25
799.519	17226.38
799.85	17218.47
800.182	17121.75
800.513	17187.51
800.844	17106.16
801.175	17119.95
801.506	17074.97
801.837	16981.19
802.168	16989.1
802.499	16969.21
802.83	16776.68
803.161	16762.89
803.491	16832.5
803.822	16648.55
804.153	16618.72
804.483	16492.62
804.814	16409.68
805.145	16480.87
805.475	16431.38
805.805	16391.38
806.136	16332.62
806.466	16347.08
806.796	16228.67
807.126	16169.01
807.457	16163.59
807.787	16175.11
808.117	15989.13
808.447	15927.89
808.777	15955
809.107	15930.82
809.436	15761.34
809.766	15871.39
810.096	15802.92
810.426	15700.77
810.755	15658.29
811.085	15722.02
811.414	15625.07
811.744	15493.1
812.073	15482.47
812.403	15541
812.732	15418.75
813.061	15448.58
813.39	15369.26
813.719	15340.56
814.049	15268.02
814.378	15270.73
814.707	15238.19
815.036	15151.18
815.365	15124.74
815.693	14941.92
816.022	15019.44
816.351	14948.03
816.68	14907.57
817.008	14988.25
817.337	14881.59
817.665	14692.66
817.994	14746.67
818.322	14730.63
818.651	14680.69
818.979	14668.48
819.307	14664.64
819.636	14638.43
819.964	14553.23
820.292	14604.53
820.62	14595.04
820.948	14483.4
821.276	14587.58
821.604	14436.4
821.932	14545.1
822.259	14507.13
822.587	14475.72
822.915	14466
823.243	14587.13
823.57	14430.52
823.898	14402.95
824.225	14427.81
824.553	14445.44
824.88	14322.73
825.207	14453.8
825.535	14394.82
825.862	14416.74
826.189	14412.9
826.516	14467.59
826.843	14452.9
827.17	14438.66
827.497	14473.01
827.824	14444.54
828.151	14531.54
828.478	14444.76
828.805	14498.77
829.131	14392.79
829.458	14332.9
829.785	14332.9
830.111	14361.83
830.438	14435.5
830.764	14451.31
831.09	14423.52
831.417	14314.14
831.743	14335.61
832.069	14371.09
832.395	14273.47
832.722	14350.98
833.048	14285.44
833.374	14226.91
833.7	14286.35
834.026	14237.08
834.351	14261.49
834.677	14225.78
835.003	14280.25
835.329	14252.22
835.654	14258.55
835.98	14098.33
836.306	14215.84
836.631	14121.61
836.956	14242.51
837.282	14175.39
837.607	14101.04
837.932	13992.12
838.258	14017.65
838.583	14062.4
838.908	13931.55
839.233	14029.63
839.558	13916.64
839.883	13902.63
840.208	13827.83
840.533	13894.49
840.858	13758
841.182	13861.05
841.507	13751.9
841.832	13668.96
842.156	13707.15
842.481	13671.9
842.805	13678.23
843.13	13675.52
843.454	13620.83
843.778	13510.32
844.103	13536.08
844.427	13451.79
844.751	13407.5
845.075	13437.1
845.399	13406.37
845.723	13285.02
846.047	13351.23
846.371	13250.22
846.695	13191.01
847.019	13140.61
847.343	13063.1
847.666	13005.48
847.99	12957.57
848.313	12950.56
848.637	12792.38
848.96	12872.15
849.284	12815.88
849.607	12727.52
849.931	12632.83
850.254	12520.97
850.577	12546.28
850.9	12390.58
851.223	12463.34
851.546	12404.36
851.869	12345.83
852.192	12356
852.515	12205.72
852.838	12087.54
853.161	12220.41
853.483	12220.64
853.806	12101.55
854.129	12093.41
854.451	11957.82
854.774	11952.17
855.096	11841.67
855.419	11873.76
855.741	11866.3
856.063	11713.31
856.385	11800.54
856.708	11744.72
857.03	11640.32
857.352	11755.11
857.674	11611.16
857.996	11516.25
858.318	11540.88
858.64	11522.58
858.961	11489.13
859.283	11463.14
859.605	11406.65
859.926	11388.12
860.248	11410.04
860.57	11327.78
860.891	11324.17
861.212	11241.46
861.534	11257.5
861.855	11152.64
862.176	11289.82
862.498	11189.93
862.819	11159.2
863.14	11168.24
863.461	11076.94
863.782	11050.73
864.103	11036.49
864.424	11055.02
864.745	11117.39
865.065	11063.16
865.386	10987.45
865.707	10944.51
866.027	10949.49
866.348	10907.91
866.668	10877.85
866.989	10975.93
867.309	10805.99
867.63	10890.96
867.95	10890.5
868.27	10758.3
868.59	10789.72
868.91	10834.01
869.23	10766.89
869.55	10677.18
869.87	10747.23
870.19	10702.71
870.51	10721.7
870.83	10709.49
871.15	10627.01
871.469	10691.19
871.789	10671.75
872.109	10666.1
872.428	10512.66
872.748	10556.05
873.067	10487.35
873.386	10597.86
873.706	10538.42
874.025	10476.96
874.344	10421.36
874.663	10441.93
874.982	10420.69
875.301	10339.56
875.62	10290.52
875.939	10352.89
876.258	10358.32
876.577	10316.28
876.896	10334.81
877.214	10187.47
877.533	10294.81
877.852	10263.18
878.17	10246
878.489	10321.03
878.807	10259.56
879.125	10166
879.444	10143.63
879.762	10152.22
880.08	10143.41
880.398	10126.68
880.716	10056.85
881.034	10101.15
881.352	10101.37
881.67	10039.45
881.988	9982.51
882.306	10017.53
882.624	9946.57
882.941	9953.81
883.259	9879.91
883.577	9877.88
883.894	9865.67
884.212	9827.71
884.529	9901.15
884.846	9857.76
885.164	9774.6
885.481	9785.22
885.798	9844.43
886.115	9694.83
886.432	9695.51
886.75	9700.93
887.067	9732.34
887.383	9601.05
887.7	9659.12
888.017	9593.82
888.334	9627.04
888.651	9529.18
888.967	9474.5
889.284	9484.89
889.6	9463.2
889.917	9375.97
890.233	9398.57
890.55	9434.95
890.866	9385.23
891.182	9379.58
891.498	9345.69
891.815	9275.18
892.131	9263.43
892.447	9220.94
892.763	9229.08
893.079	9189.31
893.395	9147.27
893.71	9124.22
894.026	9100.5
894.342	9111.79
894.657	8980.05
894.973	9022.08
895.289	8915.42
895.604	8995.87
895.92	8948.63
896.235	8905.47
896.55	8878.13
896.865	8845.13
897.181	8758.36
897.496	8872.93
897.811	8787.51
898.126	8709.55
898.441	8736.89
898.756	8749.54
899.071	8646.27
899.386	8648.08
899.7	8573.05
900.015	8499.38
900.33	8443.34
900.644	8477.69
900.959	8448.08
901.273	8417.35
901.588	8369.21
901.902	8382.1
902.216	8299.39
902.531	8314.53
902.845	8278.6
903.159	8224.13
903.473	8189.11
903.787	8155.44
904.101	8128.09
904.415	8126.28
904.729	8091.03
905.042	8044.7
905.356	8072.73
905.67	8021.2
905.984	8052.39
906.297	7958.15
906.611	7870.02
906.924	7893.3
907.237	7867.99
907.551	7866.18
907.864	7851.04
908.177	7781.43
908.491	7722.9
908.804	7658.27
909.117	7711.61
909.43	7650.59
909.743	7637.93
910.056	7615.11
910.368	7541.44
910.681	7534.21
910.994	7460.54
911.307	7475.68
911.619	7431.16
911.932	7417.6
912.244	7370.15
912.557	7332.18
912.869	7339.64
913.181	7293.76
913.494	7282.01
913.806	7226.19
914.118	7190.71
914.43	7141.45
914.742	7164.05
915.054	7075.92
915.366	7106.88
915.678	7024.84
915.99	7035.24
916.302	6917.95
916.613	6910.72
916.925	6921.8
917.236	6914.56
917.548	6843.15
917.859	6877.28
918.171	6798.41
918.482	6794.57
918.794	6771.97
919.105	6727
919.416	6713.21
919.727	6682.25
920.038	6648.13
920.349	6586.21
920.66	6545.08
920.971	6558.64
921.282	6505.31
921.593	6469.83
921.903	6445.65
922.214	6438.64
922.525	6382.83
922.835	6381.47
923.146	6346.22
923.456	6342.38
923.767	6302.83
924.077	6279.1
924.387	6245.65
924.697	6197.75
925.008	6236.84
925.318	6262.83
925.628	6205.2
925.938	6180.35
926.248	6086.34
926.558	6075.26
926.867	6013.34
927.177	6047.02
927.487	5991.65
927.796	5940.35
928.106	5938.54
928.416	5945.1
928.725	5936.28
929.034	5832.11
929.344	5873.24
929.653	5801.6
929.962	5782.84
930.271	5777.42
930.581	5690.42
930.89	5739
931.199	5652
931.508	5720.92
931.817	5675.27
932.125	5623.52
932.434	5590.3
932.743	5567.03
933.051	5497.65
933.36	5532.91
933.669	5481.38
933.977	5465.79
934.286	5475.73
934.594	5410.42
934.902	5451.78
935.21	5346.92
935.519	5397.54
935.827	5370.65
936.135	5305.34
936.443	5281.84
936.751	5275.96
937.059	5279.13
937.367	5204.1
937.674	5219.02
937.982	5221.05
938.29	5154.16
938.597	5201.84
938.905	5096.53
939.213	5087.95
939.52	5072.8
939.827	5123.88
940.135	5022.86
940.442	4991.9
940.749	4976.08
941.056	5035.74
941.363	4895.86
941.67	4898.57
941.977	4903.09
942.284	4882.53
942.591	4865.35
942.898	4819.93
943.205	4827.16
943.511	4802.53
943.818	4784.22
944.125	4711.91
944.431	4694.28
944.738	4691.35
945.044	4718.01
945.35	4688.41
945.657	4647.5
945.963	4657.9
946.269	4554.4
946.575	4580.16
946.881	4600.73
947.187	4513.5
947.493	4545.13
947.799	4540.39
948.105	4516.89
948.41	4432.82
948.716	4461.3
949.022	4466.72
949.327	4449.54
949.633	4379.26
949.938	4360.51
950.244	4351.24
950.549	4338.59
950.854	4308.3
951.16	4312.6
951.465	4276.44
951.77	4256.55
952.075	4268.08
952.38	4235.99
952.685	4222.43
952.99	4145.82
953.294	4218.82
953.599	4164.81
953.904	4139.04
954.209	4073.96
954.513	4094.3
954.818	4089.33
955.122	4071.7
955.426	4042.55
955.731	4032.61
956.035	3992.38
956.339	3991.25
956.643	3996
956.948	3922.55
957.252	3924.59
957.556	3956.45
957.86	3922.55
958.163	3927.52
958.467	3890.01
958.771	3872.84
959.075	3852.05
959.378	3856.11
959.682	3841.2
959.985	3827.41
960.289	3774.31
960.592	3760.97
960.896	3754.87
961.199	3708.09
961.502	3698.15
961.805	3704.48
962.108	3684.37
962.411	3656.34
962.714	3658.6
963.017	3603.92
963.32	3659.73
963.623	3647.76
963.926	3603.92
964.228	3588.55
964.531	3526.4
964.833	3577.7
965.136	3529.12
965.438	3499.29
965.741	3497.93
966.043	3486.63
966.345	3491.6
966.648	3447.99
966.95	3425.62
967.252	3389.68
967.554	3420.42
967.856	3414.09
968.158	3359.18
968.46	3355.79
968.761	3397.82
969.063	3345.84
969.365	3316.01
969.666	3332.96
969.968	3281.67
970.269	3299.07
970.571	3254.77
970.872	3241.44
971.174	3241.44
971.475	3206.41
971.776	3208.9
972.077	3186.53
972.378	3179.52
972.679	3207.77
972.98	3176.13
973.281	3170.93
973.582	3157.15
973.883	3107.66
974.183	3138.17
974.484	3088.22
974.785	3032.63
975.085	3061.33
975.386	3061.33
975.686	3026.3
975.986	3021.56
976.287	2964.84
976.587	2955.12
976.887	2978.85
977.187	2975.01
977.487	2944.27
977.787	2917.83
978.087	2941.56
978.387	2934.78
978.687	2894.78
978.987	2889.81
979.286	2861.34
979.586	2884.16
979.885	2840.77
980.185	2826.31
980.484	2822.92
980.784	2804.39
981.083	2814.33
981.382	2829.93
981.682	2768.91
981.981	2757.39
982.28	2776.14
982.579	2711.06
982.878	2724.39
983.177	2729.36
983.475	2735.69
983.774	2684.62
984.073	2653.21
984.372	2643.72
984.67	2666.77
984.969	2641
985.267	2651.4
985.566	2632.19
985.864	2601.46
986.162	2601.01
986.461	2562.14
986.759	2554.45
987.057	2542.25
987.355	2528.69
987.653	2499.31
987.951	2533.66
988.249	2529.59
988.547	2519.43
988.844	2509.03
989.142	2497.28
989.44	2439.88
989.737	2459.54
990.035	2421.57
990.332	2434
990.63	2422.03
990.927	2399.43
991.224	2394.46
991.521	2356.27
991.819	2371.63
992.116	2369.6
992.413	2352.42
992.71	2352.88
993.006	2374.8
993.303	2357.62
993.6	2286.21
993.897	2274.01
994.193	2250.05
994.49	2303.39
994.787	2287.57
995.083	2276.95
995.379	2270.17
995.676	2276.04
995.972	2223.39
996.268	2206.89
996.565	2192.88
996.861	2209.83
997.157	2201.69
997.453	2184.97
997.749	2194.24
998.044	2139.55
998.34	2160.34
998.636	2152.43
998.932	2155.37
999.227	2102.49
999.523	2100.68
999.818	2085.31
1000.114	2080.79
1000.409	2072.88
1000.704	2044.86
1001	2090.96
1001.295	2046.67
1001.59	2016.61
1001.885	2048.25
1002.18	1984.07
1002.475	2021.13
1002.77	1988.82
1003.065	1972.55
1003.359	2014.13
1003.654	1951.98
1003.949	1923.06
1004.243	1935.71
1004.538	1933.45
1004.832	1901.36
1005.127	1895.49
1005.421	1878.54
1005.715	1906.11
1006.009	1881.02
1006.304	1847.8
1006.598	1818.88
1006.892	1853.45
1007.186	1867.01
1007.48	1842.61
1007.773	1815.26
1008.067	1833.57
1008.361	1789.73
1008.655	1764.42
1008.948	1787.69
1009.242	1774.36
1009.535	1746.34
1009.829	1773.91
1010.122	1734.14
1010.415	1724.64
1010.708	1704.76
1011.001	1686
1011.295	1678.32
1011.588	1699.11
1011.881	1680.8
1012.173	1657.3
1012.466	1630.41
1012.759	1638.54
1013.052	1606
1013.344	1596.96
1013.637	1605.78
1013.93	1613.46
1014.222	1580.47
1014.514	1577.53
1014.807	1551.32
1015.099	1575.5
1015.391	1536.17
1015.683	1544.99
1015.976	1535.95
1016.268	1516.29
1016.56	1514.25
1016.851	1509.28
1017.143	1495.27
1017.435	1490.98
1017.727	1491.43
1018.018	1475.61
1018.31	1486.91
1018.602	1451.2
1018.893	1453.69
1019.185	1464.31
1019.476	1439.91
1019.767	1422.05
1020.058	1438.55
1020.35	1407.36
1020.641	1386.57
1020.932	1396.97
1021.223	1357.2
1021.514	1358.33
1021.804	1341.83
1022.095	1342.06
1022.386	1354.03
1022.677	1304.99
1022.967	1330.3
1023.258	1300.93
1023.548	1292.56
1023.839	1319.23
1024.129	1290.76
1024.419	1300.7
1024.709	1257.99
1025	1260.25
1025.29	1253.24
1025.58	1245.33
1025.87	1224.54
1026.16	1232.23
1026.449	1223.64
1026.739	1201.95
1027.029	1210.31
1027.319	1195.17
1027.608	1197.43
1027.898	1194.94
1028.187	1177.09
1028.477	1175.96
1028.766	1194.04
1029.055	1136.64
1029.344	1164.88
1029.634	1141.61
1029.923	1147.03
1030.212	1128.95
1030.501	1102.74
1030.79	1129.18
1031.078	1103.19
1031.367	1108.16
1031.656	1097.09
1031.945	1087.6
1032.233	1103.87
1032.522	1055.28
1032.81	1065
1033.099	1057.77
1033.387	1068.84
1033.675	1033.81
1033.963	1053.7
1034.251	1043.76
1034.54	1020.26
1034.828	1019.58
1035.116	1023.87
1035.403	1019.58
1035.691	1009.18
1035.979	1006.24
1036.267	973.7
1036.554	979.35
1036.842	959.24
1037.129	964.44
1037.417	947.49
1037.704	942.52
1037.992	926.25
1038.279	937.77
1038.566	939.13
1038.853	939.13
1039.14	939.13
