Data from hue_28_FLMS001491_00015.txt Node
Date: Tue Feb 07 17:16:55 GMT 2017
User: dcchb
Spectrometer: FLMS00149
Trigger mode: 0
Integration Time (sec): 2.000000E-2
Scans to average: 10
Electric dark correction enabled: true
Nonlinearity correction enabled: false
Boxcar width: 0
XAxis mode: Wavelengths
Number of Pixels in Spectrum: 2048
>>>>>Begin Spectral Data<<<<<
341.393	-8.94
341.776	-8.94
342.16	-8.94
342.543	-67.47
342.927	-61.37
343.31	-69.73
343.693	-58.43
344.077	-66.79
344.46	-63.63
344.843	-46.23
345.226	-54.81
345.61	-32.22
345.993	-5.78
346.376	-15.04
346.759	-1.93
347.142	7.78
347.525	46.88
347.908	64.73
348.291	80.1
348.674	90.49
349.057	124.62
349.44	134.78
349.823	151.28
350.206	155.58
350.588	177.72
350.971	220.88
351.354	238.51
351.737	235.8
352.119	273.54
352.502	269.92
352.884	269.24
353.267	287.1
353.65	284.16
354.032	315.8
354.414	307.66
354.797	310.15
355.179	312.41
355.562	328.68
355.944	335.46
356.326	320.77
356.709	337.72
357.091	344.72
357.473	356.47
357.855	342.69
358.238	350.15
358.62	343.82
359.002	352.63
359.384	354.44
359.766	362.35
360.148	335.23
360.53	350.6
360.912	322.58
361.294	340.88
361.676	349.92
362.057	338.4
362.439	322.8
362.821	334.33
363.203	319.86
363.584	325.74
363.966	316.7
364.348	339.52
364.729	328.45
365.111	320.54
365.493	318.51
365.874	304.72
366.256	286.65
366.637	309.24
367.019	328.68
367.4	315.12
367.781	331.62
368.163	324.16
368.544	322.12
368.925	309.47
369.306	327.32
369.688	331.62
370.069	335.23
370.45	298.4
370.831	313.31
371.212	294.55
371.593	312.41
371.974	294.55
372.355	316.47
372.736	314.89
373.117	311.05
373.498	341.56
373.879	323.03
374.26	334.78
374.641	331.84
375.021	311.28
375.402	327.77
375.783	312.41
376.163	332.97
376.544	320.99
376.925	320.77
377.305	314.67
377.686	330.94
378.066	343.59
378.447	342.24
378.827	345.4
379.208	322.58
379.588	346.3
379.968	327.32
380.349	333.88
380.729	332.52
381.109	353.31
381.489	337.04
381.87	326.19
382.25	343.14
382.63	356.02
383.01	345.17
383.39	342.69
383.77	328.9
384.15	339.98
384.53	357.6
384.91	346.3
385.29	352.41
385.67	342.01
386.049	344.04
386.429	344.72
386.809	335.01
387.189	359.86
387.568	338.4
387.948	362.58
388.328	366.19
388.707	368.9
389.087	362.35
389.466	339.3
389.846	368.45
390.225	368
390.605	348.34
390.984	363.03
391.363	355.8
391.743	364.38
392.122	384.72
392.501	367.77
392.881	365.29
393.26	375.91
393.639	378.62
394.018	365.06
394.397	351.28
394.776	371.16
395.155	367.77
395.534	366.64
395.913	365.74
396.292	403.25
396.671	392.4
397.05	395.34
397.429	386.3
397.808	393.08
398.186	375.23
398.565	380.88
398.944	375.23
399.323	386.98
399.701	392.4
400.08	401.67
400.458	399.64
400.837	387.21
401.215	381.11
401.594	409.81
401.972	386.08
402.351	408.45
402.729	426.98
403.107	409.81
403.486	409.13
403.864	432.18
404.242	406.87
404.62	427.88
404.999	437.15
405.377	436.02
405.755	413.87
406.133	420.65
406.511	407.09
406.889	424.49
407.267	439.64
407.645	437.6
408.023	406.19
408.401	407.09
408.779	434.44
409.156	428.79
409.534	436.02
409.912	438.73
410.29	436.47
410.667	450.48
411.045	446.19
411.422	446.87
411.8	440.54
412.178	443.25
412.555	469.01
412.933	453.65
413.31	478.28
413.687	471.72
414.065	478.73
414.442	476.24
414.819	470.14
415.197	495.23
415.574	461.1
415.951	475.79
416.328	471.72
416.705	493.19
417.082	500.88
417.46	498.16
417.837	488.67
418.214	485.74
418.591	504.49
418.967	495
419.344	488
419.721	512.63
420.098	492.74
420.475	507.88
420.852	488.22
421.228	529.35
421.605	528.67
421.982	552.4
422.358	525.51
422.735	539.07
423.111	535.45
423.488	547.2
423.864	548.11
424.241	535.45
424.617	546.53
424.994	538.84
425.37	571.16
425.746	578.39
426.123	565.06
426.499	562.57
426.875	554.66
427.251	560.08
427.627	553.3
428.003	600.76
428.379	555.56
428.756	574.55
429.132	582.68
429.507	608.9
429.883	588.56
430.259	595.34
430.635	564.83
431.011	630.14
431.387	609.12
431.763	606.18
432.138	629.69
432.514	612.06
432.89	623.13
433.265	625.85
433.641	658.16
434.016	655.67
434.392	662.23
434.767	664.94
435.143	661.55
435.518	661.32
435.894	662.45
436.269	682.57
436.644	705.62
437.02	688.44
437.395	682.11
437.77	697.93
438.145	702.91
438.52	696.58
438.895	725.28
439.271	730.48
439.646	715.33
440.021	745.16
440.395	734.54
440.77	722.57
441.145	723.92
441.52	737.03
441.895	734.99
442.27	758.95
442.645	763.24
443.019	770.7
443.394	751.72
443.769	782.9
444.143	747.88
444.518	781.77
444.892	780.19
445.267	782.23
445.641	791.94
446.016	807.76
446.39	783.81
446.764	790.59
447.139	797.59
447.513	813.64
447.887	798.5
448.262	792.85
448.636	814.99
449.01	811.83
449.384	819.96
449.758	836.01
450.132	859.06
450.506	820.64
450.88	847.99
451.254	857.03
451.628	841.21
452.002	844.6
452.376	873.52
452.75	885.73
453.123	885.5
453.497	865.61
453.871	907.42
454.244	907.19
454.618	907.87
454.992	921.2
455.365	941.32
455.739	927.53
456.112	955.78
456.486	970.24
456.859	967.31
457.232	948.1
457.606	972.28
457.979	978.38
458.352	1008.21
458.725	988.77
459.099	1015.44
459.472	1036.23
459.845	1020.86
460.218	1062.9
460.591	1057.47
460.964	1057.92
461.337	1061.09
461.71	1098.15
462.083	1102.44
462.456	1102.89
462.829	1137.92
463.201	1113.06
463.574	1118.49
463.947	1152.38
464.32	1178.15
464.692	1165.27
465.065	1190.58
465.438	1205.04
465.81	1198.49
466.183	1217.47
466.555	1259.27
466.928	1246.85
467.3	1282.78
467.672	1274.64
468.045	1304.47
468.417	1349.22
468.789	1335.21
469.161	1363.68
469.534	1375.43
469.906	1377.69
470.278	1414.07
470.65	1413.62
471.022	1440.96
471.394	1454.75
471.766	1454.75
472.138	1513.28
472.51	1513.73
472.882	1556.89
473.253	1591.7
473.625	1587.18
473.997	1629.66
474.369	1673.95
474.74	1675.08
475.112	1685.48
475.484	1748.98
475.855	1762.76
476.227	1768.87
476.598	1834.17
476.97	1853.16
477.341	1895.19
477.713	1934.96
478.084	1950.78
478.455	1994.85
478.827	2016.54
479.198	2073.72
479.569	2092.25
479.94	2171.79
480.311	2182.19
480.682	2202.3
481.053	2281.62
481.424	2296.31
481.795	2348.29
482.166	2390.09
482.537	2447.04
482.908	2491.56
483.279	2551.22
483.65	2602.97
484.021	2666.7
484.391	2719.35
484.762	2713.93
485.133	2771.1
485.503	2808.39
485.874	2927.03
486.244	2890.87
486.615	2937.2
486.985	3019.45
487.356	3104.65
487.726	3126.12
488.097	3241.82
488.467	3223.06
488.837	3278.88
489.207	3357.3
489.578	3441.14
489.948	3471.65
490.318	3517.29
490.688	3544.64
491.058	3659.66
491.428	3685.2
491.798	3675.48
492.168	3788.7
492.538	3851.3
492.908	3861.47
493.278	3942.14
493.648	3959.77
494.017	3990.73
494.387	4065.98
494.757	4099.43
495.126	4167.45
495.496	4236.37
495.866	4284.73
496.235	4328.12
496.605	4399.53
496.974	4386.42
497.344	4433.2
497.713	4460.32
498.082	4532.18
498.452	4597.49
498.821	4630.49
499.19	4584.39
499.559	4691.73
499.928	4710.71
500.298	4731.5
500.667	4764.04
501.036	4787.09
501.405	4855.79
501.774	4860.99
502.143	4920.65
502.512	4936.47
502.88	4960.42
503.249	4990.7
503.618	5001.1
503.987	5038.16
504.356	5056.92
504.724	5110.02
505.093	5141.21
505.462	5169.45
505.83	5229.11
506.199	5265.72
506.567	5287.87
506.936	5285.61
507.304	5342.11
507.672	5411.71
508.041	5394.99
508.409	5443.8
508.777	5500.07
509.145	5518.6
509.514	5517.69
509.882	5559.95
510.25	5536.45
510.618	5601.53
510.986	5645.15
511.354	5640.18
511.722	5705.71
512.09	5800.62
512.458	5765.6
512.826	5777.57
513.193	5809.21
513.561	5852.6
513.929	5892.6
514.297	5951.35
514.664	5945.71
515.032	5941.64
515.4	6004.46
515.767	5999.04
516.135	6045.59
516.502	5983.67
516.869	6066.15
517.237	6130.33
517.604	6056.21
517.972	6196.32
518.339	6170.11
518.706	6172.82
519.073	6196.77
519.44	6252.36
519.808	6250.1
520.175	6284.23
520.542	6363.55
520.909	6379.14
521.276	6375.98
521.643	6461.62
522.009	6453.49
522.376	6519.02
522.743	6526.48
523.11	6550.66
523.477	6652.35
523.843	6682.86
524.21	6759.24
524.577	6764.67
524.943	6798.34
525.31	6840.82
525.676	6878.79
526.043	6861.84
526.409	6904.32
526.776	6970.76
527.142	6996.07
527.508	7014.15
527.874	7115.84
528.241	7166.69
528.607	7164.66
528.973	7188.38
529.339	7176.86
529.705	7194.94
530.071	7305.44
530.437	7358.32
530.803	7353.8
531.169	7403.75
531.535	7409.62
531.901	7405.1
532.267	7475.83
532.632	7519.22
532.998	7586.57
533.364	7621.82
533.73	7597.41
534.095	7699.56
534.461	7680.12
534.826	7664.3
535.192	7756.28
535.557	7834.47
535.923	7770.74
536.288	7874.47
536.653	7928.03
537.019	7888.93
537.384	7946.78
537.749	7974.13
538.114	7924.41
538.479	8030.4
538.845	8078.3
539.21	8097.74
539.575	8143.39
539.94	8161.01
540.305	8186.32
540.67	8113.11
541.034	8236.04
541.399	8300.45
541.764	8346.09
542.129	8314.46
542.494	8342.93
542.858	8397.17
543.223	8463.38
543.587	8514
543.952	8455.7
544.316	8544.28
544.681	8538.63
545.045	8537.05
545.41	8603.71
545.774	8647.1
546.138	8646.88
546.503	8691.85
546.867	8720.55
547.231	8837.15
547.595	8773.65
547.959	8877.15
548.324	8878.51
548.688	8874.89
549.052	8917.38
549.416	8918.51
549.779	8928.9
550.143	8981.78
550.507	9085.51
550.871	9104.04
551.235	9090.26
551.599	9203.25
551.962	9232.17
552.326	9164.6
552.689	9266.07
553.053	9242.79
553.417	9302.23
553.78	9361.21
554.143	9325.05
554.507	9399.63
554.87	9383.58
555.234	9446.63
555.597	9453.86
555.96	9485.73
556.323	9496.57
556.686	9574.99
557.05	9594.42
557.413	9595.55
557.776	9654.76
558.139	9693.63
558.502	9749.67
558.865	9717.13
559.228	9743.12
559.59	9811.59
559.953	9864.47
560.316	9944.02
560.679	9918.03
561.041	9902.44
561.404	10016.78
561.767	10075.54
562.129	9987.18
562.492	10147.4
562.854	10107.18
563.217	10137.69
563.579	10182.43
563.941	10219.49
564.304	10278.92
564.666	10295.87
565.028	10268.98
565.39	10366.38
565.753	10373.84
566.115	10457.9
566.477	10507.85
566.839	10478.47
567.201	10555.98
567.563	10544
567.925	10664.68
568.287	10648.63
568.648	10709.2
569.01	10770.44
569.372	10794.39
569.734	10818.12
570.095	10891.34
570.457	10937.21
570.819	10948.96
571.18	10961.62
571.542	11072.58
571.903	11121.39
572.265	11151.22
572.626	11196.19
572.987	11238
573.349	11346.92
573.71	11296.3
574.071	11475.5
574.432	11481.38
574.794	11602.28
575.155	11635.05
575.516	11646.8
575.877	11790.07
576.238	11809.51
576.599	11938.09
576.96	12067.13
577.32	12108.93
577.681	12247.46
578.042	12298.76
578.403	12367.68
578.763	12463.27
579.124	12569.03
579.485	12735.36
579.845	12795.92
580.206	12875.92
580.566	12983.49
580.927	13150.94
581.287	13315
581.648	13385.28
582.008	13599.52
582.368	13695.33
582.728	13959.05
583.089	14060.29
583.449	14285.37
583.809	14448.31
584.169	14558.81
584.529	14756.1
584.889	15020.72
585.249	15159.25
585.609	15323.31
585.969	15623.87
586.329	15679.91
586.688	15997.19
587.048	16256.85
587.408	16438.76
587.768	16627.46
588.127	16993.1
588.487	17101.12
588.846	17564.61
589.206	17637.83
589.565	17969.34
589.925	18192.84
590.284	18380.86
590.643	18807.51
591.003	19086.38
591.362	19387.84
591.721	19556.87
592.08	19864.44
592.44	20307.59
592.799	20423.74
593.158	20703.06
593.517	20969.04
593.876	21265.75
594.235	21595.46
594.593	21778.51
594.952	22112.74
595.311	22423.46
595.67	22668.66
596.029	23148.87
596.387	23538.69
596.746	23838.34
597.104	23963.08
597.463	24304.09
597.822	24721.26
598.18	24783.18
598.538	25052.77
598.897	25616.6
599.255	25653.66
599.613	26256.58
599.972	26392.4
600.33	26718.49
600.688	26869.9
601.046	27205.03
601.404	27687.28
601.762	27778.35
602.12	28240.49
602.478	28481.16
602.836	28717.99
603.194	28973.35
603.552	29021.48
603.91	29313.45
604.268	29725.19
604.625	29883.15
604.983	30221
605.341	30486.3
605.698	30568.11
606.056	30915.67
606.413	31142.56
606.771	31439.27
607.128	31746.16
607.485	31789.32
607.843	32094.85
608.2	32522.18
608.557	32721.05
608.914	32829.07
609.272	33044.43
609.629	33329.39
609.986	33551.31
610.343	33742.26
610.7	34172.31
611.057	34238.97
611.414	34396.26
611.771	34657.04
612.127	34832.86
612.484	35006.86
612.841	35336.12
613.198	35401.65
613.554	35660.86
613.911	35781.3
614.267	36007.74
614.624	36111.47
614.98	36304.46
615.337	36692.02
615.693	36680.04
616.05	36753.93
616.406	37164.09
616.762	37150.53
617.118	37268.95
617.475	37414.71
617.831	37698.99
618.187	37769.5
618.543	37786.22
618.899	38241.13
619.255	38276.61
619.611	38318.41
619.967	38509.37
620.323	38808.12
620.678	38604.51
621.034	38593.66
621.39	38866.42
621.746	38819.42
622.101	39328.78
622.457	39155.23
622.812	39335.79
623.168	39406.97
623.523	39581.88
623.879	39697.36
624.234	39535.56
624.589	39849.45
624.945	39877.24
625.3	40115.43
625.655	39968.09
626.01	40237.46
626.365	40253.5
626.72	40266.38
627.075	40309.55
627.43	40310.23
627.785	40444.91
628.14	40558.58
628.495	40619.14
628.85	40598.13
629.205	40557.68
629.559	40689.42
629.914	40584.57
630.269	40665.24
630.623	40634.74
630.978	40631.35
631.332	40781.85
631.687	41014.16
632.041	40891.91
632.396	40940.49
632.75	40785.02
633.104	40933.26
633.459	40828.63
633.813	40873.6
634.167	40797.44
634.521	41002.86
634.875	40977.78
635.229	40970.1
635.583	40787.28
635.937	40942.3
636.291	40927.16
636.645	41034.05
636.999	40932.81
637.352	41055.97
637.706	40757.45
638.06	40960.83
638.413	41094.61
638.767	40776.2
639.121	40900.27
639.474	40651.01
639.828	40726.03
640.181	40766.03
640.534	40914.28
640.888	40702.98
641.241	40516.77
641.594	40639.93
641.947	40841.28
642.301	40688.97
642.654	40745.47
643.007	40670.67
643.36	40652.14
643.713	40579.14
644.066	40839.25
644.419	40607.39
644.771	40324.91
645.124	40023.45
645.477	40020.29
645.83	39799.73
646.182	39616.01
646.535	39503.92
646.888	39552.05
647.24	39472.28
647.593	39603.58
647.945	39502.79
648.298	39359.74
648.65	39279.52
649.002	39158.62
649.355	39497.37
649.707	39435.45
650.059	39526.74
650.411	40069.78
650.763	40144.81
651.115	40524.46
651.467	40424.35
651.819	40297.8
652.171	40293.28
652.523	40122.66
652.875	40168.53
653.227	39958.37
653.578	40385.48
653.93	40202.21
654.282	40094.19
654.633	40134.64
654.985	40143.68
655.337	40143.9
655.688	40102.1
656.039	40182.55
656.391	39977.8
656.742	39891.71
657.094	40075.2
657.445	40206.05
657.796	40064.81
658.147	39987.97
658.498	39990.23
658.849	40056.22
659.2	40088.31
659.551	39940.97
659.902	40178.25
660.253	39897.13
660.604	39930.35
660.955	39691.26
661.306	40021.42
661.656	39961.76
662.007	39917.47
662.358	39947.52
662.708	40003.79
663.059	39901.87
663.409	39844.93
663.76	39979.61
664.11	39929.67
664.461	39948.2
664.811	39943.68
665.161	39891.03
665.511	39783.01
665.862	39822.33
666.212	40095.09
666.562	40007.63
666.912	39740.97
667.262	39925.83
667.612	39943.46
667.962	40010.35
668.312	39929.67
668.662	40004.7
669.011	39917.24
669.361	39864.59
669.711	39701.43
670.06	39680.19
670.41	39748.66
670.76	39830.24
671.109	39763.12
671.459	39661.2
671.808	39528.33
672.157	39795.44
672.507	39456.01
672.856	39718.6
673.205	39604.26
673.554	39703.69
673.904	39560.41
674.253	39692.16
674.602	39498.27
674.951	39113.87
675.3	38909.81
675.649	39579.62
675.998	39478.16
676.346	39434.32
676.695	39779.39
677.044	39323.36
677.393	39574.2
677.741	39451.49
678.09	39365.17
678.438	39312.06
678.787	39443.36
679.135	39303.25
679.484	39222.57
679.832	39272.51
680.181	39029.58
680.529	39175.57
680.877	39142.57
681.225	39172.85
681.573	39195.9
681.922	38965.18
682.27	38955.68
682.618	38885.86
682.966	38736.26
683.314	38855.57
683.661	38761.11
684.009	38647.9
684.357	38602.02
684.705	38462.14
685.053	38506.88
685.4	38516.83
685.748	38278.19
686.095	38238.19
686.443	38163.62
686.79	38069.15
687.138	38237.29
687.485	37951.64
687.832	37958.2
688.18	37892.89
688.527	37746.23
688.874	37728.82
689.221	37779.44
689.568	37705.1
689.915	37555.5
690.262	37506.46
690.609	37461.03
690.956	37305.11
691.303	37252
691.65	37176.75
691.997	37011.56
692.344	36778.57
692.69	37023.31
693.037	37005.45
693.383	36720.04
693.73	36788.51
694.077	36613.15
694.423	36680.49
694.769	36580.83
695.116	36355.75
695.462	36245.7
695.808	36301.97
696.155	36258.35
696.501	35989.89
696.847	35966.16
697.193	35763.68
697.539	35908.08
697.885	35521.42
698.231	35510.13
698.577	35577.92
698.923	35468.09
699.269	35386.29
699.614	35266.29
699.96	35163.69
700.306	35359.85
700.651	34945.85
700.997	34974.32
701.342	34822.46
701.688	34810.48
702.033	34714.44
702.379	34694.55
702.724	34466.76
703.069	34458.4
703.415	34204.85
703.76	34308.12
704.105	34239.65
704.45	34182.7
704.795	34037.85
705.14	33893.44
705.485	33954.46
705.83	33870.85
706.175	33765.76
706.52	33737.06
706.865	33528.71
707.209	33632.89
707.554	33406
707.899	33459.78
708.243	33228.15
708.588	33220.92
708.932	32983.64
709.277	32912.91
709.621	33117.87
709.966	32889.63
710.31	32976.18
710.654	32648.05
710.998	32704.55
711.342	32768.5
711.687	32599.02
712.031	32420.04
712.375	32316.99
712.719	32470.66
713.063	32351.34
713.407	32401.73
713.75	32210.1
714.094	32143.89
714.438	31984.34
714.782	31992.48
715.125	31879.71
715.469	31810.11
715.812	31821.86
716.156	31752.26
716.499	31799.26
716.843	31698.93
717.186	31426.62
717.53	31685.59
717.873	31629.55
718.216	31566.5
718.559	31350.91
718.902	31297.58
719.246	31274.53
719.589	31341.87
719.932	31026.18
720.275	31202.89
720.617	31151.82
720.96	31077.93
721.303	31122.67
721.646	30991.37
721.989	30846.07
722.331	30924.26
722.674	30838.38
723.016	30809.91
723.359	30720.42
723.701	30775.79
724.044	30615.34
724.386	30497.83
724.729	30647.2
725.071	30457.38
725.413	30387.32
725.755	30395.91
726.097	30191.17
726.439	30142.81
726.782	30086.99
727.124	30299.42
727.465	30019.87
727.807	30094.9
728.149	29948.46
728.491	29944.85
728.833	29971.06
729.175	29944.17
729.516	29883.15
729.858	29786.89
730.199	29782.59
730.541	29768.36
730.882	29830.73
731.224	29745.08
731.565	29543.05
731.906	29531.3
732.248	29637.06
732.589	29461.25
732.93	29459.44
733.271	29358.87
733.612	29372.43
733.953	29521.58
734.294	29183.74
734.635	29152.1
734.976	29258.09
735.317	29122.72
735.658	29030.07
735.999	29183.06
736.339	29013.57
736.68	29147.13
737.021	28930.19
737.361	28795.95
737.702	29032.33
738.042	28803.41
738.383	28817.87
738.723	28891.54
739.063	28760.25
739.404	28919.34
739.744	28762.28
740.084	28588.73
740.424	28624.88
740.764	28625.11
741.104	28666.69
741.444	28373.82
741.784	28415.85
742.124	28402.74
742.464	28385.79
742.804	28307.15
743.143	28303.08
743.483	28292.69
743.823	28263.08
744.162	28170.66
744.502	28196.19
744.841	28083.65
745.181	28007.05
745.52	27987.84
745.86	27962.53
746.199	27826.49
746.538	27826.03
746.877	27913.26
747.216	27885.02
747.556	27859.48
747.895	27732.48
748.234	27650.67
748.573	27654.29
748.911	27785.36
749.25	27629.65
749.589	27468.76
749.928	27641.63
750.267	27564.8
750.605	27457.23
750.944	27498.13
751.283	27308.08
751.621	27356.22
751.96	27275.99
752.298	27283.45
752.636	27183.56
752.975	27163.68
753.313	27114.41
753.651	27159.38
753.989	27010.01
754.327	26966.17
754.666	26813.18
755.004	26862.22
755.342	26805.72
755.679	26738.15
756.017	26624.48
756.355	26638.49
756.693	26577.25
757.031	26640.53
757.368	26332.06
757.706	26442.57
758.044	26327.77
758.381	26302.46
758.719	26206.87
759.056	26262.23
759.394	26164.16
759.731	25961.68
760.068	25960.09
760.405	25851.4
760.743	25754
761.08	25940.89
761.417	25705.19
761.754	25689.82
762.091	25624.74
762.428	25543.38
762.765	25440.33
763.102	25430.84
763.438	25371.64
763.775	25309.26
764.112	25184.97
764.449	25225.88
764.785	25114.47
765.122	24878.54
765.458	24821.59
765.795	24963.28
766.131	24869.73
766.467	24713.12
766.804	24655.27
767.14	24546.57
767.476	24588.6
767.812	24396.29
768.148	24232.91
768.485	24181.38
768.821	24136.19
769.157	24125.11
769.492	24035.4
769.828	24045.12
770.164	23848.06
770.5	23627.95
770.836	23719.7
771.171	23608.07
771.507	23527.62
771.842	23305.02
772.178	23309.77
772.513	23216.21
772.849	23169.89
773.184	23046.5
773.519	23082.66
773.855	22912.94
774.19	22878.82
774.525	22723.57
774.86	22827.3
775.195	22682.44
775.53	22542.33
775.865	22497.13
776.2	22371.26
776.535	22148.44
776.87	22096.69
777.205	22171.49
777.539	21974.66
777.874	21959.07
778.209	21828.68
778.543	21804.72
778.878	21680.43
779.212	21665.29
779.547	21555.24
779.881	21585.07
780.215	21364.51
780.55	21472.3
780.884	21310.05
781.218	21245.87
781.552	21082.03
781.886	21121.13
782.22	21028.02
782.554	20868.93
782.888	20811.3
783.222	20719.78
783.556	20582.38
783.889	20583.29
784.223	20492.22
784.557	20465.1
784.89	20429.17
785.224	20382.61
785.557	20196.86
785.891	20180.36
786.224	20147.59
786.558	20070.76
786.891	19901.95
787.224	19710.77
787.557	19772.46
787.891	19828.5
788.224	19792.35
788.557	19795.96
788.89	19645.01
789.223	19605.91
789.556	19493.82
789.888	19438.91
790.221	19317.33
790.554	19171.57
790.887	19202.31
791.219	19065.59
791.552	19089.54
791.884	18888.87
792.217	18940.62
792.549	18892.48
792.882	18683.68
793.214	18666.5
793.546	18641.87
793.879	18528.43
794.211	18367.53
794.543	18548.99
794.875	18412.27
795.207	18484.81
795.539	18300.41
795.871	18348.09
796.203	18135.22
796.535	18003.02
796.867	17975.9
797.198	18072.39
797.53	17969.12
797.862	17817.94
798.193	17863.81
798.525	17782.23
798.856	17840.31
799.188	17536.59
799.519	17559.64
799.85	17390.38
800.182	17470.37
800.513	17443.48
800.844	17300.66
801.175	17412.3
801.506	17328.68
801.837	17344.05
802.168	17197.39
802.499	17128.01
802.83	17060.44
803.161	16927.11
803.491	17012.31
803.822	16899.99
804.153	16783.61
804.483	16741.35
804.814	16724.63
805.145	16675.14
805.475	16642.6
805.805	16514.69
806.136	16523.73
806.466	16491.42
806.796	16549.04
807.126	16292.78
807.457	16360.57
807.787	16312.89
808.117	16282.38
808.447	16233.12
808.777	16286.22
809.107	16177.75
809.436	16045.55
809.766	16032.22
810.096	15968.72
810.426	15985.67
810.755	15962.62
811.085	15978.44
811.414	15902.28
811.744	15745
812.073	15737.54
812.403	15712.68
812.732	15707.48
813.061	15690.31
813.39	15640.37
813.719	15569.63
814.049	15627.71
814.378	15530.09
814.707	15487.83
815.036	15402.41
815.365	15362.41
815.693	15209.19
816.022	15281.96
816.351	15194.05
816.68	15104.79
817.008	15144.11
817.337	14939.59
817.665	14939.59
817.994	14975.52
818.322	14989.76
818.651	14951.34
818.979	14947.28
819.307	14912.7
819.636	14890.33
819.964	14889.2
820.292	14798.58
820.62	14833.16
820.948	14690.33
821.276	14818.01
821.604	14797.45
821.932	14702.99
822.259	14726.27
822.587	14765.36
822.915	14669.32
823.243	14739.37
823.57	14603.33
823.898	14698.02
824.225	14471.58
824.553	14606.27
824.88	14620.51
825.207	14636.1
825.535	14636.55
825.862	14635.19
826.189	14616.89
826.516	14577.57
826.843	14670
827.17	14730.78
827.497	14660.73
827.824	14728.07
828.151	14689.43
828.478	14585.93
828.805	14687.17
829.131	14643.33
829.458	14576.44
829.785	14410.12
830.111	14588.42
830.438	14686.27
830.764	14570.79
831.09	14671.13
831.417	14585.25
831.743	14631.35
832.069	14590.22
832.395	14569.21
832.722	14585.93
833.048	14481.75
833.374	14577.12
833.7	14441.98
834.026	14425.93
834.351	14486.95
834.677	14477.46
835.003	14475.42
835.329	14383.22
835.654	14376.9
835.98	14311.81
836.306	14289.89
836.631	14304.36
836.956	14346.84
837.282	14312.26
837.607	14194.08
837.932	14177.58
838.258	14252.38
838.583	14150.91
838.908	14089.22
839.233	14129.44
839.558	14082.21
839.883	14025.72
840.208	14047.19
840.533	13994.53
840.858	14007.64
841.182	14125.15
841.507	13980.07
841.832	13949.34
842.156	13905.04
842.481	13874.31
842.805	13805.16
843.13	13823.92
843.454	13806.52
843.778	13650.14
844.103	13705.28
844.427	13670.47
844.751	13716.8
845.075	13624.37
845.399	13629.35
845.723	13548.44
846.047	13546.18
846.371	13432.97
846.695	13433.42
847.019	13255.57
847.343	13221.9
847.666	13197.49
847.99	13123.37
848.313	13128.57
848.637	13132.41
848.96	13007.21
849.284	12999.53
849.607	12912.75
849.931	12849.93
850.254	12748.92
850.577	12728.35
850.9	12623.04
851.223	12600.22
851.546	12616.72
851.869	12428.92
852.192	12558.41
852.515	12428.25
852.838	12430.28
853.161	12462.14
853.483	12358.42
853.806	12247.69
854.129	12258.76
854.451	12204.98
854.774	12227.12
855.096	12123.4
855.419	12056.51
855.741	12061.7
856.063	11950.52
856.385	11978.77
856.708	11901.25
857.03	11955.04
857.352	11870.75
857.674	11843.4
857.996	11770.18
858.318	11710.98
858.64	11650.87
858.961	11652.45
859.283	11633.47
859.605	11519.8
859.926	11589.4
860.248	11582.62
860.57	11458.1
860.891	11486.8
861.212	11505.33
861.534	11454.03
861.855	11425.56
862.176	11313.47
862.498	11413.36
862.819	11442.06
863.14	11332.91
863.461	11370.65
863.782	11321.84
864.103	11273.02
864.424	11117.09
864.745	11233.25
865.065	11195.28
865.386	11121.39
865.707	11137.89
866.027	11118.68
866.348	11134.04
866.668	11057.89
866.989	11064.44
867.309	11051.79
867.63	11097.89
867.95	10990.09
868.27	10995.06
868.59	10967.95
868.91	10976.76
869.23	10913.48
869.55	10901.51
869.87	11003.43
870.19	10838.68
870.51	10903.54
870.83	10837.78
871.15	10832.13
871.469	10725.69
871.789	10820.61
872.109	10783.09
872.428	10725.47
872.748	10725.69
873.067	10687.05
873.386	10735.18
873.706	10679.59
874.025	10587.39
874.344	10562.53
874.663	10654.96
874.982	10636.43
875.301	10592.59
875.62	10594.4
875.939	10529.31
876.258	10533.38
876.577	10558.47
876.896	10506.49
877.214	10482.76
877.533	10497.68
877.852	10424.91
878.17	10457.9
878.489	10502.2
878.807	10428.75
879.125	10396.89
879.444	10426.27
879.762	10320.73
880.08	10328.64
880.398	10343.1
880.716	10298.59
881.034	10368.87
881.352	10292.71
881.67	10252.26
881.988	10243.22
882.306	10238.25
882.624	10113.28
882.941	10121.41
883.259	10045.94
883.577	10077.8
883.894	10100.4
884.212	10069.89
884.529	10096.33
884.846	10052.94
885.164	9999.84
885.481	9930.69
885.798	9995.54
886.115	9876.45
886.432	9887.3
886.75	9890.46
887.067	9849.78
887.383	9752.16
887.7	9838.94
888.017	9745.38
888.334	9783.57
888.651	9807.52
888.967	9768.88
889.284	9620.86
889.6	9641.2
889.917	9578.83
890.233	9603.24
890.55	9539.06
890.866	9605.95
891.182	9529.79
891.498	9477.82
891.815	9415.9
892.131	9339.06
892.447	9404.82
892.763	9382.9
893.079	9301.1
893.395	9315.11
893.71	9275.11
894.026	9284.83
894.342	9257.71
894.657	9189.91
894.973	9219.29
895.289	9182.46
895.604	9150.82
895.92	9087.77
896.235	8955.34
896.55	9015.46
896.865	8980.88
897.181	8917.38
897.496	8937.27
897.811	8973.87
898.126	8845.74
898.441	8819.53
898.756	8777.95
899.071	8775.91
899.386	8772.98
899.7	8681
900.015	8653.88
900.33	8622.92
900.644	8579.08
900.959	8577.5
901.273	8544.51
901.588	8549.25
901.902	8497.05
902.216	8481.91
902.531	8469.25
902.845	8438.75
903.159	8361.23
903.473	8340.44
903.787	8328.24
904.101	8303.61
904.415	8225.42
904.729	8202.14
905.042	8105.87
905.356	8172.77
905.67	8175.48
905.984	8182.26
906.297	8133.67
906.611	7943.62
906.924	8040.57
907.237	7940.23
907.551	7971.64
907.864	7914.47
908.177	7915.6
908.491	7862.49
908.804	7835.83
909.117	7796.28
909.43	7774.36
909.743	7708.37
910.056	7697.98
910.368	7683.06
910.681	7626.79
910.994	7632.67
911.307	7591.54
911.619	7530.75
911.932	7527.36
912.244	7462.28
912.557	7423.63
912.869	7387.48
913.181	7341.6
913.494	7396.06
913.806	7347.48
914.118	7269.06
914.43	7289.85
914.742	7254.6
915.054	7203.3
915.366	7214.15
915.678	7197.65
915.99	7162.85
916.302	7054.83
916.613	7048.5
916.925	7049.63
917.236	7003.3
917.548	6994.04
917.859	6996.3
918.171	6962.4
918.482	6920.37
918.794	6859.58
919.105	6906.58
919.416	6804.89
919.727	6779.81
920.038	6812.12
920.349	6742.52
920.66	6710.2
920.971	6714.72
921.282	6661.62
921.593	6602.64
921.903	6540.72
922.214	6539.81
922.525	6502.98
922.835	6514.96
923.146	6427.73
923.456	6456.88
923.767	6436.31
924.077	6382.76
924.387	6375.3
924.697	6311.35
925.008	6295.3
925.318	6235.87
925.628	6243.32
925.938	6217.11
926.248	6205.81
926.558	6148.86
926.867	6119.26
927.177	6183.89
927.487	6110.22
927.796	6045.82
928.106	6070.9
928.416	6027.06
928.725	5973.28
929.034	5944.58
929.344	5909.32
929.653	5957
929.962	5875.65
930.271	5849.44
930.581	5797.46
930.89	5822.09
931.199	5747.52
931.508	5746.61
931.817	5749.78
932.125	5761.98
932.434	5721.76
932.743	5626.62
933.051	5667.07
933.36	5589.56
933.669	5600.63
933.977	5552.27
934.286	5574.42
934.594	5544.13
934.902	5521.31
935.21	5500.52
935.519	5449.67
935.827	5443.8
936.135	5457.36
936.443	5348.66
936.751	5307.76
937.059	5303.69
937.367	5269.56
937.674	5282.45
937.982	5253.52
938.29	5259.85
938.597	5246.51
938.905	5206.74
939.213	5203.58
939.52	5173.07
939.827	5141.21
940.135	5103.02
940.442	5103.02
940.749	5119.06
941.056	5051.04
941.363	5030.93
941.67	4962.91
941.977	5022.11
942.284	4950.48
942.591	4942.12
942.898	4888.78
943.205	4933.98
943.511	4900.76
943.818	4881.33
944.125	4830.71
944.431	4783.7
944.738	4785.96
945.044	4790.26
945.35	4742.35
945.657	4752.29
945.963	4724.27
946.269	4681.78
946.575	4669.35
946.881	4632.52
947.187	4634.1
947.493	4591.16
947.799	4606.98
948.105	4568.34
948.41	4561.56
948.716	4530.6
949.022	4487.66
949.327	4480.89
949.633	4450.6
949.938	4421
950.244	4460.32
950.549	4437.27
950.854	4437.27
951.16	4371.06
951.465	4389.59
951.77	4350.04
952.075	4329.25
952.38	4272.3
952.685	4336.26
952.99	4300.55
953.294	4238.41
953.599	4201.12
953.904	4202.25
954.209	4168.58
954.513	4177.84
954.818	4129.48
955.122	4172.87
955.426	4116.15
955.731	4085.19
956.035	4081.57
956.339	4084.96
956.643	4058.07
956.948	4034.12
957.252	4018.3
957.556	4032.08
957.86	4001.12
958.163	3966.77
958.467	3966.1
958.771	3896.27
959.075	3911.18
959.378	3884.97
959.682	3856.95
959.985	3878.41
960.289	3807
960.592	3852.88
960.896	3814.46
961.199	3780.11
961.502	3777.17
961.805	3775.59
962.108	3716.84
962.411	3716.16
962.714	3697.63
963.017	3683.17
963.32	3697.63
963.623	3664.18
963.926	3642.71
964.228	3653.56
964.531	3602.26
964.833	3624.86
965.136	3552.1
965.438	3575.15
965.741	3564.75
966.043	3566.78
966.345	3530.85
966.648	3487.69
966.95	3472.78
967.252	3486.11
967.554	3490.4
967.856	3499.89
968.158	3423.51
968.46	3397.52
968.761	3405.21
969.063	3403.4
969.365	3400.46
969.666	3361.14
969.968	3374.02
970.269	3354.13
970.571	3291.54
970.872	3306
971.174	3276.85
971.475	3277.98
971.776	3255.83
972.077	3224.42
972.378	3238.43
972.679	3194.82
972.98	3203.63
973.281	3183.52
973.582	3190.07
973.883	3186.46
974.183	3202.27
974.484	3170.19
974.785	3113.01
975.085	3127.02
975.386	3103.52
975.686	3086.8
975.986	3051.54
976.287	3074.14
976.587	2981.72
976.887	2995.95
977.187	3040.02
977.487	2999.12
977.787	3010.64
978.087	2948.27
978.387	2978.1
978.687	2937.42
978.987	2942.62
979.286	2911.66
979.586	2881.38
979.885	2893.81
980.185	2892.9
980.484	2881.83
980.784	2866.69
981.083	2810.87
981.382	2839.12
981.682	2791.21
981.981	2812.91
982.28	2801.38
982.579	2772
982.878	2782.85
983.177	2755.96
983.475	2723.19
983.774	2766.35
984.073	2708.95
984.372	2730.65
984.67	2677.09
984.969	2675.06
985.267	2706.47
985.566	2653.81
985.864	2612.91
986.162	2636.41
986.461	2627.83
986.759	2599.13
987.057	2570.43
987.355	2560.94
987.653	2578.34
987.951	2590.54
988.249	2542.4
988.547	2521.84
988.844	2536.76
989.142	2510.99
989.44	2501.5
989.737	2459.02
990.035	2484.1
990.332	2493.37
990.63	2456.98
990.927	2457.21
991.224	2415.63
991.521	2410.43
991.819	2449.98
992.116	2392.58
992.413	2391.67
992.71	2380.15
993.006	2405.69
993.303	2387.15
993.6	2361.62
993.897	2346.7
994.193	2343.09
994.49	2300.83
994.787	2284.33
995.083	2291.11
995.379	2269.87
995.676	2268.29
995.972	2273.49
996.268	2262.64
996.565	2243.43
996.861	2247.27
997.157	2208.18
997.453	2231.68
997.749	2205.69
998.044	2201.62
998.34	2169.53
998.636	2186.71
998.932	2181.96
999.227	2147.61
999.523	2122.98
999.818	2136.09
1000.114	2142.42
1000.409	2119.14
1000.704	2103.32
1001	2052.7
1001.295	2073.72
1001.59	2079.59
1001.885	2080.72
1002.18	2039.14
1002.475	2026.71
1002.77	2035.75
1003.065	2007.73
1003.359	2008.18
1003.654	1997.11
1003.949	1968.41
1004.243	1953.95
1004.538	1965.92
1004.832	1955.53
1005.127	1947.17
1005.421	1936.09
1005.715	1891.8
1006.009	1894.74
1006.304	1907.62
1006.598	1853.84
1006.892	1878.69
1007.186	1859.71
1007.48	1866.49
1007.773	1841.18
1008.067	1843.89
1008.361	1782.2
1008.655	1835.3
1008.948	1817
1009.242	1786.49
1009.535	1760.28
1009.829	1783.55
1010.122	1777.45
1010.415	1740.62
1010.708	1746.49
1011.001	1732.03
1011.295	1691.13
1011.588	1715.76
1011.881	1685.93
1012.173	1671.92
1012.466	1681.86
1012.759	1637.12
1013.052	1664.24
1013.344	1683.9
1013.637	1619.94
1013.93	1645.25
1014.222	1602.32
1014.514	1596.44
1014.807	1587.63
1015.099	1598.25
1015.391	1605.71
1015.683	1607.97
1015.976	1571.58
1016.268	1546.27
1016.56	1552.6
1016.851	1535.65
1017.143	1544.92
1017.435	1489.55
1017.727	1483.22
1018.018	1467.63
1018.31	1484.81
1018.602	1498.59
1018.893	1463.11
1019.185	1450
1019.476	1473.96
1019.767	1447.97
1020.058	1458.59
1020.35	1429.21
1020.641	1396.9
1020.932	1397.58
1021.223	1395.99
1021.514	1410.23
1021.804	1375.2
1022.095	1371.81
1022.386	1370.91
1022.677	1367.52
1022.967	1353.96
1023.258	1330.46
1023.548	1338.82
1023.839	1329.56
1024.129	1334.75
1024.419	1298.6
1024.709	1300.18
1025	1276.9
1025.29	1290.91
1025.58	1289.1
1025.87	1252.27
1026.16	1264.92
1026.449	1285.94
1026.739	1224.47
1027.029	1244.36
1027.319	1222.21
1027.608	1227.86
1027.898	1224.25
1028.187	1186.28
1028.477	1160.97
1028.766	1181.54
1029.055	1163.46
1029.344	1152.84
1029.634	1155.55
1029.923	1147.41
1030.212	1130.92
1030.501	1156.45
1030.79	1127.3
1031.078	1116.45
1031.367	1116.45
1031.656	1140.86
1031.945	1118.04
1032.233	1079.17
1032.522	1083.23
1032.81	1098.83
1033.099	1079.62
1033.387	1094.53
1033.675	1092.05
1033.963	1050.69
1034.251	1052.5
1034.54	1030.81
1034.828	1041.43
1035.116	1024.48
1035.403	1005.04
1035.691	1025.61
1035.979	1012.73
1036.267	987.42
1036.554	978.38
1036.842	999.39
1037.129	994.65
1037.417	996.68
1037.704	964.37
1037.992	980.41
1038.279	970.24
1038.566	944.48
1038.853	944.48
1039.14	944.48
