Data from hue_28_FLMS001491_00085.txt Node
Date: Tue Feb 07 17:17:55 GMT 2017
User: dcchb
Spectrometer: FLMS00149
Trigger mode: 0
Integration Time (sec): 2.000000E-2
Scans to average: 10
Electric dark correction enabled: true
Nonlinearity correction enabled: false
Boxcar width: 0
XAxis mode: Wavelengths
Number of Pixels in Spectrum: 2048
>>>>>Begin Spectral Data<<<<<
341.393	5.3
341.776	5.3
342.16	5.3
342.543	-49.39
342.927	-74.02
343.31	-69.05
343.693	-90.97
344.077	-72.67
344.46	-41.26
344.843	-56.4
345.226	-42.16
345.61	-31.31
345.993	-12.56
346.376	-14.82
346.759	28.57
347.142	28.35
347.525	48.23
347.908	44.39
348.291	75.13
348.674	98.63
349.057	107.89
349.44	123.49
349.823	132.52
350.206	171.39
350.588	188.79
350.971	191.51
351.354	206.65
351.737	252.75
352.119	262.92
352.502	257.49
352.884	266.76
353.267	266.31
353.65	288.9
354.032	313.99
354.414	324.38
354.797	330.03
355.179	307.89
355.562	329.58
355.944	324.16
356.326	348.79
356.709	328.68
357.091	316.47
357.473	327.77
357.855	351.95
358.238	352.86
358.62	332.75
359.002	339.98
359.384	325.51
359.766	350.15
360.148	341.33
360.53	321.67
360.912	334.55
361.294	324.38
361.676	348.11
362.057	349.02
362.439	336.36
362.821	339.52
363.203	337.04
363.584	327.77
363.966	313.76
364.348	328.45
364.729	327.77
365.111	334.78
365.493	311.28
365.874	316.02
366.256	320.09
366.637	316.47
367.019	321.67
367.4	307.89
367.781	317.83
368.163	318.73
368.544	319.86
368.925	319.64
369.306	314.21
369.688	336.81
370.069	316.47
370.45	309.47
370.831	318.28
371.212	324.38
371.593	307.89
371.974	313.08
372.355	313.99
372.736	321.22
373.117	324.38
373.498	325.51
373.879	343.37
374.26	328.9
374.641	320.54
375.021	319.64
375.402	324.61
375.783	314.44
376.163	318.51
376.544	332.29
376.925	311.96
377.305	333.88
377.686	328.9
378.066	320.99
378.447	330.71
378.827	329.58
379.208	328.45
379.588	329.13
379.968	331.84
380.349	351.73
380.729	338.85
381.109	331.39
381.489	324.38
381.87	370.26
382.25	360.99
382.63	362.8
383.01	345.17
383.39	336.81
383.77	340.43
384.15	344.95
384.53	344.5
384.91	347.43
385.29	364.84
385.67	351.95
386.049	334.1
386.429	341.56
386.809	366.42
387.189	352.18
387.568	353.99
387.948	349.02
388.328	378.17
388.707	344.04
389.087	369.35
389.466	343.82
389.846	363.93
390.225	347.66
390.605	361.67
390.984	371.39
391.363	375.23
391.743	369.35
392.122	376.59
392.501	362.12
392.881	381.78
393.26	382.46
393.639	386.76
394.018	385.63
394.397	368.9
394.776	369.81
395.155	372.74
395.534	403.48
395.913	372.07
396.292	374.78
396.671	402.35
397.05	401.22
397.429	408.9
397.808	386.76
398.186	369.58
398.565	391.28
398.944	391.05
399.323	400.99
399.701	403.93
400.08	376.36
400.458	392.86
400.837	412.97
401.215	407.32
401.594	391.73
401.972	417.26
402.351	409.58
402.729	404.83
403.107	402.35
403.486	399.64
403.864	405.06
404.242	421.1
404.62	424.04
404.999	404.16
405.377	408.22
405.755	428.56
406.133	436.7
406.511	440.54
406.889	431.05
407.267	436.7
407.645	428.11
408.023	452.29
408.401	418.62
408.779	443.25
409.156	444.61
409.534	455.68
409.912	444.38
410.29	457.94
410.667	449.58
411.045	461.33
411.422	469.47
411.8	445.51
412.178	454.32
412.555	471.5
412.933	463.59
413.31	466.75
413.687	474.21
414.065	464.04
414.442	470.82
414.819	472.85
415.197	463.36
415.574	482.12
415.951	497.71
416.328	480.76
416.705	502.46
417.082	488.22
417.46	512.85
417.837	498.39
418.214	483.7
418.591	501.78
418.967	521.67
419.344	518.96
419.721	531.16
420.098	513.76
420.475	541.1
420.852	514.44
421.228	535.45
421.605	521.22
421.982	521.89
422.358	534.1
422.735	558.05
423.111	566.19
423.488	543.81
423.864	537.26
424.241	538.62
424.617	565.96
424.994	567.54
425.37	576.58
425.746	562.12
426.123	587.43
426.499	583.81
426.875	563.25
427.251	584.49
427.627	588.33
428.003	599.18
428.379	592.63
428.756	605.05
429.132	613.64
429.507	629.01
429.883	621.33
430.259	616.58
430.635	604.15
431.011	634.66
431.387	626.75
431.763	629.23
432.138	637.14
432.514	624.04
432.89	651.16
433.265	665.17
433.641	645.28
434.016	679.4
434.392	680.53
434.767	686.86
435.143	681.66
435.518	701.1
435.894	695.9
436.269	703.81
436.644	697.26
437.02	727.99
437.395	715.79
437.77	732.28
438.145	725.28
438.52	715.11
438.895	711.27
439.271	747.65
439.646	754.88
440.021	766.18
440.395	758.5
440.77	756.46
441.145	760.76
441.52	775.9
441.895	766.86
442.27	777.93
442.645	779.06
443.019	798.5
443.394	783.58
443.769	785.61
444.143	779.06
444.518	802.11
444.892	799.63
445.267	800.76
445.641	811.83
446.016	825.39
446.39	807.08
446.764	826.74
447.139	822.68
447.513	851.15
447.887	848.21
448.262	833.07
448.636	873.97
449.01	859.74
449.384	839.17
449.758	855.67
450.132	875.33
450.506	875.78
450.88	874.43
451.254	859.96
451.628	907.65
452.002	893.18
452.376	917.36
452.75	914.65
453.123	897.93
453.497	920.07
453.871	933.41
454.244	929.57
454.618	963.46
454.992	953.52
455.365	957.59
455.739	992.16
456.112	1003.91
456.486	993.75
456.859	991.71
457.232	980.86
457.606	1005.72
457.979	1011.6
458.352	1041.88
458.725	1037.59
459.099	1069.45
459.472	1067.87
459.845	1083.01
460.218	1103.35
460.591	1107.64
460.964	1093.4
461.337	1118.71
461.71	1138.83
462.083	1153.97
462.456	1171.37
462.829	1175.44
463.201	1196.9
463.574	1212.04
463.947	1189.67
464.32	1207.3
464.692	1232.38
465.065	1238.26
465.438	1261.76
465.81	1271.48
466.183	1259.05
466.555	1271.7
466.928	1315.32
467.3	1297.92
467.672	1332.95
468.045	1373.17
468.417	1377.01
468.789	1386.96
469.161	1407.29
469.534	1400.51
469.906	1454.3
470.278	1483.22
470.65	1471.25
471.022	1497.69
471.394	1536.56
471.766	1541.08
472.138	1553.05
472.51	1580.85
472.882	1594.41
473.253	1657.46
473.625	1671.92
473.997	1692.26
474.369	1716.44
474.74	1742.2
475.112	1783.33
475.484	1790.11
475.855	1833.27
476.227	1858.81
476.598	1938.35
476.97	1930.9
477.341	1985.58
477.713	2004.79
478.084	2006.6
478.455	2063.1
478.827	2076.88
479.198	2157.1
479.569	2146.71
479.94	2235.07
480.311	2227.38
480.682	2329.3
481.053	2339.25
481.424	2382.18
481.795	2400.04
482.166	2484.55
482.537	2513.48
482.908	2572.69
483.279	2606.58
483.65	2665.57
484.021	2754.38
484.391	2756.41
484.762	2785.79
485.133	2828.73
485.503	2864.2
485.874	2922.73
486.244	2977.65
486.615	3051.77
486.985	3090.64
487.356	3163.63
487.726	3169.51
488.097	3276.62
488.467	3281.37
488.837	3353.01
489.207	3415.15
489.578	3509.61
489.948	3522.72
490.318	3587.35
490.688	3659.66
491.058	3686.1
491.428	3763.39
491.798	3830.05
492.168	3908.02
492.538	3903.27
492.908	3945.53
493.278	4018.98
493.648	4033.44
494.017	4102.36
494.387	4111.63
494.757	4197.73
495.126	4240.44
495.496	4282.02
495.866	4346.65
496.235	4355.69
496.605	4409.93
496.974	4443.6
497.344	4506.65
497.713	4552.07
498.082	4589.81
498.452	4585.06
498.821	4692.63
499.19	4653.99
499.559	4754.78
499.928	4757.71
500.298	4855.34
500.667	4846.98
501.036	4851.5
501.405	4899.41
501.774	4911.83
502.143	5013.07
502.512	5027.54
502.88	5036.35
503.249	5086.97
503.618	5097.14
503.987	5086.07
504.356	5140.53
504.724	5262.56
505.093	5199.96
505.462	5228.21
505.83	5254.2
506.199	5274.54
506.567	5350.01
506.936	5401.31
507.304	5460.07
507.672	5468.88
508.041	5474.53
508.409	5546.62
508.777	5563.57
509.145	5603.57
509.514	5548.43
509.882	5583.23
510.25	5619.39
510.618	5678.59
510.986	5709.33
511.354	5748.65
511.722	5781.42
512.09	5821.19
512.458	5820.96
512.826	5900.28
513.193	5884.92
513.561	5905.71
513.929	5983.67
514.297	6007.4
514.664	6006.27
515.032	6058.7
515.4	6085.81
515.767	6129.88
516.135	6118.58
516.502	6118.81
516.869	6234.06
517.237	6256.21
517.604	6160.16
517.972	6281.97
518.339	6241.06
518.706	6288.07
519.073	6333.72
519.44	6316.54
519.808	6361.51
520.175	6365.13
520.542	6470.66
520.909	6454.84
521.276	6466.6
521.643	6546.82
522.009	6553.15
522.376	6624.33
522.743	6631.79
523.11	6711.56
523.477	6727.61
523.843	6798.11
524.21	6787.27
524.577	6852.12
524.943	6899.8
525.31	6882.63
525.676	6979.8
526.043	7021.61
526.409	7017.77
526.776	7053.25
527.142	7097.31
527.508	7119.23
527.874	7240.59
528.241	7218.89
528.607	7220.47
528.973	7323.3
529.339	7313.35
529.705	7346.8
530.071	7414.14
530.437	7433.35
530.803	7507.92
531.169	7532.1
531.535	7544.76
531.901	7547.7
532.267	7564.19
532.632	7618.43
532.998	7644.87
533.364	7697.75
533.73	7705.21
534.095	7798.76
534.461	7857.29
534.826	7893.68
535.192	7880.57
535.557	7928.48
535.923	7931.64
536.288	7993.34
536.653	8053.45
537.019	7994.69
537.384	8080.11
537.749	8120.56
538.114	8152.88
538.479	8224.97
538.845	8165.76
539.21	8214.35
539.575	8257.96
539.94	8290.73
540.305	8350.84
540.67	8346.77
541.034	8407.79
541.399	8476.71
541.764	8448.46
542.129	8448.69
542.494	8425.87
542.858	8522.13
543.223	8556.03
543.587	8637.61
543.952	8650.04
544.316	8682.36
544.681	8742.02
545.045	8707.21
545.41	8800.55
545.774	8815.69
546.138	8806.42
546.503	8821.11
546.867	8884.16
547.231	8995.34
547.595	8996.25
547.959	8923.71
548.324	8916.25
548.688	9078.73
549.052	9062.23
549.416	9062.01
549.779	9044.15
550.143	9121.21
550.507	9206.64
550.871	9236.69
551.235	9174.09
551.599	9271.72
551.962	9325.73
552.326	9390.13
552.689	9412.96
553.053	9386.97
553.417	9428.55
553.78	9564.37
554.143	9434.43
554.507	9521.2
554.87	9603.01
555.234	9646.62
555.597	9607.53
555.96	9708.32
556.323	9666.06
556.686	9659.51
557.05	9720.97
557.413	9740.86
557.776	9793.74
558.139	9834.42
558.502	9868.09
558.865	9873.51
559.228	9950.8
559.59	9925.04
559.953	10013.62
560.316	10081.42
560.679	10046.84
561.041	10151.7
561.404	10161.87
561.767	10277.57
562.129	10258.59
562.492	10366.61
562.854	10333.84
563.217	10317.57
563.579	10347.17
563.941	10412.25
564.304	10464.68
564.666	10471.46
565.028	10501.29
565.39	10546.26
565.753	10580.84
566.115	10640.95
566.477	10707.61
566.839	10704
567.201	10791.68
567.563	10794.62
567.925	10859.7
568.287	10936.53
568.648	10898.34
569.01	10986.48
569.372	11038.23
569.734	10987.83
570.095	11024.44
570.457	11146.25
570.819	11157.77
571.18	11184.89
571.542	11274.15
571.903	11326.81
572.265	11361.16
572.626	11514.6
572.987	11396.18
573.349	11479.12
573.71	11593.69
574.071	11604.99
574.432	11652.45
574.794	11806.79
575.155	11865.1
575.516	11863.74
575.877	11900.8
576.238	11967.69
576.599	12084.3
576.96	12165.2
577.32	12242.26
577.681	12348.93
578.042	12478.19
578.403	12457.85
578.763	12727.22
579.124	12725.87
579.485	12908.46
579.845	13058.06
580.206	13073.43
580.566	13112.3
580.927	13354.78
581.287	13419.18
581.648	13540.76
582.008	13729.68
582.368	13870.92
582.728	14039.05
583.089	14105.94
583.449	14332.83
583.809	14532.37
584.169	14665.7
584.529	14781.86
584.889	15049.87
585.249	15185.69
585.609	15349.75
585.969	15732.11
586.329	15822.73
586.688	16060.02
587.048	16193.35
587.408	16520.12
587.768	16728.47
588.127	16935.92
588.487	17103.6
588.846	17551.73
589.206	17615.68
589.565	17898.61
589.925	18362.1
590.284	18426.28
590.643	18668.99
591.003	18978.13
591.362	19281.17
591.721	19498.8
592.08	19895.62
592.44	20197.08
592.799	20459.9
593.158	20604.3
593.517	21075.25
593.876	21347.79
594.235	21482.47
594.593	21853.99
594.952	22277.03
595.311	22432.28
595.67	22711.14
596.029	23267.96
596.387	23411.23
596.746	23742.3
597.104	23986.13
597.463	24289.86
597.822	24685.33
598.18	24807.58
598.538	25137.52
598.897	25613.21
599.255	25664.96
599.613	26268.11
599.972	26349.91
600.33	26764.59
600.688	26840.98
601.046	27330.68
601.404	27591.46
601.762	27894.05
602.12	28206.14
602.478	28459.24
602.836	28798.66
603.194	28936.74
603.552	29206.56
603.91	29367.91
604.268	29832.76
604.625	29927
604.983	30369.24
605.341	30570.37
605.698	30889.68
606.056	31070.47
606.413	31303.23
606.771	31602.21
607.128	31778.92
607.485	31915.19
607.843	32213.72
608.2	32597.43
608.557	32869.29
608.914	32950.87
609.272	33324.42
609.629	33517.18
609.986	33853.9
610.343	33860.23
610.7	34277.62
611.057	34440.78
611.414	34533.43
611.771	34859.75
612.127	35077.14
612.484	35316.91
612.841	35512.39
613.198	35626.96
613.554	35697.92
613.911	35981.53
614.267	36181.29
614.624	36314.62
614.98	36576.76
615.337	36936.3
615.693	36898.34
616.05	37019.01
616.406	37477.31
616.762	37394.14
617.118	37520.92
617.475	37734.25
617.831	37878.2
618.187	38115.71
618.543	38090.85
618.899	38313.22
619.255	38518.86
619.611	38624.39
619.967	38782.13
620.323	38969.02
620.678	38934.89
621.034	39038.17
621.39	39220.54
621.746	39182.57
622.101	39722.9
622.457	39484.71
622.812	39750.69
623.168	39673.18
623.523	39934.87
623.879	40056.9
624.234	39782.33
624.589	40202.21
624.945	40318.13
625.3	40202.88
625.655	40348.64
626.01	40401.07
626.365	40491.46
626.72	40642.65
627.075	40487.85
627.43	40658.01
627.785	40612.82
628.14	40763.55
628.495	41003.99
628.85	40973.48
629.205	40778.69
629.559	40993.6
629.914	40989.98
630.269	40953.15
630.623	40942.53
630.978	40987.72
631.332	41340.71
631.687	41370.31
632.041	41191.78
632.396	41393.81
632.75	41253.48
633.104	41228.85
633.459	41192.91
633.813	41278.56
634.167	41164.67
634.521	41161.5
634.875	41275.62
635.229	41257.32
635.583	41051.45
635.937	41252.57
636.291	41198.56
636.645	41268.84
636.999	41269.07
637.352	41205.57
637.706	41176.42
638.06	41356.07
638.413	41271.56
638.767	41148.62
639.121	41329.18
639.474	41062.97
639.828	41190.88
640.181	41229.75
640.534	41118.11
640.888	41189.75
641.241	40919.25
641.594	41177.32
641.947	41098.45
642.301	41058
642.654	41115.4
643.007	41077.66
643.36	41139.81
643.713	41071.34
644.066	41222.74
644.419	40901.85
644.771	40598.35
645.124	40368.75
645.477	40312.71
645.83	40105.26
646.182	39946.85
646.535	39810.13
646.888	40074.98
647.24	39780.75
647.593	40026.17
647.945	40064.81
648.298	39902.55
648.65	39765.38
649.002	39771.03
649.355	39915.66
649.707	39830.24
650.059	39942.78
650.411	40492.82
650.763	40430.9
651.115	40949.76
651.467	40854.17
651.819	40755.86
652.171	40691.91
652.523	40562.2
652.875	40642.65
653.227	40606.94
653.578	40816.43
653.93	40437.45
654.282	40354.07
654.633	40350.9
654.985	40431.58
655.337	40402.43
655.688	40544.12
656.039	40500.73
656.391	40406.04
656.742	40387.51
657.094	40433.61
657.445	40447.4
657.796	40440.39
658.147	40368.98
658.498	40343.22
658.849	40386.16
659.2	40370.11
659.551	40300.73
659.902	40461.86
660.253	40374.86
660.604	40486.27
660.955	40314.29
661.306	40338.93
661.656	40441.3
662.007	40354.74
662.358	40312.94
662.708	40274.97
663.059	40352.71
663.409	40134.64
663.76	40425.02
664.11	40361.75
664.461	40448.3
664.811	40395.42
665.161	40347.51
665.511	40179.16
665.862	40255.09
666.212	40470
666.562	40458.02
666.912	40319.94
667.262	40308.87
667.612	40238.14
667.962	40285.59
668.312	40220.96
668.662	40392.26
669.011	40195.2
669.361	40268.42
669.711	40223.22
670.06	40030.23
670.41	40010.57
670.76	39951.59
671.109	40041.98
671.459	39986.17
671.808	39965.83
672.157	40085.15
672.507	39910.91
672.856	39870.69
673.205	39976
673.554	39999.5
673.904	39911.14
674.253	40029.55
674.602	40056.9
674.951	39512.73
675.3	39325.62
675.649	40003.34
675.998	39968.31
676.346	39846.96
676.695	40011.93
677.044	39598.83
677.393	39780.97
677.741	39833.85
678.09	39692.16
678.438	39623.24
678.787	39740.3
679.135	39885.83
679.484	39540.75
679.832	39751.37
680.181	39377.14
680.529	39383.47
680.877	39350.02
681.225	39258.5
681.573	39513.18
681.922	39292.63
682.27	39215.56
682.618	39208.56
682.966	39074.33
683.314	39240.2
683.661	39016.7
684.009	38893.09
684.357	38964.27
684.705	38717.72
685.053	38776.25
685.4	38839.98
685.748	38736.26
686.095	38621.23
686.443	38401.12
686.79	38408.13
687.138	38494.91
687.485	38466.43
687.832	38316.38
688.18	38423.72
688.527	38117.74
688.874	38208.81
689.221	38077.97
689.568	37947.8
689.915	37842.49
690.262	37894.47
690.609	37754.81
690.956	37647.02
691.303	37674.14
691.65	37413.58
691.997	37425.56
692.344	37317.08
692.69	37306.69
693.037	37248.16
693.383	36981.95
693.73	37180.82
694.077	36769.53
694.423	36932.24
694.769	36818.11
695.116	36645.01
695.462	36639.81
695.808	36455.19
696.155	36457.45
696.501	36190.56
696.847	36396.2
697.193	36021.07
697.539	36155.53
697.885	36074.4
698.231	35856.11
698.577	35821.08
698.923	35798.48
699.269	35629.67
699.614	35552.84
699.96	35503.57
700.306	35454.08
700.651	35291.83
700.997	35127.76
701.342	35073.98
701.688	35028.56
702.033	34935.45
702.379	34843.93
702.724	34809.58
703.069	34952.63
703.415	34321.68
703.76	34587.89
704.105	34614.1
704.45	34488.23
704.795	34301.57
705.14	34129.37
705.485	34180.22
705.83	33952.43
706.175	33878.3
706.52	33949.94
706.865	33826.78
707.209	33827.46
707.554	33576.17
707.899	33797.63
708.243	33474.47
708.588	33506.56
708.932	33407.81
709.277	33287.36
709.621	33290.07
709.966	33066.57
710.31	33183.41
710.654	32954.94
710.998	33037.87
711.342	33091.66
711.687	32900.7
712.031	32713.81
712.375	32627.49
712.719	32806.02
713.063	32531.22
713.407	32550.2
713.75	32326.03
714.094	32302.07
714.438	32163.09
714.782	32340.94
715.125	32136.88
715.469	32159.71
715.812	31990.44
716.156	31903.21
716.499	31877.68
716.843	31941.63
717.186	31715.2
717.53	31983.21
717.873	31763.56
718.216	31661.19
718.559	31603.34
718.902	31417.8
719.246	31408.31
719.589	31420.97
719.932	31204.02
720.275	31345.72
720.617	31213.06
720.96	31098.26
721.303	31243.35
721.646	31178.71
721.989	31005.84
722.331	31074.31
722.674	30932.17
723.016	30976.01
723.359	30886.52
723.701	30896.69
724.044	30755.22
724.386	30758.39
724.729	30859.17
725.071	30668.67
725.413	30719.97
725.755	30551.16
726.097	30539.41
726.439	30374.67
726.782	30477.49
727.124	30491.5
727.465	30362.46
727.807	30359.53
728.149	30172.19
728.491	30146.42
728.833	30094.22
729.175	30211.96
729.516	30089.7
729.858	30090.38
730.199	30113.21
730.541	29947.56
730.882	29861.01
731.224	30000.67
731.565	29894
731.906	29785.98
732.248	29791.18
732.589	29722.71
732.93	29579.21
733.271	29492.66
733.612	29612.65
733.953	29625.31
734.294	29490.17
734.635	29447.23
734.976	29456.27
735.317	29317.97
735.658	29244.08
735.999	29280.01
736.339	29266.9
736.68	29384.86
737.021	29173.57
737.361	29164.98
737.702	29381.02
738.042	28997.75
738.383	29113.01
738.723	29233.45
739.063	28919.11
739.404	28977.64
739.744	28823.75
740.084	28836.18
740.424	28870.3
740.764	28669.63
741.104	28838.66
741.444	28773.81
741.784	28593.25
742.124	28614.71
742.464	28595.73
742.804	28520.25
743.143	28421.5
743.483	28422.63
743.823	28395.96
744.162	28366.81
744.502	28434.15
744.841	28364.1
745.181	28379.47
745.52	28231.9
745.86	28342.63
746.199	28299.02
746.538	28109.42
746.877	28193.71
747.216	28198.68
747.556	28086.59
747.895	28078.91
748.234	27968.4
748.573	27911.68
748.911	28063.09
749.25	28000.49
749.589	27805.92
749.928	27843.66
750.267	27749.43
750.605	27805.92
750.944	27746.49
751.283	27589.2
751.621	27606.83
751.96	27566.38
752.298	27494.52
752.636	27556.66
752.975	27372.94
753.313	27296.56
753.651	27465.37
753.989	27284.58
754.327	27272.15
754.666	27106.96
755.004	27188.54
755.342	27248.87
755.679	27188.54
756.017	27104.7
756.355	27131.36
756.693	27035.09
757.031	26997.13
757.368	26858.6
757.706	26838.26
758.044	26771.6
758.381	26741.32
758.719	26686.85
759.056	26690.02
759.394	26597.82
759.731	26378.61
760.068	26350.37
760.405	26251.39
760.743	26168.22
761.08	26150.6
761.417	26066.76
761.754	25988.34
762.091	26047.1
762.428	25829.93
762.765	25730.04
763.102	25815.47
763.438	25748.57
763.775	25539.09
764.112	25718.29
764.449	25591.52
764.785	25509.48
765.122	25333.67
765.458	25281.92
765.795	25194.46
766.131	25159.44
766.467	25063.39
766.804	24974.36
767.14	24921.7
767.476	25001.93
767.812	24773.68
768.148	24785.44
768.485	24584.09
768.821	24486.23
769.157	24481.04
769.492	24359.46
769.828	24350.42
770.164	24141.39
770.5	24229.07
770.836	24213.93
771.171	24048.73
771.507	23898.91
771.842	23808.29
772.178	23807.83
772.513	23618.69
772.849	23686.48
773.184	23536.88
773.519	23499.59
773.855	23431.35
774.19	23272.93
774.525	23135.99
774.86	23244.01
775.195	23015.76
775.53	22998.36
775.865	22953.62
776.2	22830.01
776.535	22597.47
776.87	22605.83
777.205	22563.57
777.539	22490.35
777.874	22488.55
778.209	22227.54
778.543	22195.9
778.878	22103.02
779.212	22088.11
779.547	22010.14
779.881	22084.26
780.215	21859.86
780.55	21879.75
780.884	21726.99
781.218	21695.8
781.552	21628.68
781.886	21662.35
782.22	21408.35
782.554	21397.28
782.888	21216.72
783.222	21026.89
783.556	20940.79
783.889	20984.18
784.223	20871.41
784.557	20844.75
784.89	20744.19
785.224	20619.67
785.557	20574.93
785.891	20430.3
786.224	20448.6
786.558	20343.52
786.891	20353.24
787.224	20209.74
787.557	20178.78
787.891	20190.3
788.224	20017.65
788.557	20047.71
788.89	20080.93
789.223	20050.42
789.556	19835.74
789.888	19682.52
790.221	19733.14
790.554	19519.81
790.887	19461.06
791.219	19517.33
791.552	19385.13
791.884	19259.25
792.217	19247.73
792.549	19187.16
792.882	19036.21
793.214	19023.33
793.546	19076.21
793.879	18906.49
794.211	18885.48
794.543	18902.65
794.875	18704.24
795.207	18777.46
795.539	18584.24
795.871	18669.66
796.203	18461.76
796.535	18371.59
796.867	18445.94
797.198	18348.09
797.53	18265.61
797.862	18228.09
798.193	18261.09
798.525	18094.09
798.856	18090.24
799.188	17910.59
799.519	17874.43
799.85	17736.81
800.182	17724.38
800.513	17713.98
800.844	17492.97
801.175	17598.05
801.506	17696.13
801.837	17516.7
802.168	17464.05
802.499	17569.58
802.83	17403.94
803.161	17407.55
803.491	17278.74
803.822	17287.78
804.153	17222.02
804.483	17060.89
804.814	17085.3
805.145	17034
805.475	16955.59
805.805	16930.28
806.136	16897.96
806.466	16909.48
806.796	16776.38
807.126	16670.17
807.457	16634.01
807.787	16673.78
808.117	16496.84
808.447	16510.4
808.777	16491.42
809.107	16535.71
809.436	16409.61
809.766	16389.95
810.096	16293
810.426	16229.05
810.755	16353.57
811.085	16125.55
811.414	16232.44
811.744	16108.38
812.073	15939.79
812.403	15989.96
812.732	15891.88
813.061	15889.62
813.39	15823.19
813.719	15787.48
814.049	15830.64
814.378	15762.17
814.707	15691.44
815.036	15633.81
815.365	15648.05
815.693	15501.16
816.022	15488.05
816.351	15458.45
816.68	15386.13
817.008	15418
817.337	15383.42
817.665	15242.64
817.994	15318.11
818.322	15295.06
818.651	15225.46
818.979	15125.12
819.307	15227.95
819.636	15153.15
819.964	15121.28
820.292	15076.99
820.62	15094.62
820.948	14951.34
821.276	15015.75
821.604	15015.98
821.932	15032.02
822.259	15080.38
822.587	15062.3
822.915	15006.48
823.243	14996.77
823.57	14891.01
823.898	14897.79
824.225	14920.61
824.553	14902.98
824.88	14974.62
825.207	14957.67
825.535	14960.16
825.862	15003.77
826.189	14912.02
826.516	14903.66
826.843	15021.85
827.17	14945.69
827.497	14968.97
827.824	14904.57
828.151	14923.77
828.478	14910.44
828.805	14952.7
829.131	14891.01
829.458	14843.32
829.785	14762.65
830.111	14815.08
830.438	14983.43
830.764	14799.94
831.09	14872.93
831.417	14801.97
831.743	14829.09
832.069	14850.56
832.395	14786.83
832.722	14861.63
833.048	14838.58
833.374	14735.3
833.7	14731.24
834.026	14606.04
834.351	14736.89
834.677	14683.55
835.003	14716.1
835.329	14658.24
835.654	14627.06
835.98	14634.74
836.306	14658.24
836.631	14617.57
836.956	14566.5
837.282	14599.71
837.607	14588.87
837.932	14472.03
838.258	14573.5
838.583	14469.32
838.908	14404.69
839.233	14519.49
839.558	14364.47
839.883	14338.93
840.208	14312.49
840.533	14248.54
840.858	14312.04
841.182	14317.01
841.507	14279.95
841.832	14184.58
842.156	14151.14
842.481	14104.36
842.805	14125.6
843.13	14054.19
843.454	14048.32
843.778	14050.58
844.103	14011.26
844.427	13973.52
844.751	13943.24
845.075	13957.02
845.399	13819.62
845.723	13768.78
846.047	13809.68
846.371	13733.52
846.695	13628.44
847.019	13524.72
847.343	13493.3
847.666	13440.65
847.99	13434.32
848.313	13388.45
848.637	13200.2
848.96	13251.5
849.284	13121.34
849.607	13119.3
849.931	13069.13
850.254	12998.18
850.577	12913.43
850.9	12844.28
851.223	12848.35
851.546	12724.28
851.869	12685.42
852.192	12743.04
852.515	12642.93
852.838	12597.06
853.161	12585.3
853.483	12556.6
853.806	12500.11
854.129	12517.28
854.451	12490.62
854.774	12388.93
855.096	12277.52
855.419	12301.47
855.741	12306.44
856.063	12288.59
856.385	12162.26
856.708	12125.66
857.03	12119.1
857.352	12067.58
857.674	12002.04
857.996	11983.06
858.318	11950.97
858.64	11912.55
858.961	11894.93
859.283	11859
859.605	11791.2
859.926	11842.5
860.248	11743.29
860.57	11661.04
860.891	11763.41
861.212	11620.58
861.534	11652.9
861.855	11533.13
862.176	11677.98
862.498	11606.57
862.819	11598.89
863.14	11513.92
863.461	11484.77
863.782	11535.84
864.103	11503.3
864.424	11391.89
864.745	11440.25
865.065	11291.33
865.386	11289.52
865.707	11316.64
866.027	11337.88
866.348	11255.85
866.668	11342.63
866.989	11288.16
867.309	11221.72
867.63	11193.25
867.95	11254.27
868.27	11159.13
868.59	11131.33
868.91	11137.43
869.23	11123.2
869.55	11071.45
869.87	11090.88
870.19	11004.78
870.51	11089.98
870.83	11070.54
871.15	10962.52
871.469	10971.56
871.789	11008.17
872.109	10945.57
872.428	10884.78
872.748	10947.61
873.067	10925.24
873.386	10929.53
873.706	10853.6
874.025	10798.23
874.344	10767.73
874.663	10812.02
874.982	10769.31
875.301	10758.23
875.62	10773.37
875.939	10726.6
876.258	10788.06
876.577	10687.28
876.896	10673.49
877.214	10640.5
877.533	10688.86
877.852	10636.43
878.17	10591.01
878.489	10596.2
878.807	10661.74
879.125	10602.31
879.444	10592.14
879.762	10552.36
880.08	10505.36
880.398	10529.77
880.716	10506.72
881.034	10481.86
881.352	10490.9
881.67	10391.01
881.988	10463.78
882.306	10391.01
882.624	10299.04
882.941	10302.65
883.259	10244.12
883.577	10233.95
883.894	10258.81
884.212	10144.92
884.529	10218.59
884.846	10194.86
885.164	10172.94
885.481	10130.23
885.798	10121.19
886.115	10049.33
886.432	10031.7
886.75	10041.19
887.067	9993.96
887.383	9922.32
887.7	10027.63
888.017	9923.68
888.334	9910.12
888.651	9897.92
888.967	9920.52
889.284	9843.23
889.6	9821.76
889.917	9753.06
890.233	9765.04
890.55	9706.28
890.866	9721.2
891.182	9707.41
891.498	9626.29
891.815	9611.6
892.131	9563.92
892.447	9577.25
892.763	9468.55
893.079	9469.23
893.395	9459.06
893.71	9450.02
894.026	9403.69
894.342	9426.52
894.657	9316.69
894.973	9356.24
895.289	9311.72
895.604	9356.01
895.92	9200.53
896.235	9210.93
896.55	9217.48
896.865	9121.67
897.181	9082.57
897.496	9071.5
897.811	9079.18
898.126	9036.7
898.441	9014.78
898.756	8951.73
899.071	8953.08
899.386	8873.09
899.7	8850.94
900.015	8853.2
900.33	8774.11
900.644	8746.31
900.959	8758.51
901.273	8726.88
901.588	8682.58
901.902	8595.81
902.216	8592.19
902.531	8564.17
902.845	8535.47
903.159	8554.68
903.473	8446.88
903.787	8350.16
904.101	8401.91
904.415	8395.13
904.729	8388.8
905.042	8355.13
905.356	8300.45
905.67	8288.92
905.984	8270.84
906.297	8279.66
906.611	8181.8
906.924	8103.16
907.237	8135.7
907.551	8123.73
907.864	8033.33
908.177	7999.44
908.491	7997.4
908.804	7973.45
909.117	7940
909.43	7930.06
909.743	7838.08
910.056	7856.84
910.368	7791.53
910.681	7718.54
910.994	7698.65
911.307	7741.36
911.619	7655.94
911.932	7751.76
912.244	7573.69
912.557	7621.37
912.869	7558.77
913.181	7519.22
913.494	7441.94
913.806	7470.41
914.118	7428.15
914.43	7375.72
914.742	7396.06
915.054	7326.91
915.366	7309.29
915.678	7302.05
915.99	7261.38
916.302	7241.26
916.613	7162.85
916.925	7182.06
917.236	7144.77
917.548	7072.91
917.859	7054.6
918.171	7014.83
918.482	7004.21
918.794	6981.16
919.105	6979.58
919.416	6925.57
919.727	6884.21
920.038	6892.57
920.349	6775.29
920.66	6721.28
920.971	6754.72
921.282	6730.32
921.593	6693.26
921.903	6648.29
922.214	6630.21
922.525	6664.56
922.835	6603.54
923.146	6509.31
923.456	6475.63
923.767	6558.57
924.077	6515.18
924.387	6463.88
924.697	6411.46
925.008	6413.04
925.318	6410.55
925.628	6328.52
925.938	6342.3
926.248	6265.47
926.558	6212.36
926.867	6307.73
927.177	6237.67
927.487	6218.24
927.796	6085.59
928.106	6139.6
928.416	6062.54
928.725	6092.59
929.034	6065.02
929.344	6039.26
929.653	5972.6
929.962	5966.5
930.271	5956.78
930.581	5941.19
930.89	5924.24
931.199	5870.45
931.508	5848.53
931.817	5877.68
932.125	5815.31
932.434	5819.61
932.743	5732.38
933.051	5700.97
933.36	5686.5
933.669	5696.22
933.977	5615.32
934.286	5633.62
934.594	5635.2
934.902	5548.65
935.21	5521.76
935.519	5612.15
935.827	5538.26
936.135	5458.03
936.443	5447.19
936.751	5436.57
937.059	5441.31
937.367	5374.87
937.674	5411.48
937.982	5393.18
938.29	5334.87
938.597	5343.91
938.905	5256.23
939.213	5264.82
939.52	5251.03
939.827	5288.32
940.135	5204.93
940.442	5185.27
940.749	5131.26
941.056	5183.47
941.363	5149.12
941.67	5089.23
941.977	5082
942.284	5040.19
942.591	5021.21
942.898	4973.75
943.205	5005.39
943.511	4974.21
943.818	4956.58
944.125	4945.28
944.431	4889.01
944.738	4885.39
945.044	4876.35
945.35	4867.77
945.657	4856.24
945.963	4762.23
946.269	4764.27
946.575	4743.25
946.881	4724.95
947.187	4664.83
947.493	4654.44
947.799	4668.9
948.105	4677.26
948.41	4584.61
948.716	4623.25
949.022	4604.95
949.327	4571.73
949.633	4554.1
949.938	4530.83
950.244	4481.11
950.549	4471.17
950.854	4437.27
951.16	4413.99
951.465	4381.9
951.77	4399.08
952.075	4399.76
952.38	4359.76
952.685	4395.92
952.99	4336.93
953.294	4322.47
953.599	4263.04
953.904	4321.12
954.209	4237.28
954.513	4234.79
954.818	4244.96
955.122	4236.37
955.426	4174.23
955.731	4195.92
956.035	4075.92
956.339	4147.11
956.643	4112.76
956.948	4090.84
957.252	4055.13
957.556	4087
957.86	4060.56
958.163	4013.55
958.467	4037.05
958.771	3997.28
959.075	4009.26
959.378	3962.71
959.682	3924.74
959.985	3920.45
960.289	3894.46
960.592	3868.7
960.896	3825.08
961.199	3906.89
961.502	3839.55
961.805	3829.83
962.108	3747.12
962.411	3841.35
962.714	3775.59
963.017	3759.77
963.32	3773.33
963.623	3707.35
963.926	3708.02
964.228	3697.85
964.531	3650.85
964.833	3717.29
965.136	3615.82
965.438	3611.08
965.741	3595.03
966.043	3579.67
966.345	3542.15
966.648	3604.98
966.95	3536.05
967.252	3517.07
967.554	3491.76
967.856	3511.42
968.158	3488.82
968.46	3462.15
968.761	3385.77
969.063	3471.42
969.365	3458.76
969.666	3413.57
969.968	3399.78
970.269	3339.9
970.571	3374.47
970.872	3382.38
971.174	3368.82
971.475	3308.03
971.776	3285.89
972.077	3330.41
972.378	3294.02
972.679	3254.93
972.98	3210.86
973.281	3229.17
973.582	3229.84
973.883	3206.79
974.183	3194.59
974.484	3214.03
974.785	3132.22
975.085	3143.07
975.386	3150.98
975.686	3131.32
975.986	3119.56
976.287	3102.84
976.587	3058.55
976.887	3080.02
977.187	3065.33
977.487	3019.23
977.787	3022.17
978.087	3040.24
978.387	2995.27
978.687	3028.04
978.987	2991.43
979.286	2949.17
979.586	2945.11
979.885	2967.25
980.185	2939.23
980.484	2870.31
980.784	2905.79
981.083	2896.52
981.382	2882.51
981.682	2880.25
981.981	2829.85
982.28	2861.27
982.579	2819.69
982.878	2800.03
983.177	2843.19
983.475	2814.49
983.774	2758.67
984.073	2744.21
984.372	2746.47
984.67	2747.6
984.969	2730.2
985.267	2706.24
985.566	2693.59
985.864	2699.46
986.162	2700.59
986.461	2645.91
986.759	2665.57
987.057	2597.54
987.355	2607.71
987.653	2614.27
987.951	2603.19
988.249	2607.94
988.547	2589.86
988.844	2573.82
989.142	2572.91
989.44	2563.87
989.737	2505.57
990.035	2514.38
990.332	2535.63
990.63	2483.42
990.927	2480.03
991.224	2518.45
991.521	2453.59
991.819	2482.97
992.116	2430.77
992.413	2446.81
992.71	2455.18
993.006	2406.82
993.303	2449.53
993.6	2401.62
993.897	2376.99
994.193	2370.21
994.49	2316.42
994.787	2358
995.083	2338.79
995.379	2320.72
995.676	2320.04
995.972	2296.08
996.268	2283.2
996.565	2254.05
996.861	2249.53
997.157	2228.51
997.453	2220.83
997.749	2205.01
998.044	2205.92
998.34	2201.17
998.636	2188.74
998.932	2198.69
999.227	2188.06
999.523	2156.65
999.818	2143.55
1000.114	2135.64
1000.409	2119.14
1000.704	2104.9
1001	2103.55
1001.295	2103.77
1001.59	2091.8
1001.885	2089.99
1002.18	2050.89
1002.475	2064.23
1002.77	2058.12
1003.065	2010.22
1003.359	2026.49
1003.654	2012.48
1003.949	2006.83
1004.243	1953.04
1004.538	1949.65
1004.832	1972.02
1005.127	1935.64
1005.421	1976.32
1005.715	1924.34
1006.009	1910.33
1006.304	1908.98
1006.598	1916.66
1006.892	1887.28
1007.186	1911.91
1007.48	1885.92
1007.773	1861.07
1008.067	1882.76
1008.361	1813.16
1008.655	1840.28
1008.948	1828.98
1009.242	1821.52
1009.535	1826.27
1009.829	1789.88
1010.122	1788.75
1010.415	1768.64
1010.708	1748.3
1011.001	1758.92
1011.295	1746.27
1011.588	1729.32
1011.881	1732.71
1012.173	1689.09
1012.466	1690.22
1012.759	1707.4
1013.052	1669.89
1013.344	1666.72
1013.637	1661.07
1013.93	1650.45
1014.222	1637.8
1014.514	1645.25
1014.807	1612.94
1015.099	1610.68
1015.391	1602.54
1015.683	1610.9
1015.976	1618.36
1016.268	1575.65
1016.56	1553.96
1016.851	1539.49
1017.143	1535.65
1017.435	1550.11
1017.727	1515.54
1018.018	1527.06
1018.31	1529.78
1018.602	1523.67
1018.893	1505.14
1019.185	1472.38
1019.476	1456.33
1019.767	1476.44
1020.058	1456.33
1020.35	1435.77
1020.641	1420.4
1020.932	1419.95
1021.223	1398.25
1021.514	1409.55
1021.804	1401.64
1022.095	1394.86
1022.386	1362.55
1022.677	1347.86
1022.967	1350.8
1023.258	1333.4
1023.548	1360.97
1023.839	1347.41
1024.129	1334.53
1024.419	1310.12
1024.709	1301.53
1025	1294.75
1025.29	1294.98
1025.58	1291.14
1025.87	1286.62
1026.16	1266.51
1026.449	1247.98
1026.739	1264.25
1027.029	1245.49
1027.319	1238.03
1027.608	1240.97
1027.898	1216.11
1028.187	1236.22
1028.477	1215.89
1028.766	1202.1
1029.055	1203.01
1029.344	1212.72
1029.634	1189.22
1029.923	1151.03
1030.212	1150.8
1030.501	1143.57
1030.79	1148.54
1031.078	1129.11
1031.367	1125.72
1031.656	1134.98
1031.945	1110.35
1032.233	1124.36
1032.522	1108.09
1032.81	1097.47
1033.099	1093.86
1033.387	1083.91
1033.675	1073.74
1033.963	1077.58
1034.251	1062.44
1034.54	1061.99
1034.828	1039.62
1035.116	1063.35
1035.403	1014.76
1035.691	1040.3
1035.979	1054.08
1036.267	1004.14
1036.554	1004.14
1036.842	1014.08
1037.129	969.11
1037.417	995.1
1037.704	980.86
1037.992	976.12
1038.279	960.53
1038.566	953.97
1038.853	953.97
1039.14	953.97
