Data from hue_60_FLMS001491_75.txt Node
Date: Mon Feb 06 15:17:54 GMT 2017
User: dcchb
Spectrometer: FLMS00149
Trigger mode: 0
Integration Time (sec): 2.000000E-2
Scans to average: 10
Electric dark correction enabled: true
Nonlinearity correction enabled: false
Boxcar width: 0
XAxis mode: Wavelengths
Number of Pixels in Spectrum: 2048
>>>>>Begin Spectral Data<<<<<
341.393	-17.29
341.776	-17.29
342.16	-17.29
342.543	-69.04
342.927	-61.58
343.31	-72.88
343.693	-76.04
344.077	-79.88
344.46	-44.86
344.843	-51.64
345.226	-49.38
345.61	-33.56
345.993	-17.51
346.376	2.6
346.759	6.44
347.142	25.42
347.525	14.8
347.908	62.26
348.291	89.15
348.674	103.16
349.057	121.92
349.44	111.97
349.823	147.68
350.206	172.76
350.588	191.75
350.971	222.48
351.354	228.13
351.737	243.95
352.119	261.8
352.502	253.21
352.884	270.16
353.267	284.17
353.65	285.76
354.032	300.9
354.414	322.36
354.797	317.17
355.179	336.38
355.562	305.87
355.944	331.63
356.326	329.14
356.709	340.67
357.091	350.84
357.473	352.42
357.855	346.32
358.238	369.82
358.62	327.79
359.002	359.88
359.384	328.69
359.766	359.43
360.148	338.64
360.53	332.99
360.912	333.66
361.294	322.59
361.676	335.92
362.057	329.37
362.439	320.78
362.821	323.27
363.203	314.23
363.584	336.83
363.966	330.05
364.348	338.86
364.729	330.27
365.111	313.55
365.493	306.55
365.874	301.57
366.256	326.88
366.637	341.57
367.019	292.08
367.4	306.77
367.781	338.41
368.163	326.66
368.544	324.4
368.925	321.46
369.306	318.97
369.688	320.1
370.069	314.68
370.45	319.65
370.831	318.07
371.212	318.97
371.593	316.04
371.974	303.83
372.355	308.58
372.736	308.35
373.117	333.66
373.498	314.23
373.879	307.9
374.26	297.96
374.641	319.2
375.021	319.2
375.402	335.7
375.783	339.99
376.163	337.96
376.544	341.35
376.925	344.28
377.305	320.56
377.686	325.75
378.066	307.9
378.447	321.69
378.827	345.87
379.208	332.76
379.588	343.15
379.968	327.11
380.349	315.13
380.729	331.18
381.109	333.89
381.489	355.13
381.87	339.54
382.25	341.12
382.63	358.75
383.01	344.74
383.39	328.47
383.77	353.1
384.15	338.41
384.53	330.05
384.91	351.29
385.29	345.41
385.67	349.48
386.049	362.14
386.429	336.83
386.809	350.39
387.189	338.64
387.568	363.27
387.948	347.67
388.328	342.25
388.707	356.49
389.087	372.98
389.466	340.67
389.846	347.67
390.225	373.44
390.605	368.69
390.984	372.76
391.363	370.27
391.743	369.14
392.122	353.55
392.501	346.54
392.881	367.11
393.26	370.95
393.639	373.44
394.018	372.31
394.397	375.92
394.776	365.53
395.155	373.21
395.534	384.06
395.913	386.09
396.292	378.63
396.671	392.65
397.05	384.51
397.429	389.48
397.808	403.72
398.186	397.84
398.565	402.59
398.944	387.22
399.323	393.32
399.701	392.19
400.08	394.9
400.458	370.72
400.837	413.21
401.215	369.37
401.594	394.23
401.972	397.84
402.351	416.83
402.729	407.11
403.107	412.76
403.486	389.93
403.864	413.89
404.242	419.99
404.62	417.05
404.999	419.76
405.377	408.24
405.755	417.05
406.133	428.12
406.511	408.24
406.889	433.77
407.267	418.18
407.645	412.53
408.023	398.07
408.401	427.45
408.779	451.85
409.156	444.85
409.534	432.19
409.912	453.66
410.29	432.42
410.667	452.3
411.045	466.09
411.422	437.84
411.8	444.4
412.178	458.63
412.555	454.11
412.933	467.67
413.31	458.18
413.687	468.58
414.065	464.96
414.442	461.12
414.819	470.84
415.197	480.33
415.574	497.95
415.951	477.84
416.328	486.65
416.705	499.99
417.082	485.3
417.46	475.13
417.837	488.69
418.214	511.96
418.591	476.94
418.967	495.92
419.344	518.97
419.721	521
420.098	523.94
420.475	509.03
420.852	500.66
421.228	511.29
421.605	505.64
421.982	535.01
422.358	510.16
422.735	524.39
423.111	523.72
423.488	552.19
423.864	533.88
424.241	561.45
424.617	550.83
424.994	542.02
425.37	551.06
425.746	551.06
426.123	551.74
426.499	556.71
426.875	563.49
427.251	552.19
427.627	572.75
428.003	584.96
428.379	573.43
428.756	592.41
429.132	592.87
429.507	601.45
429.883	608.91
430.259	607.33
430.635	583.15
431.011	594.45
431.387	612.75
431.763	602.81
432.138	624.96
432.514	656.82
432.89	641.68
433.265	644.84
433.641	648.46
434.016	654.56
434.392	611.17
434.767	669.02
435.143	656.37
435.518	645.75
435.894	672.19
436.269	672.64
436.644	666.08
437.02	684.84
437.395	685.74
437.77	722.13
438.145	685.29
438.52	695.01
438.895	704.73
439.271	707.67
439.646	750.6
440.021	715.57
440.395	732.75
440.77	705.63
441.145	738.4
441.52	723.48
441.895	749.92
442.27	764.84
442.645	766.19
443.019	759.87
443.394	752.41
443.769	775.23
444.143	792.18
444.518	755.57
444.892	780.43
445.267	785.4
445.641	787.66
446.016	789.47
446.39	789.02
446.764	799.19
447.139	799.19
447.513	830.37
447.887	809.36
448.262	824.27
448.636	816.81
449.01	824.05
449.384	838.51
449.758	833.54
450.132	833.76
450.506	828.11
450.88	834.89
451.254	854.1
451.628	847.55
452.002	863.14
452.376	874.67
452.75	877.15
453.123	897.26
453.497	897.04
453.871	924.61
454.244	922.35
454.618	947.66
454.992	919.86
455.365	944.72
455.739	966.42
456.112	948.79
456.486	971.39
456.859	969.81
457.232	991.27
457.606	972.74
457.979	1014.1
458.352	989.47
458.725	1037.6
459.099	1041.22
459.472	1047.54
459.845	1047.54
460.218	1070.37
460.591	1084.83
460.964	1099.75
461.337	1117.82
461.71	1109.69
462.083	1142
462.456	1159.4
462.829	1134.32
463.201	1186.97
463.574	1192.85
463.947	1183.81
464.32	1220.65
464.692	1226.97
465.065	1277.82
465.438	1264.03
465.81	1287.54
466.183	1306.07
466.555	1299.29
466.928	1334.77
467.3	1340.87
467.672	1362.79
468.045	1375.67
468.417	1416.12
468.789	1448.21
469.161	1450.02
469.534	1465.16
469.906	1523.46
470.278	1513.29
470.65	1559.62
471.022	1596
471.394	1604.59
471.766	1645.95
472.138	1691.82
472.51	1689.11
472.882	1727.07
473.253	1761.2
473.625	1826.28
473.997	1857.47
474.369	1866.73
474.74	1918.48
475.112	1984.24
475.484	2003.45
475.855	2032.6
476.227	2129.32
476.598	2206.16
476.97	2220.39
477.341	2271.69
477.713	2295.19
478.084	2393.27
478.455	2490.67
478.827	2523.66
479.198	2580.84
479.569	2661.96
479.94	2760.04
480.311	2792.13
480.682	2883.88
481.053	2984.44
481.424	3087.94
481.795	3189.18
482.166	3227.15
482.537	3316.64
482.908	3493.13
483.279	3554.37
483.65	3651.54
484.021	3750.97
484.391	3856.51
484.762	3974.25
485.133	4051.53
485.503	4159.78
485.874	4295.82
486.244	4403.16
486.615	4505.31
486.985	4602.48
487.356	4803.83
487.726	4882.02
488.097	5101.22
488.467	5174.21
488.837	5325.4
489.207	5475.68
489.578	5652.39
489.948	5720.64
490.318	5935.1
490.688	6001.54
491.058	6179.39
491.428	6383.45
491.798	6465.25
492.168	6637.68
492.538	6768.3
492.908	6972.36
493.278	7141.85
493.648	7233.6
494.017	7473.81
494.387	7574.83
494.757	7722.85
495.126	7923.52
495.496	8034.25
495.866	8221.82
496.235	8427.91
496.605	8540.45
496.974	8680.79
497.344	8813.44
497.713	8968.24
498.082	9121.68
498.452	9292.98
498.821	9509.02
499.19	9584.27
499.559	9785.39
499.928	9860.87
500.298	10093.18
500.667	10285.49
501.036	10374.3
501.405	10541.3
501.774	10624.01
502.143	10864.91
502.512	10976.32
502.88	11089.54
503.249	11280.04
503.618	11395.07
503.987	11502.41
504.356	11710.77
504.724	11861.72
505.093	11936.52
505.462	12130.64
505.83	12201.83
506.199	12391.2
506.567	12597.07
506.936	12618.09
507.304	12914.12
507.672	13024.86
508.041	13194.79
508.409	13278.63
508.777	13445.64
509.145	13622.13
509.514	13662.13
509.882	13830.03
510.25	14038.61
510.618	14152.51
510.986	14309.12
511.354	14411.03
511.722	14641.08
512.09	14733.28
512.458	14842.43
512.826	15030.23
513.193	15094.86
513.561	15236.55
513.929	15402.19
514.297	15567.84
514.664	15731.9
515.032	15820.04
515.4	15999.92
515.767	16035.85
516.135	16201.04
516.502	16146.13
516.869	16479.45
517.237	16589.51
517.604	16644.65
517.972	16866.11
518.339	17004.41
518.706	17105.43
519.073	17316.49
519.44	17347.23
519.808	17615.7
520.175	17693.21
520.542	17913.77
520.909	18030.15
521.276	18025.18
521.643	18296.81
522.009	18465.84
522.376	18482.34
522.743	18671.03
523.11	18955.09
523.477	19098.59
523.843	19279.15
524.21	19480.96
524.577	19573.84
524.943	19629.88
525.31	19798.01
525.676	19986.25
526.043	20111.67
526.409	20251.56
526.776	20470.99
527.142	20598.89
527.508	20731.77
527.874	20879.34
528.241	21010.63
528.607	21111.87
528.973	21291.08
529.339	21369.95
529.705	21609.04
530.071	21753.44
530.437	21790.73
530.803	21957.73
531.169	22053.77
531.535	22006.31
531.901	22284.27
532.267	22330.83
532.632	22478.62
532.998	22591.38
533.364	22744.83
533.73	22741.21
534.095	23002.22
534.461	23023.24
534.826	23237.47
535.192	23297.35
535.557	23538.03
535.923	23462.09
536.288	23535.09
536.653	23736.66
537.019	23637.23
537.384	23793.61
537.749	23902.08
538.114	23884.46
538.479	23951.35
538.845	24181.62
539.21	24171.23
539.575	24266.37
539.94	24310.43
540.305	24476.53
540.67	24477.89
541.034	24640.37
541.399	24784.77
541.764	24905.45
542.129	24878.78
542.494	24977.76
542.858	25090.3
543.223	25116.06
543.587	25342.05
543.952	25300.46
544.316	25385.89
544.681	25271.31
545.045	25453.46
545.41	25622.72
545.774	25682.83
546.138	25640.79
546.503	25809.38
546.867	25836.72
547.231	26072.65
547.595	26002.37
547.959	26223.83
548.324	26059.54
548.688	26260.44
549.052	26360.78
549.416	26386.09
549.779	26598.96
550.143	26575.69
550.507	26809.13
550.871	26853.87
551.235	26871.95
551.599	27004.37
551.962	27098.38
552.326	27238.04
552.689	27532.5
553.053	27430.8
553.417	27317.59
553.78	27682.55
554.143	27722.32
554.507	27763.68
554.87	27850.68
555.234	28155.76
555.597	28053.84
555.96	28231.24
556.323	28423.55
556.686	28306.49
557.05	28618.8
557.413	28590.55
557.776	28735.4
558.139	28877.55
558.502	28976.3
558.865	29006.58
559.228	29246.35
559.59	29282.28
559.953	29305.33
560.316	29671.88
560.679	29662.16
561.041	29766.56
561.404	30016.72
561.767	30150.96
562.129	30131.98
562.492	30414
562.854	30539.2
563.217	30400.9
563.579	30639.99
563.941	30739.42
564.304	30966.08
564.666	31079.3
565.028	31277.93
565.39	31215.56
565.753	31559.74
566.115	31444.71
566.477	31628.21
566.839	31835.89
567.201	31954.3
567.563	31926.28
567.925	32274.29
568.287	32276.78
568.648	32382.99
569.01	32624.34
569.372	32709.08
569.734	32668.18
570.095	32903.65
570.457	33089.64
570.819	33088.73
571.18	33115.85
571.542	33434.04
571.903	33415.96
572.265	33492.57
572.626	33597.65
572.987	33699.57
573.349	33771.65
573.71	33895.04
574.071	33925.77
574.432	34206.45
574.794	34359.21
575.155	34270.85
575.516	34258.2
575.877	34303.62
576.238	34495.03
576.599	34735.02
576.96	34617.06
577.32	34683.49
577.681	34807.56
578.042	34913.77
578.403	34987.89
578.763	35004.39
579.124	34941.12
579.485	35104.05
579.845	35280.77
580.206	35240.77
580.566	35121.22
580.927	35229.92
581.287	35359.64
581.648	35259.52
582.008	35474.43
582.368	35316.47
582.728	35510.82
583.089	35587.43
583.449	35632.17
583.809	35660.42
584.169	35712.85
584.529	35522.57
584.889	35811.6
585.249	35493.64
585.609	35545.85
585.969	35729.79
586.329	35752.85
586.688	35735.67
587.048	35807.53
587.408	35804.6
587.768	35666.97
588.127	35728.21
588.487	35708.33
588.846	35943.57
589.206	35732.73
589.565	35761.21
589.925	35895.89
590.284	35826.97
590.643	35807.76
591.003	36015.21
591.362	36204.36
591.721	35991.26
592.08	36057.47
592.44	36074.19
592.799	36118.03
593.158	36098.37
593.517	35964.82
593.876	36229.89
594.235	36154.64
594.593	36050.46
594.952	36252.04
595.311	36166.85
595.67	36195.09
596.029	36419.95
596.387	36454.52
596.746	36442.77
597.104	36300.85
597.463	36407.97
597.822	36491.81
598.18	36524.8
598.538	36478.48
598.897	36794.4
599.255	36432.38
599.613	36993.26
599.972	36733.61
600.33	36844.12
600.688	36686.15
601.046	36770.67
601.404	36774.97
601.762	36863.32
602.12	37162.53
602.478	37134.96
602.836	37009.99
603.194	36937.22
603.552	36986.94
603.91	36909.42
604.268	37140.38
604.625	37010.44
604.983	37275.97
605.341	37076.43
605.698	37237.55
606.056	37421.05
606.413	37288.85
606.771	37463.99
607.128	37529.07
607.485	37413.14
607.843	37461.27
608.2	37638.22
608.557	37899.68
608.914	37669.86
609.272	38003.41
609.629	37981.71
609.986	38011.54
610.343	37911.88
610.7	38293.8
611.057	38147.36
611.414	38261.71
611.771	38321.82
612.127	38363.4
612.484	38405.66
612.841	38398.88
613.198	38466.45
613.554	38485.88
613.911	38586.9
614.267	38709.38
614.624	38628.93
614.98	38786.66
615.337	38946.66
615.693	38828.24
616.05	38843.39
616.406	39138.52
616.762	38918.86
617.118	39056.49
617.475	38981.69
617.831	39135.58
618.187	39209.93
618.543	39322.02
618.899	39525.85
619.255	39381.45
619.611	39385.97
619.967	39483.59
620.323	39667.32
620.678	39455.8
621.034	39305.52
621.39	39329.25
621.746	39426.19
622.101	39892.85
622.457	39532.18
622.812	39737.15
623.168	39768.78
623.523	39785.96
623.879	39920.42
624.234	39553.88
624.589	39843.13
624.945	39881.1
625.3	39884.04
625.655	39943.02
626.01	39951.15
626.365	39940.08
626.72	39906.41
627.075	40039.74
627.43	39922.68
627.785	39820.08
628.14	40012.62
628.495	40018.95
628.85	39983.92
629.205	39834.32
629.559	40207.42
629.914	40110.7
630.269	40037.7
630.623	39960.42
630.978	39907.76
631.332	40090.36
631.687	40145.5
632.041	40009.91
632.396	40115.22
632.75	39845.17
633.104	39965.62
633.459	39821.21
633.813	39831.61
634.167	39794.55
634.521	39745.73
634.875	39822.12
635.229	39797.94
635.583	39622.35
635.937	39717.26
636.291	39624.16
636.645	39576.02
636.999	39587.77
637.352	39738.05
637.706	39499.64
638.06	39582.58
638.413	39561.56
638.767	39468.23
639.121	39471.17
639.474	39347.78
639.828	39310.94
640.181	39270.72
640.534	39304.39
640.888	39313.66
641.241	39230.27
641.594	39210.16
641.947	39387.55
642.301	39102.59
642.654	39217.39
643.007	39187.78
643.36	39104.4
643.713	39007.22
644.066	39268.68
644.419	39066.2
644.771	38698.76
645.124	38372.66
645.477	38314.36
645.83	38041.6
646.182	38054.25
646.535	37856.29
646.888	38007.7
647.24	37668.95
647.593	37968.15
647.945	37837.76
648.298	37727.26
648.65	37645.45
649.002	37492.91
649.355	37751.44
649.707	37633.02
650.059	37792.11
650.411	38194.59
650.763	38328.37
651.115	38591.87
651.467	38444.53
651.819	38537.63
652.171	38482.26
652.523	38308.26
652.875	38437.52
653.227	38229.62
653.578	38466.67
653.93	38474.58
654.282	38172.67
654.633	38184.65
654.985	38161.82
655.337	38369.27
655.688	38251.99
656.039	38365.43
656.391	37930.64
656.742	38088.83
657.094	38030.3
657.445	38181.71
657.796	38162.5
658.147	38142.39
658.498	38027.59
658.849	38057.87
659.2	37907.59
659.551	37925.22
659.902	37976.06
660.253	38080.92
660.604	37908.72
660.955	37783.75
661.306	37880.7
661.656	37958.21
662.007	37974.03
662.358	37872.79
662.708	37912.56
663.059	37881.38
663.409	37543.31
663.76	37845.9
664.11	37970.64
664.461	37767.48
664.811	37951.66
665.161	37806.12
665.511	37685.22
665.862	37759.35
666.212	37877.31
666.562	37753.7
666.912	37822.4
667.262	37703.08
667.612	37753.02
667.962	37763.19
668.312	37663.76
668.662	37887.03
669.011	37711.44
669.361	37561.16
669.711	37642.74
670.06	37631.67
670.41	37512.12
670.76	37497.66
671.109	37684.32
671.459	37750.98
671.808	37586.92
672.157	37700.14
672.507	37548.73
672.856	37575.4
673.205	37493.59
673.554	37695.84
673.904	37457.21
674.253	37670.08
674.602	37556.19
674.951	36971.34
675.3	36869.2
675.649	37284.33
675.998	37299.25
676.346	37405.23
676.695	37501.05
677.044	37136.54
677.393	37308.06
677.741	37363.65
678.09	37180.6
678.438	37247.72
678.787	37279.13
679.135	37225.35
679.484	36983.1
679.832	37162.75
680.181	36889.09
680.529	36966.82
680.877	36828.75
681.225	36857.45
681.573	37012.47
681.922	36858.8
682.27	36823.78
682.618	36662.43
682.966	36663.78
683.314	36730.45
683.661	36649.09
684.009	36280.06
684.357	36349.44
684.705	36300.85
685.053	36309.44
685.4	36136.79
685.748	36068.32
686.095	36085.49
686.443	35929.34
686.79	35882.79
687.138	36015.89
687.485	35870.81
687.832	35867.42
688.18	35739.51
688.527	35747.65
688.874	35631.04
689.221	35476.92
689.568	35457.26
689.915	35470.82
690.262	35410.26
690.609	35329.35
690.956	35203.26
691.303	35194.67
691.65	35022.69
691.997	34972.53
692.344	34819.54
692.69	34816.6
693.037	34764.85
693.383	34680.33
693.73	34714.23
694.077	34464.07
694.423	34420.45
694.769	34463.61
695.116	34320.11
695.462	34131.42
695.808	34201.25
696.155	34253.68
696.501	33989.5
696.847	33960.58
697.193	33713.58
697.539	33849.17
697.885	33631.32
698.231	33590.87
698.577	33581.38
698.923	33439.46
699.269	33183.42
699.614	33149.07
699.96	33121.73
700.306	33067.49
700.651	32850.77
700.997	32848.29
701.342	32659.14
701.688	32708.86
702.033	32607.39
702.379	32618.92
702.724	32459.82
703.069	32553.38
703.415	32094.64
703.76	32216.44
704.105	32187.06
704.45	31992.94
704.795	31889.67
705.14	31859.61
705.485	31825.72
705.83	31728.54
706.175	31700.52
706.52	31631.82
706.865	31512.5
707.209	31470.47
707.554	31459.85
707.899	31456.46
708.243	31325.62
708.588	31275
708.932	30941.22
709.277	31108.67
709.621	31051.73
709.966	30786.42
710.31	30947.77
710.654	30684.05
710.998	30731.28
711.342	30653.77
711.687	30510.95
712.031	30564.51
712.375	30363.38
712.719	30367.68
713.063	30440.67
713.407	30455.36
713.75	30265.76
714.094	30312.76
714.438	30156.38
714.782	30151.86
715.125	30076.16
715.469	29965.2
715.812	29875.49
716.156	29694.93
716.499	29708.48
716.843	29829.16
717.186	29593.23
717.53	29647.7
717.873	29683.63
718.216	29555.95
718.559	29490.19
718.902	29311.88
719.246	29299
719.589	29174.26
719.932	29173.13
720.275	29089.29
720.617	29095.17
720.96	29017.66
721.303	29047.48
721.646	28921.16
721.989	28768.62
722.331	28977.66
722.674	28808.4
723.016	28815.85
723.359	28807.49
723.701	28743.76
724.044	28464.22
724.386	28366.37
724.729	28637.78
725.071	28518.69
725.413	28508.52
725.755	28373.15
726.097	28274.17
726.439	28210.44
726.782	28228.07
727.124	28212.93
727.465	28155.53
727.807	28159.6
728.149	28038.02
728.491	28022.2
728.833	28012.48
729.175	27977.46
729.516	27860.85
729.858	27815.43
730.199	27881.87
730.541	27808.2
730.882	27612.49
731.224	27827.4
731.565	27574.3
731.906	27614.53
732.248	27693.4
732.589	27495.89
732.93	27463.35
733.271	27414.08
733.612	27430.58
733.953	27495.44
734.294	27346.96
734.635	27297.47
734.976	27214.31
735.317	27131.15
735.658	27148.55
735.999	27105.61
736.339	27203.92
736.68	27199.62
737.021	27053.19
737.361	26932.51
737.702	26991.04
738.042	26851.84
738.383	26798.28
738.723	26790.82
739.063	26800.31
739.404	26812.52
739.744	26766.41
740.084	26678.28
740.424	26612.29
740.764	26610.71
741.104	26731.16
741.444	26448.91
741.784	26425.63
742.124	26456.82
742.464	26374.79
742.804	26405.75
743.143	26279.2
743.483	26311.74
743.823	26262.25
744.162	26180.89
744.502	26284.85
744.841	26017.06
745.181	26109.71
745.52	25998.98
745.86	26102.7
746.199	25886.66
746.538	25965.76
746.877	25979.09
747.216	25887.12
747.556	25835.59
747.895	25822.94
748.234	25752.66
748.573	25679.66
748.911	25632.89
749.25	25644.64
749.589	25622.72
749.928	25545.88
750.267	25550.85
750.605	25437.41
750.944	25380.24
751.283	25361.71
751.621	25413.23
751.96	25147.47
752.298	25292.56
752.636	25196.29
752.975	25066.57
753.313	24929.18
753.651	25029.96
753.989	24824.77
754.327	24875.84
754.666	24763.08
755.004	24679.46
755.342	24775.05
755.679	24684.21
756.017	24531.22
756.355	24613.25
756.693	24445.8
757.031	24509.53
757.368	24353.37
757.706	24409.41
758.044	24185.01
758.381	24269.31
758.719	24189.31
759.056	24212.81
759.394	24020.05
759.731	23857.79
760.068	23815.76
760.405	23891.69
760.743	23817.11
761.08	23763.78
761.417	23549.55
761.754	23559.04
762.091	23507.74
762.428	23481.08
762.765	23341.19
763.102	23333.28
763.438	23203.8
763.775	23116.12
764.112	23241.54
764.449	23103.01
764.785	22962.45
765.122	22826.63
765.458	22763.13
765.795	22755.9
766.131	22737.37
766.467	22744.37
766.804	22493.08
767.14	22493.98
767.476	22481.78
767.812	22290.83
768.148	22410.6
768.485	22158.85
768.821	22086.99
769.157	22009.7
769.492	22087.22
769.828	22018.07
770.164	21811.29
770.5	21799.99
770.836	21702.59
771.171	21621.01
771.507	21611.52
771.842	21396.39
772.178	21416.73
772.513	21281.59
772.849	21297.86
773.184	21210.63
773.519	21255.15
773.855	21111.42
774.19	20945.1
774.525	20847.02
774.86	20882.5
775.195	20825.33
775.53	20830.3
775.865	20641.38
776.2	20522.29
776.535	20297.21
776.87	20382.4
777.205	20298.34
777.539	20182.86
777.874	20265.79
778.209	20028.29
778.543	19978.12
778.878	19958.68
779.212	19804.79
779.547	19734.06
779.881	19890.89
780.215	19568.64
780.55	19643.66
780.884	19518.7
781.218	19394.41
781.552	19427.85
781.886	19348.98
782.22	19290
782.554	19163.68
782.888	19047.97
783.222	18978.15
783.556	18936.56
783.889	18839.84
784.223	18709.9
784.557	18751.26
784.89	18604.14
785.224	18632.17
785.557	18507.2
785.891	18393.08
786.224	18353.08
786.558	18391.95
786.891	18178.84
787.224	18151.27
787.557	18053.42
787.891	18067.66
788.224	17987.44
788.557	17971.17
788.89	17999.64
789.223	17880.77
789.556	17750.38
789.888	17709.93
790.221	17733.21
790.554	17586.77
790.887	17554.45
791.219	17499.77
791.552	17378.19
791.884	17288.02
792.217	17283.73
792.549	17263.61
792.882	17099.1
793.214	17101.36
793.546	17134.58
793.879	16962.6
794.211	16790.41
794.543	16827.69
794.875	16798.09
795.207	16787.24
795.539	16803.74
795.871	16737.07
796.203	16630.18
796.535	16477.19
796.867	16445.78
797.198	16385.44
797.53	16437.19
797.862	16293.24
798.193	16280.14
798.525	16215.28
798.856	16234.26
799.188	16064.32
799.519	15944.78
799.85	16038.56
800.182	15957.89
800.513	15927.83
800.844	15760.15
801.175	15829.08
801.506	15774.84
801.837	15622.08
802.168	15678.57
802.499	15637.89
802.83	15469.76
803.161	15557.44
803.491	15399.03
803.822	15522.42
804.153	15378.24
804.483	15254.4
804.814	15192.03
805.145	15215.08
805.475	15294.85
805.805	15209.43
806.136	15178.92
806.466	15101.18
806.796	15080.85
807.126	14984.35
807.457	14895.54
807.787	14978.7
808.117	14857.35
808.447	14757.47
808.777	14871.59
809.107	14729.22
809.436	14774.64
809.766	14704.13
810.096	14667.98
810.426	14595.21
810.755	14590.46
811.085	14560.18
811.414	14556.11
811.744	14340.75
812.073	14348.89
812.403	14220.08
812.732	14213.07
813.061	14174.2
813.39	14140.98
813.719	14207.2
814.049	14177.37
814.378	14142.57
814.707	14091.72
815.036	14042
815.365	13988.22
815.693	13856.47
816.022	13955.68
816.351	13797.72
816.68	13726.53
817.008	13824.83
817.337	13714.1
817.665	13648.34
817.994	13659.41
818.322	13627.78
818.651	13569.47
818.979	13568.57
819.307	13632.3
819.636	13482.24
819.964	13424.39
820.292	13552.3
820.62	13509.14
820.948	13440.44
821.276	13470.27
821.604	13439.31
821.932	13508.46
822.259	13418.07
822.587	13404.51
822.915	13421.68
823.243	13465.75
823.57	13412.19
823.898	13384.62
824.225	13350.27
824.553	13294.45
824.88	13287.22
825.207	13344.17
825.535	13369.48
825.862	13380.1
826.189	13374.9
826.516	13330.61
826.843	13412.42
827.17	13411.96
827.497	13399.31
827.824	13444.73
828.151	13363.83
828.478	13374.22
828.805	13422.58
829.131	13344.85
829.458	13249.03
829.785	13250.16
830.111	13310.72
830.438	13368.8
830.764	13337.84
831.09	13303.04
831.417	13334
831.743	13288.35
832.069	13280.67
832.395	13187.11
832.722	13275.92
833.048	13171.74
833.374	13223.95
833.7	13154.34
834.026	13208.81
834.351	13173.33
834.677	13178.75
835.003	13221.91
835.329	13168.13
835.654	13128.81
835.98	13036.38
836.306	13097.85
836.631	13056.72
836.956	13052.43
837.282	13112.54
837.607	13061.24
837.932	12991.18
838.258	13001.13
838.583	12966.33
838.908	12897.85
839.233	12977.4
839.558	12901.69
839.883	12858.53
840.208	12802.26
840.533	12819.21
840.858	12817.18
841.182	12717.29
841.507	12761.59
841.832	12677.97
842.156	12708.25
842.481	12661.47
842.805	12609.5
843.13	12668.25
843.454	12589.61
843.778	12484.3
844.103	12479.33
844.427	12429.62
844.751	12523.4
845.075	12368.6
845.399	12347.36
845.723	12228.27
846.047	12312.56
846.371	12240.24
846.695	12214.26
847.019	12133.81
847.343	12071.66
847.666	12009.29
847.99	11971.32
848.313	11986.46
848.637	11893.59
848.96	11880.25
849.284	11805.23
849.607	11698.79
849.931	11778.79
850.254	11609.3
850.577	11568.85
850.9	11466.7
851.223	11518.68
851.546	11503.31
851.869	11405.46
852.192	11384.45
852.515	11381.73
852.838	11258.35
853.161	11294.05
853.483	11281.4
853.806	11127.73
854.129	11121.18
854.451	11092.93
854.774	11017.68
855.096	11034.4
855.419	10995.98
855.741	10926.15
856.063	10918.7
856.385	10872.82
856.708	10856.55
857.03	10785.37
857.352	10780.39
857.674	10826.49
857.996	10700.85
858.318	10696.33
858.64	10626.05
858.961	10702.2
859.283	10625.6
859.605	10596.67
859.926	10544.47
860.248	10538.82
860.57	10438.93
860.891	10471.48
861.212	10410.69
861.534	10380.18
861.855	10393.96
862.176	10407.3
862.498	10346.06
862.819	10314.87
863.14	10317.81
863.461	10291.37
863.782	10306.96
864.103	10292.95
864.424	10245.72
864.745	10136.8
865.065	10211.6
865.386	10188.09
865.707	10196.91
866.027	10103.12
866.348	10146.29
866.668	10125.27
866.989	10070.58
867.309	9906.97
867.63	10076.91
867.95	9996.69
868.27	9956.91
868.59	10003.24
868.91	9925.73
869.23	10003.01
869.55	9878.72
869.87	9915.11
870.19	9909.23
870.51	9900.19
870.83	9920.76
871.15	9904.26
871.469	9779.52
871.789	9883.69
872.109	9887.54
872.428	9803.7
872.748	9723.93
873.067	9756.01
873.386	9838.5
873.706	9725.06
874.025	9709.01
874.344	9667.2
874.663	9686.41
874.982	9694.77
875.301	9647.32
875.62	9622.23
875.939	9619.07
876.258	9589.24
876.577	9553.31
876.896	9510.82
877.214	9529.81
877.533	9531.61
877.852	9506.76
878.17	9492.97
878.489	9501.56
878.807	9521.9
879.125	9403.48
879.444	9418.17
879.762	9462.46
880.08	9388.57
880.398	9421.11
880.716	9327.33
881.034	9323.03
881.352	9381.79
881.67	9290.26
881.988	9277.16
882.306	9250.27
882.624	9269.7
882.941	9259.98
883.259	9128.91
883.577	9102.7
883.894	9129.36
884.212	9191.28
884.529	9135.92
884.846	9115.13
885.164	9074.22
885.481	9071.51
885.798	9084.62
886.115	9023.83
886.432	8995.13
886.75	8952.65
887.067	8952.42
887.383	8923.72
887.7	8921.69
888.017	8864.74
888.334	8873.33
888.651	8845.76
888.967	8914.68
889.284	8759.43
889.6	8838.75
889.917	8712.88
890.233	8678.75
890.55	8653.9
890.866	8709.26
891.182	8681.69
891.498	8637.63
891.815	8554.92
892.131	8583.62
892.447	8597.85
892.763	8457.29
893.079	8527.35
893.395	8466.11
893.71	8387.46
894.026	8441.25
894.342	8398.31
894.657	8356.5
894.973	8321.93
895.289	8321.25
895.604	8257.3
895.92	8238.09
896.235	8164.64
896.55	8220.46
896.865	8222.27
897.181	8129.62
897.496	8201.25
897.811	8128.03
898.126	8065.89
898.441	8001.94
898.756	8022.05
899.071	7970.3
899.386	7978.43
899.7	7888.04
900.015	7930.3
900.33	7845.33
900.644	7848.95
900.959	7798.78
901.273	7817.53
901.588	7779.8
901.902	7670.19
902.216	7714.26
902.531	7731.89
902.845	7665.45
903.159	7602.62
903.473	7607.14
903.787	7614.15
904.101	7535.28
904.415	7502.74
904.729	7455.74
905.042	7418.45
905.356	7427.49
905.67	7410.54
905.984	7382.97
906.297	7386.81
906.611	7338.68
906.924	7289.86
907.237	7252.8
907.551	7292.12
907.864	7259.81
908.177	7225.69
908.491	7212.8
908.804	7144.33
909.117	7097.78
909.43	7014.84
909.743	7013.71
910.056	7028.4
910.368	7022.08
910.681	6939.59
910.994	6930.78
911.307	6925.81
911.619	6855.07
911.932	6890.78
912.244	6821.18
912.557	6830.89
912.869	6778.69
913.181	6730.56
913.494	6750.9
913.806	6682.65
914.118	6687.39
914.43	6604.91
914.742	6611.46
915.054	6578.25
915.366	6547.74
915.678	6539.6
915.99	6491.47
916.302	6510.9
916.613	6386.16
916.925	6405.82
917.236	6401.53
917.548	6332.38
917.859	6350
918.171	6310.23
918.482	6325.14
918.794	6237.24
919.105	6234.07
919.416	6182.55
919.727	6226.16
920.038	6183.91
920.349	6116.34
920.66	6074.08
920.971	6078.15
921.282	6014.64
921.593	6008.09
921.903	5991.82
922.214	5907.75
922.525	5951.82
922.835	5954.98
923.146	5839.06
923.456	5880.18
923.767	5856.23
924.077	5816.23
924.387	5794.54
924.697	5774.42
925.008	5772.84
925.318	5746.63
925.628	5715.22
925.938	5712.51
926.248	5628.44
926.558	5605.84
926.867	5615.56
927.177	5614.88
927.487	5569.23
927.796	5545.05
928.106	5541.44
928.416	5478.61
928.725	5496.24
929.034	5443.13
929.344	5418.73
929.653	5385.73
929.962	5368.79
930.271	5353.64
930.581	5324.27
930.89	5331.95
931.199	5311.61
931.508	5292.4
931.817	5272.52
932.125	5190.71
932.434	5202.46
932.743	5142.12
933.051	5180.54
933.36	5098.51
933.669	5076.14
933.977	5082.24
934.286	5079.98
934.594	5043.37
934.902	5018.29
935.21	4954.11
935.519	4984.61
935.827	4931.06
936.135	4966.76
936.443	4865.52
936.751	4875.47
937.059	4865.75
937.367	4873.88
937.674	4849.25
937.982	4833.66
938.29	4783.26
938.597	4834.79
938.905	4719.99
939.213	4747.78
939.52	4706.43
939.827	4717.73
940.135	4694
940.442	4623.04
940.749	4653.55
941.056	4607.22
941.363	4570.84
941.67	4591.63
941.977	4506.21
942.284	4561.57
942.591	4508.7
942.898	4536.72
943.205	4454.69
943.511	4500.11
943.818	4477.74
944.125	4436.15
944.431	4382.14
944.738	4419.21
945.044	4389.6
945.35	4344.63
945.657	4284.29
945.963	4309.15
946.269	4281.81
946.575	4266.89
946.881	4284.07
947.187	4284.29
947.493	4211.75
947.799	4202.71
948.105	4202.94
948.41	4127.24
948.716	4140.12
949.022	4166.33
949.327	4124.75
949.633	4079.55
949.938	4092.21
950.244	4076.16
950.549	4018.99
950.854	4028.26
951.16	4020.12
951.465	3996.39
951.77	3985.77
952.075	3936.96
952.38	3896.51
952.685	3938.31
952.99	3868.71
953.294	3914.59
953.599	3887.47
953.904	3846.79
954.209	3839.33
954.513	3835.27
954.818	3781.03
955.122	3840.24
955.426	3761.82
955.731	3714.59
956.035	3728.83
956.339	3715.95
956.643	3730.86
956.948	3689.51
957.252	3676.63
957.556	3648.83
957.86	3608.83
958.163	3623.29
958.467	3615.16
958.771	3624.2
959.075	3569.96
959.378	3572.22
959.682	3569.51
959.985	3571.77
960.289	3493.35
960.592	3501.04
960.896	3446.35
961.199	3502.85
961.502	3458.55
961.805	3411.77
962.108	3430.53
962.411	3452.45
962.714	3397.54
963.017	3332.91
963.32	3378.78
963.623	3339.91
963.926	3368.39
964.228	3314.83
964.531	3297.2
964.833	3301.5
965.136	3270.54
965.438	3270.76
965.741	3264.89
966.043	3265.34
966.345	3251.78
966.648	3246.81
966.95	3213.59
967.252	3217.66
967.554	3203.64
967.856	3180.37
968.158	3128.84
968.46	3114.16
968.761	3121.16
969.063	3105.57
969.365	3059.47
969.666	3089.98
969.968	3072.35
970.269	3092.01
970.571	3045.46
970.872	3007.49
971.174	3016.53
971.475	3023.54
971.776	2965.68
972.077	2941.5
972.378	2925.01
972.679	2948.28
972.98	2939.02
973.281	2870.32
973.582	2892.24
973.883	2902.64
974.183	2898.57
974.484	2842.52
974.785	2880.04
975.085	2891.11
975.386	2863.54
975.686	2799.14
975.986	2852.69
976.287	2793.49
976.587	2775.63
976.887	2773.15
977.187	2770.21
977.487	2742.19
977.787	2721.17
978.087	2746.26
978.387	2729.08
978.687	2686.37
978.987	2691.34
979.286	2680.72
979.586	2672.13
979.885	2644.79
980.185	2645.24
980.484	2594.4
980.784	2635.07
981.083	2595.07
981.382	2613.15
981.682	2590.78
981.981	2603.89
982.28	2600.5
982.579	2535.41
982.878	2542.65
983.177	2530.89
983.475	2544.45
983.774	2530.22
984.073	2494.28
984.372	2476.66
984.67	2486.6
984.969	2445.47
985.267	2472.59
985.566	2409.99
985.864	2429.65
986.162	2448.86
986.461	2417.9
986.759	2413.16
987.057	2378.13
987.355	2382.42
987.653	2357.34
987.951	2372.93
988.249	2349.2
988.547	2346.27
988.844	2335.64
989.142	2329.09
989.44	2321.41
989.737	2302.2
990.035	2274.63
990.332	2252.26
990.63	2312.14
990.927	2251.58
991.224	2245.03
991.521	2228.08
991.819	2210.9
992.116	2202.54
992.413	2224.91
992.71	2182.65
993.006	2155.99
993.303	2166.84
993.6	2165.93
993.897	2198.93
994.193	2142.43
994.49	2138.36
994.787	2107.63
995.083	2138.81
995.379	2097.23
995.676	2081.87
995.972	2048.65
996.268	2060.4
996.565	2094.52
996.861	2055.43
997.157	2039.16
997.453	2024.69
997.749	2007.97
998.044	2004.81
998.34	2035.09
998.636	2005.71
998.932	1987.63
999.227	1978.82
999.523	2004.81
999.818	1952.15
1000.114	1954.19
1000.409	1948.76
1000.704	1939.27
1001	1930.68
1001.295	1908.99
1001.59	1911.7
1001.885	1894.98
1002.18	1871.02
1002.475	1880.74
1002.77	1832.83
1003.065	1846.17
1003.359	1820.86
1003.654	1851.14
1003.949	1837.35
1004.243	1804.59
1004.538	1796.9
1004.832	1789.67
1005.127	1802.78
1005.421	1802.33
1005.715	1769.11
1006.009	1748.09
1006.304	1731.14
1006.598	1718.03
1006.892	1729.11
1007.186	1725.27
1007.48	1711.03
1007.773	1683.46
1008.067	1669
1008.361	1683.01
1008.655	1676.68
1008.948	1665.61
1009.242	1660.63
1009.535	1627.87
1009.829	1616.79
1010.122	1609.11
1010.415	1611.82
1010.708	1631.03
1011.001	1610.69
1011.295	1566.63
1011.588	1592.61
1011.881	1542.9
1012.173	1540.86
1012.466	1547.42
1012.759	1516.01
1013.052	1513.97
1013.344	1558.26
1013.637	1540.64
1013.93	1512.84
1014.222	1494.99
1014.514	1478.94
1014.807	1473.75
1015.099	1477.36
1015.391	1501.09
1015.683	1452.73
1015.976	1480.07
1016.268	1408.21
1016.56	1431.71
1016.851	1390.36
1017.143	1401.66
1017.435	1388.55
1017.727	1390.58
1018.018	1388.78
1018.31	1385.61
1018.602	1370.7
1018.893	1381.55
1019.185	1338.38
1019.476	1357.37
1019.767	1343.58
1020.058	1317.59
1020.35	1291.38
1020.641	1293.86
1020.932	1299.06
1021.223	1297.71
1021.514	1284.82
1021.804	1268.55
1022.095	1248.89
1022.386	1298.84
1022.677	1256.58
1022.967	1229.01
1023.258	1251.15
1023.548	1255.67
1023.839	1252.51
1024.129	1236.24
1024.419	1189.69
1024.709	1188.33
1025	1199.86
1025.29	1204.38
1025.58	1171.61
1025.87	1191.04
1026.16	1160.08
1026.449	1180.42
1026.739	1140.65
1027.029	1141.1
1027.319	1134.32
1027.608	1130.25
1027.898	1111.72
1028.187	1126.41
1028.477	1117.15
1028.766	1102.68
1029.055	1088.45
1029.344	1087.32
1029.634	1074.89
1029.923	1067.88
1030.212	1059.29
1030.501	1060.65
1030.79	1053.42
1031.078	1063.36
1031.367	1062.23
1031.656	1037.37
1031.945	1035.34
1032.233	1003.02
1032.522	996.02
1032.81	1001.22
1033.099	1026.07
1033.387	1025.85
1033.675	1000.09
1033.963	968
1034.251	974.32
1034.54	978.17
1034.828	986.98
1035.116	966.19
1035.403	949.01
1035.691	941.33
1035.979	955.57
1036.267	949.24
1036.554	916.93
1036.842	946.98
1037.129	926.42
1037.417	913.31
1037.704	890.49
1037.992	895
1038.279	858.17
1038.566	883.48
1038.853	883.48
1039.14	883.48
