Data from hue_190_FLMS001491_00054.txt Node
Date: Tue Feb 07 16:45:28 GMT 2017
User: dcchb
Spectrometer: FLMS00149
Trigger mode: 0
Integration Time (sec): 2.000000E-2
Scans to average: 10
Electric dark correction enabled: true
Nonlinearity correction enabled: false
Boxcar width: 0
XAxis mode: Wavelengths
Number of Pixels in Spectrum: 2048
>>>>>Begin Spectral Data<<<<<
341.393	-14.83
341.776	-14.83
342.16	-14.83
342.543	-91.89
342.927	-57.54
343.31	-78.56
343.693	-59.12
344.077	-62.29
344.46	-41.04
344.843	-56.64
345.226	-60.03
345.61	-14.6
345.993	-14.15
346.376	-1.05
346.759	12.51
347.142	4.83
347.525	45.96
347.908	51.16
348.291	80.31
348.674	90.48
349.057	102.23
349.44	130.48
349.823	143.58
350.206	157.82
350.588	191.72
350.971	196.46
351.354	222.23
351.737	230.81
352.119	243.92
352.502	263.81
352.884	272.62
353.267	258.84
353.65	287.08
354.032	308.1
354.414	298.38
354.797	321.21
355.179	307.87
355.562	321.43
355.944	302.9
356.326	327.53
356.709	334.54
357.091	323.92
357.473	349.91
357.855	324.6
358.238	332.51
358.62	353.07
359.002	348.32
359.384	328.21
359.766	327.08
360.148	323.92
360.53	320.53
360.912	328.66
361.294	324.37
361.676	315.56
362.057	320.3
362.439	332.96
362.821	318.04
363.203	314.88
363.584	286.86
363.966	309.68
364.348	324.37
364.729	320.75
365.111	297.03
365.493	323.92
365.874	303.58
366.256	321.88
366.637	306.52
367.019	318.72
367.4	322.56
367.781	283.24
368.163	298.61
368.544	320.08
368.925	294.77
369.306	320.3
369.688	303.81
370.069	306.97
370.45	291.38
370.831	315.56
371.212	303.58
371.593	300.19
371.974	314.65
372.355	314.43
372.736	328.21
373.117	294.31
373.498	298.38
373.879	313.75
374.26	294.77
374.641	295.22
375.021	292.73
375.402	332.05
375.783	325.73
376.163	304.94
376.544	320.3
376.925	325.73
377.305	327.53
377.686	306.97
378.066	330.02
378.447	308.33
378.827	320.98
379.208	316.46
379.588	307.65
379.968	304.48
380.349	330.02
380.729	317.82
381.109	323.69
381.489	328.66
381.87	330.7
382.25	335.9
382.63	323.24
383.01	363.47
383.39	332.05
383.77	310.36
384.15	313.97
384.53	330.02
384.91	339.06
385.29	332.73
385.67	354.88
386.049	342.45
386.429	355.1
386.809	360.98
387.189	348.55
387.568	352.62
387.948	351.04
388.328	353.3
388.707	343.13
389.087	361.43
389.466	344.71
389.846	378.83
390.225	333.86
390.605	351.26
390.984	367.53
391.363	368.66
391.743	371.83
392.122	344.71
392.501	369.11
392.881	359.62
393.26	361.88
393.639	364.59
394.018	376.57
394.397	366.85
394.776	372.28
395.155	367.31
395.534	380.87
395.913	379.51
396.292	390.13
396.671	366.4
397.05	375.22
397.429	400.53
397.808	369.34
398.186	384.26
398.565	410.92
398.944	377.25
399.323	372.5
399.701	409.57
400.08	392.62
400.458	405.72
400.837	402.79
401.215	415.44
401.594	403.69
401.972	404.14
402.351	424.71
402.729	407.76
403.107	424.48
403.486	416.57
403.864	411.83
404.242	410.47
404.62	410.24
404.999	437.59
405.377	424.71
405.755	461.99
406.133	452.73
406.511	445.27
406.889	452.95
407.267	463.12
407.645	458.83
408.023	474.65
408.401	471.94
408.779	492.05
409.156	486.85
409.534	508.32
409.912	480.75
410.29	526.62
410.667	510.58
411.045	519.39
411.422	530.24
411.8	520.75
412.178	532.95
412.555	536.57
412.933	565.95
413.31	547.41
413.687	573.85
414.065	589.67
414.442	580.63
414.819	597.36
415.197	619.73
415.574	585.38
415.951	631.93
416.328	627.86
416.705	658.37
417.082	668.77
417.46	629.22
417.837	673.29
418.214	659.05
418.591	650.01
418.967	684.81
419.344	682.78
419.721	698.82
420.098	714.87
420.475	705.6
420.852	733.62
421.228	732.72
421.605	747.18
421.982	775.43
422.358	761.42
422.735	806.17
423.111	813.17
423.488	813.4
423.864	814.75
424.241	837.8
424.617	863.79
424.994	832.83
425.37	878.93
425.746	877.35
426.123	934.75
426.499	906.5
426.875	926.16
427.251	951.25
427.627	927.74
428.003	942.88
428.379	953.05
428.756	991.92
429.132	990.79
429.507	999.61
429.883	1016.56
430.259	1044.8
430.635	1021.3
431.011	1009.1
431.387	1088.19
431.763	1080.28
432.138	1087.06
432.514	1123.9
432.89	1128.87
433.265	1174.29
433.641	1161.64
434.016	1189.21
434.392	1202.99
434.767	1245.25
435.143	1257.9
435.518	1282.54
435.894	1341.52
436.269	1313.5
436.644	1363.21
437.02	1371.35
437.395	1379.94
437.77	1394.85
438.145	1424
438.52	1453.38
438.895	1449.99
439.271	1496.32
439.646	1530.89
440.021	1520.72
440.395	1562.76
440.77	1579.25
441.145	1575.86
441.52	1615.86
441.895	1644.11
442.27	1614.28
442.645	1631
443.019	1691.34
443.394	1700.38
443.769	1737.44
444.143	1718.46
444.518	1758.68
444.892	1759.36
445.267	1795.74
445.641	1801.17
446.016	1803.43
446.39	1845.69
446.764	1858.79
447.139	1861.73
447.513	1871.67
447.887	1881.39
448.262	1864.67
448.636	1915.51
449.01	1936.31
449.384	1972.91
449.758	1965.91
450.132	2002.52
450.506	2017.66
450.88	2021.5
451.254	2049.52
451.628	2067.15
452.002	2076.19
452.376	2120.71
452.75	2113.02
453.123	2132.23
453.497	2173.13
453.871	2166.81
454.244	2253.81
454.618	2249.29
454.992	2285.9
455.365	2321.83
455.739	2343.75
456.112	2357.08
456.486	2388.04
456.859	2404.99
457.232	2472.11
457.606	2448.61
457.979	2476.63
458.352	2531.32
458.725	2557.76
459.099	2576.74
459.472	2612.9
459.845	2664.2
460.218	2700.58
460.591	2689.05
460.964	2731.99
461.337	2762.95
461.71	2801.37
462.083	2843.4
462.456	2880.01
462.829	2896.51
463.201	2938.99
463.574	2972.44
463.947	2985.77
464.32	3046.11
464.692	3102.15
465.065	3162.26
465.438	3235.03
465.81	3242.49
466.183	3222.37
466.555	3277.29
466.928	3332.2
467.3	3333.56
467.672	3439.32
468.045	3496.26
468.417	3541.69
468.789	3516.15
469.161	3603.15
469.534	3682.25
469.906	3712.3
470.278	3760.66
470.65	3809.25
471.022	3880.43
471.394	3968.12
471.766	3976.25
472.138	4045.4
472.51	4118.85
472.882	4196.58
473.253	4313.42
473.625	4286.53
473.997	4423.7
474.369	4411.72
474.74	4496.46
475.112	4591.38
475.484	4681.54
475.855	4728.77
476.227	4751.6
476.598	4912.72
476.97	4993.85
477.341	5017.58
477.713	5161.53
478.084	5213.96
478.455	5373.28
478.827	5378.47
479.198	5487.4
479.569	5547.96
479.94	5724.45
480.311	5765.36
480.682	5890.78
481.053	5977.1
481.424	6085.35
481.795	6199.7
482.166	6271.78
482.537	6346.81
482.908	6495.06
483.279	6568.95
483.65	6708.16
484.021	6782.28
484.391	6911.32
484.762	6935.72
485.133	7044.19
485.503	7156.28
485.874	7300.01
486.244	7349.95
486.615	7551.98
486.985	7550.17
487.356	7752.65
487.726	7845.98
488.097	7989.25
488.467	7942.47
488.837	8144.28
489.207	8252.07
489.578	8300.88
489.948	8478.73
490.318	8553.53
490.688	8534.32
491.058	8687.54
491.428	8809.12
491.798	8896.35
492.168	9063.12
492.538	9100.18
492.908	9175.21
493.278	9327.98
493.648	9341.76
494.017	9389.22
494.387	9524.13
494.757	9530.91
495.126	9694.52
495.496	9664.92
495.866	9725.7
496.235	9804.35
496.605	9937
496.974	9955.98
497.344	10042.08
497.713	10070.33
498.082	10135.41
498.452	10232.58
498.821	10282.07
499.19	10269.65
499.559	10332.69
499.928	10393.03
500.298	10475.29
500.667	10474.84
501.036	10461.73
501.405	10577.43
501.774	10595.29
502.143	10718.67
502.512	10642.06
502.88	10749.86
503.249	10739.92
503.618	10835.28
503.987	10828.73
504.356	10919.12
504.724	10874.38
505.093	10858.78
505.462	10963.41
505.83	10994.15
506.199	11083.18
506.567	11167.93
506.936	11109.17
507.304	11258.55
507.672	11247.92
508.041	11219
508.409	11291.99
508.777	11372.22
509.145	11380.12
509.514	11353.01
509.882	11471.2
510.25	11370.86
510.618	11416.28
510.986	11384.19
511.354	11528.37
511.722	11557.52
512.09	11589.61
512.458	11508.71
512.826	11641.59
513.193	11656.95
513.561	11591.19
513.929	11673.9
514.297	11739.66
514.664	11688.59
515.032	11722.94
515.4	11818.08
515.767	11818.08
516.135	11810.85
516.502	11740.34
516.869	11861.92
517.237	11899.21
517.604	11822.6
517.972	11914.8
518.339	11968.36
518.706	11870.96
519.073	11920.45
519.44	11960.67
519.808	11948.92
520.175	11923.16
520.542	12014.91
520.909	11988.02
521.276	11924.29
521.643	11999.09
522.009	12024.85
522.376	12054.01
522.743	12086.77
523.11	12131.52
523.477	12106.66
523.843	12144.62
524.21	12172.19
524.577	12238.41
524.943	12112.76
525.31	12173.1
525.676	12266.88
526.043	12198.18
526.409	12225.75
526.776	12277.28
527.142	12165.41
527.508	12134.91
527.874	12286.99
528.241	12254.68
528.607	12188.24
528.973	12183.95
529.339	12160.44
529.705	12214.9
530.071	12214.23
530.437	12219.88
530.803	12203.15
531.169	12198.18
531.535	12052.88
531.901	11983.05
532.267	11999.77
532.632	11985.08
532.998	12129.71
533.364	11963.61
533.73	11984.4
534.095	11994.35
534.461	11961.13
534.826	11845.65
535.192	11824.18
535.557	11858.76
535.923	11774.92
536.288	11702.6
536.653	11695.14
537.019	11650.85
537.384	11643.39
537.749	11602.94
538.114	11577.63
538.479	11548.93
538.845	11487.69
539.21	11350.97
539.575	11408.82
539.94	11317.75
540.305	11347.58
540.67	11264.42
541.034	11222.61
541.399	11197.53
541.764	11151.2
542.129	11089.74
542.494	11043.18
542.858	11037.53
543.223	11012
543.587	10866.01
543.952	10882.74
544.316	10798.44
544.681	10722.06
545.045	10738.56
545.41	10740.14
545.774	10678.22
546.138	10563.87
546.503	10522.29
546.867	10459.92
547.231	10533.82
547.595	10450.43
547.959	10414.27
548.324	10352.13
548.688	10292.02
549.052	10292.47
549.416	10179.25
549.779	10087.73
550.143	10082.08
550.507	10111.68
550.871	10041.63
551.235	9933.38
551.599	9964.57
551.962	9847.74
552.326	9874.4
552.689	9875.31
553.053	9738.59
553.417	9839.83
553.78	9742.2
554.143	9743.78
554.507	9660.4
554.87	9621.53
555.234	9602.32
555.597	9588.53
555.96	9555.99
556.323	9489.55
556.686	9417.92
557.05	9443.68
557.413	9431.93
557.776	9414.53
558.139	9427.86
558.502	9384.92
558.865	9318.71
559.228	9303.34
559.59	9301.31
559.953	9268.09
560.316	9367.3
560.679	9270.58
561.041	9270.12
561.404	9246.62
561.767	9198.26
562.129	9171.14
562.492	9237.81
562.854	9178.6
563.217	9158.26
563.579	9138.83
563.941	9214.31
564.304	9170.24
564.666	9179.73
565.028	9189.22
565.39	9092.5
565.753	9150.35
566.115	9169.11
566.477	9169.11
566.839	9114.42
567.201	9149.45
567.563	9068.77
567.925	9125.72
568.287	9062.67
568.648	9094.53
569.01	9131.82
569.372	9109.45
569.734	9075.1
570.095	9094.99
570.457	9068.09
570.819	9163.01
571.18	9076.23
571.542	9133.86
571.903	9133.4
572.265	9095.66
572.626	9173.4
572.987	9102.9
573.349	9123.46
573.71	9108.55
574.071	9088.89
574.432	9049.56
574.794	9134.08
575.155	9079.85
575.516	9019.96
575.877	9115.78
576.238	9098.6
576.599	9068.32
576.96	9157.13
577.32	9106.96
577.681	9067.42
578.042	9102.44
578.403	9109.22
578.763	9074.87
579.124	9114.2
579.485	9068.55
579.845	9139.05
580.206	9051.6
580.566	9056.34
580.927	9053.63
581.287	9104.25
581.648	8992.16
582.008	9071.03
582.368	9035.55
582.728	9058.6
583.089	9021.77
583.449	8968.66
583.809	9037.36
584.169	9000.3
584.529	8923.69
584.889	9069
585.249	9000.3
585.609	8968.44
585.969	8964.37
586.329	8977.48
586.688	8952.39
587.048	8965.27
587.408	8879.4
587.768	8917.36
588.127	8936.12
588.487	8814.32
588.846	8916.46
589.206	8807.31
589.565	8873.52
589.925	8909
590.284	8811.6
590.643	8892.05
591.003	8930.02
591.362	8873.07
591.721	8821.1
592.08	8851.15
592.44	8860.64
592.799	8801.66
593.158	8770.02
593.517	8783.58
593.876	8760.76
594.235	8783.36
594.593	8769.8
594.952	8723.92
595.311	8679.63
595.67	8746.3
596.029	8728.67
596.387	8703.58
596.746	8721.21
597.104	8602.34
597.463	8692.74
597.822	8734.54
598.18	8686.64
598.538	8690.93
598.897	8698.84
599.255	8618.16
599.613	8699.52
599.972	8687.09
600.33	8702
600.688	8654.32
601.046	8704.26
601.404	8703.81
601.762	8737.71
602.12	8705.17
602.478	8704.71
602.836	8769.8
603.194	8676.24
603.552	8616.36
603.91	8580.42
604.268	8720.76
604.625	8659.52
604.983	8744.04
605.341	8619.52
605.698	8690.25
606.056	8666.3
606.413	8648.44
606.771	8638.5
607.128	8666.75
607.485	8643.02
607.843	8626.3
608.2	8695.68
608.557	8683.7
608.914	8696.81
609.272	8693.64
609.629	8720.99
609.986	8692.74
610.343	8699.52
610.7	8759.18
611.057	8706.3
611.414	8657.26
611.771	8727.54
612.127	8692.06
612.484	8678.5
612.841	8812.51
613.198	8684.6
613.554	8698.16
613.911	8756.92
614.267	8691.38
614.624	8771.15
614.98	8753.75
615.337	8814.77
615.693	8763.7
616.05	8750.14
616.406	8790.36
616.762	8788.55
617.118	8759.85
617.475	8793.75
617.831	8856.35
618.187	8822.9
618.543	8835.78
618.899	8802.57
619.255	8824.94
619.611	8791.27
619.967	8835.33
620.323	8821.55
620.678	8763.7
621.034	8821.32
621.39	8837.14
621.746	8752.4
622.101	8915.56
622.457	8765.73
622.812	8788.1
623.168	8810.25
623.523	8803.7
623.879	8820.19
624.234	8764.6
624.589	8792.17
624.945	8849.8
625.3	8770.7
625.655	8822.45
626.01	8775.22
626.365	8843.24
626.72	8823.36
627.075	8813.19
627.43	8757.14
627.785	8711.04
628.14	8787.88
628.495	8788.1
628.85	8824.26
629.205	8637.82
629.559	8796.24
629.914	8731.83
630.269	8724.83
630.623	8714.43
630.978	8677.37
631.332	8738.39
631.687	8717.6
632.041	8758.27
632.396	8676.69
632.75	8673.08
633.104	8675.34
633.459	8598.73
633.813	8561.67
634.167	8676.24
634.521	8613.64
634.875	8611.84
635.229	8581.78
635.583	8547.88
635.937	8633.53
636.291	8599.41
636.645	8543.81
636.999	8545.4
637.352	8543.14
637.706	8485.06
638.06	8525.74
638.413	8559.41
638.767	8486.42
639.121	8506.53
639.474	8423.82
639.828	8518.73
640.181	8484.16
640.534	8482.35
640.888	8396.02
641.241	8402.8
641.594	8412.29
641.947	8407.1
642.301	8377.27
642.654	8398.96
643.007	8436.47
643.36	8458.39
643.713	8370.49
644.066	8499.3
644.419	8431.95
644.771	8385.85
645.124	8309.24
645.477	8333.88
645.83	8217.5
646.182	8172.53
646.535	8143.15
646.888	8183.15
647.24	8054.56
647.593	8128.01
647.945	8169.59
648.298	8161.9
648.65	8103.15
649.002	8097.95
649.355	8147.22
649.707	8169.59
650.059	8151.96
650.411	8236.93
650.763	8240.77
651.115	8320.54
651.467	8265.18
651.819	8334.33
652.171	8236.48
652.523	8302.69
652.875	8264.5
653.227	8253.43
653.578	8323.71
653.93	8322.35
654.282	8259.75
654.633	8250.26
654.985	8313.09
655.337	8273.99
655.688	8266.53
656.039	8368.9
656.391	8313.54
656.742	8256.82
657.094	8273.09
657.445	8281.45
657.796	8268.57
658.147	8291.62
658.498	8301.56
658.849	8359.19
659.2	8301.11
659.551	8269.25
659.902	8311.28
660.253	8274.67
660.604	8321
660.955	8348.11
661.306	8344.95
661.656	8325.29
662.007	8305.86
662.358	8346.76
662.708	8333.65
663.059	8297.49
663.409	8260.66
663.76	8313.31
664.11	8286.65
664.461	8370.71
664.811	8367.32
665.161	8310.37
665.511	8334.78
665.862	8405.74
666.212	8307.89
666.562	8363.93
666.912	8374.55
667.262	8359.41
667.612	8380.43
667.962	8359.41
668.312	8384.27
668.662	8413.65
669.011	8351.73
669.361	8395.12
669.711	8362.12
670.06	8337.49
670.41	8301.56
670.76	8378.85
671.109	8340.43
671.459	8346.53
671.808	8354.67
672.157	8342.69
672.507	8339.98
672.856	8325.06
673.205	8292.52
673.554	8275.57
673.904	8297.49
674.253	8306.53
674.602	8217.27
674.951	8170.72
675.3	8128.46
675.649	8256.82
675.998	8270.15
676.346	8251.85
676.695	8243.48
677.044	8178.4
677.393	8197.38
677.741	8188.57
678.09	8168.91
678.438	8197.84
678.787	8138.4
679.135	8182.24
679.484	8072.41
679.832	8124.16
680.181	8058.86
680.529	8099.53
680.877	8022.47
681.225	8051.62
681.573	8111.06
681.922	8072.19
682.27	8005.3
682.618	8048.01
682.966	8020.21
683.314	7973.89
683.661	7984.96
684.009	7888.24
684.357	7917.39
684.705	7876.49
685.053	7923.72
685.4	7917.39
685.748	7844.4
686.095	7831.74
686.443	7870.61
686.79	7817.05
687.138	7834.23
687.485	7796.26
687.832	7772.99
688.18	7741.35
688.527	7748.58
688.874	7724.18
689.221	7619.09
689.568	7617.51
689.915	7658.87
690.262	7614.57
690.609	7564.63
690.956	7539.1
691.303	7577.06
691.65	7532.54
691.997	7476.05
692.344	7464.75
692.69	7441.02
693.037	7402.38
693.383	7413.22
693.73	7375.94
694.077	7328.48
694.423	7305.88
694.769	7210.52
695.116	7280.12
695.462	7238.09
695.808	7199.67
696.155	7217.3
696.501	7130.29
696.847	7148.6
697.193	7044.87
697.539	7062.72
697.885	7017.3
698.231	7045.78
698.577	7025.44
698.923	6983.4
699.269	6964.87
699.614	6909.96
699.96	6888.27
700.306	6904.08
700.651	6869.06
700.997	6855.05
701.342	6846.46
701.688	6827.7
702.033	6782.05
702.379	6799
702.724	6711.77
703.069	6714.94
703.415	6630.87
703.76	6695.5
704.105	6631.55
704.45	6605.11
704.795	6573.25
705.14	6572.34
705.485	6533.02
705.83	6530.53
706.175	6498.22
706.52	6478.56
706.865	6437.43
707.209	6446.69
707.554	6436.3
707.899	6439.01
708.243	6379.35
708.588	6373.48
708.932	6341.84
709.277	6314.72
709.621	6327.38
709.966	6295.06
710.31	6300.26
710.654	6254.16
710.998	6315.85
711.342	6261.16
711.687	6239.24
712.031	6149.98
712.375	6135.29
712.719	6206.48
713.063	6158.34
713.407	6152.01
713.75	6118.34
714.094	6144.33
714.438	6107.95
714.782	6134.16
715.125	6074.73
715.469	6128.06
715.812	6084.44
716.156	6031.56
716.499	6041.06
716.843	6043.77
717.186	5961.51
717.53	6042.64
717.873	6005.35
718.216	6007.16
718.559	5962.41
718.902	5958.57
719.246	5998.12
719.589	5981.85
719.932	5945.01
720.275	5988.85
720.617	5927.39
720.96	5918.12
721.303	5964.22
721.646	5980.94
721.989	5942.75
722.331	5908.63
722.674	5892.81
723.016	5936.43
723.359	5887.84
723.701	5878.12
724.044	5868.63
724.386	5866.6
724.729	5888.29
725.071	5866.82
725.413	5826.82
725.755	5907.27
726.097	5844.68
726.439	5780.05
726.782	5834.96
727.124	5868.86
727.465	5850.78
727.807	5777.79
728.149	5837.9
728.491	5845.13
728.833	5811.23
729.175	5829.31
729.516	5837.45
729.858	5814.62
730.199	5817.78
730.541	5759.03
730.882	5811.01
731.224	5881.29
731.565	5849.87
731.906	5857.56
732.248	5817.11
732.589	5830.44
732.93	5753.61
733.271	5823.21
733.612	5856.2
733.953	5863.66
734.294	5847.16
734.635	5833.38
734.976	5844.22
735.317	5776.43
735.658	5815.3
735.999	5818.46
736.339	5799.25
736.68	5916.77
737.021	5835.86
737.361	5855.07
737.702	5861.4
738.042	5840.61
738.383	5876.99
738.723	5862.76
739.063	5838.58
739.404	5904.56
739.744	5911.34
740.084	5911.79
740.424	5938.91
740.764	5980.27
741.104	5995.86
741.444	5992.47
741.784	5968.74
742.124	6000.6
742.464	6070.89
742.804	6038.57
743.143	6044.67
743.483	6041.06
743.823	6011.9
744.162	6064.33
744.502	6120.83
744.841	6154.73
745.181	6223.42
745.52	6211.22
745.86	6231.56
746.199	6232.69
746.538	6321.5
746.877	6342.97
747.216	6399.24
747.556	6469.07
747.895	6449.63
748.234	6491.89
748.573	6553.13
748.911	6606.69
749.25	6642.4
749.589	6687.14
749.928	6797.87
750.267	6905.89
750.605	6920.81
750.944	6987.47
751.283	7059.33
751.621	7147.69
751.96	7170.29
752.298	7301.59
752.636	7393.34
752.975	7422.71
753.313	7519.89
753.651	7713.1
753.989	7747.68
754.327	7857.28
754.666	7962.59
755.004	8112.19
755.342	8316.25
755.679	8408
756.017	8503.82
756.355	8706.07
756.693	8808.44
757.031	8900.87
757.368	9031.26
757.706	9153.29
758.044	9339.95
758.381	9515.99
758.719	9634.86
759.056	9795.53
759.394	9986.94
759.731	10137.67
760.068	10309.64
760.405	10376.08
760.743	10603.2
761.08	10771.55
761.417	10885.22
761.754	11124.09
762.091	11309.17
762.428	11466.22
762.765	11602.72
763.102	11837.29
763.438	12028.92
763.775	12090.84
764.112	12299.42
764.449	12436.59
764.785	12655.35
765.122	12843.14
765.458	12936.47
765.795	13112.28
766.131	13293.52
766.467	13435.66
766.804	13589.78
767.14	13707.97
767.476	13894.18
767.812	14022.77
768.148	14257.34
768.485	14283.55
768.821	14495.75
769.157	14574.39
769.492	14705.01
769.828	14915.17
770.164	14828.17
770.5	15055.73
770.836	15313.13
771.171	15320.81
771.507	15501.37
771.842	15494.37
772.178	15686.45
772.513	15864.07
772.849	15909.72
773.184	16009.16
773.519	16090.74
773.855	16158.98
774.19	16219.55
774.525	16288.02
774.86	16439.2
775.195	16568.24
775.53	16503.38
775.865	16563.49
776.2	16607.33
776.535	16549.48
776.87	16712.64
777.205	16829.47
777.539	16804.84
777.874	16824.5
778.209	16710.38
778.543	16951.5
778.878	16970.49
779.212	17044.16
779.547	16928.91
779.881	17150.59
780.215	17156.7
780.55	17257.48
780.884	17150.59
781.218	17153.76
781.552	17297.03
781.886	17181.33
782.22	17210.93
782.554	17189.01
782.888	17093.65
783.222	17161.67
783.556	17210.71
783.889	17167.09
784.223	17151.27
784.557	17099.07
784.89	17292.29
785.224	17212.51
785.557	17175
785.891	17178.16
786.224	17200.54
786.558	17162.8
786.891	17104.27
787.224	17175.45
787.557	17143.14
787.891	17008
788.224	17200.99
788.557	17167.77
788.89	17136.13
789.223	17155.79
789.556	17035.8
789.888	17060.88
790.221	17008.9
790.554	16911.73
790.887	16991.73
791.219	16869.47
791.552	16931.16
791.884	16802.35
792.217	16823.15
792.549	16816.14
792.882	16706.09
793.214	16752.41
793.546	16793.99
793.879	16649.59
794.211	16618.63
794.543	16710.38
794.875	16700.44
795.207	16669.02
795.539	16608.24
795.871	16628.57
796.203	16474
796.535	16463.38
796.867	16429.48
797.198	16362.82
797.53	16400.11
797.862	16293.22
798.193	16318.3
798.525	16223.61
798.856	16323.72
799.188	16126.67
799.519	16159.43
799.85	15929.84
800.182	16065.65
800.513	16049.15
800.844	15927.8
801.175	16029.04
801.506	16053
801.837	15898.42
802.168	15892.77
802.499	15848.48
802.83	15831.53
803.161	15731.2
803.491	15746.34
803.822	15733.68
804.153	15746.34
804.483	15578.43
804.814	15559.45
805.145	15579.11
805.475	15618.43
805.805	15538.89
806.136	15509.06
806.466	15543.63
806.796	15497.08
807.126	15337.31
807.457	15323.98
807.787	15393.13
808.117	15304.32
808.447	15248.5
808.777	15292.56
809.107	15213.24
809.436	15190.42
809.766	15207.14
810.096	15176.18
810.426	15046.24
810.755	15115.62
811.085	15105
811.414	14999.24
811.744	14979.35
812.073	14954.95
812.403	14930.77
812.732	14829.3
813.061	14832.01
813.39	14834.95
813.719	14698.68
814.049	14828.4
814.378	14829.07
814.707	14697.55
815.036	14778.91
815.365	14650.55
815.693	14619.36
816.022	14575.75
816.351	14549.53
816.68	14468.63
817.008	14420.95
817.337	14416.43
817.665	14410.1
817.994	14415.3
818.322	14429.31
818.651	14416.43
818.979	14300.95
819.307	14352.25
819.636	14338.92
819.964	14263.66
820.292	14323.78
820.62	14287.62
820.948	14235.19
821.276	14278.13
821.604	14274.06
821.932	14313.61
822.259	14295.08
822.587	14227.06
822.915	14186.83
823.243	14256.66
823.57	14259.82
823.898	14208.3
824.225	14127.4
824.553	14243.55
824.88	14245.36
825.207	14314.51
825.535	14204.68
825.862	14315.19
826.189	14179.6
826.516	14271.57
826.843	14336.66
827.17	14350.22
827.497	14267.73
827.824	14227.28
828.151	14315.64
828.478	14272.7
828.805	14308.41
829.131	14229.99
829.458	14212.82
829.785	14230.22
830.111	14248.07
830.438	14297.11
830.764	14236.32
831.09	14257.56
831.417	14199.49
831.743	14234.29
832.069	14250.56
832.395	14227.51
832.722	14255.08
833.048	14216.43
833.374	14180.28
833.7	14127.17
834.026	14167.17
834.351	14214.63
834.677	14189.32
835.003	14241.07
835.329	14141.41
835.654	14128.07
835.98	14086.27
836.306	14147.28
836.631	14108.41
836.956	14164.23
837.282	14104.12
837.607	14102.54
837.932	13995.87
838.258	14038.59
838.583	14018.25
838.908	13889.21
839.233	13990
839.558	13944.58
839.883	13847.86
840.208	13829.55
840.533	13828.2
840.858	13800.4
841.182	13789.55
841.507	13828.42
841.832	13765.82
842.156	13747.75
842.481	13625.94
842.805	13661.87
843.13	13599.95
843.454	13559.95
843.778	13519.96
844.103	13486.06
844.427	13448.09
844.751	13448.32
845.075	13462.56
845.399	13416.68
845.723	13313.86
846.047	13376.91
846.371	13199.06
846.695	13335.33
847.019	13166.07
847.343	13113.41
847.666	13105.05
847.99	12962.46
848.313	12903.02
848.637	12867.32
848.96	12853.31
849.284	12800.43
849.607	12779.86
849.931	12689.92
850.254	12628.91
850.577	12580.09
850.9	12538.51
851.223	12453.09
851.546	12458.74
851.869	12366.54
852.192	12435.01
852.515	12328.12
852.838	12264.4
853.161	12217.39
853.483	12192.53
853.806	12184.4
854.129	12115.7
854.451	12026.21
854.774	11935.36
855.096	11952.54
855.419	11961.13
855.741	12003.38
856.063	11882.48
856.385	11781.47
856.708	11763.62
857.03	11754.58
857.352	11740.57
857.674	11712.77
857.996	11704.64
858.318	11582.61
858.64	11645.65
858.961	11526.79
859.283	11498.54
859.605	11419.9
859.926	11410.86
860.248	11431.87
860.57	11415.83
860.891	11411.31
861.212	11284.76
861.534	11270.3
861.855	11248.6
862.176	11239.56
862.498	11280.69
862.819	11231.2
863.14	11259
863.461	11235.27
863.782	11173.35
864.103	11148.72
864.424	11136.74
864.745	11073.47
865.065	11074.37
865.386	10990.76
865.707	11023.3
866.027	11028.72
866.348	10966.58
866.668	10981.26
866.989	11008.38
867.309	10908.95
867.63	10892.45
867.95	10936.75
868.27	10805.45
868.59	10863.53
868.91	10842.74
869.23	10843.64
869.55	10768.16
869.87	10806.35
870.19	10792.12
870.51	10743.08
870.83	10730.2
871.15	10605.91
871.469	10707.6
871.789	10717.54
872.109	10695.17
872.428	10682.74
872.748	10651.56
873.067	10703.53
873.386	10602.07
873.706	10612.24
874.025	10595.06
874.344	10530.2
874.663	10552.8
874.982	10487.72
875.301	10580.15
875.62	10468.51
875.939	10509.19
876.258	10500.83
876.577	10360.49
876.896	10472.35
877.214	10388.51
877.533	10363.88
877.852	10390.55
878.17	10334.73
878.489	10362.52
878.807	10308.06
879.125	10282.53
879.444	10298.57
879.762	10300.38
880.08	10275.75
880.398	10200.27
880.716	10241.62
881.034	10187.39
881.352	10223.09
881.67	10175.41
881.988	10078.69
882.306	10142.42
882.624	10152.36
882.941	10035.75
883.259	10009.99
883.577	10042.31
883.894	9970.22
884.212	9981.97
884.529	9932.7
884.846	9980.39
885.164	9901.75
885.481	9852.93
885.798	9878.02
886.115	9819.71
886.432	9810.22
886.75	9748.08
887.067	9800.51
887.383	9712.15
887.7	9791.01
888.017	9744.69
888.334	9734.74
888.651	9634.86
888.967	9619.04
889.284	9586.05
889.6	9572.71
889.917	9485.03
890.233	9478.25
890.55	9474.86
890.866	9453.4
891.182	9409.55
891.498	9411.14
891.815	9361.42
892.131	9332.04
892.447	9272.38
892.763	9282.78
893.079	9237.58
893.395	9225.83
893.71	9199.16
894.026	9221.31
894.342	9129.79
894.657	9132.95
894.973	9094.76
895.289	9121.65
895.604	9044.59
895.92	8986.52
896.235	8948.55
896.55	8980.87
896.865	8918.95
897.181	8799.63
897.496	8887.31
897.811	8820.64
898.126	8748.78
898.441	8736.58
898.756	8679.86
899.071	8613.42
899.386	8680.53
899.7	8612.74
900.015	8630.82
900.33	8520.09
900.644	8537.71
900.959	8548.56
901.273	8497.26
901.588	8473.76
901.902	8468.56
902.216	8380.88
902.531	8318.74
902.845	8283.03
903.159	8314.44
903.473	8266.08
903.787	8255.46
904.101	8178.17
904.415	8196.93
904.729	8125.29
905.042	8071.96
905.356	8064.28
905.67	8044.84
905.984	8028.57
906.297	8053.66
906.611	7987.45
906.924	7927.79
907.237	7906.32
907.551	7824.51
907.864	7816.38
908.177	7825.64
908.491	7731.63
908.804	7735.47
909.117	7653.44
909.43	7595.37
909.743	7614.12
910.056	7595.82
910.368	7552.65
910.681	7467.01
910.994	7540
911.307	7465.65
911.619	7461.13
911.932	7448.93
912.244	7394.92
912.557	7382.49
912.869	7288.03
913.181	7253
913.494	7320.12
913.806	7247.35
914.118	7256.39
914.43	7112.89
914.742	7169.84
915.054	7091.65
915.366	7130.97
915.678	7018.21
915.99	6953.57
916.302	6989.05
916.613	6965.1
916.925	6925.33
917.236	6913.58
917.548	6830.41
917.859	6920.35
918.171	6801.04
918.482	6784.54
918.794	6818.21
919.105	6742.28
919.416	6708.61
919.727	6685.56
920.038	6700.02
920.349	6610.98
920.66	6614.6
920.971	6581.83
921.282	6597.65
921.593	6516.3
921.903	6538.9
922.214	6464.55
922.525	6468.39
922.835	6461.61
923.146	6399.46
923.456	6340.93
923.767	6316.53
924.077	6318.11
924.387	6300.48
924.697	6267.49
925.008	6267.94
925.318	6283.08
925.628	6206.48
925.938	6236.3
926.248	6147.27
926.558	6075.18
926.867	6096.42
927.177	6067.72
927.487	6057.33
927.796	5978.46
928.106	6036.76
928.416	5977.1
928.725	5966.48
929.034	5921.06
929.344	5875.18
929.653	5905.92
929.962	5831.34
930.271	5792.93
930.581	5832.7
930.89	5811.91
931.199	5785.47
931.508	5711.35
931.817	5723.32
932.125	5669.31
932.434	5632.03
932.743	5637
933.051	5603.33
933.36	5583.44
933.669	5540.5
933.977	5564.68
934.286	5541.41
934.594	5546.15
934.902	5468.19
935.21	5496.66
935.519	5440.62
935.827	5427.74
936.135	5363.79
936.443	5366.72
936.751	5351.58
937.059	5354.07
937.367	5306.16
937.674	5297.12
937.982	5310
938.29	5212.83
938.597	5212.15
938.905	5113.62
939.213	5177.12
939.52	5131.7
939.827	5181.87
940.135	5095.32
940.442	5100.29
940.749	5087.63
941.056	5011.93
941.363	4991.37
941.67	4980.52
941.977	4992.5
942.284	4941.65
942.591	4960.18
942.898	4911.59
943.205	4876.11
943.511	4881.09
943.818	4890.13
944.125	4782.33
944.431	4835.89
944.738	4768.55
945.044	4793.41
945.35	4765.61
945.657	4684.48
945.963	4680.64
946.269	4647.65
946.575	4651.26
946.881	4600.64
947.187	4622.56
947.493	4576.91
947.799	4551.6
948.105	4577.14
948.41	4516.58
948.716	4543.24
949.022	4487.65
949.327	4513.41
949.633	4451.04
949.938	4434.32
950.244	4470.48
950.549	4441.78
950.854	4395.22
951.16	4386.86
951.465	4349.8
951.77	4364.94
952.075	4285.85
952.38	4280.65
952.685	4281.78
952.99	4269.8
953.294	4220.76
953.599	4231.39
953.904	4198.17
954.209	4186.42
954.513	4207.66
954.818	4112.74
955.122	4156.59
955.426	4095.57
955.731	4075.46
956.035	4123.82
956.339	4067.32
956.643	4060.54
956.948	4026.65
957.252	4021.9
957.556	4006.53
957.86	3964.73
958.163	3942.35
958.467	3971.51
958.771	3963.6
959.075	3906.87
959.378	3879.76
959.682	3870.49
959.985	3877.27
960.289	3858.29
960.592	3827.1
960.896	3804.28
961.199	3782.36
961.502	3797.5
961.805	3737.84
962.108	3750.49
962.411	3748.01
962.714	3709.14
963.017	3708.24
963.32	3709.37
963.623	3705.75
963.926	3660.33
964.228	3663.04
964.531	3624.4
964.833	3636.6
965.136	3607
965.438	3608.35
965.741	3594.34
966.043	3582.36
966.345	3553.89
966.648	3514.34
966.95	3514.79
967.252	3496.04
967.554	3450.62
967.856	3466.21
968.158	3400
968.46	3466.21
968.761	3425.31
969.063	3381.01
969.365	3426.21
969.666	3385.98
969.968	3360.22
970.269	3349.38
970.571	3379.43
970.872	3308.7
971.174	3267.34
971.475	3296.04
971.776	3284.97
972.077	3261.24
972.378	3235.93
972.679	3249.04
972.98	3231.86
973.281	3213.11
973.582	3206.1
973.883	3167.46
974.183	3160.68
974.484	3128.82
974.785	3170.85
975.085	3132.43
975.386	3164.97
975.686	3096.5
975.986	3085.43
976.287	3046.78
976.587	3024.64
976.887	3011.53
977.187	3050.17
977.487	3021.93
977.787	3019.89
978.087	2976.05
978.387	2945.77
978.687	2954.81
978.987	2911.19
979.286	2904.64
979.586	2881.82
979.885	2900.57
980.185	2890.4
980.484	2878.43
980.784	2872.33
981.083	2828.03
981.382	2870.29
981.682	2821.03
981.981	2808.6
982.28	2829.61
982.579	2762.95
982.878	2769.96
983.177	2777.41
983.475	2748.71
983.774	2740.13
984.073	2700.13
984.372	2680.92
984.67	2699.22
984.969	2739.22
985.267	2661.71
985.566	2670.97
985.864	2661.71
986.162	2636.17
986.461	2569.73
986.759	2594.59
987.057	2639.79
987.355	2588.72
987.653	2593.01
987.951	2563.63
988.249	2571.09
988.547	2547.81
988.844	2529.28
989.142	2553.01
989.44	2517.31
989.737	2471.21
990.035	2475.73
990.332	2457.42
990.63	2465.56
990.927	2440.7
991.224	2458.55
991.521	2439.57
991.819	2440.92
992.116	2401.15
992.413	2400.7
992.71	2377.2
993.006	2350.31
993.303	2373.58
993.6	2395.05
993.897	2329.06
994.193	2332.9
994.49	2283.19
994.787	2320.48
995.083	2325
995.379	2285.22
995.676	2263.08
995.972	2277.31
996.268	2257.88
996.565	2193.02
996.861	2225.79
997.157	2225.79
997.453	2214.04
997.749	2200.93
998.044	2179.24
998.34	2173.81
998.636	2150.08
998.932	2162.29
999.227	2131.55
999.523	2132.68
999.818	2123.87
1000.114	2136.3
1000.409	2080.48
1000.704	2095.4
1001	2069.41
1001.295	2046.58
1001.59	2083.42
1001.885	2072.57
1002.18	2024.89
1002.475	2041.84
1002.77	1986.7
1003.065	1979.24
1003.359	1979.69
1003.654	1984.67
1003.949	1978.11
1004.243	1968.39
1004.538	1933.59
1004.832	1920.49
1005.127	1896.76
1005.421	1921.16
1005.715	1912.58
1006.009	1891.33
1006.304	1871.67
1006.598	1897.21
1006.892	1844.78
1007.186	1843.2
1007.48	1834.16
1007.773	1802.07
1008.067	1805.46
1008.361	1807.95
1008.655	1796.2
1008.948	1802.52
1009.242	1757.33
1009.535	1747.38
1009.829	1781.96
1010.122	1740.83
1010.415	1724.11
1010.708	1737.44
1011.001	1717.1
1011.295	1695.18
1011.588	1692.92
1011.881	1709.64
1012.173	1669.87
1012.466	1686.37
1012.759	1679.81
1013.052	1658.8
1013.344	1639.36
1013.637	1655.63
1013.93	1607.95
1014.222	1579.48
1014.514	1599.82
1014.807	1610.44
1015.099	1586.48
1015.391	1583.55
1015.683	1542.64
1015.976	1567.05
1016.268	1550.1
1016.56	1522.98
1016.851	1527.5
1017.143	1516.66
1017.435	1519.37
1017.727	1506.03
1018.018	1490.44
1018.31	1473.27
1018.602	1465.36
1018.893	1468.29
1019.185	1467.16
1019.476	1434.85
1019.767	1436.88
1020.058	1409.54
1020.35	1426.71
1020.641	1405.92
1020.932	1385.59
1021.223	1388.75
1021.514	1351.69
1021.804	1352.37
1022.095	1357.34
1022.386	1336.09
1022.677	1346.49
1022.967	1341.74
1023.258	1319.6
1023.548	1314.4
1023.839	1294.06
1024.129	1298.36
1024.419	1316.66
1024.709	1254.29
1025	1286.38
1025.29	1270.11
1025.58	1250.9
1025.87	1238.7
1026.16	1229.66
1026.449	1242.31
1026.739	1213.61
1027.029	1229.2
1027.319	1191.47
1027.608	1188.3
1027.898	1170.68
1028.187	1170.45
1028.477	1180.39
1028.766	1193.5
1029.055	1153.05
1029.344	1164.12
1029.634	1155.99
1029.923	1123.22
1030.212	1104.91
1030.501	1131.81
1030.79	1113.28
1031.078	1143.56
1031.367	1113.5
1031.656	1082.99
1031.945	1086.84
1032.233	1099.49
1032.522	1071.02
1032.81	1067.63
1033.099	1086.38
1033.387	1045.48
1033.675	1065.59
1033.963	1047.74
1034.251	1032.15
1034.54	1024.92
1034.828	1032.6
1035.116	1019.04
1035.403	1006.84
1035.691	1018.36
1035.979	1003.45
1036.267	987.63
1036.554	992.6
1036.842	987.4
1037.129	971.36
1037.417	976.56
1037.704	970.23
1037.992	975.88
1038.279	944.92
1038.566	954.18
1038.853	954.18
1039.14	954.18
