Data from hue_26_FLMS001491_00044.txt Node
Date: Tue Feb 07 17:14:03 GMT 2017
User: dcchb
Spectrometer: FLMS00149
Trigger mode: 0
Integration Time (sec): 2.000000E-2
Scans to average: 10
Electric dark correction enabled: true
Nonlinearity correction enabled: false
Boxcar width: 0
XAxis mode: Wavelengths
Number of Pixels in Spectrum: 2048
>>>>>Begin Spectral Data<<<<<
341.393	-21.89
341.776	-21.89
342.16	-21.89
342.543	-49.91
342.927	-49.91
343.31	-67.31
343.693	-61.44
344.077	-92.85
344.46	-74.77
344.843	-59.41
345.226	-44.94
345.61	-24.15
345.993	-13.98
346.376	-16.69
346.759	25.34
347.142	26.69
347.525	52.68
347.908	69.18
348.291	70.08
348.674	98.56
349.057	113.02
349.44	129.97
349.823	144.66
350.206	162.06
350.588	182.85
350.971	220.59
351.354	228.04
351.737	260.13
352.119	251.1
352.502	264.43
352.884	261.94
353.267	275.5
353.65	293.81
354.032	304.2
354.414	299.46
354.797	296.29
355.179	314.37
355.562	326.8
355.944	336.06
356.326	340.36
356.709	349.4
357.091	333.8
357.473	338.1
357.855	330.19
358.238	324.99
358.62	330.64
359.002	332.67
359.384	337.65
359.766	335.39
360.148	327.25
360.53	339.23
360.912	341.04
361.294	330.87
361.676	352.11
362.057	303.75
362.439	329.29
362.821	334.48
363.203	301.26
363.584	323.86
363.966	300.36
364.348	328.16
364.729	330.64
365.111	310.98
365.493	344.43
365.874	316.86
366.256	317.08
366.637	329.29
367.019	317.53
367.4	297.65
367.781	311.43
368.163	296.29
368.544	302.85
368.925	308.04
369.306	304.43
369.688	315.05
370.069	309.4
370.45	317.99
370.831	306.23
371.212	320.47
371.593	339.23
371.974	326.35
372.355	326.12
372.736	307.14
373.117	309.62
373.498	301.72
373.879	319.57
374.26	309.4
374.641	318.44
375.021	319.79
375.402	324.77
375.783	323.18
376.163	322.51
376.544	328.16
376.925	327.48
377.305	347.82
377.686	331.32
378.066	338.55
378.447	321.38
378.827	340.81
379.208	336.97
379.588	325.67
379.968	333.13
380.349	340.13
380.729	329.74
381.109	316.86
381.489	336.29
381.87	329.51
382.25	339.68
382.63	334.71
383.01	337.65
383.39	344.65
383.77	336.74
384.15	327.03
384.53	380.13
384.91	372.67
385.29	350.08
385.67	348.49
386.049	341.26
386.429	352.79
386.809	346.46
387.189	362.5
387.568	343.75
387.948	354.14
388.328	360.7
388.707	354.82
389.087	346.69
389.466	362.96
389.846	355.05
390.225	351.43
390.605	352.79
390.984	358.21
391.363	380.13
391.743	358.89
392.122	355.95
392.501	361.37
392.881	378.1
393.26	369.51
393.639	382.84
394.018	367.02
394.397	367.25
394.776	376.97
395.155	380.36
395.534	362.5
395.913	373.8
396.292	409.06
396.671	363.86
397.05	389.85
397.429	376.29
397.808	397.31
398.186	389.85
398.565	388.04
398.944	393.01
399.323	385.55
399.701	392.11
400.08	378.1
400.458	378.32
400.837	398.89
401.215	390.75
401.594	404.54
401.972	395.72
402.351	421.94
402.729	417.19
403.107	413.58
403.486	405.67
403.864	406.57
404.242	402.73
404.62	416.97
404.999	425.33
405.377	411.09
405.755	402.5
406.133	414.48
406.511	430.75
406.889	425.78
407.267	423.75
407.645	449.51
408.023	421.71
408.401	437.53
408.779	441.15
409.156	442.5
409.534	452.45
409.912	443.41
410.29	461.94
410.667	452.45
411.045	461.49
411.422	450.86
411.8	450.19
412.178	447.25
412.555	467.81
412.933	463.29
413.31	462.16
413.687	473.46
414.065	472.33
414.442	476.4
414.819	471.2
415.197	484.31
415.574	489.28
415.951	506.46
416.328	483.18
416.705	496.51
417.082	484.31
417.46	512.11
417.837	494.03
418.214	512.11
418.591	484.99
418.967	503.07
419.344	493.57
419.721	483.41
420.098	525.66
420.475	510.07
420.852	525.89
421.228	510.75
421.605	519.34
421.982	531.31
422.358	531.54
422.735	540.35
423.111	533.8
423.488	521.82
423.864	553.91
424.241	543.74
424.617	556.62
424.994	546.91
425.37	546.45
425.746	557.75
426.123	548.94
426.499	542.16
426.875	567.7
427.251	584.42
427.627	566.79
428.003	586.45
428.379	579
428.756	570.63
429.132	591.2
429.507	607.02
429.883	601.82
430.259	599.33
430.635	611.54
431.011	614.48
431.387	617.64
431.763	623.51
432.138	640.92
432.514	638.66
432.89	621.48
433.265	636.17
433.641	636.85
434.016	647.02
434.392	676.39
434.767	658.32
435.143	660.8
435.518	674.59
435.894	667.36
436.269	678.65
436.644	681.59
437.02	680.01
437.395	694.47
437.77	701.03
438.145	690.63
438.52	686.11
438.895	707.35
439.271	721.37
439.646	714.36
440.021	722.95
440.395	722.04
440.77	713.91
441.145	755.49
441.52	746.45
441.895	754.36
442.27	738.77
442.645	755.71
443.019	774.92
443.394	782.15
443.769	778.76
444.143	754.81
444.518	767.24
444.892	776.28
445.267	780.12
445.641	766.11
446.016	772.44
446.39	800.69
446.764	802.49
447.139	804.07
447.513	787.8
447.887	825.09
448.262	785.77
448.636	814.7
449.01	842.94
449.384	808.59
449.758	819.44
450.132	823.28
450.506	835.26
450.88	847.24
451.254	856.28
451.628	841.14
452.002	868.25
452.376	877.97
452.75	843.85
453.123	865.77
453.497	876.39
453.871	880.23
454.244	903.73
454.618	889.27
454.992	892.89
455.365	906.22
455.739	948.48
456.112	953.68
456.486	916.39
456.859	984.64
457.232	976.95
457.606	980.12
457.979	972.43
458.352	997.74
458.725	1003.84
459.099	1009.49
459.472	1024.63
459.845	1040
460.218	1057.4
460.591	1046.78
460.964	1049.94
461.337	1065.08
461.71	1085.88
462.083	1078.19
462.456	1099.66
462.829	1104.86
463.201	1134.01
463.574	1115.25
463.947	1144.4
464.32	1150.51
464.692	1161.81
465.065	1180.56
465.438	1200.22
465.81	1197.28
466.183	1219.88
466.555	1253.78
466.928	1226.44
467.3	1245.19
467.672	1267.57
468.045	1300.79
468.417	1296.27
468.789	1297.17
469.161	1317.96
469.534	1348.24
469.906	1382.36
470.278	1371.97
470.65	1401.35
471.022	1411.97
471.394	1416.26
471.766	1461.46
472.138	1474.57
472.51	1508.01
472.882	1536.26
473.253	1538.52
473.625	1571.96
473.997	1600.21
474.369	1614
474.74	1626.43
475.112	1664.39
475.484	1694.9
475.855	1725.86
476.227	1732.19
476.598	1765.86
476.97	1824.84
477.341	1862.58
477.713	1905.06
478.084	1897.15
478.455	1932.41
478.827	1985.29
479.198	2042.23
479.569	2037.49
479.94	2127.88
480.311	2124.04
480.682	2137.83
481.053	2219.86
481.424	2263.7
481.795	2279.06
482.166	2350.47
482.537	2352.06
482.908	2415.56
483.279	2469.57
483.65	2501.21
484.021	2541.43
484.391	2582.11
484.762	2611.94
485.133	2642.67
485.503	2695.78
485.874	2761.09
486.244	2828.88
486.615	2848.99
486.985	2910.91
487.356	2959.5
487.726	3022.1
488.097	3057.8
488.467	3093.73
488.837	3208.53
489.207	3187.06
489.578	3270
489.948	3322.65
490.318	3357.68
490.688	3347.51
491.058	3406.94
491.428	3514.74
491.798	3513.16
492.168	3565.81
492.538	3622.08
492.908	3673.6
493.278	3729.2
493.648	3773.26
494.017	3811.45
494.387	3849.42
494.757	3866.14
495.126	3923.77
495.496	3923.09
495.866	4011.22
496.235	4032.46
496.605	4041.96
496.974	4089.19
497.344	4178
497.713	4192.91
498.082	4233.82
498.452	4224.32
498.821	4256.87
499.19	4319.24
499.559	4327.82
499.928	4397.43
500.298	4404.66
500.667	4485.56
501.036	4420.25
501.405	4528.95
501.774	4521.72
502.143	4554.03
502.512	4590.19
502.88	4612.56
503.249	4606.23
503.618	4680.58
503.987	4694.14
504.356	4730.07
504.724	4724.88
505.093	4738.21
505.462	4792.22
505.83	4848.71
506.199	4820.24
506.567	4915.83
506.936	4895.94
507.304	4935.94
507.672	5000.57
508.041	4987.92
508.409	5021.37
508.777	5049.84
509.145	5092.55
509.514	5074.7
509.882	5134.81
510.25	5126.67
510.618	5202.38
510.986	5198.54
511.354	5238.08
511.722	5284.86
512.09	5283.28
512.458	5291.64
512.826	5318.31
513.193	5300.45
513.561	5389.04
513.929	5344.52
514.297	5435.14
514.664	5437.85
515.032	5436.95
515.4	5505.42
515.767	5469.94
516.135	5544.52
516.502	5492.77
516.869	5584.97
517.237	5588.81
517.604	5636.04
517.972	5670.84
518.339	5666.09
518.706	5652.53
519.073	5675.36
519.44	5731.18
519.808	5814.34
520.175	5800.78
520.542	5803.49
520.909	5919.42
521.276	5895.01
521.643	5890.72
522.009	5927.1
522.376	5945.63
522.743	5941.57
523.11	6015.01
523.477	6020.89
523.843	6022.47
524.21	6093.43
524.577	6100.21
524.943	6208.9
525.31	6210.03
525.676	6249.81
526.043	6280.99
526.409	6325.29
526.776	6374.78
527.142	6360.54
527.508	6435.57
527.874	6440.08
528.241	6484.15
528.607	6514.66
528.973	6544.71
529.339	6522.57
529.705	6607.31
530.071	6647.99
530.437	6684.6
530.803	6746.74
531.169	6780.19
531.535	6765.73
531.901	6816.57
532.267	6790.13
532.632	6874.65
532.998	6870.13
533.364	6922.78
533.73	6924.14
534.095	6974.99
534.461	7010.01
534.826	7027.87
535.192	7072.84
535.557	7083.68
535.923	7163.46
536.288	7159.39
536.653	7172.72
537.019	7148.09
537.384	7154.64
537.749	7200.74
538.114	7241.65
538.479	7259.27
538.845	7307.63
539.21	7343.34
539.575	7408.42
539.94	7363.22
540.305	7451.13
540.67	7430.34
541.034	7459.04
541.399	7476.67
541.764	7563.9
542.129	7543.78
542.494	7593.95
542.858	7658.81
543.223	7671.92
543.587	7772.93
543.952	7676.66
544.316	7766.83
544.681	7729.09
545.045	7865.58
545.41	7882.53
545.774	7927.5
546.138	7949.65
546.503	7860.39
546.867	7975.64
547.231	7998.01
547.595	7994.39
547.959	8096.54
548.324	8064.67
548.688	8080.95
549.052	8080.27
549.416	8177.21
549.779	8182.19
550.143	8199.36
550.507	8257.66
550.871	8282.3
551.235	8324.56
551.599	8388.51
551.962	8380.6
552.326	8399.36
552.689	8391.22
553.053	8456.3
553.417	8434.16
553.78	8569.75
554.143	8532.69
554.507	8595.51
554.87	8621.5
555.234	8638.9
555.597	8595.73
555.96	8645.45
556.323	8662.63
556.686	8729.97
557.05	8708.95
557.413	8716.18
557.776	8822.85
558.139	8932
558.502	8864.88
558.865	8836.18
559.228	8915.5
559.59	8966.35
559.953	8972.22
560.316	9047.25
560.679	9119.79
561.041	9101.94
561.404	9115.72
561.767	9149.62
562.129	9113.91
562.492	9196.62
562.854	9227.58
563.217	9290.63
563.579	9187.36
563.941	9343.96
564.304	9364.53
564.666	9426.22
565.028	9454.47
565.39	9477.97
565.753	9500.12
566.115	9574.24
566.477	9553.68
566.839	9557.52
567.201	9676.38
567.563	9675.93
567.925	9737.63
568.287	9726.55
568.648	9795.7
569.01	9838.87
569.372	9854.46
569.734	9801.35
570.095	9939.88
570.457	10016.94
570.819	10098.07
571.18	9991.63
571.542	10136.94
571.903	10178.97
572.265	10244.5
572.626	10209.25
572.987	10328.57
573.349	10342.36
573.71	10365.18
574.071	10441.79
574.432	10461.9
574.794	10646.08
575.155	10620.31
575.516	10677.94
575.877	10743.93
576.238	10759.52
576.599	10945.28
576.96	10996.8
577.32	11018.95
577.681	11125.39
578.042	11181.43
578.403	11278.15
578.763	11293.97
579.124	11481.53
579.485	11656.9
579.845	11731.7
580.206	11802.88
580.566	11902.09
580.927	12003.33
581.287	12165.36
581.648	12290.33
582.008	12464.56
582.368	12612.35
582.728	12712.69
583.089	12855.28
583.449	12980.93
583.809	13248.27
584.169	13365.1
584.529	13523.51
584.889	13768.03
585.249	13908.82
585.609	14125.98
585.969	14337.5
586.329	14534.11
586.688	14675.8
587.048	14909.92
587.408	15083.02
587.768	15381.54
588.127	15605.04
588.487	15855.66
588.846	16208.87
589.206	16362.08
589.565	16620.16
589.925	16911.9
590.284	17146.7
590.643	17436.63
591.003	17607.02
591.362	17999.78
591.721	18274.35
592.08	18526.55
592.44	18846.76
592.799	19109.13
593.158	19367.2
593.517	19646.07
593.876	19928.09
594.235	20231.13
594.593	20593.61
594.952	20965.58
595.311	21204.67
595.67	21488.95
596.029	21900.47
596.387	22188.15
596.746	22404.64
597.104	22675.59
597.463	23063.15
597.822	23383.59
598.18	23614.32
598.538	23982.45
598.897	24281.88
599.255	24386.05
599.613	25044.12
599.972	25095.64
600.33	25424.44
600.688	25618.79
601.046	26082.96
601.404	26381.48
601.762	26634.81
602.12	27013.78
602.478	27231.18
602.836	27599.08
603.194	27729.47
603.552	28044.94
603.91	28165.39
604.268	28570.12
604.625	28913.17
604.983	29265.7
605.341	29400.84
605.698	29754.73
606.056	29984.78
606.413	30078.79
606.771	30540.92
607.128	30626.79
607.485	30927.58
607.843	31139.77
608.2	31437.17
608.557	31645.52
608.914	31742.7
609.272	32259.74
609.629	32419.06
609.986	32694.54
610.343	32861.09
610.7	33245.03
611.057	33308.76
611.414	33490
611.771	33782.64
612.127	33964.33
612.484	34185.34
612.841	34393.47
613.198	34627.37
613.554	34730.87
613.911	35061.25
614.267	35242.04
614.624	35314.58
614.98	35642.25
615.337	35789.37
615.693	35934.45
616.05	36036.59
616.406	36282.69
616.762	36473.19
617.118	36489.01
617.475	36624.38
617.831	36888.55
618.187	37147.3
618.543	37146.85
618.899	37561.98
619.255	37579.38
619.611	37609.66
619.967	37902.08
620.323	37962.19
620.678	37974.85
621.034	38034.73
621.39	38146.82
621.746	38276.31
622.101	38718.56
622.457	38593.14
622.812	38578.22
623.168	38859.57
623.523	39060.92
623.879	39161.71
624.234	38899.12
624.589	39285.77
624.945	39243.29
625.3	39349.5
625.655	39458.43
626.01	39534.58
626.365	39593.11
626.72	39716.5
627.075	39747.23
627.43	39716.5
627.785	39803.95
628.14	39907.23
628.495	40215.92
628.85	40039.43
629.205	39936.83
629.559	40267.44
629.914	40083.49
630.269	40148.35
630.623	40250.72
630.978	40145.41
631.332	40490.26
631.687	40511.96
632.041	40366.65
632.396	40543.82
632.75	40256.37
633.104	40450.26
633.459	40366.42
633.813	40358.52
634.167	40429.25
634.521	40404.39
634.875	40579.53
635.229	40473.99
635.583	40295.69
635.937	40360.55
636.291	40326.65
636.645	40434.67
636.999	40189.48
637.352	40401.23
637.706	40205.75
638.06	40401.68
638.413	40350.15
638.767	40314
639.121	40533.88
639.474	40208.69
639.828	40380.66
640.181	40400.55
640.534	40426.31
640.888	40256.6
641.241	40206.2
641.594	40259.31
641.947	40470.15
642.301	40211.4
642.654	40260.66
643.007	40376.37
643.36	40284.84
643.713	40336.82
644.066	40407.55
644.419	40082.82
644.771	39884.4
645.124	39549.27
645.477	39449.61
645.83	39201.48
646.182	39243.74
646.535	39060.47
646.888	39137.3
647.24	39022.28
647.593	39222.27
647.945	39177.76
648.298	38944.31
648.65	38865.67
649.002	38883.53
649.355	39030.64
649.707	38975.95
650.059	39046.46
650.411	39497.75
650.763	39668.82
651.115	40035.36
651.467	39859.09
651.819	39933.44
652.171	39736.38
652.523	39828.59
652.875	39781.58
653.227	39759.43
653.578	39934.8
653.93	39911.3
654.282	39693
654.633	39686.67
654.985	39796.5
655.337	39706.1
655.688	39669.72
656.039	39685.09
656.391	39427.69
656.742	39616.61
657.094	39613
657.445	39667.69
657.796	39620
658.147	39615.48
658.498	39537.07
658.849	39653.22
659.2	39554.02
659.551	39402.16
659.902	39608.7
660.253	39540.46
660.604	39522.6
660.955	39395.6
661.306	39647.35
661.656	39352.67
662.007	39385.21
662.358	39475.6
662.708	39453
663.059	39515.37
663.409	39170.3
663.76	39476.73
664.11	39491.87
664.461	39533.68
664.811	39445.09
665.161	39511.31
665.511	39433.34
665.862	39363.74
666.212	39417.3
666.562	39522.38
666.912	39360.8
667.262	39291.42
667.612	39400.8
667.962	39434.47
668.312	39436.96
668.662	39429.73
669.011	39406.22
669.361	39431.76
669.711	39300.24
670.06	39418.2
670.41	39282.16
670.76	39194.03
671.109	39320.8
671.459	39180.24
671.808	39283.06
672.157	39336.4
672.507	39035.84
672.856	39118.1
673.205	39173.69
673.554	39324.19
673.904	39082.39
674.253	39289.84
674.602	39065.44
674.951	38547.04
675.3	38387.72
675.649	38993.81
675.998	39095.5
676.346	39050.75
676.695	39174.82
677.044	38914.49
677.393	38938.44
677.741	38994.03
678.09	38878.1
678.438	38860.48
678.787	38812.79
679.135	38838.56
679.484	38635.85
679.832	38830.87
680.181	38467.49
680.529	38684.66
680.877	38495.74
681.225	38520.15
681.573	38681.5
681.922	38508.39
682.27	38224.33
682.618	38332.35
682.966	38196.54
683.314	38279.47
683.661	38251.45
684.009	38080.83
684.357	37961.74
684.705	38054.39
685.053	37910.22
685.4	37904.57
685.748	37805.81
686.095	37747.06
686.443	37597.23
686.79	37693.27
687.138	37797.45
687.485	37605.37
687.832	37584.58
688.18	37620.28
688.527	37291.03
688.874	37389.1
689.221	37301.65
689.568	37181.88
689.915	37163.57
690.262	37030.24
690.609	36910.7
690.956	36824.82
691.303	36834.77
691.65	36710.93
691.997	36731.72
692.344	36452.4
692.69	36450.37
693.037	36420.54
693.383	36102.13
693.73	36272.97
694.077	36188
694.423	36037.95
694.769	36047.22
695.116	35942.59
695.462	35811.29
695.808	35697.62
696.155	35718.19
696.501	35455.59
696.847	35507.34
697.193	35192.55
697.539	35425.54
697.885	35032.1
698.231	34931.54
698.577	35042.04
698.923	35093.12
699.269	34862.39
699.614	34727.7
699.96	34663.98
700.306	34582.4
700.651	34447.26
700.997	34402.74
701.342	34274.16
701.688	34279.13
702.033	34155.06
702.379	34218.11
702.724	34077.32
703.069	34135.85
703.415	33841.62
703.76	33786.03
704.105	33820.61
704.45	33725.24
704.795	33487.06
705.14	33525.25
705.485	33478.24
705.83	33178.14
706.175	33326.84
706.52	33257.91
706.865	33071.7
707.209	33181.75
707.554	32856.34
707.899	33043.45
708.243	32832.84
708.588	32744.93
708.932	32689.34
709.277	32589
709.621	32617.93
709.966	32313.75
710.31	32522.79
710.654	32064.04
710.998	32214.77
711.342	32185.17
711.687	32145.4
712.031	32010.71
712.375	31893.2
712.719	31815.91
713.063	31949.7
713.407	31852.52
713.75	31735.69
714.094	31691.17
714.438	31499.09
714.782	31521.91
715.125	31463.83
715.469	31590.84
715.812	31422.48
716.156	31230.62
716.499	31241.92
716.843	31272.65
717.186	30978.65
717.53	31088.02
717.873	31165.99
718.216	30997.41
718.559	30834.02
718.902	30767.58
719.246	30858.88
719.589	30707.7
719.932	30455.72
720.275	30632.44
720.617	30669.96
720.96	30417.76
721.303	30449.17
721.646	30410.08
721.989	30356.74
722.331	30161.04
722.674	30134.38
723.016	30365.78
723.359	30163.3
723.701	30176.41
724.044	29908.39
724.386	29986.81
724.729	30094.38
725.071	29950.65
725.413	29988.39
725.755	29923.08
726.097	29739.36
726.439	29693.03
726.782	29734.16
727.124	29740.04
727.465	29616.88
727.807	29486.71
728.149	29398.8
728.491	29436.54
728.833	29477.9
729.175	29323.1
729.516	29341.63
729.858	29278.58
730.199	29279.71
730.541	29225.93
730.882	29054.18
731.224	29142.76
731.565	29018.47
731.906	29131.69
732.248	29165.14
732.589	28917.01
732.93	28841.53
733.271	28866.61
733.612	28827.97
733.953	28832.04
734.294	28900.96
734.635	28682.89
734.976	28780.06
735.317	28693.29
735.658	28595.89
735.999	28524.48
736.339	28531.48
736.68	28601.54
737.021	28468.88
737.361	28407.87
737.702	28441.31
738.042	28387.53
738.383	28359.73
738.723	28292.62
739.063	28285.39
739.404	28343.01
739.744	28280.64
740.084	28154.54
740.424	28199.96
740.764	28139.18
741.104	28175.56
741.444	27994.77
741.784	27959.52
742.124	27974.89
742.464	27933.31
742.804	27904.15
743.143	27783.03
743.483	27832.29
743.823	27732.18
744.162	27680.43
744.502	27633.2
744.841	27523.15
745.181	27691.73
745.52	27495.35
745.86	27516.37
746.199	27398.63
746.538	27454.22
746.877	27605.63
747.216	27466.65
747.556	27395.24
747.895	27402.92
748.234	27218.75
748.573	27303.94
748.911	27321.34
749.25	27261.46
749.589	27132.87
749.928	27056.04
750.267	27276.37
750.605	27008.81
750.944	27136.26
751.283	26942.82
751.621	26988.25
751.96	26849.72
752.298	26857.85
752.636	26795.26
752.975	26697.18
753.313	26708.93
753.651	26857.85
753.989	26620.35
754.327	26582.61
754.666	26455.15
755.004	26415.83
755.342	26494.92
755.679	26511.65
756.017	26242.95
756.355	26328.15
756.693	26246.34
757.031	26197.53
757.368	26161.6
757.706	26076.63
758.044	25923.19
758.381	26029.4
758.719	25857.43
759.056	25923.64
759.394	25753.02
759.731	25700.14
760.068	25631.44
760.405	25561.16
760.743	25519.58
761.08	25556.19
761.417	25333.15
761.754	25414.73
762.091	25254.51
762.428	25151.23
762.765	25097.22
763.102	25225.13
763.438	25079.37
763.775	24896.1
764.112	24801.18
764.449	24931.12
764.785	24688.87
765.122	24579.04
765.458	24452.72
765.795	24370.69
766.131	24460.4
766.467	24474.86
766.804	24332.72
767.14	24258.83
767.476	24240.97
767.812	24011.37
768.148	24157.36
768.485	23968.44
768.821	23772.28
769.157	23760.76
769.492	23791.72
769.828	23736.58
770.164	23561.67
770.5	23519.86
770.836	23418.17
771.171	23278.06
771.507	23302.92
771.842	23126.2
772.178	23099.76
772.513	23009.82
772.849	23049.14
773.184	22808.92
773.519	22862.93
773.855	22700.9
774.19	22587.91
774.525	22484.86
774.86	22583.62
775.195	22481.25
775.53	22356.28
775.865	22298.65
776.2	22057.75
776.535	21978.89
776.87	22017.08
777.205	21866.12
777.539	21844.65
777.874	21863.18
778.209	21614.6
778.543	21664.32
778.878	21448.5
779.212	21429.97
779.547	21381.39
779.881	21337.55
780.215	21170.32
780.55	21316.3
780.884	21169.19
781.218	21046.03
781.552	21088.74
781.886	20984.56
782.22	20815.53
782.554	20696.43
782.888	20534.4
783.222	20450.34
783.556	20435.2
783.889	20389.1
784.223	20183.9
784.557	20232.72
784.89	20237.69
785.224	20030.01
785.557	20121.76
785.891	19934.87
786.224	19930.58
786.558	19924.7
786.891	19661.43
787.224	19556.8
787.557	19495.33
787.891	19434.09
788.224	19522
788.557	19425.96
788.89	19352.97
789.223	19415.34
789.556	19242.46
789.888	19171.5
790.221	19058.06
790.554	18990.26
790.887	18905.75
791.219	18906.42
791.552	18837.73
791.884	18811.74
792.217	18626.43
792.549	18568.35
792.882	18498.3
793.214	18462.82
793.546	18428.02
793.879	18336.27
794.211	18214.24
794.543	18212.43
794.875	18281.13
795.207	18332.65
795.539	18189.38
795.871	18119.1
796.203	18016.05
796.535	17840.92
796.867	17835.49
797.198	17846.11
797.53	17832.1
797.862	17703.52
798.193	17713.91
798.525	17553.24
798.856	17581.71
799.188	17430.98
799.519	17335.39
799.85	17322.06
800.182	17164.55
800.513	17242.51
800.844	17043.42
801.175	17209.75
801.506	17164.32
801.837	16952.35
802.168	16988.51
802.499	16938.79
802.83	16823.99
803.161	16790.32
803.491	16826.03
803.822	16751.23
804.153	16644.79
804.483	16512.14
804.814	16584.22
805.145	16503.1
805.475	16478.47
805.805	16433.04
806.136	16409.77
806.466	16362.99
806.796	16433.49
807.126	16083.45
807.457	16092.49
807.787	16170.22
808.117	16076.22
808.447	16066.5
808.777	16026.27
809.107	15931.13
809.436	15947.41
809.766	15838.26
810.096	15791.25
810.426	15883.68
810.755	15790.57
811.085	15749.22
811.414	15671.48
811.744	15559.17
812.073	15625.15
812.403	15537.92
812.732	15447.53
813.061	15375.22
813.39	15397.82
813.719	15294.32
814.049	15369.12
814.378	15318.04
814.707	15187.2
815.036	15226.97
815.365	15118.27
815.693	14982.91
816.022	15030.37
816.351	15026.53
816.68	14920.54
817.008	15015.68
817.337	14864.95
817.665	14817.72
817.994	14865.4
818.322	14828.11
818.651	14699.08
818.979	14653.65
819.307	14841.45
819.636	14670.6
819.964	14558.74
820.292	14656.37
820.62	14614.79
820.948	14572.3
821.276	14630.83
821.604	14605.07
821.932	14546.54
822.259	14581.11
822.587	14570.49
822.915	14465.18
823.243	14614.33
823.57	14497.73
823.898	14447.11
824.225	14417.5
824.553	14493.43
824.88	14532.3
825.207	14539.08
825.535	14486.65
825.862	14511.96
826.189	14483.94
826.516	14566.2
826.843	14542.92
827.17	14529.82
827.497	14477.61
827.824	14496.6
828.151	14491.4
828.478	14428.8
828.805	14563.94
829.131	14472.87
829.458	14426.77
829.785	14440.1
830.111	14414.11
830.438	14462.7
830.764	14408.24
831.09	14537.05
831.417	14406.2
831.743	14448.24
832.069	14415.24
832.395	14447.11
832.722	14416.82
833.048	14267.22
833.374	14365.75
833.7	14268.58
834.026	14315.81
834.351	14390.38
834.677	14272.2
835.003	14305.41
835.329	14259.09
835.654	14255.92
835.98	14194.46
836.306	14162.82
836.631	14119.66
836.956	14176.38
837.282	14225.64
837.607	14098.87
837.932	14050.05
838.258	14063.84
838.583	14070.62
838.908	13932.54
839.233	13947.91
839.558	13981.81
839.883	13931.19
840.208	13869.27
840.533	13855.94
840.858	13902.94
841.182	13960.57
841.507	13876.05
841.832	13780
842.156	13788.59
842.481	13717.41
842.805	13727.58
843.13	13720.12
843.454	13630.4
843.778	13555.6
844.103	13573.46
844.427	13545.89
844.751	13573.46
845.075	13518.54
845.399	13510.63
845.723	13368.49
846.047	13356.97
846.371	13302.5
846.695	13276.74
847.019	13112
847.343	13121.49
847.666	13072.45
847.99	12969.4
848.313	12964.66
848.637	12888.05
848.96	12922.17
849.284	12883.53
849.607	12837.2
849.931	12760.37
850.254	12644.44
850.577	12566.25
850.9	12488.97
851.223	12502.52
851.546	12436.31
851.869	12323.09
852.192	12393.15
852.515	12236.09
852.838	12215.07
853.161	12272.47
853.483	12194.74
853.806	12119.94
854.129	12212.14
854.451	11999.03
854.774	11998.36
855.096	12033.84
855.419	11946.38
855.741	11828.42
856.063	11825.48
856.385	11836.33
856.708	11756.78
857.03	11751.13
857.352	11742.09
857.674	11707.52
857.996	11693.51
858.318	11581.19
858.64	11625.26
858.961	11549.56
859.283	11438.82
859.605	11442.44
859.926	11432.04
860.248	11413.97
860.57	11381.65
860.891	11368.99
861.212	11403.34
861.534	11295.1
861.855	11269.34
862.176	11270.01
862.498	11271.82
862.819	11283.8
863.14	11263.46
863.461	11180.07
863.782	11133.07
864.103	11123.58
864.424	11117.25
864.745	11087.65
865.065	11096.91
865.386	10966.07
865.707	10993.19
866.027	10934.66
866.348	10963.36
866.668	11011.04
866.989	10905.05
867.309	10874.32
867.63	10907.09
867.95	10933.3
868.27	10806.75
868.59	10892.62
868.91	10841.1
869.23	10798.84
869.55	10773.76
869.87	10757.26
870.19	10737.6
870.51	10772.17
870.83	10752.97
871.15	10703.25
871.469	10672.74
871.789	10759.29
872.109	10629.81
872.428	10565.85
872.748	10638.39
873.067	10655.12
873.386	10626.64
873.706	10588
874.025	10522.01
874.344	10504.61
874.663	10515.01
874.982	10494.89
875.301	10479.07
875.62	10431.84
875.939	10433.65
876.258	10420.77
876.577	10365.86
876.896	10348.91
877.214	10327.67
877.533	10341.68
877.852	10309.59
878.17	10347.78
878.489	10314.79
878.807	10305.75
879.125	10272.07
879.444	10244.96
879.762	10254
880.08	10188.69
880.398	10103.49
880.716	10201.57
881.034	10170.83
881.352	10134
881.67	10122.47
881.988	10152.08
882.306	10108.91
882.624	10049.03
882.941	9969.71
883.259	9989.37
883.577	9955.92
883.894	9937.17
884.212	9837.51
884.529	9939.43
884.846	9933.33
885.164	9835.02
885.481	9828.24
885.798	9867.11
886.115	9829.6
886.432	9700.79
886.75	9796.61
887.067	9775.36
887.383	9731.75
887.7	9668.47
888.017	9631.19
888.334	9660.57
888.651	9566.33
888.967	9622.15
889.284	9577.4
889.6	9525.43
889.917	9450.4
890.233	9531.76
890.55	9370.63
890.866	9434.36
891.182	9390.06
891.498	9308.94
891.815	9359.1
892.131	9258.32
892.447	9207.92
892.763	9266.45
893.079	9178.09
893.395	9250.86
893.71	9221.93
894.026	9168.15
894.342	9120.92
894.657	9084.76
894.973	9075.04
895.289	9076.17
895.604	9051.54
895.92	8941.26
896.235	8956.63
896.55	8957.76
896.865	8891.55
897.181	8834.6
897.496	8823.98
897.811	8814.03
898.126	8812.68
898.441	8682.96
898.756	8693.36
899.071	8625.56
899.386	8704.21
899.7	8603.64
900.015	8586.24
900.33	8513.25
900.644	8524.32
900.959	8483.87
901.273	8448.39
901.588	8421.73
901.902	8390.77
902.216	8345.57
902.531	8336.31
902.845	8329.75
903.159	8269.87
903.473	8272.58
903.787	8134.5
904.101	8193.26
904.415	8187.38
904.729	8185.35
905.042	8044.79
905.356	8048.63
905.67	8053.6
905.984	8060.83
906.297	8014.73
906.611	7957.56
906.924	7922.98
907.237	7946.71
907.551	7880.27
907.864	7875.3
908.177	7821.52
908.491	7767.96
908.804	7717.79
909.117	7720.73
909.43	7660.39
909.743	7636.44
910.056	7560.28
910.368	7564.58
910.681	7571.35
910.994	7565.71
911.307	7473.96
911.619	7443.67
911.932	7523.22
912.244	7352.6
912.557	7393.05
912.869	7350.12
913.181	7269.44
913.494	7330.23
913.806	7254.53
914.118	7215.88
914.43	7119.84
914.742	7204.58
915.054	7082.33
915.366	7083.01
915.678	7082.1
915.99	7014.53
916.302	6953.07
916.613	6985.16
916.925	6962.56
917.236	6987.87
917.548	6908.32
917.859	6943.12
918.171	6889.56
918.482	6832.16
918.794	6732.96
919.105	6768.44
919.416	6744.71
919.727	6718.04
920.038	6662.45
920.349	6684.15
920.66	6641.44
920.971	6623.81
921.282	6518.5
921.593	6505.39
921.903	6475.56
922.214	6454.77
922.525	6455
922.835	6411.61
923.146	6396.47
923.456	6352.18
923.767	6349.69
924.077	6351.95
924.387	6276.02
924.697	6266.98
925.008	6231.95
925.318	6209.36
925.628	6183.37
925.938	6142.69
926.248	6138.4
926.558	6063.15
926.867	6066.08
927.177	6087.55
927.487	5994.22
927.796	5919.65
928.106	5967.55
928.416	5951.96
928.725	5938.4
929.034	5900.89
929.344	5912.42
929.653	5868.57
929.962	5821.34
930.271	5785.86
930.581	5766.2
930.89	5736.15
931.199	5761.01
931.508	5713.32
931.817	5695.47
932.125	5651.63
932.434	5633.78
932.743	5553.55
933.051	5558.3
933.36	5579.99
933.669	5517.4
933.977	5502.03
934.286	5526.44
934.594	5476.04
934.902	5421.13
935.21	5389.49
935.519	5403.05
935.827	5379.1
936.135	5314.92
936.443	5272.88
936.751	5283.51
937.059	5323.28
937.367	5275.6
937.674	5229.95
937.982	5235.14
938.29	5204.41
938.597	5229.27
938.905	5100.01
939.213	5150.18
939.52	5113.11
939.827	5144.07
940.135	5089.61
940.442	5043.96
940.749	5003.06
941.056	5001.25
941.363	4914.93
941.67	4937.75
941.977	4915.61
942.284	4897.3
942.591	4898.43
942.898	4820.24
943.205	4868.6
943.511	4791.09
943.818	4804.2
944.125	4789.96
944.431	4720.58
944.738	4791.77
945.044	4714.25
945.35	4681.71
945.657	4619.12
945.963	4641.26
946.269	4645.33
946.575	4658.66
946.881	4570.76
947.187	4565.33
947.493	4532.34
947.799	4547.48
948.105	4474.71
948.41	4453.92
948.716	4467.03
949.022	4461.38
949.327	4462.28
949.633	4409.4
949.938	4411.89
950.244	4426.35
950.549	4339.58
950.854	4336.64
951.16	4318.56
951.465	4267.71
951.77	4305.68
952.075	4288.73
952.38	4283.76
952.685	4259.58
952.99	4222.52
953.294	4217.09
953.599	4129.19
953.904	4142.74
954.209	4105.46
954.513	4092.8
954.818	4146.13
955.122	4120.37
955.426	4075.85
955.731	4063.88
956.035	4025.91
956.339	4022.75
956.643	4056.64
956.948	3969.42
957.252	3936.42
957.556	3951.79
957.86	3935.97
958.163	3893.71
958.467	3925.57
958.771	3845.8
959.075	3905.69
959.378	3838.12
959.682	3800.38
959.985	3813.49
960.289	3769.65
960.592	3747.05
960.896	3758.57
961.199	3766.03
961.502	3770.1
961.805	3749.08
962.108	3717.22
962.411	3688.52
962.714	3634.28
963.017	3639.93
963.32	3688.07
963.623	3637.9
963.926	3594.51
964.228	3579.6
964.531	3613.49
964.833	3576.66
965.136	3543.44
965.438	3570.33
965.741	3552.7
966.043	3519.71
966.345	3483.1
966.648	3460.28
966.95	3455.53
967.252	3444.91
967.554	3422.99
967.856	3389.32
968.158	3382.09
968.46	3390.67
968.761	3372.14
969.063	3351.58
969.365	3323.33
969.666	3295.31
969.968	3306.61
970.269	3278.13
970.571	3272.48
970.872	3254.63
971.174	3222.09
971.475	3252.15
971.776	3244.69
972.077	3199.72
972.378	3188.64
972.679	3221.41
972.98	3182.77
973.281	3168.08
973.582	3160.17
973.883	3135.99
974.183	3116.56
974.484	3077.69
974.785	3125.82
975.085	3096.22
975.386	3079.72
975.686	3053.73
975.986	3042.66
976.287	3016.9
976.587	3022.1
976.887	2974.41
977.187	2938.03
977.487	2986.16
977.787	2961.76
978.087	2921.53
978.387	2920.18
978.687	2932.61
978.987	2899.61
979.286	2905.49
979.586	2899.61
979.885	2887.86
980.185	2812.84
980.484	2820.97
980.784	2816.23
981.083	2805.15
981.382	2801.54
981.682	2822.1
981.981	2778.94
982.28	2789.33
982.579	2716.12
982.878	2747.98
983.177	2746.62
983.475	2752.05
983.774	2693.97
984.073	2682.22
984.372	2672.5
984.67	2738.26
984.969	2673.4
985.267	2663.24
985.566	2660.52
985.864	2634.76
986.162	2623.69
986.461	2597.47
986.759	2562.22
987.057	2554.54
987.355	2567.87
987.653	2507.08
987.951	2571.71
988.249	2514.31
988.547	2540.53
988.844	2516.12
989.142	2494.2
989.44	2479.29
989.737	2450.36
990.035	2451.26
990.332	2477.48
990.63	2436.8
990.927	2417.59
991.224	2424.37
991.521	2401.1
991.819	2398.38
992.116	2383.24
992.413	2348.22
992.71	2343.7
993.006	2356.35
993.303	2322
993.6	2336.24
993.897	2303.02
994.193	2299.63
994.49	2303.7
994.787	2279.52
995.083	2289.23
995.379	2278.84
995.676	2270.03
995.972	2246.97
996.268	2206.3
996.565	2206.52
996.861	2212.4
997.157	2180.76
997.453	2155.68
997.749	2180.54
998.044	2162.68
998.34	2140.76
998.636	2174.89
998.932	2114.32
999.227	2122.46
999.523	2124.04
999.818	2090.37
1000.114	2112.74
1000.409	2044.27
1000.704	2051.73
1001	2076.81
1001.295	2020.31
1001.59	2049.24
1001.885	2087.66
1002.18	2008.11
1002.475	2002.91
1002.77	1983.48
1003.065	1967.21
1003.359	1959.52
1003.654	1950.03
1003.949	1933.31
1004.243	1933.76
1004.538	1921.33
1004.832	1938.06
1005.127	1914.78
1005.421	1875.23
1005.715	1862.35
1006.009	1908
1006.304	1851.73
1006.598	1846.08
1006.892	1840.66
1007.186	1829.81
1007.48	1844.27
1007.773	1788.46
1008.067	1784.16
1008.361	1803.82
1008.655	1782.58
1008.948	1761.11
1009.242	1747.1
1009.535	1719.98
1009.829	1733.32
1010.122	1714.33
1010.415	1720.21
1010.708	1716.59
1011.001	1708.23
1011.295	1733.99
1011.588	1701.68
1011.881	1653.32
1012.173	1660.32
1012.466	1658.74
1012.759	1651.06
1013.052	1642.47
1013.344	1639.31
1013.637	1624.62
1013.93	1619.42
1014.222	1607.44
1014.514	1598.18
1014.807	1599.31
1015.099	1571.06
1015.391	1570.16
1015.683	1553.66
1015.976	1530.16
1016.268	1532.42
1016.56	1543.26
1016.851	1512.98
1017.143	1501.91
1017.435	1472.76
1017.727	1470.95
1018.018	1455.36
1018.31	1469.14
1018.602	1450.39
1018.893	1475.24
1019.185	1421.01
1019.476	1421.69
1019.767	1410.61
1020.058	1406.77
1020.35	1422.36
1020.641	1419.88
1020.932	1390.05
1021.223	1370.16
1021.514	1399.09
1021.804	1370.84
1022.095	1341.01
1022.386	1385.53
1022.677	1310.95
1022.967	1312.54
1023.258	1307.11
1023.548	1295.59
1023.839	1315.25
1024.129	1303.04
1024.419	1297.62
1024.709	1259.66
1025	1242.26
1025.29	1260.11
1025.58	1239.09
1025.87	1241.8
1026.16	1248.36
1026.449	1221.92
1026.739	1210.62
1027.029	1207.91
1027.319	1208.13
1027.608	1192.99
1027.898	1190.96
1028.187	1187.12
1028.477	1171.75
1028.766	1169.26
1029.055	1154.57
1029.344	1142.15
1029.634	1170.39
1029.923	1122.71
1030.212	1139.43
1030.501	1135.82
1030.79	1115.71
1031.078	1084.75
1031.367	1097.17
1031.656	1109.6
1031.945	1094.46
1032.233	1095.59
1032.522	1066.67
1032.81	1064.86
1033.099	1070.73
1033.387	1061.92
1033.675	1077.29
1033.963	1022.37
1034.251	1030.74
1034.54	1021.7
1034.828	1023.73
1035.116	1004.75
1035.403	1013.79
1035.691	1013.56
1035.979	994.58
1036.267	993.67
1036.554	993
1036.842	965.2
1037.129	957.97
1037.417	970.85
1037.704	962.94
1037.992	946.67
1038.279	924.07
1038.566	953.9
1038.853	953.9
1039.14	953.9
