Data from hue_50_FLMS001491_64.txt Node
Date: Mon Feb 06 15:10:45 GMT 2017
User: dcchb
Spectrometer: FLMS00149
Trigger mode: 0
Integration Time (sec): 2.000000E-2
Scans to average: 10
Electric dark correction enabled: true
Nonlinearity correction enabled: false
Boxcar width: 0
XAxis mode: Wavelengths
Number of Pixels in Spectrum: 2048
>>>>>Begin Spectral Data<<<<<
341.393	-19.87
341.776	-19.87
342.16	-19.87
342.543	-58.29
342.927	-58.74
343.31	-65.07
343.693	-73.2
344.077	-58.74
344.46	-44.73
344.843	-63.71
345.226	-24.39
345.61	-29.36
345.993	-29.36
346.376	-14
346.759	8.6
347.142	39.11
347.525	29.84
347.908	48.83
348.291	68.26
348.674	91.31
349.057	116.62
349.44	129.5
349.823	133.57
350.206	161.59
350.588	177.18
350.971	222.16
351.354	221.48
351.737	268.26
352.119	264.19
352.502	258.76
352.884	263.28
353.267	268.26
353.65	280.46
354.032	313
354.414	295.37
354.797	298.99
355.179	337.86
355.562	330.85
355.944	336.5
356.326	331.98
356.709	330.4
357.091	334.69
357.473	341.93
357.855	317.75
358.238	351.64
358.62	335.37
359.002	345.32
359.384	355.49
359.766	365.65
360.148	346.22
360.53	340.57
360.912	331.76
361.294	359.55
361.676	318.88
362.057	333.79
362.439	336.5
362.821	309.38
363.203	315.71
363.584	318.42
363.966	319.1
364.348	322.49
364.729	323.4
365.111	312.55
365.493	312.55
365.874	304.86
366.256	329.27
366.637	338.99
367.019	327.24
367.4	317.52
367.781	317.75
368.163	320.23
368.544	302.61
368.925	305.77
369.306	305.77
369.688	311.87
370.069	319.78
370.45	321.36
370.831	336.05
371.212	327.01
371.593	320.23
371.974	303.51
372.355	313.68
372.736	298.99
373.117	303.51
373.498	292.89
373.879	309.84
374.26	312.55
374.641	338.31
375.021	316.84
375.402	326.79
375.783	327.01
376.163	331.98
376.544	302.83
376.925	341.93
377.305	329.5
377.686	340.12
378.066	330.4
378.447	335.6
378.827	340.8
379.208	326.33
379.588	333.79
379.968	346.22
380.349	326.11
380.729	332.21
381.109	321.59
381.489	333.79
381.87	336.05
382.25	332.89
382.63	356.84
383.01	344.41
383.39	343.96
383.77	317.75
384.15	336.05
384.53	340.8
384.91	331.98
385.29	325.66
385.67	368.37
386.049	339.89
386.429	356.16
386.809	329.05
387.189	357.52
387.568	346.45
387.948	342.83
388.328	363.17
388.707	359.33
389.087	344.86
389.466	352.1
389.846	367.24
390.225	366.11
390.605	358.2
390.984	360
391.363	354.81
391.743	352.1
392.122	368.37
392.501	375.6
392.881	348.71
393.26	352.1
393.639	370.85
394.018	360.46
394.397	366.56
394.776	349.38
395.155	369.5
395.534	378.08
395.913	374.24
396.292	368.37
396.671	382.38
397.05	384.18
397.429	379.67
397.808	371.08
398.186	381.47
398.565	363.17
398.944	385.99
399.323	370.85
399.701	396.16
400.08	390.51
400.458	395.03
400.837	402.49
401.215	387.8
401.594	377.63
401.972	390.06
402.351	378.08
402.729	374.47
403.107	400
403.486	398.87
403.864	390.96
404.242	406.11
404.62	405.88
404.999	406.33
405.377	401.59
405.755	406.56
406.133	418.31
406.511	422.83
406.889	404.07
407.267	416.05
407.645	427.57
408.023	405.65
408.401	410.17
408.779	407.24
409.156	422.38
409.534	426.9
409.912	418.08
410.29	444.75
410.667	418.08
411.045	427.8
411.422	451.3
411.8	438.65
412.178	461.02
412.555	450.17
412.933	429.83
413.31	430.96
413.687	454.92
414.065	482.26
414.442	444.3
414.819	454.47
415.197	467.8
415.574	472.09
415.951	446.56
416.328	478.65
416.705	467.57
417.082	468.02
417.46	488.36
417.837	473
418.214	469.38
418.591	465.99
418.967	484.52
419.344	484.07
419.721	495.82
420.098	484.52
420.475	494.46
420.852	464.63
421.228	513.9
421.605	489.49
421.982	520.68
422.358	519.1
422.735	508.02
423.111	511.87
423.488	508.7
423.864	508.93
424.241	527.01
424.617	517.74
424.994	534.92
425.37	514.8
425.746	547.34
426.123	533.11
426.499	525.42
426.875	537.85
427.251	511.19
427.627	539.21
428.003	568.81
428.379	570.17
428.756	549.83
429.132	587.34
429.507	581.02
429.883	553.9
430.259	578.3
430.635	560.45
431.011	581.02
431.387	598.87
431.763	593.22
432.138	595.93
432.514	612.43
432.89	596.83
433.265	618.3
433.641	605.87
434.016	604.74
434.392	616.27
434.767	636.83
435.143	621.24
435.518	628.25
435.894	625.53
436.269	657.62
436.644	649.04
437.02	641.81
437.395	642.94
437.77	645.65
438.145	641.58
438.52	670.96
438.895	664.4
439.271	669.15
439.646	664.4
440.021	677.96
440.395	680.45
440.77	687.68
441.145	701.24
441.52	679.32
441.895	702.82
442.27	697.4
442.645	708.24
443.019	698.3
443.394	690.62
443.769	710.5
444.143	687.68
444.518	700.56
444.892	737.4
445.267	736.49
445.641	739.43
446.016	736.72
446.39	731.29
446.764	750.95
447.139	734.46
447.513	742.82
447.887	774.23
448.262	773.55
448.636	788.47
449.01	758.86
449.384	762.48
449.758	780.11
450.132	751.18
450.506	800.9
450.88	792.08
451.254	791.63
451.628	789.82
452.002	802.48
452.376	807.68
452.75	829.14
453.123	828.01
453.497	825.98
453.871	840.9
454.244	835.25
454.618	849.26
454.992	840.67
455.365	871.63
455.739	864.62
456.112	862.36
456.486	903.95
456.859	903.72
457.232	929.03
457.606	912.08
457.979	923.83
458.352	928.58
458.725	947.56
459.099	943.72
459.472	958.18
459.845	971.74
460.218	972.42
460.591	996.6
460.964	995.47
461.337	1007.9
461.71	1032.76
462.083	1034.34
462.456	1032.98
462.829	1042.25
463.201	1054.9
463.574	1063.49
463.947	1102.58
464.32	1130.61
464.692	1134
465.065	1115.47
465.438	1142.13
465.81	1162.24
466.183	1169.7
466.555	1197.04
466.928	1216.71
467.3	1222.35
467.672	1246.99
468.045	1279.08
468.417	1281.79
468.789	1282.92
469.161	1312.97
469.534	1327.44
469.906	1385.97
470.278	1380.09
470.65	1404.27
471.022	1451.05
471.394	1459.86
471.766	1483.36
472.138	1540.76
472.51	1548
472.882	1587.99
473.253	1605.85
473.625	1645.62
473.997	1676.35
474.369	1687.88
474.74	1759.06
475.112	1821.44
475.484	1858.04
475.855	1914.54
476.227	1936.46
476.598	1976.91
476.97	2019.4
477.341	2105.95
477.713	2136.23
478.084	2160.64
478.455	2272.04
478.827	2328.77
479.198	2422.32
479.569	2451.48
479.94	2550.23
480.311	2593.39
480.682	2674.97
481.053	2796.78
481.424	2880.16
481.795	2939.82
482.166	3004.23
482.537	3104.57
482.908	3191.57
483.279	3280.61
483.65	3396.99
484.021	3516.98
484.391	3593.14
484.762	3667.49
485.133	3782.29
485.503	3872.68
485.874	4056.4
486.244	4138.66
486.615	4247.13
486.985	4371.2
487.356	4526.67
487.726	4591.31
488.097	4756.27
488.467	4832.43
488.837	5038.07
489.207	5151.07
489.578	5245.98
489.948	5392.19
490.318	5587.89
490.688	5649.58
491.058	5784.04
491.428	5972.29
491.798	6116.24
492.168	6303.35
492.538	6389
492.908	6530.92
493.278	6661.31
493.648	6805.71
494.017	6937.23
494.387	7135.19
494.757	7283.44
495.126	7373.38
495.496	7477.33
495.866	7662.64
496.235	7831.45
496.605	8002.06
496.974	8033.7
497.344	8212.23
497.713	8328.16
498.082	8519.56
498.452	8696.73
498.821	8828.48
499.19	8909.84
499.559	9037.06
499.928	9247.68
500.298	9342.37
500.667	9534.45
501.036	9563.15
501.405	9747.33
501.774	9821
502.143	9905.06
502.512	10075.23
502.88	10286.52
503.249	10300.99
503.618	10447.42
503.987	10582.11
504.356	10769.45
504.724	10813.52
505.093	10946.84
505.462	11029.33
505.83	11082.66
506.199	11326.04
506.567	11502.31
506.936	11483.33
507.304	11748.86
507.672	11785.24
508.041	11940.94
508.409	12075.85
508.777	12222.97
509.145	12280.14
509.514	12353.81
509.882	12530.08
510.25	12603.07
510.618	12677.19
510.986	12773.69
511.354	12933.23
511.722	13167.58
512.09	13273.56
512.458	13258.42
512.826	13474.69
513.193	13579.54
513.561	13548.36
513.929	13743.38
514.297	13896.82
514.664	14025.86
515.032	14078.29
515.4	14290.26
515.767	14273.31
516.135	14414.55
516.502	14326.87
516.869	14682.57
517.237	14721.89
517.604	14704.03
517.972	14892.73
518.339	15119.62
518.706	15137.7
519.073	15283.91
519.44	15345.15
519.808	15457.01
520.175	15587.63
520.542	15683.22
520.909	15869.88
521.276	15856.55
521.643	15998.24
522.009	16137.89
522.376	16308.06
522.743	16415.4
523.11	16526.36
523.477	16656.75
523.843	16775.17
524.21	17049.74
524.577	17079.57
524.943	17250.18
525.31	17243.18
525.676	17440.46
526.043	17556.39
526.409	17621.92
526.776	17865.31
527.142	17950.28
527.508	17994.8
527.874	18211.51
528.241	18276.37
528.607	18365.86
528.973	18487.66
529.339	18534.89
529.705	18811.04
530.071	18920.87
530.437	18912.29
530.803	19096.24
531.169	19177.36
531.535	19230.24
531.901	19288.32
532.267	19342.1
532.632	19570.57
532.998	19711.36
533.364	19718.14
533.73	19758.14
534.095	19828.65
534.461	20029.54
534.826	20081.07
535.192	20134.63
535.557	20283.1
535.923	20249.65
536.288	20357.44
536.653	20444.9
537.019	20508.18
537.384	20558.34
537.749	20733.25
538.114	20671.56
538.479	20766.7
538.845	21047.82
539.21	20978.45
539.575	21011.44
539.94	21099.35
540.305	21202.17
540.67	21284.65
541.034	21256.18
541.399	21441.48
541.764	21523.29
542.129	21476.06
542.494	21678.31
542.858	21785.66
543.223	21900.68
543.587	22086.89
543.952	22008.25
544.316	22017.29
544.681	22054.35
545.045	22242.82
545.41	22328.47
545.774	22281.24
546.138	22370.05
546.503	22538.86
546.867	22489.14
547.231	22666.31
547.595	22756.03
547.959	22811.84
548.324	22810.49
548.688	22845.52
549.052	22996.7
549.416	23027.21
549.779	22996.25
550.143	23150.59
550.507	23392.17
550.871	23452.96
551.235	23451.6
551.599	23511.49
551.962	23646.4
552.326	23678.26
552.689	23813.4
553.053	23876.22
553.417	23936.11
553.78	24099.49
554.143	24118.7
554.507	24335.19
554.87	24318.7
555.234	24489.77
555.597	24412.48
555.96	24389.2
556.323	24669.87
556.686	24600.27
557.05	24786.03
557.413	24865.35
557.776	24909.64
558.139	25038.9
558.502	25218.33
558.865	25136.53
559.228	25398.89
559.59	25382.62
559.953	25520.47
560.316	25709.17
560.679	25755.5
561.041	25950.52
561.404	25986.22
561.767	26141.02
562.129	26103.73
562.492	26437.51
562.854	26421.69
563.217	26554.12
563.579	26518.86
563.941	26598.41
564.304	26791.17
564.666	26946.2
565.028	27004.28
565.39	27239.52
565.753	27245.85
566.115	27370.14
566.477	27500.99
566.839	27474.77
567.201	27688.33
567.563	27809.45
567.925	27828.89
568.287	28036.79
568.648	28016.68
569.01	28230.23
569.372	28421.19
569.734	28281.08
570.095	28491.69
570.457	28627.96
570.819	28679.71
571.18	28873.83
571.542	28908.41
571.903	28976.65
572.265	29095.75
572.626	29253.03
572.987	29194.05
573.349	29402.4
573.71	29375.74
574.071	29604.66
574.432	29677.88
574.794	29918.32
575.155	29965.55
575.516	29881.71
575.877	30048.04
576.238	30109.73
576.599	30312.44
576.96	30228.15
577.32	30299.33
577.681	30656.16
578.042	30671.3
578.403	30710.62
578.763	30859.99
579.124	31043.72
579.485	31058.18
579.845	31408.68
580.206	31196.71
580.566	31311.73
580.927	31365.29
581.287	31640.76
581.648	31746.07
582.008	31964.82
582.368	31831.04
582.728	32119.4
583.089	32153.74
583.449	32361.42
583.809	32338.82
584.169	32590.57
584.529	32703.11
584.889	32958.7
585.249	32640.06
585.609	32953.27
585.969	33081.18
586.329	33238.69
586.688	33408.63
587.048	33419.47
587.408	33428.97
587.768	33652.69
588.127	33710.77
588.487	33673.48
588.846	34146.23
589.206	33971.55
589.565	34022.85
589.925	34432.56
590.284	34330.64
590.643	34565.66
591.003	34740.12
591.362	34936.95
591.721	35035.93
592.08	35123.61
592.44	35376.49
592.799	35296.26
593.158	35428.24
593.517	35536.71
593.876	35630.94
594.235	35684.05
594.593	35894.21
594.952	36042
595.311	35983.47
595.67	36113.64
596.029	36357.93
596.387	36472.05
596.746	36598.6
597.104	36608.54
597.463	36797.46
597.822	36941.87
598.18	36892.6
598.538	36858.48
598.897	37284.46
599.255	36961.3
599.613	37510.89
599.972	37489.2
600.33	37716.54
600.688	37592.92
601.046	37593.83
601.404	37911.79
601.762	37977.32
602.12	38129.86
602.478	38100.93
602.836	38253.47
603.194	38115.17
603.552	38332.11
603.91	38363.53
604.268	38642.84
604.625	38478.78
604.983	38664.76
605.341	38548.38
605.698	38848.71
606.056	39001.02
606.413	39090.29
606.771	39208.7
607.128	39234.01
607.485	39203.5
607.843	39235.82
608.2	39387.68
608.557	39614.79
608.914	39492.31
609.272	39804.39
609.629	39894.11
609.986	40046.64
610.343	39879.64
610.7	40339.07
611.057	40155.34
611.414	40222.69
611.771	40337.03
612.127	40577.48
612.484	40605.95
612.841	40723.46
613.198	40678.04
613.554	40778.6
613.911	40960.52
614.267	41060.86
614.624	40902.44
614.98	41091.36
615.337	41253.62
615.693	41205.03
616.05	41233.05
616.406	41464.01
616.762	41397.8
617.118	41453.61
617.475	41410.68
617.831	41655.42
618.187	41696.54
618.543	41738.13
618.899	42066.25
619.255	41866.71
619.611	41969.98
619.967	41979.25
620.323	42245.91
620.678	42062.86
621.034	41957.33
621.39	42082.75
621.746	42187.38
622.101	42388.73
622.457	42133.37
622.812	42362.74
623.168	42372.23
623.523	42567.03
623.879	42682.28
624.234	42340.6
624.589	42580.59
624.945	42508.05
625.3	42707.82
625.655	42698.78
626.01	42646.58
626.365	42655.62
626.72	42691.55
627.075	42666.01
627.43	42717.31
627.785	42689.06
628.14	42848.38
628.495	42763.64
628.85	42834.59
629.205	42615.62
629.559	42890.19
629.914	42805.22
630.269	42726.35
630.623	42670.3
630.978	42484.32
631.332	42806.12
631.687	42874.59
632.041	42752.56
632.396	42877.3
632.75	42756.4
633.104	42732.9
633.459	42571.1
633.813	42623.98
634.167	42555.73
634.521	42575.39
634.875	42737.65
635.229	42661.94
635.583	42397.09
635.937	42474.83
636.291	42503.76
636.645	42466.02
636.999	42445.23
637.352	42600.25
637.706	42231.9
638.06	42373.36
638.413	42365.45
638.767	42267.15
639.121	42285
639.474	42005.01
639.828	42072.58
640.181	42250.65
640.534	42174.27
640.888	42129.08
641.241	42073.03
641.594	41995.07
641.947	41981.06
642.301	42066.25
642.654	41982.19
643.007	42043.88
643.36	41936.99
643.713	41949.19
644.066	42094.95
644.419	41709.65
644.771	41425.37
645.124	41248.65
645.477	41205.03
645.83	40960.07
646.182	40846.85
646.535	40715.55
646.888	40766.4
647.24	40457.26
647.593	40690.47
647.945	40608.44
648.298	40516.46
648.65	40407.31
649.002	40319.18
649.355	40587.42
649.707	40490.7
650.059	40594.43
650.411	41099.5
650.763	41090.69
651.115	41558.47
651.467	41356.89
651.819	41320.28
652.171	41202.32
652.523	41177.01
652.875	41317.35
653.227	41113.96
653.578	41304.69
653.93	41112.38
654.282	40918.94
654.633	40997.81
654.985	41039.16
655.337	41086.84
655.688	40984.25
656.039	41109.67
656.391	40781.31
656.742	40878.26
657.094	40975.43
657.445	40972.5
657.796	40766.17
658.147	40799.62
658.498	40774.99
658.849	40918.49
659.2	40788.09
659.551	40738.15
659.902	40795.1
660.253	40806.85
660.604	40811.6
660.955	40610.02
661.306	40767.3
661.656	40701.32
662.007	40761.43
662.358	40656.8
662.708	40778.38
663.059	40737.02
663.409	40376.13
663.76	40668.1
664.11	40651.37
664.461	40701.77
664.811	40644.6
665.161	40688.89
665.511	40507.65
665.862	40620.64
666.212	40758.49
666.562	40682.56
666.912	40606.86
667.262	40518.72
667.612	40603.47
667.962	40485.28
668.312	40538.61
668.662	40877.13
669.011	40561.21
669.361	40537.03
669.711	40413.19
670.06	40322.57
670.41	40284.15
670.76	40287.99
671.109	40434.88
671.459	40400.53
671.808	40326.64
672.157	40459.06
672.507	40250.03
672.856	40192.18
673.205	40182.01
673.554	40292.51
673.904	40189.47
674.253	40414.54
674.602	40130.48
674.951	39657.28
675.3	39605.07
675.649	40129.81
675.998	40184.49
676.346	40201.89
676.695	40192.63
677.044	39824.96
677.393	40089.81
677.741	40066.98
678.09	39983.14
678.438	39845.52
678.787	39832.64
679.135	40049.58
679.484	39725.98
679.832	39897.27
680.181	39605.53
680.529	39791.06
680.877	39671.97
681.225	39546.77
681.573	39592.42
681.922	39551.97
682.27	39334.12
682.618	39318.75
682.966	39432.42
683.314	39428.13
683.661	39305.2
684.009	39064.3
684.357	39049.61
684.705	39000.12
685.053	39014.36
685.4	38930.29
685.748	38693.01
686.095	38813.91
686.443	38752.89
686.79	38551.99
687.138	38587.93
687.485	38693.91
687.832	38504.31
688.18	38627.02
688.527	38440.13
688.874	38209.86
689.221	38381.38
689.568	38185.68
689.915	38065.45
690.262	38037.43
690.609	38097.09
690.956	37735.29
691.303	37786.37
691.65	37692.58
691.997	37669.98
692.344	37400.39
692.69	37340.05
693.037	37378.69
693.383	37053.5
693.73	37278.58
694.077	36930.57
694.423	37075.88
694.769	36890.57
695.116	36769.67
695.462	36786.39
695.808	36617.81
696.155	36643.57
696.501	36390.92
696.847	36382.33
697.193	36115.45
697.539	36248.55
697.885	36048.56
698.231	35920.2
698.577	35990.93
698.923	36017.15
699.269	35743.48
699.614	35520.44
699.96	35508.46
700.306	35598.4
700.651	35367.22
700.997	35313.89
701.342	35244.06
701.688	35091.97
702.033	35040
702.379	35159.77
702.724	34926.33
703.069	35095.59
703.415	34635.94
703.76	34669.61
704.105	34602.72
704.45	34694.92
704.795	34348.49
705.14	34172.45
705.485	34179.45
705.83	34141.72
706.175	34084.32
706.52	34005.45
706.865	34020.14
707.209	33838.45
707.554	33868.95
707.899	33861.5
708.243	33661.28
708.588	33617.21
708.932	33326.37
709.277	33470.09
709.621	33519.81
709.966	33237.56
710.31	33233.04
710.654	33030.78
710.998	33061.52
711.342	33059.71
711.687	33037.34
712.031	32680.74
712.375	32669.89
712.719	32740.62
713.063	32727.29
713.407	32730.9
713.75	32445.94
714.094	32545.37
714.438	32418.82
714.782	32529.55
715.125	32274.65
715.469	32292.27
715.812	32224.93
716.156	31940.64
716.499	32105.16
716.843	31966.41
717.186	31899.29
717.53	31953.07
717.873	31951.26
718.216	31897.71
718.559	31742
718.902	31603.7
719.246	31663.81
719.589	31503.37
719.932	31384.95
720.275	31379.98
720.617	31432.18
720.96	31322.35
721.303	31354.44
721.646	31317.61
721.989	31121.91
722.331	31270.38
722.674	31146.54
723.016	31066.99
723.359	31084.17
723.701	31004.62
724.044	30841.01
724.386	30603.28
724.729	30900.44
725.071	30686.66
725.413	30649.6
725.755	30678.08
726.097	30482.6
726.439	30349.72
726.782	30332.32
727.124	30520.12
727.465	30216.39
727.807	30263.4
728.149	30111.31
728.491	30007.36
728.833	30158.77
729.175	30043.97
729.516	30194.93
729.858	29933.92
730.199	29907.02
730.541	29789.06
730.882	29872.45
731.224	29864.77
731.565	29824.54
731.906	29821.83
732.248	29690.08
732.589	29548.62
732.93	29452.8
733.271	29554.72
733.612	29541.84
733.953	29488.5
734.294	29439.01
734.635	29363.08
734.976	29271.79
735.317	29236.76
735.658	29187.95
735.999	29112.92
736.339	29115.63
736.68	29206.7
737.021	29116.31
737.361	29027.5
737.702	29117.21
738.042	29000.61
738.383	28970.33
738.723	29050.55
739.063	28864.79
739.404	28947.73
739.744	28765.36
740.084	28645.14
740.424	28765.36
740.764	28593.61
741.104	28639.49
741.444	28514.29
741.784	28553.61
742.124	28495.54
742.464	28486.5
742.804	28396.1
743.143	28247.41
743.483	28430.9
743.823	28234.98
744.162	28214.87
744.502	28324.69
744.841	28162.21
745.181	28188.88
745.52	27979.62
745.86	28089.67
746.199	28053.06
746.538	28101.42
746.877	28110.69
747.216	27995.89
747.556	27942.56
747.895	27806.29
748.234	27875.21
748.573	27832.05
748.911	27625.95
749.25	27632.28
749.589	27524.71
749.928	27517.93
750.267	27510.7
750.605	27507.77
750.944	27462.57
751.283	27354.78
751.621	27395.23
751.96	27231.16
752.298	27246.08
752.636	27233.65
752.975	27029.36
753.313	27003.15
753.651	27141
753.989	26934
754.327	26885.63
754.666	26764.96
755.004	26847.22
755.342	26732.42
755.679	26811.29
756.017	26584.63
756.355	26689.26
756.693	26581.01
757.031	26542.37
757.368	26347.57
757.706	26317.74
758.044	26265.09
758.381	26279.1
758.719	26117.07
759.056	26134.24
759.394	26059.67
759.731	25903.06
760.068	25845.66
760.405	25815.83
760.743	25694.71
761.08	25711.65
761.417	25573.8
761.754	25511.43
762.091	25454.49
762.428	25358.67
762.765	25219.46
763.102	25339.01
763.438	25108.73
763.775	25000.03
764.112	25058.34
764.449	25054.72
764.785	24908.96
765.122	24858.12
765.458	24792.13
765.795	24746.03
766.131	24666.71
766.467	24525.02
766.804	24439.15
767.14	24298.58
767.476	24338.36
767.812	24256.1
768.148	24341.3
768.485	24042.77
768.821	23916.22
769.157	23914.41
769.492	23817.02
769.828	23806.62
770.164	23429.23
770.5	23686.17
770.836	23558.04
771.171	23488.21
771.507	23468.55
771.842	23195.79
772.178	23224.71
772.513	23204.15
772.849	23030.14
773.184	23008.22
773.519	22886.19
773.855	22814.56
774.19	22719.19
774.525	22744.27
774.86	22701.56
775.195	22594
775.53	22544.05
775.865	22284.85
776.2	22220.67
776.535	22088.92
776.87	22069.04
777.205	21950.62
777.539	21904.52
777.874	21886.9
778.209	21717.64
778.543	21662.72
778.878	21509.51
779.212	21509.96
779.547	21439.22
779.881	21496.17
780.215	21339.57
780.55	21450.98
780.884	21218.89
781.218	21048.73
781.552	21089.63
781.886	20974.15
782.22	20852.57
782.554	20749.98
782.888	20594.5
783.222	20503.2
783.556	20552.92
783.889	20392.92
784.223	20216.88
784.557	20285.58
784.89	20308.86
785.224	20260.95
785.557	20193.38
785.891	20054.85
786.224	20103.67
786.558	19987.29
786.891	19783.45
787.224	19680.85
787.557	19609.67
787.891	19592.95
788.224	19540.74
788.557	19548.43
788.89	19406.96
789.223	19389.33
789.556	19300.52
789.888	19141.66
790.221	19093.52
790.554	18925.39
790.887	19058.27
791.219	18962.91
791.552	18839.74
791.884	18785.06
792.217	18708.45
792.549	18720.43
792.882	18504.16
793.214	18458.96
793.546	18446.76
793.879	18352.75
794.211	18232.76
794.543	18283.83
794.875	18202.02
795.207	18289.7
795.539	18068.47
795.871	18142.81
796.203	17920.9
796.535	17912.54
796.867	17890.62
797.198	17887.23
797.53	17800.68
797.862	17620.57
798.193	17716.61
798.525	17632.32
798.856	17582.38
799.188	17413.79
799.519	17427.58
799.85	17248.15
800.182	17368.15
800.513	17305.55
800.844	17139.45
801.175	17239.11
801.506	17198.21
801.837	16937.87
802.168	17078.89
802.499	16947.59
802.83	16932.9
803.161	16925.9
803.491	16805.22
803.822	16873.02
804.153	16696.75
804.483	16569.07
804.814	16668.05
805.145	16533.82
805.475	16581.73
805.805	16477.77
806.136	16429.41
806.466	16442.29
806.796	16411.56
807.126	16251.79
807.457	16156.2
807.787	16225.8
808.117	16082.3
808.447	16079.59
808.777	16137.89
809.107	16068.52
809.436	15922.31
809.766	15932.7
810.096	15831.69
810.426	15793.05
810.755	15787.4
811.085	15798.02
811.414	15767.06
811.744	15574.29
812.073	15548.98
812.403	15641.64
812.732	15531.58
813.061	15472.38
813.39	15443
813.719	15343.79
814.049	15455.43
814.378	15324.13
814.707	15272.61
815.036	15207.98
815.365	15205.26
815.693	15098.83
816.022	15115.1
816.351	15059.05
816.68	14994.2
817.008	14954.88
817.337	14860.87
817.665	14867.65
817.994	14831.71
818.322	14858.38
818.651	14774.31
818.979	14618.84
819.307	14808.44
819.636	14723.24
819.964	14647.76
820.292	14675.79
820.62	14676.24
820.948	14557.82
821.276	14709.23
821.604	14538.16
821.932	14607.99
822.259	14645.96
822.587	14594.21
822.915	14531.61
823.243	14628.78
823.57	14530.71
823.898	14557.82
824.225	14431.73
824.553	14468.79
824.88	14513.76
825.207	14560.08
825.535	14486.41
825.862	14468.79
826.189	14487.54
826.516	14469.69
826.843	14573.87
827.17	14501.1
827.497	14561.44
827.824	14433.31
828.151	14544.49
828.478	14518.73
828.805	14531.61
829.131	14466.75
829.458	14400.77
829.785	14388.56
830.111	14407.09
830.438	14511.05
830.764	14514.89
831.09	14442.35
831.417	14477.6
831.743	14402.57
832.069	14430.37
832.395	14324.84
832.722	14369.13
833.048	14316.47
833.374	14401.9
833.7	14226.31
834.026	14295.68
834.351	14371.39
834.677	14323.03
835.003	14333.87
835.329	14329.81
835.654	14199.87
835.98	14177.72
836.306	14190.15
836.631	14113.32
836.956	14188.12
837.282	14181.11
837.607	14083.03
837.932	14126.2
838.258	14037.39
838.583	14055.01
838.908	14003.26
839.233	13933.66
839.558	13953.32
839.883	13976.37
840.208	13913.55
840.533	13887.56
840.858	13866.09
841.182	13886.43
841.507	13916.03
841.832	13741.35
842.156	13803.04
842.481	13734.12
842.805	13762.36
843.13	13756.94
843.454	13568.7
843.778	13595.14
844.103	13536.16
844.427	13520.34
844.751	13572.31
845.075	13535.25
845.399	13482.82
845.723	13398.76
846.047	13414.58
846.371	13315.82
846.695	13316.5
847.019	13218.2
847.343	13116.05
847.666	13052.78
847.99	12947.24
848.313	13005.1
848.637	12871.77
848.96	12904.76
849.284	12754.93
849.607	12771.2
849.931	12775.27
850.254	12571.66
850.577	12614.6
850.9	12502.06
851.223	12527.59
851.546	12489.4
851.869	12321.05
852.192	12414.83
852.515	12253.93
852.838	12288.28
853.161	12231.33
853.483	12214.83
853.806	12082.63
854.129	12039.47
854.451	12084.89
854.774	11937.78
855.096	11984.33
855.419	11918.34
855.741	11955.41
856.063	11839.93
856.385	11823.43
856.708	11765.13
857.03	11727.62
857.352	11766.03
857.674	11610.56
857.996	11647.62
858.318	11525.13
858.64	11542.99
858.961	11543.21
859.283	11475.42
859.605	11431.8
859.926	11487.17
860.248	11392.93
860.57	11412.14
860.891	11317.46
861.212	11342.54
861.534	11258.02
861.855	11243.11
862.176	11274.97
862.498	11258.48
862.819	11270.45
863.14	11150.46
863.461	11194.52
863.782	11199.49
864.103	11170.34
864.424	11155.65
864.745	11125.37
865.065	11039.5
865.386	11055.77
865.707	10928.54
866.027	11011.48
866.348	10976.22
866.668	10917.02
866.989	10921.08
867.309	10830.46
867.63	10878.82
867.95	10910.01
868.27	10796.57
868.59	10922.89
868.91	10752.27
869.23	10788.43
869.55	10772.84
869.87	10764.02
870.19	10741.88
870.51	10787.53
870.83	10691.94
871.15	10672.05
871.469	10708.21
871.789	10645.38
872.109	10674.54
872.428	10639.06
872.748	10632.05
873.067	10686.06
873.386	10576.23
873.706	10548.89
874.025	10503.01
874.344	10441.32
874.663	10535.33
874.982	10507.76
875.301	10493.98
875.62	10415.56
875.939	10333.53
876.258	10399.51
876.577	10364.26
876.896	10285.17
877.214	10303.25
877.533	10383.02
877.852	10309.35
878.17	10307.09
878.489	10308.9
878.807	10299.63
879.125	10252.85
879.444	10249.91
879.762	10217.6
880.08	10192.74
880.398	10103.03
880.716	10160.88
881.034	10075
881.352	10122.69
881.67	10168.56
881.988	10060.77
882.306	10074.33
882.624	10017.15
882.941	9957.72
883.259	9975.57
883.577	9993.42
883.894	9878.85
884.212	9968.34
884.529	9898.96
884.846	9837.95
885.164	9872.75
885.481	9839.98
885.798	9851.96
886.115	9754.56
886.432	9747.55
886.75	9701
887.067	9762.7
887.383	9706.2
887.7	9673.43
888.017	9686.09
888.334	9651.29
888.651	9604.51
888.967	9544.62
889.284	9494.68
889.6	9568.8
889.917	9454.91
890.233	9476.38
890.55	9427.56
890.866	9396.38
891.182	9379.88
891.498	9409.26
891.815	9346.66
892.131	9292.43
892.447	9299.66
892.763	9170.62
893.079	9204.29
893.395	9181.69
893.71	9152.09
894.026	9112.32
894.342	9124.29
894.657	9018.31
894.973	8983.28
895.289	9019.89
895.604	8995.48
895.92	8889.95
896.235	8891.08
896.55	8927.91
896.865	8896.96
897.181	8866.22
897.496	8884.3
897.811	8820.12
898.126	8794.36
898.441	8744.19
898.756	8728.15
899.071	8634.36
899.386	8640.24
899.7	8617.19
900.015	8505.78
900.33	8446.12
900.644	8529.28
900.959	8452.67
901.273	8378.32
901.588	8328.16
901.902	8374.94
902.216	8360.7
902.531	8308.95
902.845	8306.69
903.159	8245
903.473	8264.2
903.787	8158.9
904.101	8193.02
904.415	8127.71
904.729	8117.54
905.042	8088.16
905.356	8067.37
905.67	8013.36
905.984	8024.89
906.297	7999.13
906.611	7904.44
906.924	7940.14
907.237	7870.09
907.551	7849.75
907.864	7815.85
908.177	7788.51
908.491	7827.83
908.804	7713.03
909.117	7629.42
909.43	7607.5
909.743	7617.21
910.056	7567.5
910.368	7606.82
910.681	7482.98
910.994	7471.23
911.307	7443.21
911.619	7432.59
911.932	7421.06
912.244	7345.81
912.557	7331.35
912.869	7285.47
913.181	7289.54
913.494	7297.68
913.806	7215.64
914.118	7180.39
914.43	7147.62
914.742	7189.66
915.054	7099.94
915.366	7070.11
915.678	7080.05
915.99	6983.56
916.302	7006.84
916.613	6952.83
916.925	6979.49
917.236	6892.04
917.548	6856.11
917.859	6859.27
918.171	6823.11
918.482	6762.77
918.794	6713.74
919.105	6716.22
919.416	6688.43
919.727	6678.03
920.038	6622.66
920.349	6600.07
920.66	6541.31
920.971	6568.88
921.282	6565.49
921.593	6461.31
921.903	6481.43
922.214	6454.99
922.525	6429.68
922.835	6469
923.146	6371.15
923.456	6343.8
923.767	6279.4
924.077	6368.89
924.387	6255.89
924.697	6243.24
925.008	6283.24
925.318	6204.14
925.628	6152.85
925.938	6192.39
926.248	6098.38
926.558	6032.17
926.867	6051.61
927.177	6057.71
927.487	5989.46
927.796	5996.01
928.106	5960.08
928.416	5916.47
928.725	5950.59
929.034	5857.49
929.344	5864.49
929.653	5866.98
929.962	5808.22
930.271	5777.72
930.581	5829.01
930.89	5744.72
931.199	5754.44
931.508	5680.54
931.817	5675.8
932.125	5670.37
932.434	5647.55
932.743	5541.34
933.051	5587.89
933.36	5500.66
933.669	5506.31
933.977	5420.21
934.286	5431.74
934.594	5455.46
934.902	5400.78
935.21	5383.38
935.519	5428.57
935.827	5380.89
936.135	5308.58
936.443	5312.19
936.751	5270.16
937.059	5265.64
937.367	5201.91
937.674	5198.97
937.982	5157.39
938.29	5179.54
938.597	5154.23
938.905	5125.98
939.213	5082.14
939.52	5057.51
939.827	5081.46
940.135	5059.54
940.442	5039.88
940.749	5021.13
941.056	4998.3
941.363	4947.68
941.67	4948.81
941.977	4925.76
942.284	4897.96
942.591	4870.17
942.898	4854.12
943.205	4845.08
943.511	4808.25
943.818	4752.21
944.125	4763.5
944.431	4769.61
944.738	4746.56
945.044	4711.3
945.35	4661.36
945.657	4657.97
945.963	4625.43
946.269	4633.79
946.575	4640.8
946.881	4584.98
947.187	4573.68
947.493	4537.75
947.799	4572.55
948.105	4457.07
948.41	4529.39
948.716	4479.44
949.022	4439.45
949.327	4455.72
949.633	4371.88
949.938	4419.11
950.244	4445.32
950.549	4348.37
950.854	4299.11
951.16	4355.15
951.465	4300.92
951.77	4250.3
952.075	4268.38
952.38	4263.18
952.685	4252.33
952.99	4249.17
953.294	4196.29
953.599	4158.55
953.904	4152.9
954.209	4077.87
954.513	4082.17
954.818	4106.8
955.122	4032
955.426	4045.78
955.731	4016.86
956.035	4060.25
956.339	3970.76
956.643	4003.3
956.948	3930.08
957.252	3902.96
957.556	3914.94
957.86	3909.97
958.163	3918.78
958.467	3906.58
958.771	3873.58
959.075	3809.63
959.378	3834.49
959.682	3831.33
959.985	3808.5
960.289	3806.02
960.592	3747.49
960.896	3762.4
961.199	3766.47
961.502	3742.06
961.805	3730.09
962.108	3687.6
962.411	3674.72
962.714	3635.17
963.017	3618.68
963.32	3648.51
963.623	3560.37
963.926	3620.94
964.228	3578.68
964.531	3553.37
964.833	3530.99
965.136	3508.17
965.438	3534.84
965.741	3496.87
966.043	3448.06
966.345	3501.39
966.648	3481.5
966.95	3434.27
967.252	3442.64
967.554	3451.45
967.856	3380.26
968.158	3365.58
968.46	3355.86
968.761	3355.41
969.063	3302.75
969.365	3316.76
969.666	3307.5
969.968	3280.61
970.269	3289.87
970.571	3261.62
970.872	3290.32
971.174	3255.52
971.475	3211
971.776	3187.95
972.077	3173.94
972.378	3206.26
972.679	3173.94
972.98	3152.25
973.281	3162.19
973.582	3128.97
973.883	3091.68
974.183	3081.52
974.484	3067.96
974.785	3058.46
975.085	3028.18
975.386	3083.55
975.686	3030.67
975.986	3070.67
976.287	2999.48
976.587	2985.92
976.887	2973.04
977.187	2982.99
977.487	2922.42
977.787	2949.32
978.087	2963.78
978.387	2916.55
978.687	2895.76
978.987	2890.33
979.286	2881.52
979.586	2844.01
979.885	2832.93
980.185	2832.48
980.484	2832.26
980.784	2817.12
981.083	2827.74
981.382	2770.11
981.682	2786.61
981.981	2730.79
982.28	2768.75
982.579	2721.52
982.878	2724.24
983.177	2684.92
983.475	2694.86
983.774	2699.6
984.073	2673.84
984.372	2671.13
984.67	2658.02
984.969	2656.89
985.267	2652.15
985.566	2597.46
985.864	2589.32
986.162	2611.47
986.461	2607.63
986.759	2572.15
987.057	2546.61
987.355	2569.21
987.653	2539.16
987.951	2533.73
988.249	2519.72
988.547	2484.47
988.844	2499.61
989.142	2482.89
989.44	2466.39
989.737	2443.34
990.035	2446.28
990.332	2380.06
990.63	2411.25
990.927	2410.8
991.224	2389.78
991.521	2399.5
991.819	2385.26
992.116	2313.85
992.413	2334.87
992.71	2325.6
993.006	2338.48
993.303	2304.36
993.6	2345.26
993.897	2354.53
994.193	2270.46
994.49	2278.37
994.787	2271.14
995.083	2254.64
995.379	2296
995.676	2234.98
995.972	2215.78
996.268	2216.9
996.565	2183.23
996.861	2180.52
997.157	2134.42
997.453	2166.74
997.749	2147.75
998.044	2166.51
998.34	2107.98
998.636	2127.64
998.932	2146.17
999.227	2108.66
999.523	2120.64
999.818	2103.91
1000.114	2052.84
1000.409	2037.02
1000.704	2040.86
1001	2053.97
1001.295	2049.68
1001.59	2022.79
1001.885	2008.32
1002.18	2002
1002.475	1967.19
1002.77	1976.69
1003.065	1947.99
1003.359	1954.09
1003.654	1966.97
1003.949	1926.74
1004.243	1966.52
1004.538	1917.03
1004.832	1929.68
1005.127	1896.91
1005.421	1876.35
1005.715	1880.19
1006.009	1875.67
1006.304	1835.9
1006.598	1835.45
1006.892	1823.02
1007.186	1824.15
1007.48	1814.2
1007.773	1815.79
1008.067	1778.72
1008.361	1804.94
1008.655	1763.13
1008.948	1773.75
1009.242	1762
1009.535	1748.67
1009.829	1745.28
1010.122	1731.04
1010.415	1699.18
1010.708	1702.57
1011.001	1701.66
1011.295	1692.62
1011.588	1685.17
1011.881	1682.46
1012.173	1627.09
1012.466	1657.15
1012.759	1654.66
1013.052	1640.42
1013.344	1614.89
1013.637	1604.27
1013.93	1587.54
1014.222	1591.16
1014.514	1598.62
1014.807	1570.59
1015.099	1562.46
1015.391	1551.84
1015.683	1559.52
1015.976	1564.04
1016.268	1523.36
1016.56	1509.13
1016.851	1504.16
1017.143	1508.68
1017.435	1498.96
1017.727	1488.79
1018.018	1486.53
1018.31	1486.98
1018.602	1442.46
1018.893	1465.96
1019.185	1429.13
1019.476	1431.84
1019.767	1427.77
1020.058	1422.35
1020.35	1389.13
1020.641	1409.24
1020.932	1359.98
1021.223	1373.99
1021.514	1336.48
1021.804	1350.94
1022.095	1332.86
1022.386	1339.64
1022.677	1311.39
1022.967	1329.7
1023.258	1325.63
1023.548	1295.8
1023.839	1294.9
1024.129	1292.86
1024.419	1279.75
1024.709	1284.05
1025	1250.15
1025.29	1258.74
1025.58	1257.16
1025.87	1251.05
1026.16	1253.77
1026.449	1214.67
1026.739	1223.03
1027.029	1198.4
1027.319	1204.28
1027.608	1206.76
1027.898	1175.35
1028.187	1160.44
1028.477	1173.54
1028.766	1150.04
1029.055	1143.49
1029.344	1164.96
1029.634	1145.07
1029.923	1142.13
1030.212	1125.63
1030.501	1117.72
1030.79	1120.44
1031.078	1096.71
1031.367	1090.61
1031.656	1082.92
1031.945	1100.55
1032.233	1074.11
1032.522	1072.75
1032.81	1063.26
1033.099	1069.14
1033.387	1056.26
1033.675	1060.55
1033.963	1056.94
1034.251	1038.86
1034.54	1022.59
1034.828	1046.77
1035.116	1006.32
1035.403	1012.42
1035.691	1012.19
1035.979	984.17
1036.267	948.92
1036.554	980.55
1036.842	975.81
1037.129	948.01
1037.417	946.2
1037.704	964.73
1037.992	952.98
1038.279	942.36
1038.566	940.1
1038.853	940.1
1039.14	940.1
