Data from hue_280_FLMS001491_00015.txt Node
Date: Tue Feb 07 15:54:54 GMT 2017
User: dcchb
Spectrometer: FLMS00149
Trigger mode: 0
Integration Time (sec): 2.000000E-2
Scans to average: 10
Electric dark correction enabled: true
Nonlinearity correction enabled: false
Boxcar width: 0
XAxis mode: Wavelengths
Number of Pixels in Spectrum: 2048
>>>>>Begin Spectral Data<<<<<
341.393	-20.31
341.776	-20.31
342.16	-20.31
342.543	-55.56
342.927	-84.94
343.31	-67.77
343.693	-85.39
344.077	-51.95
344.46	-56.69
344.843	-44.94
345.226	-30.48
345.61	-31.38
345.993	-12.63
346.376	0.03
346.759	9.29
347.142	14.94
347.525	48.84
347.908	52
348.291	47.71
348.674	93.81
349.057	114.6
349.44	118.9
349.823	134.49
350.206	158.44
350.588	196.18
350.971	204.77
351.354	196.18
351.737	224.88
352.119	251.77
352.502	259.46
352.884	268.27
353.267	286.35
353.65	279.57
354.032	286.57
354.414	291.32
354.797	290.87
355.179	310.98
355.562	318.21
355.944	329.96
356.326	298.1
356.709	328.83
357.091	348.72
357.473	344.65
357.855	324.77
358.238	339.91
358.62	366.12
359.002	354.82
359.384	341.94
359.766	347.36
360.148	324.31
360.53	334.93
360.912	329.51
361.294	329.51
361.676	336.52
362.057	312.11
362.439	312.56
362.821	338.1
363.203	324.09
363.584	323.64
363.966	306.69
364.348	313.47
364.729	326.57
365.111	310.75
365.493	317.53
365.874	320.02
366.256	304.65
366.637	297.65
367.019	305.78
367.4	299
367.781	308.04
368.163	324.77
368.544	299.91
368.925	330.64
369.306	304.43
369.688	318.89
370.069	299
370.45	294.03
370.831	307.59
371.212	308.49
371.593	315.27
371.974	322.51
372.355	303.98
372.736	313.01
373.117	304.88
373.498	331.32
373.879	319.57
374.26	324.31
374.641	295.39
375.021	311.88
375.402	316.18
375.783	305.33
376.163	311.43
376.544	318.21
376.925	302.39
377.305	320.47
377.686	329.51
378.066	325.9
378.447	343.52
378.827	336.29
379.208	308.72
379.588	319.57
379.968	302.39
380.349	327.25
380.729	336.74
381.109	324.09
381.489	337.19
381.87	330.19
382.25	352.34
382.63	337.19
383.01	327.48
383.39	346.69
383.77	332.67
384.15	328.61
384.53	369.74
384.91	333.8
385.29	343.3
385.67	356.63
386.049	369.28
386.429	353.01
386.809	351.21
387.189	354.82
387.568	330.42
387.948	343.52
388.328	354.82
388.707	368.83
389.087	369.28
389.466	362.5
389.846	345.78
390.225	363.18
390.605	367.7
390.984	356.18
391.363	379.23
391.743	372.67
392.122	379.23
392.501	386.68
392.881	363.86
393.26	371.32
393.639	388.49
394.018	376.97
394.397	381.71
394.776	407.93
395.155	402.28
395.534	397.31
395.913	388.72
396.292	395.05
396.671	402.73
397.05	391.88
397.429	402.28
397.808	403.63
398.186	393.24
398.565	391.2
398.944	394.37
399.323	422.62
399.701	412.45
400.08	404.09
400.458	409.06
400.837	414.71
401.215	414.71
401.594	420.13
401.972	442.05
402.351	428.49
402.729	430.75
403.107	439.34
403.486	449.73
403.864	416.97
404.242	425.1
404.62	443.86
404.999	448.83
405.377	472.33
405.755	453.35
406.133	482.28
406.511	463.29
406.889	478.89
407.267	484.31
407.645	499
408.023	484.54
408.401	471.65
408.779	519.79
409.156	494.03
409.534	527.7
409.912	503.74
410.29	536.29
410.667	529.51
411.045	550.3
411.422	534.25
411.8	529.28
412.178	560.24
412.555	570.18
412.933	579.9
413.31	583.74
413.687	599.11
414.065	607.92
414.442	588.94
414.819	605.21
415.197	614.93
415.574	613.12
415.951	630.07
416.328	614.02
416.705	644.08
417.082	677.52
417.46	642.72
417.837	670.29
418.214	660.58
418.591	676.85
418.967	664.87
419.344	685.66
419.721	674.13
420.098	699.9
420.475	710.07
420.852	711.65
421.228	732.66
421.605	715.94
421.982	770.63
422.358	738.54
422.735	773.57
423.111	769.5
423.488	784.41
423.864	802.04
424.241	821.7
424.617	809.95
424.994	826
425.37	845.2
425.746	819.67
426.123	827.13
426.499	855.37
426.875	861.7
427.251	884.07
427.627	926.33
428.003	905.32
428.379	940.79
428.756	946.44
429.132	929.72
429.507	957.97
429.883	970.85
430.259	992.77
430.635	981.7
431.011	998.65
431.387	999.1
431.763	1018.53
432.138	1053.56
432.514	1049.72
432.89	1078.19
433.265	1077.06
433.641	1070.73
434.016	1119.32
434.392	1116.61
434.767	1134.24
435.143	1141.69
435.518	1169.26
435.894	1167
436.269	1167.23
436.644	1212.43
437.02	1217.85
437.395	1230.73
437.77	1235.7
438.145	1247
438.52	1269.37
438.895	1288.36
439.271	1271.18
439.646	1337.85
440.021	1342.14
440.395	1335.81
440.77	1333.78
441.145	1344.63
441.52	1375.81
441.895	1369.71
442.27	1397.51
442.645	1400.44
443.019	1433.44
443.394	1429.82
443.769	1445.64
444.143	1432.98
444.518	1476.83
444.892	1440.22
445.267	1461.01
445.641	1483.15
446.016	1490.84
446.39	1485.86
446.764	1488.58
447.139	1505.3
447.513	1533.77
447.887	1501.68
448.262	1551.63
448.636	1549.82
449.01	1552.98
449.384	1562.25
449.758	1578.52
450.132	1574
450.506	1595.01
450.88	1608.8
451.254	1586.43
451.628	1644.05
452.002	1625.3
452.376	1657.39
452.75	1663.26
453.123	1676.82
453.497	1703.94
453.871	1682.7
454.244	1723.37
454.618	1721.11
454.992	1731.51
455.365	1746.42
455.739	1779.42
456.112	1798.4
456.486	1791.39
456.859	1799.98
457.232	1832.52
457.606	1846.08
457.979	1879.07
458.352	1904.84
458.725	1912.07
459.099	1943.03
459.472	1936.02
459.845	1989.81
460.218	1940.99
460.591	1988.68
460.964	1973.99
461.337	2026.64
461.71	2061.89
462.083	2070.93
462.456	2064.15
462.829	2071.39
463.201	2089.01
463.574	2126.07
463.947	2146.86
464.32	2202.91
464.692	2190.48
465.065	2195.45
465.438	2233.42
465.81	2250.36
466.183	2248.1
466.555	2298.72
466.928	2308.22
467.3	2348.22
467.672	2342.57
468.045	2409
468.417	2393.41
468.789	2408.78
469.161	2410.81
469.534	2444.48
469.906	2512.05
470.278	2467.08
470.65	2540.53
471.022	2555.44
471.394	2595.67
471.766	2595.67
472.138	2649.9
472.51	2691.48
472.882	2758.15
473.253	2745.04
473.625	2768.99
473.997	2811.48
474.369	2813.74
474.74	2852.16
475.112	2862.78
475.484	2925.83
475.855	2967.63
476.227	2995.66
476.598	3077.91
476.97	3071.36
477.341	3099.61
477.713	3134.86
478.084	3152.26
478.455	3191.13
478.827	3242.65
479.198	3322.43
479.569	3297.79
479.94	3385.25
480.311	3453.04
480.682	3497.34
481.053	3531.01
481.424	3574.85
481.795	3615.98
482.166	3646.03
482.537	3662.76
482.908	3733.26
483.279	3776.43
483.65	3838.12
484.021	3913.82
484.391	3881.96
484.762	3923.31
485.133	3937.33
485.503	3990.88
485.874	4054.16
486.244	4080.82
486.615	4141.61
486.985	4225.23
487.356	4252.8
487.726	4266.13
488.097	4315.62
488.467	4313.59
488.837	4443.08
489.207	4437.2
489.578	4495.05
489.948	4522.62
490.318	4594.03
490.688	4539.34
491.058	4637.87
491.428	4669.06
491.798	4740.69
492.168	4800.13
492.538	4808.26
492.908	4889.62
493.278	4885.32
493.648	4896.17
494.017	4932.1
494.387	4962.38
494.757	5032.89
495.126	5025.66
495.496	5126
495.866	5079.89
496.235	5132.1
496.605	5163.96
496.974	5224.52
497.344	5256.39
497.713	5282.38
498.082	5267.23
498.452	5319.66
498.821	5295.71
499.19	5355.37
499.559	5361.24
499.928	5397.17
500.298	5435.82
500.667	5447.57
501.036	5472.2
501.405	5535.93
501.774	5512.43
502.143	5534.8
502.512	5549.94
502.88	5631.74
503.249	5566.44
503.618	5655.02
503.987	5679.88
504.356	5679.65
504.724	5655.02
505.093	5770.27
505.462	5689.82
505.83	5776.15
506.199	5808.92
506.567	5850.27
506.936	5838.29
507.304	5883.72
507.672	5914.45
508.041	5901.57
508.409	5914.45
508.777	5923.94
509.145	5989.48
509.514	5974.79
509.882	6017.72
510.25	6017.72
510.618	6035.12
510.986	6022.02
511.354	6093.43
511.722	6150.15
512.09	6172.75
512.458	6132.97
512.826	6139.98
513.193	6184.72
513.561	6181.33
513.929	6233.08
514.297	6281.22
514.664	6280.99
515.032	6311.95
515.4	6317.83
515.767	6318.05
516.135	6367.77
516.502	6274.21
516.869	6383.14
517.237	6383.82
517.604	6418.62
517.972	6427.2
518.339	6480.99
518.706	6462.91
519.073	6477.82
519.44	6520.31
519.808	6561.44
520.175	6518.05
520.542	6593.98
520.909	6565.05
521.276	6528.44
521.643	6645.73
522.009	6669.68
522.376	6676.24
522.743	6655.9
523.11	6710.59
523.477	6787.65
523.843	6829.68
524.21	6862.45
524.577	6855.22
524.943	6898.83
525.31	6956.46
525.676	6932.05
526.043	7002.56
526.409	7033.06
526.776	7064.7
527.142	7087.3
527.508	7136.11
527.874	7132.5
528.241	7139.73
528.607	7170.01
528.973	7171.37
529.339	7189.44
529.705	7270.57
530.071	7348.31
530.437	7381.53
530.803	7342.43
531.169	7381.3
531.535	7382.21
531.901	7417.91
532.267	7397.35
532.632	7489.32
532.998	7509.44
533.364	7523.45
533.73	7553.73
534.095	7527.29
534.461	7597.79
534.826	7655.65
535.192	7656.55
535.557	7668.08
535.923	7580.39
536.288	7664.46
536.653	7708.75
537.019	7682.99
537.384	7723.67
537.749	7750.11
538.114	7768.64
538.479	7721.41
538.845	7782.42
539.21	7778.81
539.575	7840.05
539.94	7831.69
540.305	7880.72
540.67	7838.47
541.034	7855.87
541.399	7859.26
541.764	7895.64
542.129	7890.67
542.494	7924.11
542.858	7978.8
543.223	7979.48
543.587	7966.6
543.952	7972.02
544.316	7971.57
544.681	7991.68
545.045	8061.74
545.41	8094.73
545.774	8112.58
546.138	8074.62
546.503	8078.91
546.867	8108.52
547.231	8174.05
547.595	8130.66
547.959	8154.84
548.324	8172.24
548.688	8233.26
549.052	8264.9
549.416	8260.83
549.779	8220.6
550.143	8226.7
550.507	8280.26
550.871	8303.54
551.235	8327.27
551.599	8352.35
551.962	8340.15
552.326	8389.64
552.689	8435.29
553.053	8335.4
553.417	8387.38
553.78	8478.68
554.143	8466.02
554.507	8500.6
554.87	8492.01
555.234	8591.89
555.597	8456.53
555.96	8499.01
556.323	8539.01
556.686	8541.27
557.05	8583.08
557.413	8570.65
557.776	8607.26
558.139	8611.1
558.502	8671.44
558.865	8722.28
559.228	8774.71
559.59	8733.13
559.953	8793.47
560.316	8785.33
560.679	8805.45
561.041	8883.64
561.404	8893.35
561.767	8945.33
562.129	8874.82
562.492	9040.47
562.854	8946.46
563.217	8991.2
563.579	8976.29
563.941	9067.59
564.304	9089.05
564.666	9098.77
565.028	9130.18
565.39	9169.5
565.753	9225.1
566.115	9282.5
566.477	9282.5
566.839	9277.3
567.201	9294.7
567.563	9360.91
567.925	9402.49
568.287	9421.02
568.648	9441.59
569.01	9491.98
569.372	9572.21
569.734	9533.56
570.095	9599.55
570.457	9571.53
570.819	9661.02
571.18	9606.78
571.542	9673.9
571.903	9724.97
572.265	9725.65
572.626	9771.07
572.987	9741.92
573.349	9804.97
573.71	9909.6
574.071	9978.52
574.432	9969.94
574.794	10019.43
575.155	10036.37
575.516	9986.88
575.877	10099.65
576.238	10124.28
576.599	10209.7
576.96	10203.15
577.32	10188.91
577.681	10335.8
578.042	10403.37
578.403	10364.73
578.763	10337.84
579.124	10430.04
579.485	10510.71
579.845	10583.93
580.206	10524.5
580.566	10603.14
580.927	10644.95
581.287	10707.32
581.648	10790.93
582.008	10863.25
582.368	10835.45
582.728	10937.59
583.089	10927.65
583.449	10963.58
583.809	10996.58
584.169	11153.41
584.529	11086.74
584.889	11345.72
585.249	11255.78
585.609	11293.29
585.969	11409.9
586.329	11469.11
586.688	11479.73
587.048	11577.12
587.408	11606.5
587.768	11725.14
588.127	11707.29
588.487	11803.33
588.846	11965.82
589.206	11906.38
589.565	11989.09
589.925	12103.66
590.284	12119.71
590.643	12254.4
591.003	12239.03
591.362	12389.98
591.721	12448.74
592.08	12399.02
592.44	12578
592.799	12606.93
593.158	12662.07
593.517	12690.77
593.876	12775.29
594.235	12783.87
594.593	12877.2
594.952	12940.25
595.311	12951.1
595.67	13125.56
596.029	13156.29
596.387	13209.85
596.746	13339.56
597.104	13284.42
597.463	13419.79
597.822	13433.35
598.18	13464.53
598.538	13511.99
598.897	13725.09
599.255	13592.44
599.613	13857.29
599.972	13813.45
600.33	13845.99
600.688	13849.61
601.046	13978.87
601.404	14088.47
601.762	14064.52
602.12	14143.16
602.478	14154.01
602.836	14231.07
603.194	14223.38
603.552	14269.26
603.91	14289.82
604.268	14437.39
604.625	14367.79
604.983	14467.67
605.341	14400.33
605.698	14539.98
606.056	14592.41
606.413	14588.12
606.771	14632.19
607.128	14620.66
607.485	14603.03
607.843	14681
608.2	14710.6
608.557	14901.78
608.914	14853.87
609.272	14931.84
609.629	14931.84
609.986	14961.67
610.343	15016.58
610.7	15102.23
611.057	15026.3
611.414	15043.25
611.771	15132.29
612.127	15191.27
612.484	15241.66
612.841	15297.48
613.198	15367.76
613.554	15293.64
613.911	15380.41
614.267	15341.77
614.624	15412.96
614.98	15440.75
615.337	15485.27
615.693	15592.39
616.05	15449.11
616.406	15570.69
616.762	15517.13
617.118	15609.79
617.475	15632.39
617.831	15676.68
618.187	15657.7
618.543	15718.94
618.899	15737.47
619.255	15821.53
619.611	15724.13
619.967	15769.11
620.323	15785.83
620.678	15757.58
621.034	15784.7
621.39	15764.13
621.746	15731.82
622.101	15885.49
622.457	15770.01
622.812	15830.8
623.168	15946.5
623.523	15921.87
623.879	16032.38
624.234	15862.21
624.589	16025.14
624.945	15934.3
625.3	15956.9
625.655	15877.12
626.01	15999.16
626.365	16031.47
626.72	15986.27
627.075	15986.27
627.43	16003
627.785	15926.84
628.14	15987.86
628.495	15976.11
628.85	15943.34
629.205	15910.12
629.559	15986.95
629.914	15967.97
630.269	15962.55
630.623	15922.32
630.978	15907.86
631.332	15939.95
631.687	15930.91
632.041	15810.46
632.396	15924.36
632.75	15810.69
633.104	15859.72
633.459	15770.69
633.813	15754.87
634.167	15751.48
634.521	15727.75
634.875	15751.7
635.229	15839.61
635.583	15757.13
635.937	15750.35
636.291	15753.96
636.645	15740.86
636.999	15718.94
637.352	15668.77
637.706	15509.45
638.06	15708.09
638.413	15588.77
638.767	15628.54
639.121	15621.76
639.474	15625.38
639.828	15578.15
640.181	15598.94
640.534	15652.5
640.888	15581.54
641.241	15514.65
641.594	15534.31
641.947	15499.96
642.301	15551.26
642.654	15512.39
643.007	15487.08
643.36	15473.52
643.713	15452.73
644.066	15494.54
644.419	15422.9
644.771	15255.9
645.124	15153.3
645.477	15097.48
645.83	14982.69
646.182	14952.86
646.535	14862.69
646.888	14965.06
647.24	14809.58
647.593	14999.18
647.945	14887.55
648.298	14875.12
648.65	14876.7
649.002	14862.69
649.355	14999.63
649.707	14912.4
650.059	15074.89
650.411	15245.5
650.763	15342.68
651.115	15431.49
651.467	15360.98
651.819	15465.61
652.171	15410.24
652.523	15296.58
652.875	15322.11
653.227	15156.69
653.578	15338.16
653.93	15347.65
654.282	15286.18
654.633	15199.63
654.985	15229.01
655.337	15356.46
655.688	15267.2
656.039	15299.06
656.391	15265.16
656.742	15299.51
657.094	15163.7
657.445	15323.47
657.796	15353.97
658.147	15275.11
658.498	15260.19
658.849	15356.91
659.2	15312.85
659.551	15281.89
659.902	15353.3
660.253	15330.02
660.604	15380.64
660.955	15220.42
661.306	15253.41
661.656	15305.61
662.007	15393.75
662.358	15334.09
662.708	15392.84
663.059	15310.59
663.409	15252.73
663.76	15414.31
664.11	15499.73
664.461	15394.2
664.811	15368.89
665.161	15376.35
665.511	15345.84
665.862	15360.3
666.212	15519.62
666.562	15425.39
666.912	15315.11
667.262	15415.67
667.612	15403.01
667.962	15388.55
668.312	15347.2
668.662	15412.5
669.011	15401.43
669.361	15323.02
669.711	15490.47
670.06	15387.42
670.41	15342.45
670.76	15236.69
671.109	15342.45
671.459	15389.23
671.808	15284.82
672.157	15329.34
672.507	15203.02
672.856	15145.39
673.205	15262.9
673.554	15282.34
673.904	15169.8
674.253	15290.47
674.602	15216.35
674.951	15046.41
675.3	14926.42
675.649	15216.58
675.998	15083.25
676.346	15166.64
676.695	15175.9
677.044	15077.82
677.393	15175
677.741	15185.62
678.09	15153.98
678.438	15033.08
678.787	15152.4
679.135	15149.69
679.484	14951.73
679.832	15082.57
680.181	14939.75
680.529	14946.3
680.877	14951.95
681.225	14972.06
681.573	15004.83
681.922	14862.46
682.27	14801.45
682.618	14835.8
682.966	14850.03
683.314	14795.35
683.661	14768.68
684.009	14716.25
684.357	14598.51
684.705	14610.72
685.053	14591.51
685.4	14572.98
685.748	14546.31
686.095	14530.72
686.443	14439.2
686.79	14470.83
687.138	14455.24
687.485	14390.38
687.832	14462.25
688.18	14435.81
688.527	14248.69
688.874	14257.96
689.221	14207.79
689.568	14148.81
689.915	14102.48
690.262	14117.62
690.609	14056.83
690.956	14000.34
691.303	14064.07
691.65	13994.24
691.997	13897.29
692.344	13861.58
692.69	13816.61
693.037	13832.66
693.383	13735.03
693.73	13818.2
694.077	13678.76
694.423	13625.43
694.769	13618.65
695.116	13563.51
695.462	13526
695.808	13432.9
696.155	13462.05
696.501	13334.82
696.847	13331.88
697.193	13216.86
697.539	13309.06
697.885	13222.05
698.231	13114.49
698.577	13063.19
698.923	13066.58
699.269	12973.92
699.614	12903.64
699.96	12909.52
700.306	12822.29
700.651	12829.97
700.997	12807.38
701.342	12666.59
701.688	12639.92
702.033	12642.63
702.379	12589.3
702.724	12538
703.069	12595.4
703.415	12455.29
703.76	12447.84
704.105	12397.44
704.45	12322.64
704.795	12302.3
705.14	12216.2
705.485	12241.97
705.83	12192.48
706.175	12220.27
706.52	12091.91
706.865	12050.78
707.209	12057.11
707.554	11997.68
707.899	12044.23
708.243	11959.49
708.588	11965.82
708.932	11867.06
709.277	11793.39
709.621	11777.57
709.966	11757.91
710.31	11684.01
710.654	11664.13
710.998	11677.24
711.342	11636.11
711.687	11711.81
712.031	11554.75
712.375	11586.62
712.719	11505.26
713.063	11498.26
713.407	11548.2
713.75	11482.66
714.094	11512.49
714.438	11429.56
714.782	11439.73
715.125	11367.19
715.469	11395.66
715.812	11328.09
716.156	11245.16
716.499	11304.59
716.843	11400.18
717.186	11274.08
717.53	11280.86
717.873	11273.4
718.216	11235.44
718.559	11189.11
718.902	11108.89
719.246	11208.55
719.589	11134.65
719.932	11060.75
720.275	11024.82
720.617	11041.09
720.96	11066.4
721.303	11012.17
721.646	11038.16
721.989	10931.49
722.331	10994.09
722.674	10962.23
723.016	10934.43
723.359	11008.55
723.701	10979.17
724.044	10918.39
724.386	10805.85
724.729	10887.88
725.071	10844.26
725.413	10851.04
725.755	10868.67
726.097	10844.49
726.439	10820.53
726.782	10785.96
727.124	10889.01
727.465	10855.11
727.807	10864.6
728.149	10796.58
728.491	10729.46
728.833	10795.68
729.175	10818.05
729.516	10757.94
729.858	10755.9
730.199	10738.73
730.541	10797.71
730.882	10750.03
731.224	10769.24
731.565	10694.21
731.906	10699.18
732.248	10678.17
732.589	10654.66
732.93	10729.24
733.271	10706.41
733.612	10765.62
733.953	10712.74
734.294	10651.05
734.635	10645.85
734.976	10749.8
735.317	10711.16
735.658	10651.73
735.999	10731.95
736.339	10590.71
736.68	10788.22
737.021	10722.91
737.361	10651.05
737.702	10719.97
738.042	10751.84
738.383	10721.1
738.723	10801.33
739.063	10746.41
739.404	10762.01
739.744	10780.99
740.084	10772.85
740.424	10691.5
740.764	10793.19
741.104	10910.25
741.444	10795.9
741.784	10762.46
742.124	10836.81
742.464	10767.65
742.804	10882.91
743.143	10912.28
743.483	10889.46
743.823	10823.47
744.162	10916.35
744.502	10976.46
744.841	10889.91
745.181	11035.22
745.52	11054.2
745.86	11117.93
746.199	11110.24
746.538	11150.47
746.877	11295.32
747.216	11285.61
747.556	11309.34
747.895	11318.6
748.234	11415.77
748.573	11463.23
748.911	11479.05
749.25	11629.55
749.589	11622.1
749.928	11759.95
750.267	11815.99
750.605	11931.92
750.944	11939.83
751.283	11991.35
751.621	12125.36
751.96	12144.12
752.298	12144.79
752.636	12379.82
752.975	12466.14
753.313	12494.84
753.651	12656.87
753.989	12729.64
754.327	12775.96
754.666	12957.43
755.004	13088.27
755.342	13237.42
755.679	13354.25
756.017	13413.69
756.355	13629.05
756.693	13606.9
757.031	13870.17
757.368	13943.39
757.706	14092.09
758.044	14247.11
758.381	14303.83
758.719	14499.99
759.056	14672.64
759.394	14737.27
759.731	14878.06
760.068	15012.06
760.405	15159.18
760.743	15343.58
761.08	15538.15
761.417	15618.15
761.754	15811.14
762.091	15879.84
762.428	16024.24
762.765	16184.91
763.102	16363.89
763.438	16485.47
763.775	16498.35
764.112	16766.59
764.449	16865.57
764.785	16956.19
765.122	16979.24
765.458	17184.66
765.795	17303.75
766.131	17388.27
766.467	17622.39
766.804	17643.41
767.14	17757.53
767.476	17826.9
767.812	17928.82
768.148	18156.39
768.485	18223.28
768.821	18227.12
769.157	18375.82
769.492	18406.78
769.828	18480.67
770.164	18501.69
770.5	18592.53
770.836	18750.95
771.171	18809.25
771.507	18791.85
771.842	18830.27
772.178	18923.82
772.513	18995.01
772.849	19001.56
773.184	19087.44
773.519	19150.71
773.855	19152.29
774.19	19123.37
774.525	19189.13
774.86	19275.23
775.195	19284.27
775.53	19344.38
775.865	19275.91
776.2	19267.77
776.535	19193.87
776.87	19298.96
777.205	19243.82
777.539	19313.64
777.874	19461.66
778.209	19391.61
778.543	19294.66
778.878	19287.66
779.212	19375.11
779.547	19361.1
779.881	19399.07
780.215	19312.06
780.55	19417.37
780.884	19297.83
781.218	19294.21
781.552	19427.09
781.886	19303.02
782.22	19157.49
782.554	19199.07
782.888	19104.84
783.222	19126.08
783.556	19133.76
783.889	19060.32
784.223	19054.89
784.557	18971.73
784.89	19141.22
785.224	19010.15
785.557	18941.9
785.891	18974.44
786.224	18969.02
786.558	18943.48
786.891	18804.51
787.224	18642.93
787.557	18683.15
787.891	18734.68
788.224	18688.35
788.557	18724.73
788.89	18642.02
789.223	18602.25
789.556	18533.1
789.888	18511.41
790.221	18471.18
790.554	18402.93
790.887	18414.23
791.219	18315.7
791.552	18300.34
791.884	18217.63
792.217	18221.92
792.549	18189.38
792.882	18140.57
793.214	18074.58
793.546	18059.21
793.879	17898.99
794.211	17911.87
794.543	17894.92
794.875	17886.11
795.207	17903.06
795.539	17844.76
795.871	17823.74
796.203	17721.14
796.535	17623.75
796.867	17572.9
797.198	17571.09
797.53	17548.04
797.862	17433.69
798.193	17490.19
798.525	17372.23
798.856	17427.82
799.188	17292.23
799.519	17179.92
799.85	17157.32
800.182	17207.03
800.513	17154.38
800.844	17009.75
801.175	17104.89
801.506	17003.87
801.837	16976.98
802.168	16905.57
802.499	16911.9
802.83	16797.33
803.161	16746.25
803.491	16787.61
803.822	16761.62
804.153	16659.48
804.483	16506.71
804.814	16502.42
805.145	16480.5
805.475	16518.92
805.805	16362.08
806.136	16405.47
806.466	16456.54
806.796	16295.87
807.126	16208.64
807.457	16223.1
807.787	16170.68
808.117	16221.3
808.447	16082.32
808.777	16143.33
809.107	16081.19
809.436	15999.16
809.766	16011.58
810.096	15943.79
810.426	15877.8
810.755	15852.72
811.085	15864.47
811.414	15805.26
811.744	15747.18
812.073	15737.24
812.403	15732.04
812.732	15685.49
813.061	15582.22
813.39	15520.98
813.719	15525.04
814.049	15547.42
814.378	15558.26
814.707	15430.36
815.036	15415.22
815.365	15344.26
815.693	15239.18
816.022	15281.21
816.351	15265.62
816.68	15142.23
817.008	15236.92
817.337	15173.87
817.665	15001.44
817.994	15036.7
818.322	15070.59
818.651	14921.44
818.979	14949.01
819.307	14985.62
819.636	14967.32
819.964	14832.86
820.292	14981.33
820.62	14973.19
820.948	14824.95
821.276	14934.78
821.604	14782.69
821.932	14882.57
822.259	14871.73
822.587	14817.94
822.915	14821.33
823.243	14884.83
823.57	14871.5
823.898	14868.56
824.225	14803.25
824.553	14886.42
824.88	14784.95
825.207	14871.95
825.535	14911.95
825.862	15042.34
826.189	14725.97
826.516	14895.91
826.843	14874.89
827.17	14877.83
827.497	14846.87
827.824	14829.47
828.151	14846.42
828.478	14840.77
828.805	14869.02
829.131	14883.93
829.458	14774.1
829.785	14730.49
830.111	14782.69
830.438	14862.01
830.764	14810.71
831.09	14792.18
831.417	14718.06
831.743	14824.95
832.069	14752.63
832.395	14676.7
832.722	14808
833.048	14666.99
833.374	14811.39
833.7	14628.57
834.026	14641.68
834.351	14714.67
834.677	14695.01
835.003	14739.75
835.329	14569.36
835.654	14629.47
835.98	14531.4
836.306	14620.21
836.631	14567.55
836.956	14668.8
837.282	14552.41
837.607	14577.95
837.932	14508.8
838.258	14503.6
838.583	14442.81
838.908	14453.21
839.233	14546.76
839.558	14360.1
839.883	14339.76
840.208	14288.24
840.533	14284.4
840.858	14354
841.182	14283.04
841.507	14214.8
841.832	14240.56
842.156	14207.11
842.481	14149.49
842.805	14152.42
843.13	14051.64
843.454	14080.34
843.778	14043.05
844.103	13941.81
844.427	14004.18
844.751	13933.67
845.075	13926.89
845.399	13906.1
845.723	13805.31
846.047	13801.7
846.371	13746.33
846.695	13716.28
847.019	13549.05
847.343	13520.58
847.666	13490.52
847.99	13468.37
848.313	13427.7
848.637	13218.66
848.96	13332.56
849.284	13255.72
849.607	13161.49
849.931	13064.09
850.254	13020.25
850.577	13017.99
850.9	12849.41
851.223	12939.35
851.546	12801.27
851.869	12750.43
852.192	12797.43
852.515	12707.04
852.838	12657.32
853.161	12692.58
853.483	12574.39
853.806	12543.43
854.129	12523.99
854.451	12449.64
854.774	12358.35
855.096	12369.65
855.419	12366.03
855.741	12329.87
856.063	12267.95
856.385	12244.9
856.708	12164.91
857.03	12134.85
857.352	12150.22
857.674	12018.02
857.996	12069.32
858.318	11941.41
858.64	11981.41
858.961	11946.83
859.283	11896.66
859.605	11871.13
859.926	11876.33
860.248	11783.67
860.57	11813.28
860.891	11712.26
861.212	11677.91
861.534	11713.62
861.855	11709.32
862.176	11674.52
862.498	11630.46
862.819	11664.35
863.14	11616.9
863.461	11545.49
863.782	11563.11
864.103	11519.5
864.424	11490.12
864.745	11508.88
865.065	11441.08
865.386	11394.98
865.707	11394.08
866.027	11399.5
866.348	11340.3
866.668	11317.24
866.989	11290.58
867.309	11160.41
867.63	11255.33
867.95	11260.3
868.27	11159.51
868.59	11190.02
868.91	11164.25
869.23	11209.45
869.55	11093.07
869.87	11191.37
870.19	11175.1
870.51	11159.51
870.83	11079.96
871.15	11071.6
871.469	10986.63
871.789	11122.45
872.109	11022.79
872.428	10953.19
872.748	11032.96
873.067	10966.52
873.386	11023.92
873.706	11002.22
874.025	10906.86
874.344	10880.19
874.663	10912.74
874.982	10865.73
875.301	10871.61
875.62	10781.89
875.939	10818.05
876.258	10759.29
876.577	10730.37
876.896	10705.74
877.214	10767.2
877.533	10763.59
877.852	10708.67
878.17	10701.22
878.489	10733.53
878.807	10599.98
879.125	10597.26
879.444	10613.08
879.762	10482.01
880.08	10602.46
880.398	10537.38
880.716	10591.39
881.034	10509.58
881.352	10476.14
881.67	10484.72
881.988	10530.37
882.306	10463.93
882.624	10373.31
882.941	10406.31
883.259	10381
883.577	10305.29
883.894	10354.33
884.212	10237.27
884.529	10194.34
884.846	10226.43
885.164	10202.25
885.481	10145.98
885.798	10233.21
886.115	10048.13
886.432	10113.43
886.75	10147.11
887.067	10015.36
887.383	9986.43
887.7	10041.35
888.017	9929.48
888.334	9935.81
888.651	9939.2
888.967	9911.18
889.284	9885.42
889.6	9844.06
889.917	9770.84
890.233	9755.93
890.55	9722.03
890.866	9701.02
891.182	9726.33
891.498	9670.06
891.815	9727.68
892.131	9660.11
892.447	9605.65
892.763	9602.49
893.079	9528.82
893.395	9476.84
893.71	9464.41
894.026	9500.12
894.342	9476.84
894.657	9420.35
894.973	9313.23
895.289	9364.75
895.604	9315.94
895.92	9249.73
896.235	9175.61
896.55	9220.35
896.865	9216.28
897.181	9189.62
897.496	9226.9
897.811	9120.47
898.126	9049.06
898.441	8981.04
898.756	9001.37
899.071	8890.42
899.386	8955.95
899.7	8874.82
900.015	8849.74
900.33	8736.97
900.644	8739.46
900.959	8770.65
901.273	8667.82
901.588	8704.21
901.902	8605.68
902.216	8651.55
902.531	8555.28
902.845	8639.12
903.159	8583.08
903.473	8467.38
903.787	8430.99
904.101	8391.22
904.415	8345.35
904.729	8321.62
905.042	8348.74
905.356	8272.35
905.67	8182.64
905.984	8286.36
906.297	8221.06
906.611	8151.23
906.924	8192.36
907.237	8155.97
907.551	8084.11
907.864	8015.64
908.177	8060.38
908.491	8046.82
908.804	8025.58
909.117	7915.75
909.43	7908.29
909.743	7906.26
910.056	7793.04
910.368	7810.67
910.681	7757.79
910.994	7736.1
911.307	7711.46
911.619	7592.6
911.932	7658.58
912.244	7589.66
912.557	7517.8
912.869	7544.69
913.181	7485.71
913.494	7517.8
913.806	7480.96
914.118	7439.38
914.43	7344.69
914.742	7347.18
915.054	7343.79
915.366	7318.48
915.678	7314.64
915.99	7257.69
916.302	7191.03
916.613	7170.01
916.925	7154.42
917.236	7102.67
917.548	7102.44
917.859	7052.05
918.171	7066.74
918.482	7016.11
918.794	6956
919.105	6933.86
919.416	6915.33
919.727	6922.33
920.038	6873.07
920.349	6838.72
920.66	6784.03
920.971	6771.6
921.282	6796.69
921.593	6718.5
921.903	6675.78
922.214	6680.53
922.525	6661.55
922.835	6562.34
923.146	6592.4
923.456	6567.09
923.767	6570.93
924.077	6523.47
924.387	6509.01
924.697	6440.31
925.008	6434.44
925.318	6359.64
925.628	6339.07
925.938	6370.03
926.248	6261.56
926.558	6217.49
926.867	6268.56
927.177	6210.71
927.487	6172.07
927.796	6119.87
928.106	6192.41
928.416	6132.75
928.725	6086.2
929.034	6046.42
929.344	6032.41
929.653	6074.44
929.962	6002.58
930.271	5920.78
930.581	5974.11
930.89	5902.47
931.199	5877.16
931.508	5880.1
931.817	5837.61
932.125	5831.06
932.434	5830.84
932.743	5785.41
933.051	5770.27
933.36	5686.66
933.669	5744.74
933.977	5693.66
934.286	5668.35
934.594	5669.48
934.902	5597.4
935.21	5603.95
935.519	5603.27
935.827	5589.94
936.135	5504.97
936.443	5495.93
936.751	5457.96
937.059	5481.47
937.367	5415.93
937.674	5410.73
937.982	5387.68
938.29	5401.02
938.597	5322.15
938.905	5309.27
939.213	5265.43
939.52	5303.17
939.827	5278.76
940.135	5276.27
940.442	5194.02
940.749	5173.45
941.056	5176.62
941.363	5115.6
941.67	5127.58
941.977	5117.41
942.284	5020.24
942.591	5018.88
942.898	5030.86
943.205	5030.63
943.511	4985.21
943.818	4976.62
944.125	4951.31
944.431	4928.03
944.738	4921.71
945.044	4863.18
945.35	4815.27
945.657	4834.93
945.963	4775.95
946.269	4796.74
946.575	4731.43
946.881	4699.57
947.187	4742.73
947.493	4713.12
947.799	4682.62
948.105	4694.37
948.41	4590.42
948.716	4633.13
949.022	4629.06
949.327	4618.44
949.633	4570.08
949.938	4498.44
950.244	4525.33
950.549	4490.31
950.854	4489.18
951.16	4467.93
951.465	4472.9
951.77	4416.18
952.075	4435.84
952.38	4361.04
952.685	4399.91
952.99	4310.42
953.294	4330.31
953.599	4317.65
953.904	4282.63
954.209	4219.8
954.513	4266.36
954.818	4213.25
955.122	4245.57
955.426	4214.83
955.731	4200.37
956.035	4145
956.339	4164.21
956.643	4136.87
956.948	4134.16
957.252	4058
957.556	4060.26
957.86	4062.75
958.163	4066.59
958.467	3994.73
958.771	4003.09
959.075	3947.72
959.378	3976.87
959.682	3935.97
959.985	3938.91
960.289	3916.76
960.592	3898.46
960.896	3891.23
961.199	3849.19
961.502	3853.26
961.805	3854.84
962.108	3791.12
962.411	3817.55
962.714	3788.63
963.017	3756.31
963.32	3768.74
963.623	3758.57
963.926	3719.7
964.228	3705.47
964.531	3704.79
964.833	3683.1
965.136	3660.5
965.438	3590.89
965.741	3604.45
966.043	3605.58
966.345	3573.49
966.648	3564
966.95	3552.03
967.252	3535.75
967.554	3528.3
967.856	3508.41
968.158	3474.29
968.46	3474.97
968.761	3454.17
969.063	3438.58
969.365	3434.29
969.666	3448.07
969.968	3373.05
970.269	3383.67
970.571	3390.22
970.872	3342.31
971.174	3341.86
971.475	3359.04
971.776	3304.12
972.077	3293.5
972.378	3323.33
972.679	3281.98
972.98	3222.77
973.281	3240.85
973.582	3206.5
973.883	3229.1
974.183	3222.99
974.484	3201.07
974.785	3198.14
975.085	3193.16
975.386	3181.41
975.686	3137.57
975.986	3109.1
976.287	3109.33
976.587	3082.89
976.887	3110
977.187	3038.14
977.487	3079.72
977.787	3091.25
978.087	3075.2
978.387	2999.05
978.687	2974.41
978.987	2988.42
979.286	2968.09
979.586	2983.68
979.885	2955.66
980.185	2973.96
980.484	2953.17
980.784	2929.89
981.083	2894.87
981.382	2909.1
981.682	2901.19
981.981	2862.55
982.28	2837.02
982.579	2776
982.878	2801.08
983.177	2771.93
983.475	2827.07
983.774	2788.43
984.073	2751.59
984.372	2763.12
984.67	2764.25
984.969	2763.57
985.267	2728.77
985.566	2706.85
985.864	2693.52
986.162	2683.12
986.461	2634.31
986.759	2645.83
987.057	2612.61
987.355	2593.86
987.653	2590.24
987.951	2619.39
988.249	2592.28
988.547	2588.66
988.844	2582.79
989.142	2573.97
989.44	2559.96
989.737	2555.44
990.035	2512.05
990.332	2514.76
990.63	2486.29
990.927	2487.87
991.224	2476.12
991.521	2482.9
991.819	2449.68
992.116	2437.93
992.413	2400.42
992.71	2435.67
993.006	2407.87
993.303	2392.51
993.6	2408.55
993.897	2383.92
994.193	2371.94
994.49	2329.01
994.787	2359.51
995.083	2338.72
995.379	2333.07
995.676	2287.65
995.972	2265.05
996.268	2275
996.565	2253.98
996.861	2235.9
997.157	2247.65
997.453	2227.99
997.749	2210.82
998.044	2222.57
998.34	2215.79
998.636	2197.26
998.932	2152.97
999.227	2142.8
999.523	2149.8
999.818	2181.89
1000.114	2161.33
1000.409	2100.31
1000.704	2112.29
1001	2116.13
1001.295	2102.12
1001.59	2049.92
1001.885	2068.22
1002.18	2030.71
1002.475	2017.6
1002.77	1994.33
1003.065	2022.35
1003.359	2009.69
1003.654	2014.66
1003.949	1979.41
1004.243	1963.59
1004.538	1959.98
1004.832	1972.41
1005.127	1979.64
1005.421	1918.17
1005.715	1903.03
1006.009	1937.15
1006.304	1884.27
1006.598	1886.53
1006.892	1864.61
1007.186	1851.28
1007.48	1869.81
1007.773	1833.65
1008.067	1836.82
1008.361	1819.64
1008.655	1819.64
1008.948	1781.45
1009.242	1815.8
1009.535	1783.26
1009.829	1785.07
1010.122	1773.54
1010.415	1747.33
1010.708	1757.72
1011.001	1715.24
1011.295	1756.14
1011.588	1705.07
1011.881	1707.78
1012.173	1684.73
1012.466	1704.84
1012.759	1679.98
1013.052	1678.4
1013.344	1659.42
1013.637	1655.58
1013.93	1638.4
1014.222	1626.43
1014.514	1619.42
1014.807	1610.38
1015.099	1592.75
1015.391	1593.43
1015.683	1587.56
1015.976	1554.56
1016.268	1559.31
1016.56	1552.76
1016.851	1548.69
1017.143	1528.35
1017.435	1501.01
1017.727	1511.63
1018.018	1525.19
1018.31	1499.88
1018.602	1502.36
1018.893	1465.53
1019.185	1479.54
1019.476	1448.13
1019.767	1446.54
1020.058	1430.05
1020.35	1396.83
1020.641	1411.52
1020.932	1398.41
1021.223	1393.44
1021.514	1370.16
1021.804	1369.71
1022.095	1381.46
1022.386	1348.92
1022.677	1345.3
1022.967	1349.6
1023.258	1309.82
1023.548	1337.62
1023.839	1314.12
1024.129	1344.17
1024.419	1299.88
1024.709	1282.03
1025	1267.11
1025.29	1270.5
1025.58	1282.71
1025.87	1226.21
1026.16	1234.8
1026.449	1248.58
1026.739	1259.43
1027.029	1235.48
1027.319	1211.3
1027.608	1217.4
1027.898	1187.57
1028.187	1194.35
1028.477	1197.51
1028.766	1178.3
1029.055	1143.95
1029.344	1162.71
1029.634	1143.73
1029.923	1176.49
1030.212	1143.28
1030.501	1133.56
1030.79	1137.4
1031.078	1104.18
1031.367	1125.65
1031.656	1096.95
1031.945	1103.05
1032.233	1121.13
1032.522	1074.8
1032.81	1061.92
1033.099	1069.6
1033.387	1039.32
1033.675	1037.97
1033.963	1040
1034.251	1030.51
1034.54	1029.38
1034.828	1031.41
1035.116	1001.36
1035.403	982.83
1035.691	1016.95
1035.979	995.48
1036.267	988.48
1036.554	996.61
1036.842	963.84
1037.129	984.64
1037.417	954.35
1037.704	957.07
1037.992	955.26
1038.279	961.13
1038.566	971.3
1038.853	971.3
1039.14	971.3
