Data from hue_38_FLMS001491_00072.txt Node
Date: Tue Feb 07 17:31:57 GMT 2017
User: dcchb
Spectrometer: FLMS00149
Trigger mode: 0
Integration Time (sec): 2.000000E-2
Scans to average: 10
Electric dark correction enabled: true
Nonlinearity correction enabled: false
Boxcar width: 0
XAxis mode: Wavelengths
Number of Pixels in Spectrum: 2048
>>>>>Begin Spectral Data<<<<<
341.393	-8.87
341.776	-8.87
342.16	-8.87
342.543	-50.68
342.927	-53.61
343.31	-51.58
343.693	-69.21
344.077	-74.18
344.46	-74.18
344.843	-87.74
345.226	-43.22
345.61	-1.19
345.993	-10.23
346.376	-2.99
346.759	16.89
347.142	18.25
347.525	44.46
347.908	34.97
348.291	88.3
348.674	94.4
349.057	117.23
349.44	124.69
349.823	148.64
350.206	181.86
350.588	205.36
350.971	223.67
351.354	257.11
351.737	239.03
352.119	244.68
352.502	281.52
352.884	276.32
353.267	290.33
353.65	298.69
354.032	284.23
354.414	311.8
354.797	313.83
355.179	309.77
355.562	330.1
355.944	318.81
356.326	354.96
356.709	348.18
357.091	357.45
357.473	350.89
357.855	359.26
358.238	356.77
358.62	354.06
359.002	353.83
359.384	340.5
359.766	337.56
360.148	363.32
360.53	348.86
360.912	338.69
361.294	317.22
361.676	346.83
362.057	328.3
362.439	347.05
362.821	342.99
363.203	329.88
363.584	340.73
363.966	338.47
364.348	336.88
364.729	322.42
365.111	319.71
365.493	310.9
365.874	321.07
366.256	313.16
366.637	319.94
367.019	305.25
367.4	330.56
367.781	322.87
368.163	327.17
368.544	328.75
368.925	329.43
369.306	314.06
369.688	326.04
370.069	316.32
370.45	325.58
370.831	345.92
371.212	319.03
371.593	319.48
371.974	310.67
372.355	317.45
372.736	324.91
373.117	315.42
373.498	334.4
373.879	323.55
374.26	329.65
374.641	333.04
375.021	303.44
375.402	326.49
375.783	319.48
376.163	352.48
376.544	309.99
376.925	359.48
377.305	323.55
377.686	340.95
378.066	340.05
378.447	349.09
378.827	336.21
379.208	342.31
379.588	345.47
379.968	342.08
380.349	350.44
380.729	342.08
381.109	361.29
381.489	341.63
381.87	340.73
382.25	326.49
382.63	354.74
383.01	358.58
383.39	348.86
383.77	350.89
384.15	365.81
384.53	340.27
384.91	341.18
385.29	352.93
385.67	345.47
386.049	360.16
386.429	353.15
386.809	373.72
387.189	365.13
387.568	346.83
387.948	358.13
388.328	356.32
388.707	361.29
389.087	384.57
389.466	378.69
389.846	366.04
390.225	351.8
390.605	360.84
390.984	362.19
391.363	366.49
391.743	390.44
392.122	381.4
392.501	354.51
392.881	383.44
393.26	373.27
393.639	369.2
394.018	374.62
394.397	392.02
394.776	372.82
395.155	389.09
395.534	388.41
395.913	392.02
396.292	394.06
396.671	386.37
397.05	400.61
397.429	390.44
397.808	399.93
398.186	394.06
398.565	399.03
398.944	393.15
399.323	415.3
399.701	393.61
400.08	420.72
400.458	403.55
400.837	424.79
401.215	399.03
401.594	416.88
401.972	408.97
402.351	418.92
402.729	427.95
403.107	438.12
403.486	432.25
403.864	411.91
404.242	405.36
404.62	419.59
404.999	429.76
405.377	441.29
405.755	426.37
406.133	436.77
406.511	452.81
406.889	426.82
407.267	425.47
407.645	438.58
408.023	445.36
408.401	472.93
408.779	444.9
409.156	468.41
409.534	449.42
409.912	463.66
410.29	452.14
410.667	471.57
411.045	451.46
411.422	446.03
411.8	474.96
412.178	460.5
412.555	479.48
412.933	494.17
413.31	507.95
413.687	488.52
414.065	484.68
414.442	472.7
414.819	490.33
415.197	525.35
415.574	508.63
415.951	495.3
416.328	503.21
416.705	518.57
417.082	532.13
417.46	511.79
417.837	500.5
418.214	506.6
418.591	509.99
418.967	529.87
419.344	507.27
419.721	532.81
420.098	533.71
420.475	548.86
420.852	541.62
421.228	548.63
421.605	552.02
421.982	545.69
422.358	560.61
422.735	576.88
423.111	571
423.488	561.06
423.864	572.58
424.241	575.52
424.617	578.69
424.994	577.33
425.37	597.89
425.746	602.64
426.123	570.55
426.499	590.21
426.875	612.58
427.251	611.23
427.627	615.07
428.003	610.55
428.379	626.37
428.756	618.46
429.132	613.26
429.507	613.94
429.883	622.98
430.259	625.69
430.635	630.89
431.011	618.01
431.387	654.16
431.763	653.71
432.138	673.82
432.514	662.3
432.89	673.15
433.265	668.85
433.641	682.41
434.016	681.73
434.392	694.39
434.767	692.13
435.143	692.58
435.518	716.99
435.894	699.36
436.269	709.08
436.644	744.33
437.02	742.97
437.395	721.51
437.77	762.41
438.145	748.62
438.52	752.92
438.895	777.32
439.271	750.88
439.646	774.39
440.021	769.19
440.395	775.52
440.77	767.61
441.145	789.3
441.52	792.47
441.895	790.43
442.27	811.9
442.645	810.77
443.019	808.51
443.394	802.41
443.769	796.08
444.143	796.53
444.518	828.4
444.892	822.07
445.267	817.55
445.641	836.08
446.016	845.35
446.39	825.68
446.764	829.75
447.139	831.79
447.513	864.78
447.887	869.53
448.262	880.15
448.636	878.56
449.01	867.49
449.384	881.73
449.758	891.67
450.132	893.93
450.506	886.47
450.88	902.07
451.254	901.39
451.628	918.11
452.002	935.06
452.376	933.25
452.75	959.01
453.123	957.21
453.497	937.32
453.871	970.99
454.244	994.72
454.618	992.23
454.992	973.25
455.365	1016.19
455.739	1034.94
456.112	1024.78
456.486	1023.87
456.859	1012.35
457.232	1047.6
457.606	1071.55
457.979	1056.86
458.352	1085.11
458.725	1083.76
459.099	1130.99
459.472	1104.55
459.845	1136.41
460.218	1140.03
460.591	1165.11
460.964	1173.25
461.337	1168.05
461.71	1188.39
462.083	1190.42
462.456	1206.47
462.829	1214.37
463.201	1234.49
463.574	1264.99
463.947	1252.34
464.32	1286.46
464.692	1287.37
465.065	1286.01
465.438	1303.41
465.81	1327.37
466.183	1356.29
466.555	1385.44
466.928	1414.82
467.3	1413.47
467.672	1432.45
468.045	1456.18
468.417	1494.37
468.789	1480.36
469.161	1536.63
469.534	1530.98
469.906	1565.55
470.278	1560.35
470.65	1619.11
471.022	1633.35
471.394	1642.84
471.766	1647.36
472.138	1713.12
472.51	1732.1
472.882	1805.55
473.253	1777.52
473.625	1843.96
473.997	1902.27
474.369	1905.88
474.74	1899.55
475.112	1981.36
475.484	2027.01
475.855	2026.78
476.227	2064.52
476.598	2141.13
476.97	2227
477.341	2274.91
477.713	2309.26
478.084	2321.24
478.455	2424.74
478.827	2474.23
479.198	2513.1
479.569	2579.76
479.94	2671.96
480.311	2685.07
480.682	2760.55
481.053	2846.65
481.424	2930.04
481.795	2956.25
482.166	3077.15
482.537	3116.02
482.908	3205.51
483.279	3274.66
483.65	3370.48
484.021	3465.16
484.391	3515.11
484.762	3615.67
485.133	3685.5
485.503	3730.92
485.874	3897.02
486.244	3941.99
486.615	4036.45
486.985	4163.68
487.356	4290
487.726	4337.68
488.097	4468.98
488.467	4549.88
488.837	4671.69
489.207	4768.18
489.578	4873.26
489.948	4946.48
490.318	5101.5
490.688	5148.28
491.058	5270.77
491.428	5389.86
491.798	5498.78
492.168	5626.91
492.538	5642.06
492.908	5793.69
493.278	5930.18
493.648	5998.43
494.017	6127.69
494.387	6190.97
494.757	6346.67
495.126	6388.7
495.496	6516.16
495.866	6593.67
496.235	6700.78
496.605	6777.84
496.974	6905.3
497.344	6978.52
497.713	7135.58
498.082	7243.37
498.452	7272.97
498.821	7412.63
499.19	7439.75
499.559	7562.91
499.928	7644.49
500.298	7724.26
500.667	7819.62
501.036	7899.85
501.405	8019.39
501.774	8081.99
502.143	8225.94
502.512	8215.55
502.88	8418.25
503.249	8371.25
503.618	8527.63
503.987	8508.65
504.356	8642.88
504.724	8782.76
505.093	8762.65
505.462	8868.86
505.83	9015.75
506.199	9078.35
506.567	9158.12
506.936	9152.47
507.304	9380.49
507.672	9399.47
508.041	9434.95
508.409	9564.89
508.777	9622.52
509.145	9759.01
509.514	9826.8
509.882	9831.55
510.25	9862.74
510.618	9986.35
510.986	10002.62
511.354	10094.14
511.722	10279.45
512.09	10276.96
512.458	10349.28
512.826	10371.65
513.193	10537.75
513.561	10530.97
513.929	10670.4
514.297	10711.53
514.664	10759.66
515.032	10858.42
515.4	10933.44
515.767	11000.56
516.135	11065.64
516.502	11134.34
516.869	11225.86
517.237	11220.67
517.604	11289.59
517.972	11439.19
518.339	11405.29
518.706	11483.71
519.073	11531.84
519.44	11655
519.808	11701.78
520.175	11755.79
520.542	11850.03
520.909	11940.65
521.276	11953.75
521.643	12090.25
522.009	12094.31
522.376	12277.13
522.743	12339.73
523.11	12353.74
523.477	12564.36
523.843	12613.17
524.21	12657.69
524.577	12862.43
524.943	12929.77
525.31	12986.95
525.676	13012.93
526.043	13085.48
526.409	13173.38
526.776	13275.98
527.142	13324.11
527.508	13431
527.874	13494.73
528.241	13536.76
528.607	13693.14
528.973	13793.03
529.339	13833.03
529.705	13901.95
530.071	14055.85
530.437	14013.59
530.803	14099.69
531.169	14148.05
531.535	14270.3
531.901	14267.36
532.267	14440.69
532.632	14451.09
532.998	14515.72
533.364	14638.65
533.73	14605.44
534.095	14704.64
534.461	14822.6
534.826	14929.49
535.192	14972.88
535.557	15063.28
535.923	14981.92
536.288	15104.18
536.653	15174.01
537.019	15175.36
537.384	15316.15
537.749	15371.52
538.114	15390.73
538.479	15375.81
538.845	15481.12
539.21	15461.91
539.575	15529.25
539.94	15669.36
540.305	15686.31
540.67	15790.49
541.034	15799.3
541.399	15905.29
541.764	15877.94
542.129	16072.06
542.494	16072.52
542.858	16121.33
543.223	16178.95
543.587	16307.76
543.952	16330.59
544.316	16406.74
544.681	16433.64
545.045	16449.45
545.41	16591.82
545.774	16599.06
546.138	16701.43
546.503	16717.47
546.867	16724.48
547.231	16895.32
547.595	16906.17
547.959	16872.27
548.324	16958.59
548.688	17044.69
549.052	17067.97
549.416	17222.09
549.779	17293.5
550.143	17160.17
550.507	17467.28
550.871	17421.86
551.235	17420.5
551.599	17443.55
551.962	17517.45
552.326	17607.39
552.689	17779.81
553.053	17667.95
553.417	17755.86
553.78	17979.36
554.143	17923.09
554.507	17961.28
554.87	18093.93
555.234	18085.12
555.597	18115.63
555.96	18247.83
556.323	18266.36
556.686	18262.97
557.05	18368.05
557.413	18524.88
557.776	18505.22
558.139	18773.01
558.502	18558.55
558.865	18691.66
559.228	18854.36
559.59	18811.65
559.953	18938.2
560.316	19160.12
560.679	19096.16
561.041	19294.58
561.404	19327.8
561.767	19432.2
562.129	19280.34
562.492	19508.58
562.854	19506.78
563.217	19521.69
563.579	19681.69
563.941	19782.02
564.304	19710.39
564.666	19917.84
565.028	19864.05
565.39	20010.94
565.753	20109.92
566.115	20154.67
566.477	20341.1
566.839	20365.06
567.201	20468.78
567.563	20526.64
567.925	20653.86
568.287	20657.93
568.648	20649.34
569.01	20757.36
569.372	20918.94
569.734	20937.7
570.095	21066.06
570.457	21181.53
570.819	21224.47
571.18	21265.15
571.542	21403
571.903	21432.83
572.265	21590.79
572.626	21577.68
572.987	21681.18
573.349	21803.89
573.71	21878.92
574.071	21954.85
574.432	22125.46
574.794	22233.94
575.155	22312.8
575.516	22353.71
575.877	22579.91
576.238	22537.2
576.599	22732.91
576.96	22809.06
577.32	22959.79
577.681	23098.77
578.042	23284.98
578.403	23300.35
578.763	23488.59
579.124	23625.54
579.485	23808.36
579.845	23955.7
580.206	24072.08
580.566	24120.44
580.927	24354.56
581.287	24483.82
581.648	24519.98
582.008	24778.95
582.368	24944.82
582.728	25011.72
583.089	25196.8
583.449	25284.02
583.809	25546.84
584.169	25903.9
584.529	25851.24
584.889	26288.74
585.249	26267.95
585.609	26342.3
585.969	26731.22
586.329	26848.96
586.688	27038.78
587.048	27257.08
587.408	27367.59
587.768	27573.91
588.127	27865.2
588.487	27881.24
588.846	28425.86
589.206	28471.74
589.565	28563.94
589.925	28939.52
590.284	28973.87
590.643	29305.61
591.003	29581.09
591.362	29851.36
591.721	29975.43
592.08	30153.73
592.44	30394.4
592.799	30491.35
593.158	30800.04
593.517	31112.8
593.876	31199.8
594.235	31350.08
594.593	31531.54
594.952	31936.73
595.311	31995.94
595.67	32131.75
596.029	32574.45
596.387	32674.79
596.746	32945.74
597.104	33054.67
597.463	33100.54
597.822	33590.92
598.18	33626.4
598.538	33668.89
598.897	34154.53
599.255	33906.85
599.613	34641.97
599.972	34464.35
600.33	34827.05
600.688	34888.52
601.046	35145.46
601.404	35387.49
601.762	35466.13
602.12	35731.66
602.478	35886.01
602.836	36087.13
603.194	36023.63
603.552	36255.04
603.91	36202.61
604.268	36651.41
604.625	36626.1
604.983	36900.67
605.341	36899.09
605.698	37261.34
606.056	37422.01
606.413	37405.97
606.771	37712.62
607.128	37789.68
607.485	37651.16
607.843	37855.22
608.2	38188.54
608.557	38275.55
608.914	38302.44
609.272	38599.83
609.629	38601.64
609.986	38890.9
610.343	38942.87
610.7	39178.8
611.057	39238.01
611.414	39302.86
611.771	39457.89
612.127	39652.46
612.484	39778.11
612.841	40028.27
613.198	39984.65
613.554	40012.9
613.911	40304.42
614.267	40390.75
614.624	40351.42
614.98	40426.45
615.337	40724.3
615.693	40726.1
616.05	40625.77
616.406	41115.7
616.762	40990.05
617.118	41100.11
617.475	41121.12
617.831	41276.37
618.187	41370.38
618.543	41448.57
618.899	41721.11
619.255	41627.32
619.611	41641.33
619.967	41909.12
620.323	41967.65
620.678	41831.39
621.034	41835.45
621.39	41997.94
621.746	41850.37
622.101	42441.77
622.457	42224.14
622.812	42336.23
623.168	42312.73
623.523	42451.03
623.879	42584.81
624.234	42347.08
624.589	42646.28
624.945	42597.24
625.3	42581.65
625.655	42695.77
626.01	42790.91
626.365	42827.74
626.72	42776.45
627.075	42851.25
627.43	42873.84
627.785	42805.37
628.14	42948.19
628.495	42948.42
628.85	42976.21
629.205	42887.63
629.559	43044.01
629.914	42869.78
630.269	42926.27
630.623	42827.52
630.978	42824.58
631.332	43056.21
631.687	43127.17
632.041	42995.65
632.396	42957.68
632.75	42933.05
633.104	43018.7
633.459	42856.67
633.813	42781.64
634.167	42727.41
634.521	42875.2
634.875	43052.82
635.229	43036.33
635.583	42619.61
635.937	42914.97
636.291	42713.17
636.645	42666.17
636.999	42652.16
637.352	42829.55
637.706	42594.53
638.06	42736.9
638.413	42776.45
638.767	42525.61
639.121	42652.38
639.474	42422.1
639.828	42461.2
640.181	42477.24
640.534	42564.7
640.888	42349.79
641.241	42301.66
641.594	42561.31
641.947	42608.99
642.301	42408.09
642.654	42470.47
643.007	42397.47
643.36	42360.41
643.713	42328.55
644.066	42491.26
644.419	42275.67
644.771	41892.18
645.124	41607.44
645.477	41617.83
645.83	41387.33
646.182	41295.58
646.535	41060.11
646.888	41159.31
647.24	41108.24
647.593	41224.17
647.945	41118.41
648.298	40998.64
648.65	40909.6
649.002	40675.94
649.355	40995.48
649.707	40887
650.059	41112.99
650.411	41526.31
650.763	41514.56
651.115	42038.16
651.467	41786.64
651.819	41850.59
652.171	41651.73
652.523	41690.6
652.875	41659.87
653.227	41638.17
653.578	41770.37
653.93	41682.69
654.282	41693.54
654.633	41366.54
654.985	41515.69
655.337	41496.93
655.688	41512.52
656.039	41632.75
656.391	41369.48
656.742	41494.22
657.094	41548.46
657.445	41616.25
657.796	41509.59
658.147	41518.4
658.498	41481.34
658.849	41426.42
659.2	41391.62
659.551	41239.99
659.902	41488.8
660.253	41344.85
660.604	41466.65
660.955	41196.37
661.306	41402.7
661.656	41204.28
662.007	41239.09
662.358	41212.87
662.708	41377.39
663.059	41198.18
663.409	41043.61
663.76	41427.33
664.11	41276.37
664.461	41338.07
664.811	41360.66
665.161	41304.39
665.511	41209.48
665.862	41208.8
666.212	41315.47
666.562	41347.78
666.912	41339.42
667.262	41109.6
667.612	41110.5
667.962	41158.64
668.312	41043.84
668.662	41368.12
669.011	41362.7
669.361	41232.76
669.711	41127.9
670.06	41057.17
670.41	40931.97
670.76	41064.63
671.109	41084.51
671.459	41002.71
671.808	40880.45
672.157	41166.32
672.507	40930.39
672.856	40849.26
673.205	40838.64
673.554	41054.01
673.904	40827.34
674.253	41120.9
674.602	40922.03
674.951	40362.72
675.3	40273.01
675.649	40760.68
675.998	40817.4
676.346	40732.66
676.695	40797.51
677.044	40473.23
677.393	40686.33
677.741	40817.63
678.09	40617.63
678.438	40612.43
678.787	40648.82
679.135	40604.53
679.484	40322.95
679.832	40513
680.181	40234.59
680.529	40512.1
680.877	40427.13
681.225	40221.71
681.573	40459.44
681.922	40290.86
682.27	39996.41
682.618	40078.21
682.966	40030.76
683.314	40030.3
683.661	40014.03
684.009	39769.97
684.357	39860.59
684.705	39669.41
685.053	39736.75
685.4	39746.7
685.748	39522.97
686.095	39342.64
686.443	39371.56
686.79	39351.45
687.138	39303.32
687.485	39314.16
687.832	39068.75
688.18	39223.77
688.527	38890.9
688.874	39083.21
689.221	38995.08
689.568	38832.82
689.915	38794.4
690.262	38793.5
690.609	38575.2
690.956	38635.99
691.303	38578.59
691.65	38281.65
691.997	38384.92
692.344	38127.3
692.69	38088.89
693.037	38203.01
693.383	37860.87
693.73	37999.17
694.077	37794.43
694.423	37807.31
694.769	37634.89
695.116	37533.65
695.462	37436.25
695.808	37401.22
696.155	37303.37
696.501	37075.35
696.847	37131.85
697.193	36792.2
697.539	37008.01
697.885	36654.57
698.231	36546.55
698.577	36674.69
698.923	36661.58
699.269	36345.2
699.614	36255.26
699.96	36158.99
700.306	36286.9
700.651	36040.58
700.997	35923.97
701.342	35839.91
701.688	35722.17
702.033	35842.16
702.379	35632.68
702.724	35601.95
703.069	35702.28
703.415	35254.38
703.76	35279.92
704.105	35450.76
704.45	35239.47
704.795	35075.41
705.14	34840.38
705.485	34870.21
705.83	34699.14
706.175	34786.83
706.52	34679.71
706.865	34544.12
707.209	34503.67
707.554	34491.01
707.899	34527.17
708.243	34163.79
708.588	34146.16
708.932	34057.13
709.277	33957.02
709.621	34066.17
709.966	33897.81
710.31	33804.93
710.654	33543.92
710.998	33668.89
711.342	33726.97
711.687	33587.76
712.031	33336.24
712.375	33380.76
712.719	33271.39
713.063	33303.25
713.407	33347.77
713.75	33148.9
714.094	33049.92
714.438	33037.94
714.782	33041.33
715.125	32790.04
715.469	32893.99
715.812	32720.21
716.156	32661.01
716.499	32651.97
716.843	32710.5
717.186	32439.09
717.53	32633.21
717.873	32517.96
718.216	32432.54
718.559	32516.15
718.902	32067.8
719.246	32186.89
719.589	32061.25
719.932	32089.27
720.275	32028.71
720.617	31989.38
720.96	31938.76
721.303	31936.5
721.646	31888.82
721.989	31650.64
722.331	31642.28
722.674	31665.78
723.016	31611.32
723.359	31580.58
723.701	31548.94
724.044	31383.07
724.386	31265.56
724.729	31379.68
725.071	31203.19
725.413	31215.17
725.755	31175.62
726.097	31118.45
726.439	30954.38
726.782	30995.74
727.124	31256.07
727.465	30920.71
727.807	30992.8
728.149	30794.39
728.491	30845.46
728.833	30736.54
729.175	30774.73
729.516	30659.48
729.858	30574.73
730.199	30643.21
730.541	30543.55
730.882	30605.24
731.224	30530.67
731.565	30363.21
731.906	30414.29
732.248	30330.9
732.589	30224.01
732.93	30104.91
733.271	30195.31
733.612	30149.21
733.953	30180.17
734.294	30011.13
734.635	29942.21
734.976	30022.2
735.317	29891.59
735.658	29918.25
735.999	29902.89
736.339	29815.43
736.68	29972.49
737.021	29752.38
737.361	29549.22
737.702	29870.57
738.042	29756
738.383	29579.73
738.723	29693.4
739.063	29593.97
739.404	29596
739.744	29474.65
740.084	29396.91
740.424	29511.94
740.764	29321.88
741.104	29431.94
741.444	29271.04
741.784	29216.35
742.124	29101.33
742.464	29082.57
742.804	29037.82
743.143	29022.23
743.483	29098.16
743.823	28884.16
744.162	28885.29
744.502	28929.58
744.841	28699.53
745.181	28833.54
745.52	28584.73
745.86	28739.98
746.199	28636.25
746.538	28663.14
746.877	28553.09
747.216	28623.15
747.556	28549.02
747.895	28568.46
748.234	28363.27
748.573	28431.29
748.911	28308.58
749.25	28337.28
749.589	28090.5
749.928	28159.43
750.267	28262.93
750.605	28090.28
750.944	28040.34
751.283	27961.47
751.621	28037.4
751.96	27753.11
752.298	27892.54
752.636	27810.74
752.975	27663.17
753.313	27665.2
753.651	27825.65
753.989	27656.17
754.327	27575.26
754.666	27420.01
755.004	27456.85
755.342	27451.2
755.679	27414.14
756.017	27184.31
756.355	27277.19
756.693	27184.77
757.031	27253.69
757.368	27075.16
757.706	26973.7
758.044	26903.64
758.381	27077.2
758.719	26814.38
759.056	26776.87
759.394	26708.39
759.731	26561.05
760.068	26553.37
760.405	26475.41
760.743	26303.21
761.08	26460.04
761.417	26116.77
761.754	26216.88
762.091	26148.41
762.428	26048.3
762.765	25841.52
763.102	25938.92
763.438	25710.23
763.775	25630.23
764.112	25798.14
764.449	25600.17
764.785	25526.28
765.122	25384.36
765.458	25343.46
765.795	25247.19
766.131	25210.58
766.467	25080.41
766.804	24940.53
767.14	24924.94
767.476	24897.82
767.812	24725.17
768.148	24835
768.485	24635.68
768.821	24510.94
769.157	24508.45
769.492	24404.73
769.828	24464.38
770.164	24157.95
770.5	24168.35
770.836	24102.59
771.171	24087.9
771.507	23781.92
771.842	23638.19
772.178	23747.79
772.513	23555.48
772.849	23572.43
773.184	23466.45
773.519	23507.57
773.855	23312.1
774.19	23241.82
774.525	23177.41
774.86	23148.49
775.195	23053.8
775.53	23010.19
775.865	22875.05
776.2	22656.75
776.535	22658.33
776.87	22576.75
777.205	22423.08
777.539	22369.07
777.874	22423.99
778.209	22271.9
778.543	22301.05
778.878	22169.08
779.212	22083.43
779.547	21933.83
779.881	21917.33
780.215	21918.01
780.55	21869.65
780.884	21746.49
781.218	21611.35
781.552	21690.45
781.886	21574.52
782.22	21344.24
782.554	21310.8
782.888	21195.09
783.222	21117.35
783.556	20982.44
783.889	20954.42
784.223	20770.24
784.557	20785.61
784.89	20852.95
785.224	20668.55
785.557	20560.31
785.891	20565.73
786.224	20406.86
786.558	20514.88
786.891	20300.88
787.224	20188.11
787.557	20138.4
787.891	20030.38
788.224	20063.82
788.557	20106.08
788.89	19869.25
789.223	19910.38
789.556	19795.81
789.888	19826.99
790.221	19700.22
790.554	19410.73
790.887	19596.72
791.219	19454.8
791.552	19375.03
791.884	19262.26
792.217	19149.27
792.549	19051.87
792.882	18963.06
793.214	18919.67
793.546	18908.6
793.879	18816.62
794.211	18700.24
794.543	18739.56
794.875	18688.49
795.207	18711.32
795.539	18573.69
795.871	18620.92
796.203	18413.02
796.535	18246.7
796.867	18314.04
797.198	18316.75
797.53	18261.38
797.862	18053.03
798.193	18128.28
798.525	18018.68
798.856	18070.2
799.188	17814.39
799.519	17921.51
799.85	17685.58
800.182	17742.08
800.513	17707.73
800.844	17521.52
801.175	17695.52
801.506	17616.2
801.837	17576.2
802.168	17378.47
802.499	17430.45
802.83	17326.27
803.161	17331.01
803.491	17254.41
803.822	17269.09
804.153	17204.69
804.483	17068.2
804.814	16966.28
805.145	16987.07
805.475	16952.94
805.805	16864.81
806.136	16819.16
806.466	16806.73
806.796	16756.79
807.126	16788.88
807.457	16699.84
807.787	16640.18
808.117	16563.35
808.447	16497.81
808.777	16481.77
809.107	16389.34
809.436	16371.94
809.766	16305.28
810.096	16223.92
810.426	16139.86
810.755	16214.66
811.085	16205.17
811.414	16165.39
811.744	16032.29
812.073	15962.24
812.403	15913.2
812.732	15945.96
813.061	15891.05
813.39	15721.11
813.719	15735.12
814.049	15741.22
814.378	15748.91
814.707	15675.92
815.036	15705.97
815.365	15606.09
815.693	15441.12
816.022	15461.68
816.351	15405.41
816.68	15336.94
817.008	15372.19
817.337	15174.01
817.665	15200
817.994	15199.09
818.322	15200.45
818.651	15139.88
818.979	15089.72
819.307	15091.07
819.636	15076.84
819.964	14981.92
820.292	15006.55
820.62	15003.16
820.948	14936.05
821.276	15068.47
821.604	14884.98
821.932	14958.87
822.259	14932.66
822.587	14917.29
822.915	14843.4
823.243	15016.5
823.57	14929.49
823.898	14924.3
824.225	14830.51
824.553	14849.5
824.88	14876.16
825.207	14917.29
825.535	14828.03
825.862	14941.25
826.189	14885.65
826.516	14891.53
826.843	14977.63
827.17	14875.94
827.497	14966.1
827.824	14945.77
828.151	15000.23
828.478	14862.6
828.805	15020.11
829.131	14834.36
829.458	14856.05
829.785	14746.67
830.111	14780.12
830.438	14855.6
830.764	14802.49
831.09	14824.19
831.417	14784.19
831.743	14821.93
832.069	14845.65
832.395	14720.23
832.722	14816.28
833.048	14710.74
833.374	14738.77
833.7	14659.45
834.026	14706
834.351	14723.62
834.677	14712.1
835.003	14733.12
835.329	14757.75
835.654	14621.25
835.98	14555.49
836.306	14576.96
836.631	14491.77
836.956	14574.7
837.282	14537.64
837.607	14455.38
837.932	14424.42
838.258	14443.86
838.583	14280.02
838.908	14347.81
839.233	14430.3
839.558	14324.99
839.883	14318.66
840.208	14172.23
840.533	14186.01
840.858	14219
841.182	14194.37
841.507	14197.99
841.832	14135.17
842.156	14152.11
842.481	14127.93
842.805	14052.23
843.13	14064.43
843.454	13979.01
843.778	13967.03
844.103	13911.89
844.427	13831.22
844.751	13902.4
845.075	13874.38
845.399	13794.38
845.723	13687.95
846.047	13713.93
846.371	13598
846.695	13626.7
847.019	13506.48
847.343	13432.58
847.666	13450.89
847.99	13354.62
848.313	13430.32
848.637	13213.61
848.96	13315.3
849.284	13181.07
849.607	13128.41
849.931	13046.83
850.254	12952.6
850.577	12908.08
850.9	12791.92
851.223	12790.57
851.546	12753.73
851.869	12636.67
852.192	12726.61
852.515	12651.81
852.838	12524.81
853.161	12552.61
853.483	12494.53
853.806	12451.14
854.129	12449.56
854.451	12439.16
854.774	12407.53
855.096	12325.27
855.419	12284.59
855.741	12187.42
856.063	12186.52
856.385	12118.49
856.708	12130.25
857.03	12063.58
857.352	12061.55
857.674	12061.55
857.996	11923.02
858.318	11829.69
858.64	11929.57
858.961	11828.33
859.283	11815.68
859.605	11754.21
859.926	11727.09
860.248	11639.64
860.57	11678.51
860.891	11703.36
861.212	11588.11
861.534	11518.28
861.855	11530.49
862.176	11542.92
862.498	11614.78
862.819	11555.57
863.14	11462.47
863.461	11391.28
863.782	11404.84
864.103	11451.62
864.424	11378.85
864.745	11444.84
865.065	11355.8
865.386	11284.39
865.707	11293.88
866.027	11336.59
866.348	11244.17
866.668	11193.1
866.989	11226.54
867.309	11170.27
867.63	11178.86
867.95	11150.84
868.27	11039.88
868.59	11127.33
868.91	11083.49
869.23	11081.46
869.55	11022.93
869.87	11167.56
870.19	10996.94
870.51	11053.66
870.83	11086.66
871.15	11017.28
871.469	10979.54
871.789	10954.68
872.109	10916.49
872.428	10867.68
872.748	10911.97
873.067	10892.31
873.386	10887.57
873.706	10857.29
874.025	10740.9
874.344	10820
874.663	10812.77
874.982	10780.23
875.301	10751.75
875.62	10695.93
875.939	10714.92
876.258	10644.41
876.577	10622.26
876.896	10588.82
877.214	10612.77
877.533	10573.45
877.852	10602.83
878.17	10581.59
878.489	10624.52
878.807	10545.43
879.125	10582.04
879.444	10506.33
879.762	10372.55
880.08	10416.84
880.398	10487.58
880.716	10427.01
881.034	10389.5
881.352	10352.67
881.67	10338.2
881.988	10322.61
882.306	10335.26
882.624	10332.78
882.941	10297.98
883.259	10201.71
883.577	10179.34
883.894	10186.57
884.212	10167.13
884.529	10168.94
884.846	10122.84
885.164	10073.58
885.481	10055.05
885.798	10016.18
886.115	10050.98
886.432	10040.36
886.75	9997.42
887.067	10002.39
887.383	9933.24
887.7	9979.34
888.017	9892.11
888.334	9872.23
888.651	9893.02
888.967	9887.37
889.284	9776.41
889.6	9800.14
889.917	9748.84
890.233	9695.06
890.55	9685.11
890.866	9690.99
891.182	9602.85
891.498	9493.71
891.815	9597.66
892.131	9578.22
892.447	9531.22
892.763	9488.28
893.079	9478.34
893.395	9407.15
893.71	9467.27
894.026	9398.57
894.342	9395.63
894.657	9302.07
894.973	9281.28
895.289	9313.37
895.604	9279.47
895.92	9196.09
896.235	9136.65
896.55	9195.18
896.865	9078.57
897.181	9012.36
897.496	9036.54
897.811	8996.54
898.126	8934.62
898.441	8924.91
898.756	8915.42
899.071	8877.9
899.386	8805.81
899.7	8775.53
900.015	8804.46
900.33	8655.08
900.644	8727.4
900.959	8719.26
901.273	8658.25
901.588	8651.02
901.902	8629.32
902.216	8573.05
902.531	8557.23
902.845	8524.01
903.159	8420.29
903.473	8455.77
903.787	8344.36
904.101	8350.23
904.415	8364.7
904.729	8348.2
905.042	8291.02
905.356	8334.87
905.67	8325.6
905.984	8281.76
906.297	8208.09
906.611	8147.98
906.924	8165.6
907.237	8166.06
907.551	8033.63
907.864	8052.61
908.177	7993.63
908.491	8060.97
908.804	7940.75
909.117	7876.8
909.43	7886.74
909.743	7806.07
910.056	7820.98
910.368	7774.65
910.681	7666.63
910.994	7690.36
911.307	7660.76
911.619	7592.96
911.932	7631.61
912.244	7588.67
912.557	7506.41
912.869	7484.49
913.181	7487.66
913.494	7484.72
913.806	7421.44
914.118	7366.3
914.43	7340.99
914.742	7307.1
915.054	7323.59
915.366	7259.41
915.678	7277.49
915.99	7178.96
916.302	7189.36
916.613	7082.92
916.925	7145.07
917.236	7054
917.548	7046.54
917.859	7069.36
918.171	7053.54
918.482	6978.97
918.794	6874.11
919.105	6917.28
919.416	6872.53
919.727	6901
920.038	6828.24
920.349	6786.43
920.66	6732.42
920.971	6765.42
921.282	6755.25
921.593	6761.12
921.903	6662.82
922.214	6609.04
922.525	6591.86
922.835	6541.92
923.146	6532.43
923.456	6510.96
923.767	6487.23
924.077	6498.76
924.387	6456.27
924.697	6396.61
925.008	6402.26
925.318	6373.56
925.628	6349.38
925.938	6283.62
926.248	6268.25
926.558	6278.65
926.867	6187.58
927.177	6193.23
927.487	6176.28
927.796	6068.71
928.106	6178.54
928.416	6106.9
928.725	6079.11
929.034	6042.72
929.344	6059.45
929.653	6016.96
929.962	5983.97
930.271	5937.64
930.581	5904.65
930.89	5866
931.199	5862.61
931.508	5844.31
931.817	5823.52
932.125	5767.25
932.434	5768.38
932.743	5717.76
933.051	5682.73
933.36	5661.72
933.669	5632.34
933.977	5613.13
934.286	5634.6
934.594	5586.01
934.902	5527.48
935.21	5567.71
935.519	5553.92
935.827	5529.29
936.135	5473.02
936.443	5444.32
936.751	5442.29
937.059	5432.57
937.367	5388.28
937.674	5374.04
937.982	5343.31
938.29	5286.13
938.597	5318.9
938.905	5225.79
939.213	5228.51
939.52	5240.71
939.827	5242.97
940.135	5215.85
940.442	5165.68
940.749	5173.82
941.056	5196.87
941.363	5055.18
941.67	5059.7
941.977	5026.48
942.284	5040.49
942.591	4968.63
942.898	4966.14
943.205	4928.18
943.511	4897.44
943.818	4930.89
944.125	4881.4
944.431	4846.14
944.738	4880.27
945.044	4830.78
945.35	4820.83
945.657	4748.07
945.963	4781.74
946.269	4732.25
946.575	4743.1
946.881	4693.38
947.187	4701.51
947.493	4649.99
947.799	4651.35
948.105	4606.83
948.41	4625.81
948.716	4612.48
949.022	4587.39
949.327	4604.57
949.633	4480.28
949.938	4510.11
950.244	4488.41
950.549	4415.42
950.854	4489.77
951.16	4443.22
951.465	4419.04
951.77	4389.21
952.075	4380.17
952.38	4317.57
952.685	4337.91
952.99	4292.03
953.294	4274.86
953.599	4288.19
953.904	4207.97
954.209	4260.4
954.513	4227.4
954.818	4214.07
955.122	4201.87
955.426	4187.18
955.731	4142.89
956.035	4143.34
956.339	4114.64
956.643	4109.89
956.948	4067.86
957.252	4046.39
957.556	4030.35
957.86	4020.85
958.163	3997.8
958.467	3993.51
958.771	3954.19
959.075	3967.75
959.378	3973.17
959.682	3943.57
959.985	3893.17
960.289	3874.42
960.592	3887.07
960.896	3820.63
961.199	3851.59
961.502	3842.55
961.805	3792.84
962.108	3800.3
962.411	3760.3
962.714	3788.32
963.017	3710.13
963.32	3714.87
963.623	3677.81
963.926	3664.25
964.228	3661.54
964.531	3667.42
964.833	3640.53
965.136	3651.82
965.438	3583.13
965.741	3592.62
966.043	3566.18
966.345	3548.32
966.648	3518.27
966.95	3563.69
967.252	3520.08
967.554	3509.46
967.856	3476.46
968.158	3468.33
968.46	3428.1
968.761	3465.62
969.063	3478.5
969.365	3442.34
969.666	3404.6
969.968	3396.92
970.269	3339.97
970.571	3391.49
970.872	3353.3
971.174	3345.62
971.475	3279.41
971.776	3292.96
972.077	3299.29
972.378	3273.76
972.679	3259.97
972.98	3265.62
973.281	3259.07
973.582	3209.8
973.883	3238.73
974.183	3187.2
974.484	3145.4
974.785	3170.93
975.085	3107.43
975.386	3179.29
975.686	3150.6
975.986	3126.64
976.287	3090.26
976.587	3053.42
976.887	3040.32
977.187	3042.35
977.487	3068.34
977.787	2988.79
978.087	2980.88
978.387	2988.34
978.687	2952.63
978.987	2961.22
979.286	2958.28
979.586	2941.79
979.885	2932.3
980.185	2930.71
980.484	2896.14
980.784	2864.27
981.083	2886.2
981.382	2888.23
981.682	2837.83
981.981	2847.1
982.28	2784.28
982.579	2819.76
982.878	2813.2
983.177	2793.77
983.475	2798.74
983.774	2730.49
984.073	2752.19
984.372	2732.75
984.67	2748.12
984.969	2738.63
985.267	2730.49
985.566	2704.05
985.864	2652.08
986.162	2692.98
986.461	2651.4
986.759	2645.52
987.057	2629.25
987.355	2633.55
987.653	2617.28
987.951	2610.95
988.249	2591.06
988.547	2602.36
988.844	2575.02
989.142	2569.14
989.44	2552.87
989.737	2525.75
990.035	2485.3
990.332	2524.85
990.63	2494.12
990.927	2499.99
991.224	2451.63
991.521	2487.79
991.819	2446.66
992.116	2446.88
992.413	2417.96
992.71	2430.84
993.006	2426.55
993.303	2368.24
993.6	2400.56
993.897	2369.6
994.193	2362.82
994.49	2340.22
994.787	2326.89
995.083	2327.79
995.379	2293.67
995.676	2324.85
995.972	2281.92
996.268	2266.78
996.565	2281.92
996.861	2284.4
997.157	2252.77
997.453	2242.14
997.749	2233.33
998.044	2195.82
998.34	2182.26
998.636	2198.76
998.932	2167.57
999.227	2166.89
999.523	2126.67
999.818	2169.15
1000.114	2114.46
1000.409	2129.83
1000.704	2132.54
1001	2079.44
1001.295	2100.68
1001.59	2087.12
1001.885	2050.29
1002.18	2058.65
1002.475	2074.92
1002.77	2050.96
1003.065	1998.31
1003.359	2029.72
1003.654	2010.51
1003.949	1991.53
1004.243	1991.08
1004.538	1961.25
1004.832	1968.25
1005.127	1960.57
1005.421	1967.35
1005.715	1909.27
1006.009	1910.85
1006.304	1918.09
1006.598	1914.24
1006.892	1889.84
1007.186	1881.25
1007.48	1873.79
1007.773	1883.74
1008.067	1876.05
1008.361	1847.58
1008.655	1822.04
1008.948	1797.64
1009.242	1789.73
1009.535	1787.47
1009.829	1784.08
1010.122	1750.41
1010.415	1761.93
1010.708	1739.56
1011.001	1760.12
1011.295	1772.55
1011.588	1727.36
1011.881	1721.93
1012.173	1716.06
1012.466	1719.45
1012.759	1690.07
1013.052	1687.81
1013.344	1661.37
1013.637	1670.86
1013.93	1649.17
1014.222	1613.01
1014.514	1633.35
1014.807	1613.69
1015.099	1640.13
1015.391	1585.89
1015.683	1604.2
1015.976	1578.66
1016.268	1571.2
1016.56	1576.17
1016.851	1544.31
1017.143	1507.7
1017.435	1551.99
1017.727	1521.26
1018.018	1524.65
1018.31	1489.62
1018.602	1522.84
1018.893	1482.84
1019.185	1502.73
1019.476	1472.9
1019.767	1474.71
1020.058	1478.77
1020.35	1425.89
1020.641	1426.12
1020.932	1405.78
1021.223	1410.98
1021.514	1422.96
1021.804	1368.72
1022.095	1403.07
1022.386	1389.51
1022.677	1364.88
1022.967	1391.77
1023.258	1355.16
1023.548	1340.47
1023.839	1335.95
1024.129	1318.1
1024.419	1315.16
1024.709	1337.54
1025	1281.27
1025.29	1292.56
1025.58	1272
1025.87	1274.49
1026.16	1264.32
1026.449	1257.09
1026.739	1247.14
1027.029	1243.75
1027.319	1241.94
1027.608	1228.61
1027.898	1216.41
1028.187	1208.73
1028.477	1225.22
1028.766	1172.57
1029.055	1175.96
1029.344	1164.88
1029.634	1157.65
1029.923	1190.65
1030.212	1143.87
1030.501	1152.68
1030.79	1161.27
1031.078	1160.59
1031.367	1144.32
1031.656	1119.24
1031.945	1128.73
1032.233	1097.99
1032.522	1073.81
1032.81	1084.89
1033.099	1083.76
1033.387	1068.84
1033.675	1088.28
1033.963	1055.06
1034.251	1049.41
1034.54	1044.89
1034.828	1043.08
1035.116	1027.49
1035.403	1005.57
1035.691	1021.84
1035.979	1036.53
1036.267	1016.87
1036.554	1017.77
1036.842	1017.09
1037.129	988.17
1037.417	990.43
1037.704	1000.14
1037.992	976.42
1038.279	975.74
1038.566	973.48
1038.853	973.48
1039.14	973.48
