Data from hue_290_FLMS001491_00037.txt Node
Date: Tue Feb 07 15:52:40 GMT 2017
User: dcchb
Spectrometer: FLMS00149
Trigger mode: 0
Integration Time (sec): 2.000000E-2
Scans to average: 10
Electric dark correction enabled: true
Nonlinearity correction enabled: false
Boxcar width: 0
XAxis mode: Wavelengths
Number of Pixels in Spectrum: 2048
>>>>>Begin Spectral Data<<<<<
341.393	-20.27
341.776	-20.27
342.16	-20.27
342.543	-47.61
342.927	-55.52
343.31	-66.82
343.693	-78.57
344.077	-84.45
344.46	-52.13
344.843	-44.22
345.226	-42.19
345.61	-27.95
345.993	-11.45
346.376	-5.13
346.759	10.69
347.142	16.12
347.525	48.88
347.908	49.56
348.291	75.55
348.674	102.67
349.057	109.45
349.44	139.5
349.823	143.8
350.206	166.39
350.588	186.73
350.971	185.6
351.354	218.82
351.737	225.15
352.119	241.65
352.502	282.1
352.884	258.37
353.267	292.49
353.65	307.63
354.032	318.48
354.414	308.99
354.797	301.53
355.179	314.41
355.562	306.05
355.944	323.9
356.326	325.94
356.709	341.53
357.091	345.37
357.473	339.27
357.855	341.53
358.238	334.53
358.62	342.21
359.002	346.05
359.384	325.71
359.766	320.06
360.148	330.46
360.53	320.51
360.912	338.59
361.294	352.38
361.676	338.37
362.057	321.19
362.439	337.69
362.821	325.26
363.203	332.04
363.584	323.23
363.966	328.42
364.348	311.7
364.729	329.78
365.111	299.5
365.493	325.26
365.874	315.77
366.256	314.64
366.637	307.41
367.019	302.66
367.4	310.12
367.781	304.47
368.163	327.75
368.544	323.9
368.925	314.86
369.306	305.15
369.688	317.58
370.069	327.97
370.45	329.78
370.831	299.05
371.212	303.34
371.593	323.68
371.974	310.12
372.355	310.12
372.736	325.49
373.117	323.45
373.498	323.68
373.879	293.4
374.26	305.6
374.641	311.25
375.021	286.39
375.402	322.77
375.783	313.73
376.163	321.64
376.544	318.48
376.925	305.83
377.305	330.91
377.686	332.27
378.066	322.32
378.447	340.4
378.827	326.16
379.208	320.97
379.588	321.19
379.968	328.88
380.349	339.72
380.729	338.59
381.109	315.09
381.489	338.37
381.87	339.04
382.25	353.96
382.63	343.34
383.01	344.69
383.39	346.5
383.77	320.51
384.15	334.75
384.53	343.56
384.91	323.45
385.29	348.31
385.67	342.43
386.049	358.71
386.429	345.15
386.809	356.67
387.189	325.71
387.568	344.47
387.948	369.55
388.328	344.92
388.707	365.48
389.087	358.71
389.466	341.53
389.846	364.81
390.225	352.15
390.605	372.04
390.984	359.38
391.363	361.42
391.743	357.8
392.122	372.72
392.501	349.89
392.881	377.69
393.26	361.87
393.639	372.49
394.018	374.52
394.397	350.8
394.776	381.53
395.155	395.77
395.534	385.6
395.913	390.34
396.292	398.48
396.671	384.92
397.05	376.78
397.429	394.64
397.808	394.41
398.186	391.7
398.565	402.09
398.944	407.07
399.323	391.47
399.701	408.42
400.08	423.34
400.458	410.23
400.837	407.52
401.215	413.17
401.594	419.49
401.972	435.77
402.351	441.19
402.729	432.38
403.107	411.36
403.486	437.57
403.864	429.89
404.242	423.79
404.62	447.52
404.999	464.92
405.377	443.9
405.755	438.7
406.133	455.65
406.511	431.25
406.889	462.21
407.267	458.82
407.645	466.27
408.023	447.52
408.401	477.35
408.779	492.49
409.156	478.25
409.534	517.8
409.912	509.66
410.29	509.21
410.667	514.41
411.045	529.1
411.422	523.9
411.8	524.8
412.178	542.2
412.555	559.38
412.933	534.29
413.31	544.92
413.687	555.76
414.065	577
414.442	575.2
414.819	588.53
415.197	598.02
415.574	607.06
415.951	584.24
416.328	602.31
416.705	644.12
417.082	614.74
417.46	635.08
417.837	658.36
418.214	648.19
418.591	671.01
418.967	644.35
419.344	666.27
419.721	678.24
420.098	692.93
420.475	709.66
420.852	720.28
421.228	702.43
421.605	716.89
421.982	715.98
422.358	747.4
422.735	763.44
423.111	754.63
423.488	756.89
423.864	757.79
424.241	799.37
424.617	812.03
424.994	797.79
425.37	811.57
425.746	811.12
426.123	829.2
426.499	853.38
426.875	869.43
427.251	840.73
427.627	877.34
428.003	864.23
428.379	887.05
428.756	906.71
429.132	915.3
429.507	947.39
429.883	940.16
430.259	955.3
430.635	924.11
431.011	943.32
431.387	987.39
431.763	1008.86
432.138	983.32
432.514	980.84
432.89	1015.19
433.265	1047.05
433.641	1075.3
434.016	1036.43
434.392	1070.55
434.767	1098.12
435.143	1096.09
435.518	1116.65
435.894	1117.33
436.269	1156.88
436.644	1142.87
437.02	1158.01
437.395	1156.65
437.77	1181.73
438.145	1198.23
438.52	1198.46
438.895	1211.56
439.271	1247.5
439.646	1228.96
440.021	1272.58
440.395	1268.06
440.77	1266.7
441.145	1224.45
441.52	1294.5
441.895	1302.64
442.27	1295.86
442.645	1304.44
443.019	1322.75
443.394	1313.48
443.769	1333.37
444.143	1324.1
444.518	1361.16
444.892	1322.97
445.267	1345.57
445.641	1366.59
446.016	1356.42
446.39	1383.54
446.764	1352.13
447.139	1363.2
447.513	1376.76
447.887	1442.97
448.262	1410.2
448.636	1419.02
449.01	1405.46
449.384	1429.41
449.758	1439.81
450.132	1441.61
450.506	1434.61
450.88	1437.32
451.254	1464.66
451.628	1446.81
452.002	1501.5
452.376	1495.62
452.75	1510.31
453.123	1517.32
453.497	1536.53
453.871	1544.89
454.244	1537.21
454.618	1571.1
454.992	1574.72
455.365	1581.95
455.739	1586.92
456.112	1603.19
456.486	1609.52
456.859	1625.56
457.232	1660.59
457.606	1628.73
457.979	1676.86
458.352	1718.44
458.725	1715.05
459.099	1682.96
459.472	1715.73
459.845	1744.21
460.218	1737.88
460.591	1757.99
460.964	1812.68
461.337	1803.41
461.71	1818.55
462.083	1832.56
462.456	1809.74
462.829	1841.15
463.201	1864.88
463.574	1867.14
463.947	1900.13
464.32	1967.48
464.692	1931.32
465.065	1934.26
465.438	1946.69
465.81	1997.08
466.183	1972.67
466.555	2011.77
466.928	2044.76
467.3	2011.54
467.672	2038.89
468.045	2084.31
468.417	2093.35
468.789	2128.15
469.161	2146.68
469.534	2186.23
469.906	2184.87
470.278	2188.49
470.65	2216.96
471.022	2251.31
471.394	2267.81
471.766	2273.91
472.138	2284.08
472.51	2362.95
472.882	2371.99
473.253	2405.21
473.625	2388.26
473.997	2427.8
474.369	2473.23
474.74	2514.81
475.112	2501.93
475.484	2514.35
475.855	2544.18
476.227	2550.74
476.598	2627.8
476.97	2628.02
477.341	2703.28
477.713	2722.03
478.084	2689.49
478.455	2753.22
478.827	2777.4
479.198	2841.13
479.569	2849.94
479.94	2911.18
480.311	2914.12
480.682	2983.72
481.053	2995.25
481.424	3091.06
481.795	3076.6
482.166	3153.66
482.537	3143.26
482.908	3172.87
483.279	3201.79
483.65	3218.52
484.021	3294.9
484.391	3305.75
484.762	3353.65
485.133	3361.11
485.503	3387.33
485.874	3453.31
486.244	3430.49
486.615	3562.24
486.985	3516.59
487.356	3557.27
487.726	3590.94
488.097	3660.09
488.467	3658.05
488.837	3657.83
489.207	3704.38
489.578	3765.62
489.948	3787.32
490.318	3844.72
490.688	3822.12
491.058	3878.84
491.428	3953.64
491.798	3964.49
492.168	4007.2
492.538	4046.97
492.908	4073.64
493.278	4094.65
493.648	4118.61
494.017	4152.5
494.387	4165.16
494.757	4221.88
495.126	4193.86
495.496	4234.31
495.866	4286.29
496.235	4286.29
496.605	4335.32
496.974	4300.97
497.344	4364.7
497.713	4384.59
498.082	4408.77
498.452	4398.83
498.821	4367.41
499.19	4470.69
499.559	4493.06
499.928	4519.27
500.298	4519.27
500.667	4546.17
501.036	4513.17
501.405	4582.77
501.774	4572.83
502.143	4585.03
502.512	4635.43
502.88	4632.94
503.249	4674.52
503.618	4697.35
503.987	4690.79
504.356	4721.98
504.724	4752.71
505.093	4776.67
505.462	4726.05
505.83	4756.56
506.199	4775.76
506.567	4867.51
506.936	4813.05
507.304	4782.77
507.672	4875.65
508.041	4927.4
508.409	4899.6
508.777	4943.44
509.145	4923.56
509.514	4952.93
509.882	4977.57
510.25	4978.02
510.618	5008.98
510.986	4957.23
511.354	5042.2
511.722	5051.69
512.09	5071.12
512.458	5045.81
512.826	5112.93
513.193	5138.47
513.561	5090.56
513.929	5108.86
514.297	5187.73
514.664	5199.48
515.032	5193.15
515.4	5208.75
515.767	5218.01
516.135	5242.42
516.502	5205.58
516.869	5284
517.237	5258.46
517.604	5288.07
517.972	5316.32
518.339	5340.72
518.706	5332.36
519.073	5340.04
519.44	5363.09
519.808	5380.04
520.175	5360.83
520.542	5421.85
520.909	5480.38
521.276	5435.41
521.643	5444.9
522.009	5440.38
522.376	5509.53
522.743	5521.73
523.11	5554.5
523.477	5624.56
523.843	5580.94
524.21	5643.76
524.577	5669.53
524.943	5662.29
525.31	5694.16
525.676	5705.01
526.043	5736.64
526.409	5801.05
526.776	5819.58
527.142	5820.26
527.508	5833.36
527.874	5899.8
528.241	5924.43
528.607	5915.85
528.973	5988.16
529.339	5965.56
529.705	6028.39
530.071	6022.74
530.437	6028.84
530.803	6104.32
531.169	6102.28
531.535	6095.5
531.901	6107.48
532.267	6095.5
532.632	6137.08
532.998	6191.09
533.364	6248.72
533.73	6209.4
534.095	6263.63
534.461	6248.27
534.826	6335.5
535.192	6286.01
535.557	6291.66
535.923	6291.2
536.288	6319.68
536.653	6375.27
537.019	6391.99
537.384	6460.92
537.749	6411.65
538.114	6379.34
538.479	6494.36
538.845	6502.05
539.21	6480.35
539.575	6448.04
539.94	6491.65
540.305	6548.6
540.67	6567.13
541.034	6554.02
541.399	6584.3
541.764	6648.03
542.129	6609.39
542.494	6652.1
542.858	6669.27
543.223	6650.07
543.587	6646.68
543.952	6644.42
544.316	6710.18
544.681	6729.39
545.045	6783.62
545.41	6793.79
545.774	6781.59
546.138	6813
546.503	6804.86
546.867	6809.84
547.231	6868.36
547.595	6867.46
547.959	6923.73
548.324	6933.67
548.688	6930.28
549.052	6939.1
549.416	6900.23
549.779	6943.16
550.143	6945.65
550.507	7047.57
550.871	7026.78
551.235	6964.41
551.599	7036.27
551.962	7026.78
552.326	6995.59
552.689	7058.87
553.053	7069.72
553.417	7129.83
553.78	7140.45
554.143	7092.31
554.507	7147.23
554.87	7173.89
555.234	7238.98
555.597	7176.61
555.96	7197.17
556.323	7240.33
556.686	7189.03
557.05	7333.21
557.413	7314.23
557.776	7341.12
558.139	7415.69
558.502	7334.12
558.865	7353.55
559.228	7399.88
559.59	7366.66
559.953	7419.99
560.316	7502.7
560.679	7513.55
561.041	7483.26
561.404	7473.32
561.767	7563.94
562.129	7487.78
562.492	7616.37
562.854	7596.26
563.217	7624.5
563.579	7678.96
563.941	7692.75
564.304	7680.32
564.666	7778.17
565.028	7765.74
565.39	7745.18
565.753	7778.17
566.115	7806.19
566.477	7806.42
566.839	7797.15
567.201	7889.13
567.563	7941.1
567.925	7953.76
568.287	7918.28
568.648	7981.33
569.01	8013.42
569.372	8035.57
569.734	8058.84
570.095	8133.64
570.457	8159.63
570.819	8108.56
571.18	8094.55
571.542	8222.91
571.903	8238.27
572.265	8286.63
572.626	8298.38
572.987	8273.53
573.349	8367.99
573.71	8389
574.071	8495.89
574.432	8493.18
574.794	8588.32
575.155	8511.26
575.516	8546.29
575.877	8622.89
576.238	8715.55
576.599	8701.76
576.96	8730.69
577.32	8781.99
577.681	8825.83
578.042	8899.27
578.403	8949.67
578.763	9038.48
579.124	9062.66
579.485	9163.22
579.845	9148.3
580.206	9144.69
580.566	9386.04
580.927	9369.32
581.287	9496.77
581.648	9526.37
582.008	9651.34
582.368	9668.06
582.728	9794.16
583.089	9894.05
583.449	9970.66
583.809	10001.39
584.169	10110.99
584.529	10255.62
584.889	10423.53
585.249	10459.91
585.609	10501.72
585.969	10710.75
586.329	10700.81
586.688	10857.86
587.048	11013.79
587.408	11081.14
587.768	11231.87
588.127	11284.52
588.487	11408.13
588.846	11668.92
589.206	11695.13
589.565	11804.73
589.925	12043.6
590.284	12083.82
590.643	12282.46
591.003	12420.08
591.362	12630.92
591.721	12667.99
592.08	12834.54
592.44	12974.42
592.799	13127.41
593.158	13189.33
593.517	13397.46
593.876	13449.89
594.235	13597.91
594.593	13675.19
594.952	13833.15
595.311	13948.86
595.67	14103.43
596.029	14361.73
596.387	14545
596.746	14745.9
597.104	14706.35
597.463	14795.84
597.822	15036.51
598.18	15073.57
598.538	15173
598.897	15370.51
599.255	15353.57
599.613	15639.89
599.972	15625.87
600.33	15812.54
600.688	15911.29
601.046	16065.18
601.404	16272.64
601.762	16396.25
602.12	16536.58
602.478	16624.94
602.836	16700.65
603.194	16740.65
603.552	16779.52
603.91	16921.89
604.268	17031.94
604.625	17054.31
604.983	17170.01
605.341	17189.22
605.698	17505.6
606.056	17558.7
606.413	17542.89
606.771	17661.53
607.128	17766.61
607.485	17762.77
607.843	17755.54
608.2	18069.43
608.557	18136.77
608.914	18268.06
609.272	18280.27
609.629	18339.02
609.986	18681.16
610.343	18537.66
610.7	18754.15
611.057	18726.13
611.414	18652.24
611.771	18854.49
612.127	19035.28
612.484	19064.43
612.841	19036.41
613.198	19142.62
613.554	19202.96
613.911	19326.57
614.267	19281.15
614.624	19399.79
614.98	19440.92
615.337	19519.78
615.693	19575.6
616.05	19590.06
616.406	19718.65
616.762	19741.92
617.118	19762.49
617.475	19738.53
617.831	19872.54
618.187	19993.44
618.543	20012.88
618.899	20093.33
619.255	20116.83
619.611	20119.77
619.967	20300.55
620.323	20334
620.678	20297.16
621.034	20248.35
621.39	20338.74
621.746	20217.84
622.101	20544.39
622.457	20447.67
622.812	20536.93
623.168	20502.58
623.523	20578.51
623.879	20762.91
624.234	20553.2
624.589	20693.76
624.945	20675.91
625.3	20673.43
625.655	20762.91
626.01	20792.29
626.365	20772.41
626.72	20812.4
627.075	20741.67
627.43	20797.04
627.785	20690.37
628.14	20808.34
628.495	20838.62
628.85	20836.36
629.205	20780.32
629.559	20874.32
629.914	20886.3
630.269	20846.08
630.623	20721.33
630.978	20817.83
631.332	20912.74
631.687	20905.74
632.041	20829.35
632.396	20900.76
632.75	20741.9
633.104	20865.51
633.459	20698.28
633.813	20811.95
634.167	20759.3
634.521	20715.68
634.875	20756.14
635.229	20785.74
635.583	20702.35
635.937	20704.38
636.291	20654.44
636.645	20757.94
636.999	20671.17
637.352	20647.21
637.706	20589.59
638.06	20698.96
638.413	20703.93
638.767	20628.91
639.121	20644.27
639.474	20533.32
639.828	20594.56
640.181	20658.28
640.534	20689.92
640.888	20624.61
641.241	20514.33
641.594	20594.78
641.947	20678.85
642.301	20601.79
642.654	20569.25
643.007	20594.56
643.36	20515.01
643.713	20523.6
644.066	20618.51
644.419	20458.29
644.771	20345.52
645.124	20181.69
645.477	20148.02
645.83	20023.27
646.182	19973.1
646.535	19989.15
646.888	19957.51
647.24	19826.22
647.593	20046.55
647.945	19867.12
648.298	19792.77
648.65	19822.15
649.002	19829.38
649.355	19891.75
649.707	19901.47
650.059	19917.06
650.411	20225.3
650.763	20159.77
651.115	20411.74
651.467	20472.3
651.819	20421.23
652.171	20315.24
652.523	20272.98
652.875	20236.6
653.227	20176.04
653.578	20271.63
653.93	20523.6
654.282	20297.16
654.633	20269.14
654.985	20282.93
655.337	20300.55
655.688	20445.18
656.039	20327.22
656.391	20241.57
656.742	20411.51
657.094	20357.5
657.445	20456.71
657.796	20392.75
658.147	20394.56
658.498	20292.64
658.849	20391.17
659.2	20350.5
659.551	20251.52
659.902	20400.21
660.253	20342.13
660.604	20377.61
660.955	20338.97
661.306	20381
661.656	20341.68
662.007	20402.7
662.358	20379.87
662.708	20400.21
663.059	20284.06
663.409	20286.77
663.76	20471.4
664.11	20545.29
664.461	20554.78
664.811	20507.1
665.161	20467.33
665.511	20441.79
665.862	20432.53
666.212	20513.88
666.562	20592.3
666.912	20402.02
667.262	20422.13
667.612	20464.17
667.962	20461.23
668.312	20485.86
668.662	20425.97
669.011	20432.53
669.361	20385.75
669.711	20430.27
670.06	20380.33
670.41	20355.47
670.76	20389.37
671.109	20324.51
671.459	20390.27
671.808	20428.01
672.157	20413.09
672.507	20202.48
672.856	20308.01
673.205	20258.07
673.554	20323.6
673.904	20295.58
674.253	20367.44
674.602	20329.71
674.951	19992.77
675.3	19894.46
675.649	20241.35
675.998	20173.55
676.346	20202.25
676.695	20351.85
677.044	20105.53
677.393	20129.48
677.741	20251.97
678.09	20102.14
678.438	20058.53
678.787	20176.94
679.135	20032.54
679.484	20040.9
679.832	19981.01
680.181	19922.03
680.529	20022.37
680.877	19978.3
681.225	19926.78
681.573	19975.36
681.922	19787.57
682.27	19796.39
682.618	19812.88
682.966	19780.57
683.314	19764.3
683.661	19651.08
684.009	19543.96
684.357	19594.36
684.705	19569.05
685.053	19553.91
685.4	19459.45
685.748	19413.12
686.095	19365.44
686.443	19375.38
686.79	19282.73
687.138	19360.92
687.485	19354.82
687.832	19250.41
688.18	19202.28
688.527	19139
688.874	19173.58
689.221	19135.39
689.568	19009.29
689.915	18952.57
690.262	18927.71
690.609	18820.59
690.956	18699.69
691.303	18751.22
691.65	18798.45
691.997	18652.69
692.344	18506.48
692.69	18497.21
693.037	18459.92
693.383	18446.14
693.73	18465.12
694.077	18265.81
694.423	18334.28
694.769	18273.49
695.116	18224.9
695.462	18186.49
695.808	18062.87
696.155	18063.1
696.501	18002.31
696.847	17943.55
697.193	17793.05
697.539	17762.32
697.885	17787.4
698.231	17635.54
698.577	17730.45
698.923	17581.3
699.269	17433.74
699.614	17400.74
699.96	17326.85
700.306	17388.77
700.651	17189.9
700.997	17176.34
701.342	17192.84
701.688	17084.14
702.033	16973.86
702.379	17005.27
702.724	17010.92
703.069	16956.46
703.415	16751.27
703.76	16758.95
704.105	16788.1
704.45	16719.18
704.795	16586.53
705.14	16602.57
705.485	16504.27
705.83	16465.85
706.175	16483.93
706.52	16469.24
706.865	16289.59
707.209	16253.88
707.554	16201.68
707.899	16285.07
708.243	16174.33
708.588	16207.1
708.932	16106.54
709.277	16051.17
709.621	15991.06
709.966	15920.56
710.31	15943.61
710.654	15856.15
710.998	15816.6
711.342	15833.1
711.687	15817.73
712.031	15670.62
712.375	15634.69
712.719	15630.62
713.063	15618.87
713.407	15655.7
713.75	15530.74
714.094	15546.55
714.438	15470.85
714.782	15505.65
715.125	15416.61
715.469	15357.86
715.812	15347.92
716.156	15268.37
716.499	15242.16
716.843	15278.09
717.186	15205.09
717.53	15214.36
717.873	15268.82
718.216	15218.43
718.559	15146.34
718.902	15062.05
719.246	15123.29
719.589	15109.28
719.932	14977.3
720.275	14982.73
720.617	15046.23
720.96	14926.91
721.303	15015.27
721.646	15043.74
721.989	14906.8
722.331	15003.29
722.674	14956.74
723.016	14919.45
723.359	14946.12
723.701	14995.38
724.044	14857.53
724.386	14723.98
724.729	14837.65
725.071	14761.04
725.413	14751.1
725.755	14754.26
726.097	14741.15
726.439	14689.18
726.782	14612.79
727.124	14712
727.465	14582.06
727.807	14655.05
728.149	14633.58
728.491	14588.39
728.833	14640.59
729.175	14565.34
729.516	14616.41
729.858	14489.86
730.199	14584.32
730.541	14483.76
730.882	14502.51
731.224	14501.61
731.565	14562.4
731.906	14565.34
732.248	14462.06
732.589	14488.5
732.93	14391.56
733.271	14501.16
733.612	14453.48
733.953	14464.32
734.294	14460.71
734.635	14464.1
734.976	14502.29
735.317	14422.97
735.658	14381.39
735.999	14395.62
736.339	14457.09
736.68	14516.3
737.021	14353.59
737.361	14397.21
737.702	14408.28
738.042	14450.09
738.383	14314.27
738.723	14456.19
739.063	14381.61
739.404	14428.17
739.744	14397.21
740.084	14396.3
740.424	14496.19
740.764	14422.06
741.104	14534.6
741.444	14407.83
741.784	14491.67
742.124	14507.03
742.464	14376.64
742.804	14541.84
743.143	14561.95
743.483	14587.26
743.823	14515.17
744.162	14545
744.502	14611.66
744.841	14573.47
745.181	14665
745.52	14686.92
745.86	14811.21
746.199	14754.48
746.538	14834.71
746.877	14915.38
747.216	14904.31
747.556	14947.25
747.895	14970.75
748.234	14959.23
748.573	14986.8
748.911	15133.01
749.25	15133.23
749.589	15177.07
749.928	15307.69
750.267	15348.37
750.605	15332.32
750.944	15365.99
751.283	15459.1
751.621	15590.4
751.96	15519.21
752.298	15653.9
752.636	15778.86
752.975	15784.74
753.313	15830.61
753.651	16126.65
753.989	16058.86
754.327	16206.88
754.666	16176.59
755.004	16359.87
755.342	16475.34
755.679	16523.7
756.017	16585.62
756.355	16819.52
756.693	16861.1
757.031	17012.5
757.368	17012.28
757.706	17135.44
758.044	17216.12
758.381	17349.22
758.719	17391.25
759.056	17568.42
759.394	17550.34
759.731	17590.12
760.068	17762.77
760.405	17999.37
760.743	17878.92
761.08	18098.8
761.417	18165.24
761.754	18317.56
762.091	18336.99
762.428	18418.57
762.765	18406.82
763.102	18621.95
763.438	18633.93
763.775	18739.69
764.112	18844.09
764.449	18925.45
764.785	18926.8
765.122	18987.14
765.458	18971.1
765.795	19087.25
766.131	19213.58
766.467	19184.88
766.804	19172.45
767.14	19247.93
767.476	19351.88
767.812	19300.58
768.148	19520.46
768.485	19497.64
768.821	19402.05
769.157	19470.97
769.492	19523.17
769.828	19593.45
770.164	19447.47
770.5	19589.39
770.836	19617.41
771.171	19530.63
771.507	19537.41
771.842	19463.97
772.178	19589.61
772.513	19604.3
772.849	19622.15
773.184	19600.01
773.519	19562.04
773.855	19589.16
774.19	19616.96
774.525	19509.61
774.86	19490.86
775.195	19602.04
775.53	19481.14
775.865	19464.64
776.2	19429.84
776.535	19332.67
776.87	19420.8
777.205	19349.39
777.539	19272.33
777.874	19365.21
778.209	19242.5
778.543	19214.93
778.878	19198.66
779.212	19195.27
779.547	19091.32
779.881	19167.48
780.215	19092.45
780.55	19158.89
780.884	19078.21
781.218	19002.96
781.552	19081.83
781.886	19000.7
782.22	18796.19
782.554	18795.06
782.888	18659.47
783.222	18678.45
783.556	18618.34
783.889	18501.51
784.223	18541.5
784.557	18489.53
784.89	18471.22
785.224	18514.84
785.557	18384.45
785.891	18241.4
786.224	18274.17
786.558	18211.8
786.891	18017.9
787.224	18149.65
787.557	18115.98
787.891	18029.2
788.224	18034.17
788.557	18033.95
788.89	17890
789.223	17884.57
789.556	17784.69
789.888	17838.02
790.221	17629.89
790.554	17617.01
790.887	17480.74
791.219	17460.63
791.552	17506.95
791.884	17454.53
792.217	17425.15
792.549	17312.61
792.882	17226.96
793.214	17188.55
793.546	17182.67
793.879	17093.41
794.211	16988.78
794.543	17042.56
794.875	16994.43
795.207	16971.83
795.539	16892.51
795.871	16926.41
796.203	16780.65
796.535	16717.37
796.867	16629.92
797.198	16659.97
797.53	16628.56
797.862	16492.74
798.193	16563.02
798.525	16476.7
798.856	16385.4
799.188	16235.58
799.519	16304.95
799.85	16157.84
800.182	16225.41
800.513	16205.07
800.844	16023.83
801.175	16179.76
801.506	16071.51
801.837	16043.04
802.168	16003.72
802.499	15899.09
802.83	15820.67
803.161	15795.59
803.491	15855.02
803.822	15790.16
804.153	15616.84
804.483	15564.41
804.814	15545.2
805.145	15529.83
805.475	15508.14
805.805	15540.45
806.136	15377.97
806.466	15375.26
806.796	15372.32
807.126	15217.07
807.457	15302.04
807.787	15287.35
808.117	15114.02
808.447	15203.74
808.777	15215.72
809.107	15076.96
809.436	15067.92
809.766	15055.72
810.096	15003.07
810.426	15014.59
810.755	14926.91
811.085	14861.83
811.414	14933.69
811.744	14745.9
812.073	14771.66
812.403	14793.13
812.732	14692.34
813.061	14617.31
813.39	14587.26
813.719	14589.52
814.049	14613.47
814.378	14471.55
814.707	14465.68
815.036	14444.44
815.365	14367.6
815.693	14320.37
816.022	14250.32
816.351	14289.86
816.68	14159.47
817.008	14251.45
817.337	14094.84
817.665	14076.54
817.994	14113.15
818.322	14084.9
818.651	14032.7
818.979	13988.63
819.307	14065.01
819.636	13995.18
819.964	13917.67
820.292	13947.5
820.62	13919.03
820.948	13860.27
821.276	13964.22
821.604	13861.85
821.932	13884
822.259	13835.19
822.587	13879.93
822.915	13782.99
823.243	13877.45
823.57	13883.55
823.898	13868.18
824.225	13839.03
824.553	13807.39
824.88	13796.09
825.207	13858.69
825.535	13858.69
825.862	13823.89
826.189	13786.6
826.516	13802.19
826.843	13854.62
827.17	13843.32
827.497	13864.11
827.824	13843.1
828.151	13882.19
828.478	13793.61
828.805	13925.81
829.131	13732.36
829.458	13727.39
829.785	13640.84
830.111	13754.06
830.438	13872.47
830.764	13708.64
831.09	13793.38
831.417	13695.53
831.743	13790.22
832.069	13809.2
832.395	13680.39
832.722	13797.45
833.048	13753.61
833.374	13720.16
833.7	13693.72
834.026	13748.86
834.351	13655.53
834.677	13646.27
835.003	13744.57
835.329	13648.53
835.654	13630.9
835.98	13592.93
836.306	13626.15
836.631	13502.77
836.956	13621.63
837.282	13568.98
837.607	13513.39
837.932	13568.08
838.258	13494.41
838.583	13464.8
838.908	13347.29
839.233	13407.63
839.558	13391.13
839.883	13266.16
840.208	13243.11
840.533	13197.46
840.858	13289.44
841.182	13265.48
841.507	13229.55
841.832	13225.49
842.156	13104.13
842.481	13243.34
842.805	13143.23
843.13	13066.17
843.454	13178.26
843.778	12923.35
844.103	12994.76
844.427	12898.04
844.751	12906.62
845.075	12921.54
845.399	12929.45
845.723	12838.38
846.047	12814.42
846.371	12752.73
846.695	12759.06
847.019	12571.27
847.343	12552.96
847.666	12457.82
847.99	12475
848.313	12456.92
848.637	12419.18
848.96	12375.11
849.284	12303.93
849.607	12289.69
849.931	12136.25
850.254	12035.01
850.577	11997.95
850.9	11915.01
851.223	11978.96
851.546	11940.55
851.869	11790.04
852.192	11905.29
852.515	11752.3
852.838	11709.59
853.161	11756.15
853.483	11645.87
853.806	11557.05
854.129	11581.24
854.451	11548.69
854.774	11519.54
855.096	11486.77
855.419	11408.81
855.741	11393.9
856.063	11378.75
856.385	11328.81
856.708	11238.42
857.03	11240.23
857.352	11192.54
857.674	11155.71
857.996	11166.1
858.318	11076.39
858.64	11136.5
858.961	11009.27
859.283	11065.99
859.605	10932.89
859.926	10989.61
860.248	11007.24
860.57	10932.89
860.891	10876.39
861.212	10781.26
861.534	10794.82
861.855	10779.9
862.176	10742.84
862.498	10802.72
862.819	10772.22
863.14	10717.08
863.461	10730.18
863.782	10699.9
864.103	10636.85
864.424	10642.73
864.745	10735.61
865.065	10609.06
865.386	10526.8
865.707	10565.89
866.027	10548.04
866.348	10534.48
866.668	10529.29
866.989	10462.39
867.309	10418.78
867.63	10472.11
867.95	10458.33
868.27	10345.56
868.59	10371.55
868.91	10412.68
869.23	10291.78
869.55	10288.39
869.87	10391.21
870.19	10350.53
870.51	10323.19
870.83	10254.72
871.15	10182.63
871.469	10253.13
871.789	10279.57
872.109	10200.25
872.428	10134.27
872.748	10197.99
873.067	10177.43
873.386	10197.32
873.706	10190.54
874.025	10156.87
874.344	10030.99
874.663	10069.64
874.982	10041.39
875.301	10007.04
875.62	10038.9
875.939	10074.83
876.258	9976.31
876.577	9986.25
876.896	10019.92
877.214	9884.1
877.533	9987.15
877.852	9899.02
878.17	10005.91
878.489	9931.56
878.807	9923.43
879.125	9872.35
879.444	9839.81
879.762	9802.07
880.08	9853.6
880.398	9734.28
880.716	9770.44
881.034	9666.94
881.352	9714.62
881.67	9679.59
881.988	9676.88
882.306	9645.92
882.624	9618.35
882.941	9567.28
883.259	9591.23
883.577	9571.12
883.894	9506.49
884.212	9573.15
884.529	9438.01
884.846	9537.22
885.164	9486.15
885.481	9428.52
885.798	9430.33
886.115	9391.69
886.432	9367.96
886.75	9353.72
887.067	9323.89
887.383	9280.5
887.7	9363.44
888.017	9234.18
888.334	9272.82
888.651	9158.7
888.967	9226.04
889.284	9162.32
889.6	9104.24
889.917	9086.16
890.233	9114.41
890.55	9066.72
890.866	9084.35
891.182	8989.21
891.498	8952.83
891.815	8960.74
892.131	8881.87
892.447	8859.05
892.763	8866.5
893.079	8871.7
893.395	8786.73
893.71	8799.61
894.026	8732.5
894.342	8754.42
894.657	8690.69
894.973	8641.43
895.289	8665.15
895.604	8657.47
895.92	8510.58
896.235	8503.12
896.55	8582.67
896.865	8503.12
897.181	8475.78
897.496	8440.07
897.811	8476.23
898.126	8410.7
898.441	8371.83
898.756	8366.18
899.071	8332.28
899.386	8269.46
899.7	8187.2
900.015	8216.13
900.33	8089.8
900.644	8098.39
900.959	8061.33
901.273	8106.3
901.588	8049.58
901.902	8021.33
902.216	7987.88
902.531	7996.02
902.845	7988.79
903.159	7958.51
903.473	7840.09
903.787	7878.51
904.101	7816.59
904.415	7803.93
904.729	7791.28
905.042	7702.47
905.356	7705.18
905.67	7716.25
905.984	7746.99
906.297	7683.26
906.611	7633.32
906.924	7649.59
907.237	7561.68
907.551	7453.21
907.864	7478.97
908.177	7471.29
908.491	7419.54
908.804	7391.29
909.117	7378.41
909.43	7317.62
909.743	7244.63
910.056	7321.01
910.368	7247.79
910.681	7204.4
910.994	7128.02
911.307	7170.5
911.619	7048.47
911.932	7127.34
912.244	7064.07
912.557	7066.55
912.869	6999.43
913.181	6997.63
913.494	6959.66
913.806	6896.39
914.118	6884.41
914.43	6815.03
914.742	6890.51
915.054	6808.48
915.366	6771.64
915.678	6812.09
915.99	6740.46
916.302	6712.44
916.613	6636.96
916.925	6667.92
917.236	6630.63
917.548	6586.56
917.859	6599.67
918.171	6519.67
918.482	6540.46
918.794	6485.1
919.105	6464.31
919.416	6422.5
919.727	6444.65
920.038	6387.7
920.349	6376.17
920.66	6334.82
920.971	6283.07
921.282	6309.06
921.593	6220.47
921.903	6201.49
922.214	6207.37
922.525	6196.29
922.835	6107.25
923.146	6081.27
923.456	6113.58
923.767	6089.18
924.077	6071.32
924.387	6017.77
924.697	5988.16
925.008	5968.95
925.318	5909.07
925.628	5931.89
925.938	5888.5
926.248	5871.1
926.558	5785.91
926.867	5816.64
927.177	5807.6
927.487	5728.28
927.796	5743.42
928.106	5714.95
928.416	5644.67
928.725	5655.74
929.034	5593.14
929.344	5678.34
929.653	5638.11
929.962	5516.76
930.271	5549.76
930.581	5527.61
930.89	5524.45
931.199	5480.15
931.508	5500.26
931.817	5488.97
932.125	5429.76
932.434	5436.99
932.743	5345.92
933.051	5343.21
933.36	5319.7
933.669	5278.58
933.977	5294.17
934.286	5233.15
934.594	5235.19
934.902	5212.14
935.21	5197.22
935.519	5179.14
935.827	5157.22
936.135	5144.57
936.443	5093.27
936.751	5073.38
937.059	5076.77
937.367	5018.47
937.674	4979.37
937.982	5035.87
938.29	5003.1
938.597	4974.63
938.905	4907.29
939.213	4920.62
939.52	4929.43
939.827	4882.43
940.135	4875.65
940.442	4865.03
940.749	4853.5
941.056	4835.42
941.363	4766.5
941.67	4740.96
941.977	4735.99
942.284	4726.27
942.591	4677.69
942.898	4635.2
943.205	4621.87
943.511	4611.25
943.818	4583.9
944.125	4590.46
944.431	4568.99
944.738	4570.12
945.044	4545.94
945.35	4495.55
945.657	4493.74
945.963	4486.05
946.269	4465.94
946.575	4432.5
946.881	4417.36
947.187	4420.07
947.493	4376.45
947.799	4341.65
948.105	4329.45
948.41	4310.47
948.716	4307.3
949.022	4296
949.327	4244.48
949.633	4249.9
949.938	4239.96
950.244	4244.48
950.549	4179.62
950.854	4174.65
951.16	4185.95
951.465	4127.19
951.77	4111.37
952.075	4098.27
952.38	4020.76
952.685	4089.23
952.99	4005.16
953.294	4016.46
953.599	4033.41
953.904	3983.02
954.209	3967.88
954.513	3926.07
954.818	3973.53
955.122	3945.28
955.426	3923.58
955.731	3885.17
956.035	3885.62
956.339	3849.01
956.643	3853.53
956.948	3832.29
957.252	3782.8
957.556	3778.73
957.86	3770.14
958.163	3776.69
958.467	3761.33
958.771	3768.56
959.075	3695.57
959.378	3674.1
959.682	3678.62
959.985	3639.52
960.289	3651.73
960.592	3609.92
960.896	3611.05
961.199	3608.34
961.502	3626.64
961.805	3554.33
962.108	3542.8
962.411	3531.5
962.714	3529.47
963.017	3510.49
963.32	3514.55
963.623	3468.45
963.926	3465.97
964.228	3462.8
964.531	3437.95
964.833	3446.53
965.136	3379.64
965.438	3393.2
965.741	3371.06
966.043	3341.45
966.345	3366.31
966.648	3324.28
966.95	3296.48
967.252	3334.67
967.554	3286.76
967.856	3286.76
968.158	3246.54
968.46	3256.71
968.761	3205.86
969.063	3213.77
969.365	3194.11
969.666	3215.13
969.968	3159.08
970.269	3119.99
970.571	3121.12
970.872	3105.3
971.174	3100.33
971.475	3064.4
971.776	3092.87
972.077	3084.74
972.378	3064.85
972.679	3037.05
972.98	3032.99
973.281	2985.98
973.582	3014.91
973.883	3017.84
974.183	3007
974.484	2965.64
974.785	2952.76
975.085	2987.79
975.386	2922.48
975.686	2914.57
975.986	2893.78
976.287	2924.97
976.587	2890.39
976.887	2862.37
977.187	2871.41
977.487	2866.89
977.787	2809.71
978.087	2808.81
978.387	2802.48
978.687	2810.62
978.987	2801.35
979.286	2741.92
979.586	2778.98
979.885	2731.98
980.185	2719.55
980.484	2720.23
980.784	2685.88
981.083	2714.12
981.382	2666.67
981.682	2695.82
981.981	2693.11
982.28	2665.54
982.579	2649.04
982.878	2633.9
983.177	2612.66
983.475	2572.88
983.774	2598.19
984.073	2623.28
984.372	2555.26
984.67	2539.89
984.969	2555.71
985.267	2547.8
985.566	2550.74
985.864	2521.59
986.162	2522.49
986.461	2481.14
986.759	2485.65
987.057	2477.75
987.355	2461.93
987.653	2440.23
987.951	2439.1
988.249	2434.36
988.547	2408.82
988.844	2416.05
989.142	2376.28
989.44	2386
989.737	2362.49
990.035	2326.11
990.332	2340.35
990.63	2317.98
990.927	2328.14
991.224	2281.14
991.521	2291.31
991.819	2276.39
992.116	2314.59
992.413	2280.91
992.71	2270.75
993.006	2277.98
993.303	2277.3
993.6	2252.21
993.897	2211.76
994.193	2229.39
994.49	2190.52
994.787	2196.17
995.083	2163.86
995.379	2176.74
995.676	2163.86
995.972	2120.01
996.268	2130.86
996.565	2122.95
996.861	2125.21
997.157	2111.88
997.453	2086.12
997.749	2064.65
998.044	2055.61
998.34	2058.1
998.636	2061.94
998.932	2051.99
999.227	2032.33
999.523	2038.89
999.818	2032.56
1000.114	2002.28
1000.409	1965.44
1000.704	1974.71
1001	1942.84
1001.295	1969.96
1001.59	1975.16
1001.885	1946.01
1002.18	1889.51
1002.475	1906.01
1002.77	1912.56
1003.065	1899
1003.359	1859.68
1003.654	1891.09
1003.949	1889.06
1004.243	1857.2
1004.538	1861.04
1004.832	1856.74
1005.127	1832.34
1005.421	1812.9
1005.715	1803.86
1006.009	1789.85
1006.304	1790.31
1006.598	1782.85
1006.892	1777.88
1007.186	1760.48
1007.48	1741.72
1007.773	1662.85
1008.067	1747.37
1008.361	1742.4
1008.655	1707.6
1008.948	1715.73
1009.242	1706.24
1009.535	1685
1009.829	1671.67
1010.122	1657.65
1010.415	1662.85
1010.708	1634.15
1011.001	1634.6
1011.295	1616.53
1011.588	1602.74
1011.881	1602.06
1012.173	1604.1
1012.466	1600.03
1012.759	1559.35
1013.052	1591.67
1013.344	1553.25
1013.637	1545.79
1013.93	1535.85
1014.222	1520.71
1014.514	1516.87
1014.807	1532.46
1015.099	1506.92
1015.391	1476.64
1015.683	1477.55
1015.976	1467.15
1016.268	1488.17
1016.56	1452.01
1016.851	1474.38
1017.143	1467.15
1017.435	1430.09
1017.727	1427.15
1018.018	1439.35
1018.31	1412.91
1018.602	1433.03
1018.893	1414.27
1019.185	1391.9
1019.476	1400.94
1019.767	1357.1
1020.058	1338.34
1020.35	1369.75
1020.641	1336.53
1020.932	1333.37
1021.223	1306.02
1021.514	1306.02
1021.804	1294.95
1022.095	1313.71
1022.386	1289.53
1022.677	1275.29
1022.967	1308.28
1023.258	1232.13
1023.548	1261.73
1023.839	1255.4
1024.129	1245.91
1024.419	1234.16
1024.709	1225.35
1025	1228.51
1025.29	1206.14
1025.58	1207.95
1025.87	1195.97
1026.16	1189.42
1026.449	1203.88
1026.739	1169.31
1027.029	1158.68
1027.319	1143.54
1027.608	1139.02
1027.898	1137.89
1028.187	1139.02
1028.477	1133.6
1028.766	1095.41
1029.055	1094.96
1029.344	1105.13
1029.634	1107.39
1029.923	1097.89
1030.212	1086.6
1030.501	1071.45
1030.79	1068.97
1031.078	1062.87
1031.367	1054.28
1031.656	1054.96
1031.945	1026.71
1032.233	1026.94
1032.522	1031.46
1032.81	1019.25
1033.099	1034.17
1033.387	1001.17
1033.675	993.26
1033.963	997.11
1034.251	997.11
1034.54	967.28
1034.828	964.57
1035.116	965.02
1035.403	983.32
1035.691	954.62
1035.979	941.29
1036.267	948.97
1036.554	944.68
1036.842	911.01
1037.129	938.35
1037.417	934.96
1037.704	936.09
1037.992	913.94
1038.279	904.45
1038.566	908.3
1038.853	908.3
1039.14	908.3
