Data from hue_340_FLMS001491_67.txt Node
Date: Mon Feb 06 15:43:27 GMT 2017
User: dcchb
Spectrometer: FLMS00149
Trigger mode: 0
Integration Time (sec): 2.000000E-2
Scans to average: 10
Electric dark correction enabled: true
Nonlinearity correction enabled: false
Boxcar width: 0
XAxis mode: Wavelengths
Number of Pixels in Spectrum: 2048
>>>>>Begin Spectral Data<<<<<
341.393	-6.43
341.776	-6.43
342.16	-6.43
342.543	-43.04
342.927	-68.35
343.31	-55.92
343.693	-64.96
344.077	-74
344.46	-58.18
344.843	-57.27
345.226	-39.65
345.61	-31.74
345.993	-28.35
346.376	-12.08
346.759	0.81
347.142	7.58
347.525	44.42
347.908	60.69
348.291	97.98
348.674	95.49
349.057	115.15
349.44	130.75
349.823	134.59
350.206	173
350.588	211.2
350.971	195.15
351.354	236.05
351.737	230.86
352.119	264.07
352.502	255.94
352.884	267.46
353.267	291.42
353.65	287.35
354.032	300.68
354.414	315.83
354.797	310.4
355.179	301.81
355.562	302.94
355.944	326.67
356.326	317.86
356.709	346.11
357.091	322.15
357.473	338.2
357.855	330.06
358.238	327.8
358.62	337.97
359.002	352.43
359.384	352.43
359.766	338.65
360.148	335.94
360.53	330.97
360.912	328.03
361.294	346.56
361.676	336.39
362.057	330.97
362.439	318.31
362.821	332.55
363.203	362.38
363.584	323.28
363.966	320.57
364.348	333.9
364.729	334.13
365.111	321.47
365.493	302.72
365.874	312.21
366.256	312.89
366.637	322.83
367.019	312.89
367.4	310.63
367.781	307.46
368.163	333.23
368.544	319.67
368.925	303.4
369.306	318.31
369.688	309.72
370.069	311.76
370.45	311.53
370.831	311.08
371.212	304.3
371.593	334.58
371.974	317.18
372.355	324.19
372.736	318.99
373.117	309.5
373.498	302.72
373.879	304.98
374.26	312.89
374.641	320.34
375.021	318.31
375.402	313.34
375.783	299.55
376.163	327.12
376.544	314.92
376.925	326.22
377.305	329.38
377.686	320.8
378.066	321.25
378.447	317.41
378.827	332.1
379.208	315.83
379.588	321.02
379.968	317.18
380.349	328.25
380.729	312.21
381.109	313.34
381.489	334.36
381.87	334.13
382.25	342.49
382.63	319.21
383.01	338.42
383.39	350.85
383.77	329.84
384.15	334.36
384.53	332.32
384.91	335.03
385.29	339.78
385.67	338.42
386.049	337.97
386.429	350.17
386.809	363.06
387.189	337.97
387.568	334.81
387.948	368.7
388.328	361.93
388.707	370.74
389.087	331.42
389.466	354.92
389.846	354.92
390.225	362.15
390.605	336.39
390.984	365.77
391.363	346.33
391.743	396.95
392.122	350.4
392.501	355.15
392.881	340.68
393.26	355.82
393.639	358.76
394.018	375.71
394.397	375.71
394.776	366.45
395.155	359.44
395.534	354.24
395.913	384.07
396.292	378.42
396.671	379.55
397.05	384.75
397.429	389.72
397.808	359.44
398.186	389.5
398.565	376.84
398.944	373.68
399.323	390.85
399.701	398.08
400.08	398.53
400.458	397.18
400.837	403.28
401.215	394.69
401.594	406.67
401.972	391.76
402.351	388.82
402.729	404.41
403.107	428.36
403.486	384.52
403.864	417.74
404.242	399.89
404.62	394.92
404.999	404.86
405.377	409.61
405.755	420.68
406.133	399.21
406.511	413.68
406.889	428.59
407.267	410.96
407.645	432.43
408.023	421.58
408.401	428.82
408.779	445.54
409.156	449.38
409.534	419.55
409.912	418.42
410.29	449.38
410.667	468.59
411.045	452.32
411.422	448.7
411.8	442.6
412.178	453.9
412.555	483.96
412.933	473.56
413.31	468.82
413.687	463.84
414.065	469.04
414.442	481.92
414.819	497.97
415.197	480.57
415.574	482.6
415.951	484.63
416.328	514.46
416.705	504.52
417.082	524.18
417.46	527.57
417.837	532.99
418.214	524.63
418.591	531.41
418.967	519.44
419.344	521.47
419.721	526.21
420.098	529.38
420.475	558.76
420.852	536.38
421.228	559.66
421.605	556.27
421.982	539.32
422.358	567.57
422.735	552.2
423.111	561.02
423.488	588.59
423.864	550.62
424.241	587.68
424.617	589.26
424.994	587.23
425.37	585.42
425.746	603.28
426.123	585.2
426.499	619.09
426.875	594.46
427.251	642.14
427.627	613.22
428.003	623.84
428.379	656.61
428.756	616.16
429.132	665.42
429.507	644.86
429.883	669.49
430.259	658.64
430.635	680.34
431.011	667
431.387	692.31
431.763	704.29
432.138	695.7
432.514	707.68
432.89	700.67
433.265	700
433.641	720.33
434.016	718.53
434.392	720.11
434.767	725.98
435.143	726.44
435.518	756.49
435.894	768.69
436.269	751.07
436.644	758.3
437.02	776.6
437.395	765.98
437.77	779.09
438.145	795.36
438.52	815.25
438.895	804.63
439.271	802.37
439.646	820.44
440.021	812.99
440.395	819.54
440.77	835.13
441.145	836.49
441.52	855.7
441.895	831.07
442.27	844.4
442.645	840.78
443.019	848.47
443.394	846.66
443.769	873.78
444.143	871.06
444.518	877.84
444.892	883.95
445.267	820.9
445.641	853.21
446.016	872.65
446.39	895.02
446.764	881.69
447.139	889.14
447.513	896.83
447.887	884.62
448.262	916.71
448.636	899.31
449.01	908.58
449.384	911.52
449.758	932.31
450.132	908.35
450.506	934.79
450.88	924.17
451.254	928.01
451.628	929.59
452.002	965.3
452.376	950.38
452.75	953.55
453.123	944.28
453.497	971.63
453.871	982.7
454.244	977.5
454.618	1004.62
454.992	978.41
455.365	1016.6
455.739	1053.43
456.112	1027.44
456.486	1047.56
456.859	1025.64
457.232	1051.62
457.606	1054.56
457.979	1081.45
458.352	1060.89
458.725	1077.16
459.099	1087.78
459.472	1087.56
459.845	1118.74
460.218	1112.64
460.591	1110.61
460.964	1108.12
461.337	1151.74
461.71	1123.94
462.083	1158.97
462.456	1205.52
462.829	1169.14
463.201	1217.27
463.574	1177.05
463.947	1194.9
464.32	1219.53
464.692	1230.83
465.065	1241.68
465.438	1260.21
465.81	1271.96
466.183	1249.36
466.555	1286.42
466.928	1257.72
467.3	1311.51
467.672	1288.91
468.045	1318.28
468.417	1339.07
468.789	1342.24
469.161	1353.76
469.534	1360.09
469.906	1406.64
470.278	1424.27
470.65	1425.85
471.022	1450.71
471.394	1451.61
471.766	1504.49
472.138	1487.77
472.51	1490.48
472.882	1525.28
473.253	1559.86
473.625	1584.04
473.997	1579.07
474.369	1601.21
474.74	1582.23
475.112	1644.83
475.484	1668.78
475.855	1676.47
476.227	1692.96
476.598	1726.86
476.97	1743.13
477.341	1760.53
477.713	1812.96
478.084	1799.4
478.455	1871.94
478.827	1842.79
479.198	1908.78
479.569	1898.83
479.94	1940.64
480.311	1974.54
480.682	2016.57
481.053	2050.92
481.424	2047.08
481.795	2080.3
482.166	2097.47
482.537	2167.3
482.908	2173.86
483.279	2193.06
483.65	2251.37
484.021	2282.1
484.391	2273.97
484.762	2280.75
485.133	2332.27
485.503	2370.23
485.874	2415.43
486.244	2438.93
486.615	2478.71
486.985	2501.08
487.356	2525.94
487.726	2552.83
488.097	2585.37
488.467	2633.73
488.837	2644.58
489.207	2668.31
489.578	2730.45
489.948	2743.33
490.318	2761.41
490.688	2781.3
491.058	2826.49
491.428	2877.34
491.798	2853.16
492.168	2916.66
492.538	2913.72
492.908	2955.3
493.278	2962.99
493.648	2991.91
494.017	3066.49
494.387	3089.09
494.757	3084.11
495.126	3075.3
495.496	3139.03
495.866	3112.59
496.235	3148.97
496.605	3201.4
496.974	3214.73
497.344	3243.43
497.713	3272.58
498.082	3248.86
498.452	3323.66
498.821	3291.79
499.19	3317.78
499.559	3367.27
499.928	3325.92
500.298	3441.84
500.667	3388.06
501.036	3441.62
501.405	3476.19
501.774	3470.54
502.143	3492.69
502.512	3511.22
502.88	3536.98
503.249	3502.86
503.618	3558
503.987	3500.83
504.356	3566.36
504.724	3615.17
505.093	3625.12
505.462	3580.37
505.83	3656.08
506.199	3664.66
506.567	3691.33
506.936	3722.06
507.304	3707.15
507.672	3711.22
508.041	3717.09
508.409	3765.45
508.777	3771.1
509.145	3739.01
509.514	3788.28
509.882	3791.21
510.25	3815.85
510.618	3843.64
510.986	3837.99
511.354	3871.21
511.722	3865.34
512.09	3850.65
512.458	3921.83
512.826	3946.24
513.193	3963.64
513.561	3892.68
513.929	3928.16
514.297	3962.06
514.664	3979.23
515.032	4010.19
515.4	4051.32
515.767	4027.82
516.135	4052.22
516.502	4057.65
516.869	4108.04
517.237	4107.59
517.604	4116.63
517.972	4110.75
518.339	4173.35
518.706	4121.6
519.073	4151.88
519.44	4125.22
519.808	4209.51
520.175	4163.41
520.542	4238.43
520.909	4209.51
521.276	4241.15
521.643	4292.44
522.009	4282.27
522.376	4282.95
522.743	4334.93
523.11	4346.68
523.477	4336.28
523.843	4388.71
524.21	4382.16
524.577	4398.43
524.943	4411.31
525.31	4451.99
525.676	4481.37
526.043	4487.47
526.409	4557.75
526.776	4560.69
527.142	4590.97
527.508	4582.61
527.874	4600.68
528.241	4599.78
528.607	4686.11
528.973	4703.51
529.339	4713
529.705	4751.19
530.071	4712.09
530.437	4784.63
530.803	4836.38
531.169	4823.5
531.535	4769.04
531.901	4865.76
532.267	4886.78
532.632	4888.59
532.998	4891.07
533.364	4915.7
533.73	4955.48
534.095	5003.39
534.461	4990.5
534.826	5001.13
535.192	4997.74
535.557	5076.38
535.923	5070.28
536.288	5101.46
536.653	5109.82
537.019	5086.1
537.384	5153.44
537.749	5174
538.114	5181.69
538.479	5209.93
538.845	5209.93
539.21	5197.28
539.575	5208.58
539.94	5199.31
540.305	5299.65
540.67	5303.04
541.034	5306.43
541.399	5362.47
541.764	5413.09
542.129	5364.96
542.494	5451.74
542.858	5385.97
543.223	5480.66
543.587	5453.77
543.952	5443.37
544.316	5550.72
544.681	5513.88
545.045	5524.28
545.41	5592.07
545.774	5633.2
546.138	5581.9
546.503	5644.5
546.867	5676.36
547.231	5722.91
547.595	5708.23
547.959	5739.64
548.324	5769.92
548.688	5753.87
549.052	5803.14
549.416	5833.87
549.779	5792.97
550.143	5809.69
550.507	5876.58
550.871	5866.41
551.235	5839.3
551.599	5890.59
551.962	5905.28
552.326	5946.86
552.689	5959.97
553.053	5996.58
553.417	5972.4
553.78	6034.54
554.143	6065.05
554.507	6012.4
554.87	6099.85
555.234	6138.5
555.597	6070.25
555.96	6139.85
556.323	6170.13
556.686	6154.32
557.05	6210.13
557.413	6207.42
557.776	6197.48
558.139	6278.38
558.502	6261.21
558.865	6289.23
559.228	6346.63
559.59	6334.65
559.953	6377.13
560.316	6414.2
560.679	6367.87
561.041	6382.11
561.404	6503.01
561.767	6559.73
562.129	6485.38
562.492	6536.45
562.854	6551.37
563.217	6548.2
563.579	6568.32
563.941	6663
564.304	6599.05
564.666	6667.75
565.028	6728.09
565.39	6681.08
565.753	6696.9
566.115	6752.27
566.477	6782.55
566.839	6829.55
567.201	6837.24
567.563	6862.77
567.925	6832.04
568.287	6891.7
568.648	6908.42
569.01	6918.59
569.372	6966.72
569.734	7017.8
570.095	6993.84
570.457	7022.54
570.819	7043.56
571.18	7144.12
571.542	7130.34
571.903	7209.2
572.265	7208.98
572.626	7313.16
572.987	7265.25
573.349	7313.38
573.71	7315.64
574.071	7430.89
574.432	7468.41
574.794	7507.73
575.155	7568.97
575.516	7514.96
575.877	7606.71
576.238	7691.68
576.599	7710.43
576.96	7802.86
577.32	7853.71
577.681	7952.69
578.042	8041.95
578.403	8125.56
578.763	8163.75
579.124	8277.88
579.485	8320.36
579.845	8440.58
580.206	8479
580.566	8629.5
580.927	8677.19
581.287	8785.21
581.648	8861.36
582.008	8993.34
582.368	9247.57
582.728	9342.93
583.089	9466.09
583.449	9576.15
583.809	9704.96
584.169	9896.82
584.529	9996.25
584.889	10194.89
585.249	10385.39
585.609	10523.01
585.969	10693.86
586.329	10829.22
586.688	10964.58
587.048	11223.56
587.408	11441.86
587.768	11614.29
588.127	11762.76
588.487	11976.54
588.846	12331.1
589.206	12524.54
589.565	12684.77
589.925	13021.25
590.284	13177.86
590.643	13451.07
591.003	13759.99
591.362	14033.88
591.721	14255.35
592.08	14467.77
592.44	14777.59
592.799	15078.83
593.158	15297.13
593.517	15553.62
593.876	15799.71
594.235	16024.34
594.593	16362.86
594.952	16637.66
595.311	16840.36
595.67	17142.73
596.029	17512.66
596.387	17806.89
596.746	18132.76
597.104	18296.6
597.463	18508.34
597.822	18994.2
598.18	19103.81
598.538	19449.11
598.897	19849.55
599.255	19898.59
599.613	20421.74
599.972	20565.24
600.33	20906.24
600.688	21162.28
601.046	21484.99
601.404	21849.27
601.762	22100.11
602.12	22440.44
602.478	22649.93
602.836	22940.31
603.194	23073.42
603.552	23402
603.91	23553.18
604.268	23867.52
604.625	24041.53
604.983	24380.5
605.341	24492.82
605.698	24796.54
606.056	25132.8
606.413	25273.13
606.771	25675.38
607.128	25921.25
607.485	26010.97
607.843	26250.74
608.2	26574.8
608.557	26861.34
608.914	26901.79
609.272	27356.7
609.629	27454.55
609.986	27850.47
610.343	27842.56
610.7	28285.26
611.057	28426.05
611.414	28567.29
611.771	28733.16
612.127	29115.52
612.484	29233.03
612.841	29423.99
613.198	29436.64
613.554	29725.9
613.911	29996.63
614.267	30230.29
614.624	30147.13
614.98	30471.64
615.337	30880.67
615.693	30900.78
616.05	31161.57
616.406	31311.85
616.762	31278.85
617.118	31353.65
617.475	31495.8
617.831	31750.48
618.187	32014.88
618.543	32046.97
618.899	32289.9
619.255	32540.74
619.611	32380.52
619.967	32660.96
620.323	32798.59
620.678	32718.81
621.034	32881.97
621.39	33099.82
621.746	33044
622.101	33619.81
622.457	33321.06
622.812	33482.86
623.168	33688.51
623.523	33641.73
623.879	33905.22
624.234	33779.35
624.589	34020.02
624.945	34088.5
625.3	34135.05
625.655	34183.64
626.01	34280.58
626.365	34437.64
626.72	34505.89
627.075	34496.85
627.43	34574.81
627.785	34514.7
628.14	34674.47
628.495	34760.8
628.85	34844.63
629.205	34695.26
629.559	34943.84
629.914	34735.03
630.269	34956.95
630.623	35002.37
630.978	34963.5
631.332	35045.53
631.687	35172.54
632.041	35081.01
632.396	35118.98
632.75	35022.48
633.104	35221.57
633.459	35101.8
633.813	35310.61
634.167	35095.25
634.521	35126.21
634.875	35280.1
635.229	35287.79
635.583	35138.64
635.937	35273.55
636.291	35080.79
636.645	35308.35
636.999	35110.39
637.352	35236.49
637.706	35138.19
638.06	35345.86
638.413	35137.73
638.767	35193.78
639.121	35307
639.474	35016.61
639.828	35206.21
640.181	35381.8
640.534	35357.16
640.888	35250.95
641.241	34979.32
641.594	35173.44
641.947	35092.54
642.301	35141.58
642.654	35143.61
643.007	35123.05
643.36	35215.02
643.713	35112.42
644.066	35366.2
644.419	35074.46
644.771	34879.44
645.124	34456.62
645.477	34497.75
645.83	34314.48
646.182	34339.11
646.535	34174.37
646.888	34245.33
647.24	34069.51
647.593	34149.29
647.945	34117.2
648.298	34000.59
648.65	33997.2
649.002	34006.46
649.355	34080.59
649.707	34109.06
650.059	34261.6
650.411	34510.18
650.763	34550.63
651.115	34954.24
651.467	34858.19
651.819	34863.17
652.171	34732.1
652.523	34665.43
652.875	34688.03
653.227	34617.3
653.578	34830.62
653.93	34807.57
654.282	34597.64
654.633	34574.36
654.985	34663.17
655.337	34627.92
655.688	34544.3
656.039	34702.49
656.391	34444.42
656.742	34493.91
657.094	34540.01
657.445	34602.16
657.796	34533.91
658.147	34449.84
658.498	34415.72
658.849	34505.43
659.2	34419.79
659.551	34520.8
659.902	34581.36
660.253	34405.55
660.604	34572.33
660.955	34297.76
661.306	34429.05
661.656	34524.42
662.007	34462.95
662.358	34340.24
662.708	34400.58
663.059	34442.39
663.409	34163.75
663.76	34414.82
664.11	34540.01
664.461	34555.6
664.811	34302.05
665.161	34430.18
665.511	34233.8
665.862	34339.56
666.212	34438.54
666.562	34403.06
666.912	34251.43
667.262	34193.58
667.612	34440.58
667.962	34284.88
668.312	34259.34
668.662	34481.03
669.011	34379.11
669.361	34316.29
669.711	34191.77
670.06	34274.48
670.41	34240.36
670.76	34183.18
671.109	34370.3
671.459	34245.55
671.808	34083.52
672.157	34212.79
672.507	34012.34
672.856	34087.14
673.205	34130.53
673.554	34276.06
673.904	34045.79
674.253	34211.2
674.602	34077.2
674.951	33660.94
675.3	33572.35
675.649	33955.17
675.998	33944.55
676.346	33938.67
676.695	34073.81
677.044	33843.98
677.393	34033.81
677.741	33946.35
678.09	33774.83
678.438	33954.26
678.787	33893.7
679.135	33816.19
679.484	33561.73
679.832	33877.65
680.181	33483.31
680.529	33656.42
680.877	33610.77
681.225	33549.53
681.573	33750.2
681.922	33492.13
682.27	33382.07
682.618	33525.12
682.966	33205.13
683.314	33537.1
683.661	33359.7
684.009	33234.06
684.357	33128.3
684.705	33135.53
685.053	33285.13
685.4	33095.08
685.748	32950
686.095	32941.86
686.443	32728.76
686.79	32792.03
687.138	32891.01
687.485	32779.38
687.832	32685.37
688.18	32727.85
688.527	32495.09
688.874	32579.16
689.221	32463.45
689.568	32390.69
689.915	32319.28
690.262	32286.96
690.609	32184.37
690.956	32029.79
691.303	32072.73
691.65	31986.86
691.997	32012.84
692.344	31814.21
692.69	31822.34
693.037	31795
693.383	31493.54
693.73	31691.5
694.077	31464.16
694.423	31464.16
694.769	31414.44
695.116	31261.9
695.462	31373.54
695.808	31190.04
696.155	31074.34
696.501	30974.45
696.847	30922.93
697.193	30875.93
697.539	30927.45
697.885	30667.34
698.231	30679.55
698.577	30560.68
698.923	30487.24
699.269	30430.74
699.614	30202.27
699.96	30204.3
700.306	30180.8
700.651	30015.38
700.997	29791.43
701.342	29849.29
701.688	29895.16
702.033	29738.33
702.379	29702.62
702.724	29609.74
703.069	29737.2
703.415	29303.31
703.76	29402.07
704.105	29478.45
704.45	29445
704.795	29144.9
705.14	29142.19
705.485	29059.7
705.83	28992.36
706.175	28959.37
706.52	28902.42
706.865	28754.17
707.209	28764.34
707.554	28605.25
707.899	28805.02
708.243	28581.07
708.588	28570.68
708.932	28346.5
709.277	28385.6
709.621	28473.5
709.966	28327.07
710.31	28288.65
710.654	28044.59
710.998	28157.58
711.342	28037.36
711.687	27961.88
712.031	27824.48
712.375	27727.08
712.719	27821.54
713.063	27778.83
713.407	27899.51
713.75	27744.93
714.094	27647.99
714.438	27535
714.782	27642.34
715.125	27454.32
715.469	27516.24
715.812	27298.39
716.156	27182.24
716.499	27095.01
716.843	27244.61
717.186	27102.92
717.53	27233.54
717.873	27161.45
718.216	27079.42
718.559	26898.18
718.902	26789.25
719.246	26848.01
719.589	26632.87
719.932	26709.93
720.275	26617.28
720.617	26632.87
720.96	26538.64
721.303	26570.73
721.646	26569.82
721.989	26380.45
722.331	26415.48
722.674	26348.81
723.016	26305.42
723.359	26185.43
723.701	26297.06
724.044	26187.24
724.386	25935.49
724.729	26238.08
725.071	26178.87
725.413	26061.14
725.755	26020.01
726.097	25840.13
726.439	25803.29
726.782	25745.21
727.124	25865.44
727.465	25769.85
727.807	25742.28
728.149	25622.28
728.491	25716.74
728.833	25709.51
729.175	25575.05
729.516	25561.71
729.858	25426.8
730.199	25616.4
730.541	25483.07
730.882	25410.76
731.224	25416.86
731.565	25294.83
731.906	25329.86
732.248	25332.34
732.589	25242.85
732.93	25057.77
733.271	25082.86
733.612	25197.2
733.953	25132.12
734.294	25035.18
734.635	24935.29
734.976	25030.2
735.317	24949.53
735.658	24842.64
735.999	24808.97
736.339	24855.52
736.68	24794.5
737.021	24649.2
737.361	24655.75
737.702	24753.83
738.042	24697.56
738.383	24597.9
738.723	24705.01
739.063	24524.23
739.404	24509.09
739.744	24442.65
740.084	24409.65
740.424	24366.72
740.764	24448.07
741.104	24506.83
741.444	24264.35
741.784	24249.43
742.124	24268.87
742.464	24186.16
742.804	24094.41
743.143	24152.03
743.483	24157.23
743.823	23900.29
744.162	24008.99
744.502	24036.56
744.841	23841.08
745.181	23887.63
745.52	23859.61
745.86	23986.16
746.199	23856.45
746.538	23850.8
746.877	23831.82
747.216	23885.15
747.556	23800.63
747.895	23738.03
748.234	23673.85
748.573	23581.2
748.911	23507.76
749.25	23604.93
749.589	23547.53
749.928	23444.26
750.267	23519.73
750.605	23365.84
750.944	23397.7
751.283	23271.83
751.621	23322.45
751.96	23198.84
752.298	23116.58
752.636	23100.08
752.975	23099.18
753.313	22991.39
753.651	23052.4
753.989	22894.44
754.327	22866.87
754.666	22724.95
755.004	22881.11
755.342	22722.69
755.679	22792.3
756.017	22606.54
756.355	22671.62
756.693	22471.4
757.031	22655.8
757.368	22440.67
757.706	22475.92
758.044	22237.96
758.381	22386.66
758.719	22220.56
759.056	22300.33
759.394	22228.92
759.731	22046.1
760.068	22143.5
760.405	21908.7
760.743	21893.11
761.08	21901.92
761.417	21805.88
761.754	21741.93
762.091	21698.99
762.428	21598.66
762.765	21537.41
763.102	21532.89
763.438	21434.14
763.775	21346.23
764.112	21302.39
764.449	21406.8
764.785	21226.46
765.122	21118.89
765.458	21007.94
765.795	20967.26
766.131	20977.88
766.467	20850.88
766.804	20788.96
767.14	20706.25
767.476	20674.61
767.812	20548.29
768.148	20600.26
768.485	20492.24
768.821	20473.26
769.157	20411.79
769.492	20354.17
769.828	20341.29
770.164	20062.42
770.5	20053.39
770.836	20008.41
771.171	19894.97
771.507	19864.24
771.842	19694.98
772.178	19713.28
772.513	19695.2
772.849	19609.56
773.184	19558.03
773.519	19523
773.855	19500.18
774.19	19292.28
774.525	19316.91
774.86	19308.32
775.195	19296.79
775.53	19073.52
775.865	19058.16
776.2	18972.06
776.535	18915.56
776.87	18794.21
777.205	18669.69
777.539	18593.76
777.874	18703.82
778.209	18594.89
778.543	18562.8
778.878	18394.67
779.212	18401
779.547	18268.35
779.881	18209.59
780.215	18053.66
780.55	18183.15
780.884	18036.04
781.218	17995.36
781.552	17995.36
781.886	17987.22
782.22	17821.58
782.554	17794.24
782.888	17601.92
783.222	17572.55
783.556	17391.31
783.889	17391.31
784.223	17342.27
784.557	17283.51
784.89	17317.86
785.224	17133.46
785.557	17075.38
785.891	17041.03
786.224	17003.75
786.558	16959.91
786.891	16872.9
787.224	16796.07
787.557	16677.65
787.891	16743.19
788.224	16656.64
788.557	16564.44
788.89	16556.08
789.223	16455.06
789.556	16392.46
789.888	16417.1
790.221	16279.93
790.554	16169.87
790.887	16279.47
791.219	16088.52
791.552	16143.43
791.884	16025.02
792.217	16053.04
792.549	15980.5
792.882	15819.82
793.214	15716.78
793.546	15853.5
793.879	15692.37
794.211	15624.35
794.543	15628.19
794.875	15556.33
795.207	15496.44
795.539	15463.68
795.871	15528.76
796.203	15378.03
796.535	15258.71
796.867	15178.94
797.198	15212.83
797.53	15179.84
797.862	15023.01
798.193	15018.49
798.525	14930.36
798.856	15057.36
799.188	14869.11
799.519	14783.47
799.85	14725.62
800.182	14747.08
800.513	14710.93
800.844	14550.93
801.175	14599.29
801.506	14571.04
801.837	14486.07
802.168	14545.96
802.499	14434.78
802.83	14466.87
803.161	14329.02
803.491	14305.06
803.822	14328.79
804.153	14228.23
804.483	14062.58
804.814	14108.23
805.145	14040.21
805.475	14046.09
805.805	14058.74
806.136	13983.26
806.466	13902.13
806.796	13900.55
807.126	13772.65
807.457	13830.95
807.787	13866.88
808.117	13694.68
808.447	13652.88
808.777	13723.16
809.107	13653.1
809.436	13580.11
809.766	13586.21
810.096	13543.27
810.426	13422.37
810.755	13440.45
811.085	13474.58
811.414	13350.96
811.744	13310.51
812.073	13269.16
812.403	13353.22
812.732	13207.01
813.061	13165.88
813.39	13096.51
813.719	13081.82
814.049	13193.23
814.378	13065.32
814.707	13047.47
815.036	13037.98
815.365	12973.35
815.693	12825.78
816.022	12875.95
816.351	12855.61
816.68	12742.62
817.008	12804.99
817.337	12717.76
817.665	12644.09
817.994	12703.52
818.322	12685.67
818.651	12574.94
818.979	12515.05
819.307	12641.6
819.636	12546.01
819.964	12425.34
820.292	12463.53
820.62	12524.32
820.948	12386.92
821.276	12533.58
821.604	12412.68
821.932	12480.48
822.259	12459.01
822.587	12432.79
822.915	12401.16
823.243	12468.95
823.57	12377.65
823.898	12404.09
824.225	12371.55
824.553	12306.47
824.88	12346.7
825.207	12384.43
825.535	12272.57
825.862	12407.26
826.189	12281.16
826.516	12394.38
826.843	12442.96
827.17	12333.36
827.497	12490.87
827.824	12401.38
828.151	12468.73
828.478	12372.01
828.805	12408.61
829.131	12355.28
829.458	12320.48
829.785	12331.1
830.111	12332.46
830.438	12443.42
830.764	12337.66
831.09	12358.22
831.417	12292.23
831.743	12330.65
832.069	12302.4
832.395	12280.48
832.722	12244.1
833.048	12232.35
833.374	12262.86
833.7	12325.23
834.026	12226.02
834.351	12216.76
834.677	12184.67
835.003	12259.01
835.329	12188.73
835.654	12176.76
835.98	12109.41
836.306	12169.07
836.631	12018.12
836.956	12164.33
837.282	12101.5
837.607	12045.23
837.932	12014.73
838.258	12038
838.583	12039.58
838.908	11946.48
839.233	11939.25
839.558	11893.83
839.883	11821.74
840.208	11821.96
840.533	11836.43
840.858	11842.08
841.182	11841.85
841.507	11824.67
841.832	11718.46
842.156	11727.95
842.481	11696.77
842.805	11636.88
843.13	11724.34
843.454	11615.64
843.778	11624.45
844.103	11477.79
844.427	11569.54
844.751	11550.78
845.075	11529.54
845.399	11478.24
845.723	11370.22
846.047	11483.44
846.371	11347.17
846.695	11369.32
847.019	11224.46
847.343	11251.81
847.666	11106.05
847.99	11143.11
848.313	11086.62
848.637	11024.24
848.96	11016.33
849.284	10859.73
849.607	10876
849.931	10897.47
850.254	10784.25
850.577	10790.35
850.9	10696.8
851.223	10671.03
851.546	10602.11
851.869	10555.1
852.192	10628.1
852.515	10517.59
852.838	10475.78
853.161	10448.44
853.483	10388.78
853.806	10328.67
854.129	10405.05
854.451	10323.7
854.774	10245.28
855.096	10229.24
855.419	10218.62
855.741	10231.04
856.063	10114.21
856.385	10114.44
856.708	10019.98
857.03	10099.52
857.352	10041.22
857.674	10010.71
857.996	9897.95
858.318	9897.72
858.64	9860.66
858.961	9875.57
859.283	9854.56
859.605	9874.44
859.926	9857.04
860.248	9763.03
860.57	9731.17
860.891	9713.77
861.212	9678.74
861.534	9619.08
861.855	9636.48
862.176	9569.37
862.498	9658.63
862.819	9608.91
863.14	9571.85
863.461	9495.47
863.782	9565.75
864.103	9511.29
864.424	9499.76
864.745	9495.92
865.065	9420.67
865.386	9437.62
865.707	9408.92
866.027	9370.73
866.348	9401.01
866.668	9380.67
866.989	9320.79
867.309	9242.37
867.63	9314.46
867.95	9271.97
868.27	9210.28
868.59	9217.74
868.91	9266.1
869.23	9243.5
869.55	9114.46
869.87	9233.1
870.19	9184.07
870.51	9208.25
870.83	9161.92
871.15	9157.17
871.469	9161.92
871.789	9199.43
872.109	9081.92
872.428	9064.3
872.748	9106.33
873.067	9136.16
873.386	9121.02
873.706	8999.66
874.025	9030.4
874.344	8977.29
874.663	9013.22
874.982	8934.36
875.301	8914.92
875.62	8937.97
875.939	8885.09
876.258	8933.23
876.577	8900.68
876.896	8880.12
877.214	8789.5
877.533	8803.51
877.852	8791.76
878.17	8884.87
878.489	8799.9
878.807	8784.3
879.125	8776.39
879.444	8755.83
879.762	8726.45
880.08	8691.2
880.398	8741.14
880.716	8728.71
881.034	8641.03
881.352	8650.97
881.67	8714.7
881.988	8609.17
882.306	8639.22
882.624	8630.41
882.941	8578.66
883.259	8589.28
883.577	8496.17
883.894	8492.79
884.212	8433.58
884.529	8482.84
884.846	8452.79
885.164	8448.49
885.481	8345.9
885.798	8427.48
886.115	8363.07
886.432	8399.91
886.75	8283.98
887.067	8316.29
887.383	8281.94
887.7	8325.56
888.017	8271.77
888.334	8169.4
888.651	8193.13
888.967	8221.38
889.284	8155.17
889.6	8190.19
889.917	8084.43
890.233	8065.9
890.55	8079.69
890.866	8099.12
891.182	8018.45
891.498	8014.38
891.815	7954.72
892.131	7960.37
892.447	7979.35
892.763	7881.28
893.079	7943.2
893.395	7866.59
893.71	7855.74
894.026	7823.2
894.342	7799.47
894.657	7714.95
894.973	7819.58
895.289	7776.42
895.604	7710.88
895.92	7610.77
896.235	7590.44
896.55	7599.02
896.865	7584.79
897.181	7535.75
897.496	7572.81
897.811	7537.56
898.126	7511.12
898.441	7466.6
898.756	7465.69
899.071	7406.94
899.386	7377.11
899.7	7306.15
900.015	7278.35
900.33	7328.3
900.644	7314.29
900.959	7271.8
901.273	7249.2
901.588	7205.36
901.902	7240.84
902.216	7141.41
902.531	7158.13
902.845	7104.35
903.159	7029.55
903.473	7034.52
903.787	7041.75
904.101	6968.76
904.415	7001.75
904.729	6945.03
905.042	6933.73
905.356	6930.79
905.67	6882.88
905.984	6895.31
906.297	6853.51
906.611	6785.71
906.924	6799.5
907.237	6764.02
907.551	6745.49
907.864	6681.08
908.177	6698.48
908.491	6719.27
908.804	6647.18
909.117	6575.32
909.43	6613.74
909.743	6531.71
910.056	6543.68
910.368	6549.11
910.681	6435.66
910.994	6480.41
911.307	6418.94
911.619	6354.08
911.932	6347.53
912.244	6336.01
912.557	6315.44
912.869	6319.73
913.181	6258.27
913.494	6262.34
913.806	6216.23
914.118	6193.18
914.43	6167.42
914.742	6178.27
915.054	6105.05
915.366	6094.66
915.678	6059.4
915.99	6063.24
916.302	5954.77
916.613	5985.96
916.925	5929.69
917.236	5917.03
917.548	5932.17
917.859	5915.23
918.171	5865.06
918.482	5870.26
918.794	5784.61
919.105	5830.93
919.416	5741.9
919.727	5767.21
920.038	5716.81
920.349	5646.08
920.66	5691.05
920.971	5692.86
921.282	5689.24
921.593	5597.04
921.903	5597.95
922.214	5542.81
922.525	5514.33
922.835	5505.52
923.146	5484.73
923.456	5459.87
923.767	5450.83
924.077	5420.1
924.387	5374.68
924.697	5392.3
925.008	5325.86
925.318	5302.81
925.628	5329.03
925.938	5289.93
926.248	5272.98
926.558	5218.07
926.867	5189.14
927.177	5197.5
927.487	5173.78
927.796	5167.67
928.106	5130.84
928.416	5078.64
928.725	5085.42
929.034	5055.59
929.344	5055.14
929.653	5060.33
929.962	4989.37
930.271	4988.47
930.581	4990.05
930.89	5008.58
931.199	4940.11
931.508	4927
931.817	4898.53
932.125	4864.41
932.434	4867.12
932.743	4821.24
933.051	4807.91
933.36	4767.46
933.669	4743.73
933.977	4739.66
934.286	4702.6
934.594	4714.13
934.902	4632.32
935.21	4643.17
935.519	4639.33
935.827	4627.8
936.135	4591.87
936.443	4547.35
936.751	4553.23
937.059	4584.41
937.367	4551.87
937.674	4519.78
937.982	4493.34
938.29	4491.76
938.597	4443.85
938.905	4434.81
939.213	4400.92
939.52	4406.56
939.827	4402.5
940.135	4394.59
940.442	4339.9
940.749	4363.63
941.056	4349.84
941.363	4311.88
941.67	4285.66
941.977	4255.83
942.284	4240.02
942.591	4184.2
942.898	4205.21
943.205	4187.59
943.511	4183.75
943.818	4107.14
944.125	4138.55
944.431	4091.09
944.738	4104.88
945.044	4087.93
945.35	4063.07
945.657	4076.4
945.963	3972.68
946.269	3981.94
946.575	4018.1
946.881	3972.68
947.187	3958.89
947.493	3953.24
947.799	3962.73
948.105	3907.59
948.41	3878.9
948.716	3880.48
949.022	3836.64
949.327	3830.08
949.633	3848.39
949.938	3819.46
950.244	3808.61
950.549	3762.06
950.854	3772.68
951.16	3772.91
951.465	3714.61
951.77	3734.04
952.075	3702.85
952.38	3645.91
952.685	3693.36
952.99	3600.03
953.294	3643.2
953.599	3624.66
953.904	3599.81
954.209	3602.29
954.513	3574.95
954.818	3544.89
955.122	3545.34
955.426	3490.43
955.731	3504.44
956.035	3485.46
956.339	3482.75
956.643	3463.76
956.948	3455.86
957.252	3466.02
957.556	3429.64
957.86	3420.83
958.163	3423.54
958.467	3393.03
958.771	3326.82
959.075	3370.21
959.378	3324.11
959.682	3311.23
959.985	3316.42
960.289	3320.04
960.592	3261.51
960.896	3311.68
961.199	3273.04
961.502	3254.73
961.805	3225.13
962.108	3189.87
962.411	3208.18
962.714	3114.17
963.017	3177.22
963.32	3182.19
963.623	3137.22
963.926	3139.25
964.228	3077.56
964.531	3106.49
964.833	3071.01
965.136	3078.24
965.438	3058.35
965.741	3048.86
966.043	3044.11
966.345	2997.11
966.648	2986.94
966.95	2990.56
967.252	2956.21
967.554	2977.68
967.856	2918.24
968.158	2923.67
968.46	2925.7
968.761	2918.69
969.063	2907.85
969.365	2901.29
969.666	2893.84
969.968	2871.92
970.269	2862.65
970.571	2854.52
970.872	2843.44
971.174	2799.38
971.475	2818.81
971.776	2788.3
972.077	2795.53
972.378	2796.66
972.679	2758.02
972.98	2765.7
973.281	2732.94
973.582	2729.55
973.883	2731.81
974.183	2721.86
974.484	2699.94
974.785	2662.88
975.085	2694.52
975.386	2658.81
975.686	2641.19
975.986	2630.79
976.287	2646.16
976.587	2597.12
976.887	2581.3
977.187	2591.02
977.487	2610
977.787	2546.27
978.087	2524.13
978.387	2589.21
978.687	2497.24
978.987	2504.24
979.286	2515.99
979.586	2486.62
979.885	2479.38
980.185	2494.75
980.484	2473.06
980.784	2489.55
981.083	2441.19
981.382	2428.09
981.682	2435.77
981.981	2403.91
982.28	2409.33
982.579	2376.34
982.878	2398.93
983.177	2366.17
983.475	2351.7
983.774	2379.95
984.073	2364.36
984.372	2306.96
984.67	2335.66
984.969	2357.35
985.267	2289.78
985.566	2292.72
985.864	2327.52
986.162	2297.47
986.461	2235.32
986.759	2253.4
987.057	2219.5
987.355	2248.66
987.653	2250.01
987.951	2215.21
988.249	2223.12
988.547	2174.53
988.844	2192.16
989.142	2211.59
989.44	2184.7
989.737	2157.36
990.035	2141.54
990.332	2164.36
990.63	2107.42
990.927	2084.82
991.224	2127.75
991.521	2095.44
991.819	2078.94
992.116	2090.24
992.413	2081.65
992.71	2054.54
993.006	2073.52
993.303	2032.84
993.6	2048.89
993.897	2054.31
994.193	2004.59
994.49	2053.86
994.787	1969.79
995.083	1974.09
995.379	1969.57
995.676	1975.22
995.972	1955.78
996.268	1978.61
996.565	1968.21
996.861	1965.05
997.157	1905.61
997.453	1887.08
997.749	1907.65
998.044	1942.22
998.34	1883.24
998.636	1902.68
998.932	1861.77
999.227	1891.83
999.523	1842.11
999.818	1819.97
1000.114	1836.91
1000.409	1828.33
1000.704	1819.29
1001	1816.8
1001.295	1791.94
1001.59	1796.69
1001.885	1799.85
1002.18	1796.01
1002.475	1746.97
1002.77	1775.22
1003.065	1713.08
1003.359	1724.38
1003.654	1712.62
1003.949	1711.27
1004.243	1707.43
1004.538	1694.32
1004.832	1690.93
1005.127	1687.54
1005.421	1696.13
1005.715	1666.3
1006.009	1670.37
1006.304	1649.8
1006.598	1650.71
1006.892	1580.2
1007.186	1607.32
1007.48	1610.93
1007.773	1630.37
1008.067	1608.9
1008.361	1605.96
1008.655	1570.48
1008.948	1579.07
1009.242	1565.74
1009.535	1543.59
1009.829	1537.04
1010.122	1518.73
1010.415	1520.77
1010.708	1505.62
1011.001	1513.31
1011.295	1479.18
1011.588	1489.58
1011.881	1447.09
1012.173	1486.64
1012.466	1452.97
1012.759	1477.15
1013.052	1473.53
1013.344	1464.5
1013.637	1454.78
1013.93	1440.32
1014.222	1409.58
1014.514	1418.85
1014.807	1433.54
1015.099	1396.25
1015.391	1376.59
1015.683	1373.42
1015.976	1381.79
1016.268	1368.9
1016.56	1353.54
1016.851	1358.28
1017.143	1325.74
1017.435	1330.94
1017.727	1321.45
1018.018	1298.17
1018.31	1316.7
1018.602	1270.6
1018.893	1292.97
1019.185	1294.1
1019.476	1263.14
1019.767	1273.77
1020.058	1281.45
1020.35	1259.76
1020.641	1262.47
1020.932	1235.35
1021.223	1220.21
1021.514	1201.45
1021.804	1209.59
1022.095	1201.23
1022.386	1176.37
1022.677	1197.61
1022.967	1180.44
1023.258	1165.52
1023.548	1174.79
1023.839	1180.89
1024.129	1151.28
1024.419	1138.4
1024.709	1156.25
1025	1169.81
1025.29	1102.02
1025.58	1113.54
1025.87	1100.21
1026.16	1117.39
1026.449	1116.71
1026.739	1115.13
1027.029	1109.93
1027.319	1086.43
1027.608	1087.1
1027.898	1073.32
1028.187	1045.75
1028.477	1073.77
1028.766	1064.51
1029.055	1066.31
1029.344	1036.71
1029.634	1055.24
1029.923	1033.77
1030.212	994.23
1030.501	1033.77
1030.79	1026.99
1031.078	1007.11
1031.367	1008.24
1031.656	1003.04
1031.945	968.69
1032.233	974.79
1032.522	951.29
1032.81	944.51
1033.099	936.83
1033.387	934.79
1033.675	951.29
1033.963	929.14
1034.251	944.06
1034.54	925.53
1034.828	929.37
1035.116	923.94
1035.403	910.39
1035.691	898.41
1035.979	913.55
1036.267	891.18
1036.554	873.55
1036.842	901.8
1037.129	885.75
1037.417	865.19
1037.704	859.77
1037.992	877.62
1038.279	842.82
1038.566	816.15
1038.853	816.15
1039.14	816.15
