Data from hue_90_FLMS001491_30.txt Node
Date: Mon Feb 06 15:24:55 GMT 2017
User: dcchb
Spectrometer: FLMS00149
Trigger mode: 0
Integration Time (sec): 2.000000E-2
Scans to average: 10
Electric dark correction enabled: true
Nonlinearity correction enabled: false
Boxcar width: 0
XAxis mode: Wavelengths
Number of Pixels in Spectrum: 2048
>>>>>Begin Spectral Data<<<<<
341.393	-10.72
341.776	-10.72
342.16	-10.72
342.543	-71.06
342.927	-64.73
343.31	-62.24
343.693	-67.22
344.077	-64.96
344.46	-56.59
344.843	-54.11
345.226	-51.85
345.61	-41.91
345.993	-22.47
346.376	8.04
346.759	-1.45
347.142	1.71
347.525	38.77
347.908	66.11
348.291	90.29
348.674	96.62
349.057	121.25
349.44	105.21
349.823	131.2
350.206	154.02
350.588	181.37
350.971	227.47
351.354	208.03
351.737	212.1
352.119	262.72
352.502	247.35
352.884	281.25
353.267	273.79
353.65	294.58
354.032	307.01
354.414	302.27
354.797	299.33
355.179	314.24
355.562	306.11
355.944	342.94
356.326	354.47
356.709	330.74
357.091	333
357.473	328.93
357.855	326.67
358.238	326.45
358.62	330.51
359.002	352.66
359.384	333
359.766	337.29
360.148	330.29
360.53	336.62
360.912	325.32
361.294	336.62
361.676	339.55
362.057	315.6
362.439	319.44
362.821	347.01
363.203	320.57
363.584	331.19
363.966	321.47
364.348	337.29
364.729	341.14
365.111	322.38
365.493	321.25
365.874	300.23
366.256	329.84
366.637	313.34
367.019	318.76
367.4	308.37
367.781	331.42
368.163	334.81
368.544	327.35
368.925	311.76
369.306	309.27
369.688	299.1
370.069	306.56
370.45	323.73
370.831	304.98
371.212	310.18
371.593	314.47
371.974	295.03
372.355	316.05
372.736	321.7
373.117	324.86
373.498	325.77
373.879	326.45
374.26	311.08
374.641	326.9
375.021	323.73
375.402	334.36
375.783	316.95
376.163	320.8
376.544	319.21
376.925	314.92
377.305	344.98
377.686	335.49
378.066	338.65
378.447	339.1
378.827	311.76
379.208	340.23
379.588	326.67
379.968	340.46
380.349	342.94
380.729	326.22
381.109	333.9
381.489	356.95
381.87	344.07
382.25	333.23
382.63	340.01
383.01	347.24
383.39	349.27
383.77	341.81
384.15	361.47
384.53	364.86
384.91	347.69
385.29	350.85
385.67	345.88
386.049	342.94
386.429	361.7
386.809	344.75
387.189	359.44
387.568	363.06
387.948	363.96
388.328	380.68
388.707	358.76
389.087	368.25
389.466	355.82
389.846	362.38
390.225	359.44
390.605	355.37
390.984	356.28
391.363	383.62
391.743	371.19
392.122	360.57
392.501	391.53
392.881	410.96
393.26	412.55
393.639	368.03
394.018	378.65
394.397	405.54
394.776	383.17
395.155	368.03
395.534	421.81
395.913	379.55
396.292	399.21
396.671	389.95
397.05	389.27
397.429	378.42
397.808	394.02
398.186	412.55
398.565	408.25
398.944	389.95
399.323	418.65
399.701	413.68
400.08	410.29
400.458	404.64
400.837	406.9
401.215	419.33
401.594	428.82
401.972	409.83
402.351	430.85
402.729	401.92
403.107	411.42
403.486	439.44
403.864	408.03
404.242	411.19
404.62	413.9
404.999	422.26
405.377	433.11
405.755	435.6
406.133	452.32
406.511	450.28
406.889	458.19
407.267	459.1
407.645	467.91
408.023	441.02
408.401	442.83
408.779	460.91
409.156	441.47
409.534	460
409.912	491.87
410.29	477.4
410.667	476.95
411.045	478.76
411.422	478.76
411.8	479.89
412.178	486.44
412.555	487.35
412.933	504.97
413.31	511.3
413.687	495.93
414.065	491.64
414.442	519.44
414.819	510.62
415.197	522.37
415.574	531.41
415.951	521.92
416.328	534.12
416.705	522.37
417.082	537.51
417.46	542.71
417.837	545.88
418.214	552.43
418.591	532.09
418.967	535.25
419.344	526.44
419.721	559.43
420.098	528.47
420.475	561.24
420.852	559.89
421.228	574.12
421.605	569.38
421.982	570.28
422.358	570.06
422.735	573.45
423.111	573.22
423.488	563.05
423.864	603.5
424.241	610.51
424.617	597.85
424.994	591.07
425.37	571.41
425.746	579.77
426.123	629.04
426.499	608.25
426.875	611.64
427.251	624.74
427.627	639.66
428.003	655.93
428.379	644.4
428.756	624.52
429.132	648.02
429.507	638.98
429.883	639.88
430.259	657.51
430.635	676.49
431.011	689.15
431.387	708.36
431.763	689.83
432.138	688.92
432.514	700.67
432.89	695.48
433.265	716.94
433.641	716.94
434.016	740.22
434.392	736.6
434.767	732.76
435.143	739.99
435.518	750.84
435.894	772.99
436.269	765.08
436.644	782.93
437.02	765.3
437.395	782.03
437.77	794.91
438.145	786.32
438.52	797.17
438.895	786.77
439.271	803.5
439.646	797.39
440.021	844.4
440.395	814.12
440.77	842.36
441.145	851.18
441.52	859.99
441.895	836.04
442.27	855.47
442.645	871.06
443.019	860.44
443.394	884.62
443.769	904.96
444.143	893.44
444.518	872.87
444.892	860.9
445.267	911.52
445.641	906.77
446.016	895.92
446.39	930.72
446.764	932.98
447.139	930.05
447.513	941.8
447.887	935.7
448.262	935.24
448.636	958.29
449.01	961.91
449.384	963.94
449.758	954.23
450.132	971.18
450.506	975.92
450.88	1014.79
451.254	995.13
451.628	1015.69
452.002	1047.11
452.376	1026.31
452.75	1046.2
453.123	1055.47
453.497	1062.92
453.871	1080.55
454.244	1072.64
454.618	1060.89
454.992	1092.75
455.365	1085.3
455.739	1123.71
456.112	1125.3
456.486	1121.91
456.859	1148.57
457.232	1161.45
457.606	1188.8
457.979	1199.87
458.352	1197.84
458.725	1210.04
459.099	1234.22
459.472	1243.71
459.845	1240.55
460.218	1306.76
460.591	1298.85
460.964	1309.92
461.337	1319.87
461.71	1321.9
462.083	1377.49
462.456	1371.62
462.829	1391.73
463.201	1391.5
463.574	1405.51
463.947	1430.82
464.32	1462.46
464.692	1456.59
465.065	1474.21
465.438	1495.46
465.81	1510.82
466.183	1582.46
466.555	1571.16
466.928	1607.54
467.3	1591.27
467.672	1621.33
468.045	1695.9
468.417	1691.83
468.789	1716.92
469.161	1731.16
469.534	1753.53
469.906	1820.42
470.278	1820.19
470.65	1850.93
471.022	1914.2
471.394	1930.25
471.766	1932.96
472.138	1981.09
472.51	2035.55
472.882	2064.48
473.253	2125.04
473.625	2147.19
473.997	2191.03
474.369	2238.26
474.74	2285.72
475.112	2319.84
475.484	2363.45
475.855	2445.94
476.227	2475.54
476.598	2554.64
476.97	2610.23
477.341	2682.77
477.713	2726.38
478.084	2791.24
478.455	2870.33
478.827	2927.51
479.198	3041.86
479.569	3061.29
479.94	3142.19
480.311	3200.72
480.682	3288.85
481.053	3465.57
481.424	3506.48
481.795	3579.92
482.166	3632.8
482.537	3773.59
482.908	3859.01
483.279	3941.94
483.65	4056.74
484.021	4155.95
484.391	4270.3
484.762	4315.72
485.133	4407.24
485.503	4499.9
485.874	4673.68
486.244	4778.76
486.615	4914.12
486.985	5021.69
487.356	5154.34
487.726	5255.13
488.097	5395.47
488.467	5458.51
488.837	5638.4
489.207	5747.77
489.578	5910.93
489.948	5992.06
490.318	6135.78
490.688	6191.83
491.058	6344.37
491.428	6540.29
491.798	6630.01
492.168	6792.94
492.538	6867.74
492.908	7034.29
493.278	7164.01
493.648	7253.04
494.017	7434.73
494.387	7566.71
494.757	7638.34
495.126	7780.04
495.496	7857.32
495.866	7929.86
496.235	8095.51
496.605	8269.51
496.974	8387.48
497.344	8416.63
497.713	8561.48
498.082	8682.38
498.452	8810.74
498.821	8875.37
499.19	9029.49
499.559	9120.11
499.928	9154.24
500.298	9317.4
500.667	9449.82
501.036	9532.53
501.405	9607.33
501.774	9679.42
502.143	9820.66
502.512	9879.42
502.88	9957.83
503.249	9998.28
503.618	10129.8
503.987	10160.54
504.356	10306.97
504.724	10367.99
505.093	10412.06
505.462	10500.19
505.83	10572.28
506.199	10640.3
506.567	10820.86
506.936	10789
507.304	10974.08
507.672	11028.99
508.041	11044.58
508.409	11163.45
508.777	11305.59
509.145	11351.47
509.514	11362.99
509.882	11442.31
510.25	11424.46
510.618	11529.99
510.986	11542.65
511.354	11666.49
511.722	11842.3
512.09	11853.37
512.458	11778.57
512.826	11937.67
513.193	11978.12
513.561	12024.22
513.929	12108.06
514.297	12198
514.664	12196.42
515.032	12283.65
515.4	12307.15
515.767	12326.13
516.135	12408.84
516.502	12269.41
516.869	12562.73
517.237	12512.57
517.604	12507.82
517.972	12655.61
518.339	12764.09
518.706	12699.91
519.073	12723.63
519.44	12717.53
519.808	12868.72
520.175	12775.84
520.542	12975.38
520.909	13023.29
521.276	13001.14
521.643	13023.06
522.009	13124.53
522.376	13146.45
522.743	13230.29
523.11	13337.18
523.477	13370.62
523.843	13381.24
524.21	13449.49
524.577	13442.49
524.943	13531.97
525.31	13544.18
525.676	13524.29
526.043	13581.69
526.409	13644.06
526.776	13812.42
527.142	13735.81
527.508	13749.6
527.874	13847.45
528.241	13942.81
528.607	13884.96
528.973	13937.61
529.339	13901.68
529.705	13923.83
530.071	14004.96
530.437	13943.72
530.803	13991.62
531.169	14051.28
531.535	14017.61
531.901	13999.98
532.267	14035.01
532.632	14090.38
532.998	14072.98
533.364	14121.34
533.73	14072.3
534.095	14164.05
534.461	14116.14
534.826	14095.12
535.192	14087.21
535.557	14176.03
535.923	14091.06
536.288	14056.48
536.653	14111.85
537.019	14035.92
537.384	14023.49
537.749	14081.79
538.114	14069.59
538.479	13981
538.845	13976.03
539.21	13927.44
539.575	13930.61
539.94	13898.97
540.305	13971.06
540.67	13851.29
541.034	13918.86
541.399	13875.24
541.764	13880.21
542.129	13856.94
542.494	13865.53
542.858	13845.64
543.223	13833.21
543.587	13825.3
543.952	13727.45
544.316	13730.16
544.681	13689.94
545.045	13698.52
545.41	13703.95
545.774	13668.47
546.138	13707.34
546.503	13651.07
546.867	13633.89
547.231	13655.36
547.595	13594.35
547.959	13578.53
548.324	13593.89
548.688	13526.55
549.052	13500.56
549.416	13506.44
549.779	13479.32
550.143	13332.43
550.507	13498.53
550.871	13488.13
551.235	13431.64
551.599	13437.29
551.962	13395.93
552.326	13399.32
552.689	13449.27
553.053	13358.19
553.417	13287.24
553.78	13431.19
554.143	13375.14
554.507	13321.58
554.87	13352.09
555.234	13415.14
555.597	13344.41
555.96	13323.17
556.323	13317.52
556.686	13218.54
557.05	13305.09
557.413	13289.72
557.776	13216.05
558.139	13327.01
558.502	13326.78
558.865	13295.6
559.228	13370.62
559.59	13304.64
559.953	13269.61
560.316	13331.3
560.679	13343.51
561.041	13370.17
561.404	13399.77
561.767	13440.9
562.129	13446.1
562.492	13562.03
562.854	13472.54
563.217	13394.13
563.579	13469.6
563.941	13458.53
564.304	13517.29
564.666	13560.45
565.028	13544.4
565.39	13554.12
565.753	13598.41
566.115	13612.88
566.477	13595.02
566.839	13622.14
567.201	13679.77
567.563	13672.31
567.925	13710.95
568.287	13663.72
568.648	13685.42
569.01	13710.95
569.372	13733.55
569.734	13724.51
570.095	13858.97
570.457	13863.94
570.819	13837.73
571.18	13922.7
571.542	13993.88
571.903	13918.18
572.265	13955.92
572.626	13908.69
572.987	13938.97
573.349	13969.93
573.71	14004.05
574.071	13972.19
574.432	14053.09
574.794	14046.76
575.155	13980.55
575.516	13995.01
575.877	14033.66
576.238	14062.58
576.599	14070.94
576.96	14075.92
577.32	14111.39
577.681	14108.68
578.042	14230.71
578.403	14167.89
578.763	14074.79
579.124	14245.85
579.485	14147.1
579.845	14261.67
580.206	14136.25
580.566	14166.08
580.927	14202.01
581.287	14156.82
581.648	14151.39
582.008	14174.22
582.368	14157.72
582.728	14190.49
583.089	14078.4
583.449	14111.39
583.809	14188.45
584.169	14150.26
584.529	14093.09
584.889	14160.66
585.249	14108.46
585.609	14010.61
585.969	14185.06
586.329	14127.44
586.688	14160.43
587.048	14094.22
587.408	14146.87
587.768	14071.62
588.127	14112.75
588.487	14058.29
588.846	14115.69
589.206	14015.13
589.565	13944.17
589.925	13996.6
590.284	14152.3
590.643	14032.3
591.003	14043.37
591.362	14008.8
591.721	14035.01
592.08	14023.94
592.44	14119.08
592.799	13974.45
593.158	14012.87
593.517	14053.54
593.876	14058.74
594.235	13910.95
594.593	13895.81
594.952	13995.01
595.311	13948.46
595.67	13975.35
596.029	14035.69
596.387	13977.84
596.746	14055.8
597.104	13977.39
597.463	13955.92
597.822	14028.23
598.18	13951.4
598.538	13822.36
598.897	13944.17
599.255	13809.03
599.613	13979.19
599.972	13922.25
600.33	13978.74
600.688	13923.6
601.046	13960.44
601.404	13992.3
601.762	13993.43
602.12	14032.3
602.478	14024.84
602.836	14050.15
603.194	13936.71
603.552	14000.89
603.91	13965.64
604.268	13899.2
604.625	13872.53
604.983	13995.92
605.341	13945.52
605.698	13983.26
606.056	14041.79
606.413	14006.09
606.771	14028.91
607.128	13946.65
607.485	14000.89
607.843	13966.31
608.2	14043.6
608.557	14042.47
608.914	14007.44
609.272	14229.58
609.629	14077.5
609.986	14120.66
610.343	13989.59
610.7	14144.84
611.057	14108.23
611.414	14117.04
611.771	14143.26
612.127	14198.4
612.484	14185.74
612.841	14207.44
613.198	14191.39
613.554	14171.28
613.911	14246.08
614.267	14249.47
614.624	14200.66
614.98	14204.5
615.337	14321.56
615.693	14326.53
616.05	14209.02
616.406	14350.26
616.762	14324.95
617.118	14199.98
617.475	14279.53
617.831	14341.44
618.187	14321.78
618.543	14368.79
618.899	14470.26
619.255	14398.62
619.611	14322.46
619.967	14472.06
620.323	14478.16
620.678	14321.78
621.034	14324.72
621.39	14429.35
621.746	14367.66
622.101	14535.34
622.457	14315
622.812	14461.89
623.168	14326.08
623.523	14430.48
623.879	14476.81
624.234	14342.35
624.589	14411.05
624.945	14423.02
625.3	14369.01
625.655	14359.07
626.01	14428.22
626.365	14529.91
626.72	14417.6
627.075	14479.97
627.43	14391.16
627.785	14380.99
628.14	14296.02
628.495	14479.75
628.85	14399.97
629.205	14337.6
629.559	14482.01
629.914	14312.75
630.269	14293.31
630.623	14254.67
630.978	14269.81
631.332	14312.97
631.687	14408.56
632.041	14276.59
632.396	14346.19
632.75	14258.06
633.104	14326.76
633.459	14170.83
633.813	14133.54
634.167	14288.34
634.521	14139.42
634.875	14204.5
635.229	14141.9
635.583	14108.46
635.937	14108.46
636.291	14077.27
636.645	14104.84
636.999	13984.62
637.352	14116.14
637.706	14015.35
638.06	13987.33
638.413	13962.47
638.767	14004.96
639.121	13943.26
639.474	13833.44
639.828	13957.5
640.181	13991.62
640.534	13867.56
640.888	13899.2
641.241	13858.52
641.594	13830.27
641.947	13870.27
642.301	13898.07
642.654	13825.98
643.007	13851.74
643.36	13778.75
643.713	13819.88
644.066	13869.37
644.419	13724.74
644.771	13678.19
645.124	13640.67
645.477	13542.14
645.83	13426.44
646.182	13375.37
646.535	13433.22
646.888	13433.9
647.24	13297.86
647.593	13317.97
647.945	13360
648.298	13274.81
648.65	13301.7
649.002	13237.29
649.355	13290.63
649.707	13353.67
650.059	13354.8
650.411	13449.72
650.763	13530.39
651.115	13673.21
651.467	13635.02
651.819	13672.31
652.171	13570.39
652.523	13591.63
652.875	13623.5
653.227	13553.9
653.578	13733.33
653.93	13596.83
654.282	13615.36
654.633	13579.88
654.985	13542.82
655.337	13548.47
655.688	13528.36
656.039	13637.96
656.391	13528.13
656.742	13572.2
657.094	13540.79
657.445	13527.68
657.796	13522.26
658.147	13520
658.498	13586.89
658.849	13619.66
659.2	13519.09
659.551	13452.65
659.902	13569.94
660.253	13543.05
660.604	13595.93
660.955	13507.57
661.306	13507.12
661.656	13520.45
662.007	13520
662.358	13537.4
662.708	13520.22
663.059	13519.09
663.409	13496.95
663.76	13561.35
664.11	13529.04
664.461	13563.84
664.811	13521.35
665.161	13564.29
665.511	13563.16
665.862	13546.66
666.212	13644.74
666.562	13643.16
666.912	13661.91
667.262	13642.93
667.612	13585.53
667.962	13644.29
668.312	13537.62
668.662	13644.29
669.011	13581.24
669.361	13623.95
669.711	13508.92
670.06	13489.72
670.41	13543.27
670.76	13591.86
671.109	13550.05
671.459	13503.73
671.808	13529.04
672.157	13525.87
672.507	13418.08
672.856	13425.54
673.205	13426.21
673.554	13469.38
673.904	13417.4
674.253	13373.56
674.602	13435.03
674.951	13262.83
675.3	13186.22
675.649	13421.92
675.998	13332.88
676.346	13352.32
676.695	13451.98
677.044	13259.67
677.393	13390.51
677.741	13347.12
678.09	13256.28
678.438	13278.42
678.787	13300.57
679.135	13329.95
679.484	13244.3
679.832	13190.29
680.181	13185.32
680.529	13218.99
680.877	13153.23
681.225	13152.32
681.573	13212.66
681.922	13098.09
682.27	13067.13
682.618	13104.64
682.966	13039.78
683.314	13075.26
683.661	12967.7
684.009	12905.55
684.357	12816.51
684.705	12891.77
685.053	12881.6
685.4	12827.59
685.748	12822.84
686.095	12804.99
686.443	12693.35
686.79	12775.16
687.138	12736.52
687.485	12719.57
687.832	12673.47
688.18	12689.74
688.527	12640.47
688.874	12586.24
689.221	12560.02
689.568	12560.02
689.915	12461.27
690.262	12472.79
690.609	12485.9
690.956	12348.05
691.303	12345.79
691.65	12265.34
691.997	12264.21
692.344	12180.37
692.69	12259.47
693.037	12165.23
693.383	12109.64
693.73	12146.25
694.077	12028.51
694.423	12065.8
694.769	11981.28
695.116	11927.72
695.462	11895.18
695.808	11852.92
696.155	11845.47
696.501	11718.92
696.847	11716.66
697.193	11658.8
697.539	11721.4
697.885	11615.87
698.231	11550.33
698.577	11491.8
698.923	11477.11
699.269	11384.01
699.614	11361.18
699.96	11385.82
700.306	11358.25
700.651	11337
700.997	11184.47
701.342	11207.52
701.688	11223.79
702.033	11153.05
702.379	11169.78
702.724	11085.26
703.069	11123.45
703.415	10954.64
703.76	10987.18
704.105	10966.84
704.45	10877.13
704.795	10929.33
705.14	10795.78
705.485	10816.79
705.83	10699.73
706.175	10739.51
706.52	10758.49
706.865	10681.2
707.209	10641.43
707.554	10635.55
707.899	10659.96
708.243	10549.91
708.588	10613.63
708.932	10436.01
709.277	10420.64
709.621	10496.12
709.966	10486.18
710.31	10469
710.654	10309.01
710.998	10299.29
711.342	10325.05
711.687	10284.15
712.031	10306.75
712.375	10198.05
712.719	10187.43
713.063	10238.05
713.407	10204.83
713.75	10116.47
714.094	10207.99
714.438	10117.15
714.782	10108.56
715.125	10054.78
715.469	10109.92
715.812	10052.29
716.156	10028.79
716.499	10000.32
716.843	10010.49
717.186	9921.45
717.53	9939.07
717.873	9962.58
718.216	9878.96
718.559	9913.09
718.902	9834.44
719.246	9897.49
719.589	9832.18
719.932	9821.11
720.275	9775.01
720.617	9741.11
720.96	9789.47
721.303	9773.2
721.646	9777.5
721.989	9751.96
722.331	9753.09
722.674	9704.96
723.016	9760.55
723.359	9704.73
723.701	9737.72
724.044	9689.82
724.386	9602.13
724.729	9600.33
725.071	9645.98
725.413	9552.64
725.755	9650.72
726.097	9551.97
726.439	9571.85
726.782	9517.39
727.124	9595.58
727.465	9542.93
727.807	9543.15
728.149	9521.68
728.491	9530.05
728.833	9562.14
729.175	9477.39
729.516	9557.16
729.858	9470.61
730.199	9558.29
730.541	9496.6
730.882	9459.99
731.224	9525.75
731.565	9439.43
731.906	9486.21
732.248	9451.4
732.589	9445.08
732.93	9359.88
733.271	9415.47
733.612	9411.18
733.953	9369.82
734.294	9423.83
734.635	9364.4
734.976	9401.24
735.317	9393.55
735.658	9481.46
735.999	9441.23
736.339	9381.8
736.68	9429.71
737.021	9436.49
737.361	9429.48
737.702	9409.37
738.042	9415.25
738.383	9457.96
738.723	9427.9
739.063	9432.65
739.404	9479.88
739.744	9441.23
740.084	9421.8
740.424	9470.61
740.764	9469.71
741.104	9499.76
741.444	9500.22
741.784	9462.03
742.124	9490.95
742.464	9506.77
742.804	9485.75
743.143	9554
743.483	9509.03
743.823	9456.83
744.162	9603.04
744.502	9700.21
744.841	9646.43
745.181	9700.44
745.52	9664.73
745.86	9663.38
746.199	9713.09
746.538	9742.24
746.877	9844.39
747.216	9802.81
747.556	9847.78
747.895	9849.81
748.234	9899.75
748.573	9956.93
748.911	10033.31
749.25	10093.65
749.589	10021.56
749.928	10135.91
750.267	10242.57
750.605	10257.94
750.944	10297.48
751.283	10403.24
751.621	10515.56
751.96	10489.57
752.298	10589.68
752.636	10697.7
752.975	10705.83
753.313	10769.11
753.651	10932.95
753.989	10958.03
754.327	11062.89
754.666	11132.49
755.004	11309.21
755.342	11397.57
755.679	11511.69
756.017	11490.45
756.355	11648.86
756.693	11783.55
757.031	11948.06
757.368	12004.11
757.706	12089.3
758.044	12311.44
758.381	12428.73
758.719	12519.12
759.056	12677.53
759.394	12782.39
759.731	12816.97
760.068	13007.92
760.405	13103.06
760.743	13288.14
761.08	13358.42
761.417	13480.68
761.754	13586.89
762.091	13753.44
762.428	13903.26
762.765	13970.38
763.102	14249.47
763.438	14287.89
763.775	14360.2
764.112	14526.3
764.449	14624.83
764.785	14809
765.122	14847.65
765.458	14960.86
765.795	15154.53
766.131	15218.03
766.467	15406.95
766.804	15498.02
767.14	15591.36
767.476	15679.49
767.812	15662.99
768.148	16010.1
768.485	15971.68
768.821	16012.36
769.157	16067.28
769.492	16263.88
769.828	16380.94
770.164	16406.48
770.5	16482.86
770.836	16624.1
771.171	16578.67
771.507	16680.82
771.842	16697.54
772.178	16921.04
772.513	16899.8
772.849	16955.61
773.184	16941.15
773.519	17093.46
773.855	17112.67
774.19	17138.89
774.525	17248.26
774.86	17303.4
775.195	17264.08
775.53	17398.09
775.865	17315.83
776.2	17393.79
776.535	17356.05
776.87	17489.84
777.205	17420.23
777.539	17376.85
777.874	17554.47
778.209	17453
778.543	17473.34
778.878	17445.77
779.212	17604.18
779.547	17405.77
779.881	17596.05
780.215	17486
780.55	17540
780.884	17502.94
781.218	17577.97
781.552	17605.54
781.886	17569.83
782.22	17554.24
782.554	17519.44
782.888	17345.21
783.222	17449.61
783.556	17424.53
783.889	17434.02
784.223	17362.16
784.557	17313.57
784.89	17341.37
785.224	17267.7
785.557	17312.67
785.891	17341.14
786.224	17258.43
786.558	17308.6
786.891	17165.78
787.224	17116.51
787.557	17085.78
787.891	17099.56
788.224	17161.48
788.557	17190.18
788.89	17069.28
789.223	17102.28
789.556	17007.59
789.888	16975.95
790.221	16899.8
790.554	16801.04
790.887	16900.7
791.219	16819.12
791.552	16833.13
791.884	16804.66
792.217	16714.04
792.549	16714.04
792.882	16593.36
793.214	16547.49
793.546	16616.64
793.879	16550.43
794.211	16494.83
794.543	16508.39
794.875	16427.04
795.207	16443.08
795.539	16428.62
795.871	16427.04
796.203	16190.66
796.535	16253.03
796.867	16194.73
797.198	16167.39
797.53	16162.64
797.862	16071.79
798.193	16102.75
798.525	15951.8
798.856	16058.24
799.188	15859.15
799.519	15822.08
799.85	15818.47
800.182	15795.42
800.513	15810.78
800.844	15672.48
801.175	15826.83
801.506	15687.85
801.837	15631.35
802.168	15587.74
802.499	15578.47
802.83	15456.44
803.161	15548.42
803.491	15472.71
803.822	15470.91
804.153	15395.2
804.483	15249.44
804.814	15313.85
805.145	15253.29
805.475	15178.71
805.805	15130.12
806.136	15259.61
806.466	15252.83
806.796	15083.8
807.126	15040.18
807.457	14989.79
807.787	14994.31
808.117	14988.89
808.447	14997.25
808.777	14942.79
809.107	14958.15
809.436	14847.42
809.766	14725.39
810.096	14766.52
810.426	14743.47
810.755	14721.32
811.085	14686.97
811.414	14694.2
811.744	14559.07
812.073	14572.85
812.403	14521.1
812.732	14447.2
813.061	14460.76
813.39	14393.19
813.719	14397.71
814.049	14427.32
814.378	14379.41
814.707	14288.79
815.036	14359.3
815.365	14245.18
815.693	14139.42
816.022	14184.84
816.351	14143.71
816.68	14027.78
817.008	14096.71
817.337	14000.89
817.665	14048.35
817.994	13929.48
818.322	13998.63
818.651	13991.85
818.979	13882.02
819.307	13992.98
819.636	13888.8
819.964	13801.8
820.292	13854.9
820.62	13864.85
820.948	13820.78
821.276	13792.08
821.604	13764.74
821.932	13849.48
822.259	13809.48
822.587	13762.25
822.915	13728.13
823.243	13793.44
823.57	13765.64
823.898	13735.59
824.225	13706.66
824.553	13757.28
824.88	13744.4
825.207	13689.03
825.535	13755.02
825.862	13818.75
826.189	13726.55
826.516	13750.73
826.843	13833.21
827.17	13805.41
827.497	13835.7
827.824	13812.42
828.151	13816.04
828.478	13741.01
828.805	13823.04
829.131	13739.88
829.458	13812.19
829.785	13674.8
830.111	13735.36
830.438	13797.73
830.764	13730.84
831.09	13702.82
831.417	13734.68
831.743	13769.26
832.069	13768.35
832.395	13629.83
832.722	13718.41
833.048	13703.27
833.374	13773.1
833.7	13618.75
834.026	13730.16
834.351	13729.48
834.677	13710.28
835.003	13692.65
835.329	13710.5
835.654	13630.5
835.98	13557.74
836.306	13585.76
836.631	13504.4
836.956	13657.4
837.282	13584.18
837.607	13519.09
837.932	13501.02
838.258	13498.76
838.583	13420.34
838.908	13394.8
839.233	13358.65
839.558	13327.46
839.883	13381.02
840.208	13265.09
840.533	13373.56
840.858	13289.27
841.182	13320
841.507	13243.62
841.832	13218.31
842.156	13243.39
842.481	13149.39
842.805	13108.48
843.13	13113
843.454	13137.63
843.778	13018.32
844.103	13064.19
844.427	12965.21
844.751	12949.84
845.075	12970.41
845.399	12913.91
845.723	12847.7
846.047	12866
846.371	12796.4
846.695	12799.79
847.019	12653.35
847.343	12589.4
847.666	12602.06
847.99	12445.68
848.313	12510.98
848.637	12430.99
848.96	12431.66
849.284	12312.57
849.607	12259.24
849.931	12176.3
850.254	12127.27
850.577	12116.64
850.9	12019.7
851.223	11948.97
851.546	11921.17
851.869	11917.55
852.192	11938.8
852.515	11767.5
852.838	11775.86
853.161	11743.32
853.483	11714.85
853.806	11642.08
854.129	11608.41
854.451	11589.65
854.774	11570.9
855.096	11527.06
855.419	11491.8
855.741	11447.96
856.063	11349.21
856.385	11360.51
856.708	11314.41
857.03	11262.43
857.352	11215.88
857.674	11246.39
857.996	11174.97
858.318	11209.78
858.64	11160.06
858.961	11097.01
859.283	11125.71
859.605	11047.75
859.926	10990.12
860.248	10982.44
860.57	10980.18
860.891	10948.77
861.212	10908.77
861.534	10911.7
861.855	10856.79
862.176	10851.14
862.498	10881.2
862.819	10777.02
863.14	10794.87
863.461	10759.62
863.782	10718.94
864.103	10660.86
864.424	10701.09
864.745	10709.45
865.065	10693.18
865.386	10563.92
865.707	10577.7
866.027	10576.57
866.348	10663.12
866.668	10551.71
866.989	10511.04
867.309	10469.23
867.63	10509.68
867.95	10499.74
868.27	10428.55
868.59	10549.45
868.91	10459.06
869.23	10384.03
869.55	10423.81
869.87	10434.2
870.19	10322.57
870.51	10391.49
870.83	10349.23
871.15	10313.08
871.469	10374.54
871.789	10238.28
872.109	10294.55
872.428	10213.64
872.748	10269.69
873.067	10227.43
873.386	10237.6
873.706	10141.33
874.025	10172.74
874.344	10144.72
874.663	10143.36
874.982	10046.19
875.301	10105.4
875.62	10097.71
875.939	10028.11
876.258	10038.73
876.577	10029.47
876.896	10030.82
877.214	9985.63
877.533	10036.02
877.852	9929.58
878.17	9996.47
878.489	9956.48
878.807	9909.92
879.125	9904.73
879.444	9884.84
879.762	9888.68
880.08	9896.36
880.398	9808.91
880.716	9797.16
881.034	9756.48
881.352	9787.44
881.67	9740.89
881.988	9793.54
882.306	9716.71
882.624	9683.71
882.941	9638.07
883.259	9626.99
883.577	9615.92
883.894	9533.21
884.212	9581.8
884.529	9556.94
884.846	9547.22
885.164	9516.49
885.481	9515.13
885.798	9476.94
886.115	9435.59
886.432	9495.47
886.75	9413.44
887.067	9330.96
887.383	9372.31
887.7	9362.59
888.017	9303.84
888.334	9302.93
888.651	9284.4
888.967	9194.69
889.284	9236.95
889.6	9180.9
889.917	9189.72
890.233	9074.24
890.55	9110.17
890.866	9050.96
891.182	9047.8
891.498	8986.56
891.815	9004.41
892.131	8987.46
892.447	8973.9
892.763	8945.88
893.079	8908.59
893.395	8897.52
893.71	8871.31
894.026	8841.02
894.342	8799.9
894.657	8708.6
894.973	8726.9
895.289	8758.77
895.604	8719.22
895.92	8690.97
896.235	8613.91
896.55	8634.25
896.865	8617.53
897.181	8585.89
897.496	8568.04
897.811	8479.23
898.126	8470.86
898.441	8401.71
898.756	8413.24
899.071	8347.48
899.386	8389.29
899.7	8329.85
900.015	8279.23
900.33	8166.92
900.644	8191.32
900.959	8210.08
901.273	8107.26
901.588	8096.86
901.902	8089.41
902.216	8006.47
902.531	8037.43
902.845	7984.55
903.159	7973.7
903.473	7920.6
903.787	7849.41
904.101	7867.26
904.415	7844.44
904.729	7818.45
905.042	7784.33
905.356	7749.3
905.67	7707.72
905.984	7653.03
906.297	7658.68
906.611	7596.31
906.924	7607.84
907.237	7549.53
907.551	7553.83
907.864	7514.28
908.177	7468.63
908.491	7427.95
908.804	7468.63
909.117	7331.23
909.43	7298.47
909.743	7324
910.056	7232.48
910.368	7295.75
910.681	7220.95
910.994	7191.8
911.307	7146.15
911.619	7120.39
911.932	7094.18
912.244	7115.42
912.557	7108.87
912.869	7034.07
913.181	6950.9
913.494	6968.53
913.806	6963.79
914.118	6943.22
914.43	6886.5
914.742	6837.24
915.054	6829.1
915.366	6842.89
915.678	6798.37
915.99	6719.72
916.302	6743
916.613	6680.4
916.925	6671.14
917.236	6635.21
917.548	6632.5
917.859	6602.67
918.171	6574.64
918.482	6531.03
918.794	6559.73
919.105	6511.37
919.416	6465.95
919.727	6480.63
920.038	6437.25
920.349	6390.47
920.66	6298.72
920.971	6345.05
921.282	6291.94
921.593	6284.03
921.903	6247.19
922.214	6256.23
922.525	6253.3
922.835	6148.89
923.146	6205.39
923.456	6176.91
923.767	6058.72
924.077	6099.4
924.387	6089.23
924.697	6025.73
925.008	6000.65
925.318	5995.45
925.628	5955.45
925.938	5922.46
926.248	5867.32
926.558	5879.97
926.867	5916.13
927.177	5803.14
927.487	5825.96
927.796	5780.99
928.106	5777.38
928.416	5723.82
928.725	5784.83
929.034	5686.98
929.344	5752.07
929.653	5714.33
929.962	5647.44
930.271	5558.17
930.581	5581.9
930.89	5538.96
931.199	5504.84
931.508	5503.94
931.817	5496.93
932.125	5495.58
932.434	5454.9
932.743	5399.08
933.051	5396.6
933.36	5389.14
933.669	5337.61
933.977	5317.73
934.286	5318.41
934.594	5310.04
934.902	5203.38
935.21	5243.61
935.519	5301.68
935.827	5214.23
936.135	5194.11
936.443	5128.81
936.751	5100.56
937.059	5124.74
937.367	5082.25
937.674	5093.1
937.982	5072.76
938.29	5051.29
938.597	5039.32
938.905	5025.98
939.213	4953.22
939.52	4955.93
939.827	4922.26
940.135	4883.61
940.442	4894.24
940.749	4907.12
941.056	4854.69
941.363	4797.52
941.67	4826.44
941.977	4790.06
942.284	4738.53
942.591	4736.5
942.898	4684.3
943.205	4700.57
943.511	4670.29
943.818	4680.68
944.125	4618.08
944.431	4590.29
944.738	4642.94
945.044	4583.51
945.35	4572.44
945.657	4536.51
945.963	4488.82
946.269	4466.9
946.575	4450.63
946.881	4443.17
947.187	4471.42
947.493	4459.67
947.799	4475.72
948.105	4380.8
948.41	4350.3
948.716	4356.4
949.022	4371.99
949.327	4302.16
949.633	4271.88
949.938	4274.59
950.244	4267.59
950.549	4294.03
950.854	4231.88
951.16	4226.23
951.465	4146.01
951.77	4138.32
952.075	4117.08
952.38	4099.91
952.685	4116.63
952.99	4120.24
953.294	4094.71
953.599	4077.08
953.904	4051.77
954.209	4040.02
954.513	4021.49
954.818	3998.67
955.122	3988.95
955.426	3953.7
955.731	3963.86
956.035	3924.54
956.339	3958.22
956.643	3903.75
956.948	3846.81
957.252	3821.27
957.556	3849.07
957.86	3826.92
958.163	3824.66
958.467	3762.97
958.771	3803.87
959.075	3773.36
959.378	3784.21
959.682	3751.67
959.985	3718.9
960.289	3684.55
960.592	3702.18
960.896	3677.09
961.199	3676.64
961.502	3643.42
961.805	3663.53
962.108	3624.66
962.411	3594.83
962.714	3594.16
963.017	3583.54
963.32	3539.24
963.623	3529.3
963.926	3530.2
964.228	3531.56
964.531	3491.33
964.833	3427.38
965.136	3433.26
965.438	3460.15
965.741	3431.9
966.043	3425.35
966.345	3396.65
966.648	3350.1
966.95	3397.1
967.252	3348.29
967.554	3342.86
967.856	3321.62
968.158	3290.66
968.46	3315.97
968.761	3276.2
969.063	3267.84
969.365	3268.29
969.666	3248.18
969.968	3206.6
970.269	3222.19
970.571	3200.72
970.872	3184.9
971.174	3140.61
971.475	3178.35
971.776	3138.12
972.077	3118.46
972.378	3112.59
972.679	3112.81
972.98	3085.24
973.281	3063.32
973.582	3084.79
973.883	3065.58
974.183	3029.88
974.484	3064.23
974.785	2993.04
975.085	3003.44
975.386	2983.55
975.686	2993.04
975.986	2959.6
976.287	2959.37
976.587	2937
976.887	2889.77
977.187	2926.38
977.487	2902.42
977.787	2877.34
978.087	2851.13
978.387	2880.5
978.687	2838.24
978.987	2841.63
979.286	2808.41
979.586	2861.52
979.885	2824.23
980.185	2807.51
980.484	2742.65
980.784	2774.52
981.083	2750.79
981.382	2738.13
981.682	2714.63
981.981	2694.29
982.28	2646.61
982.579	2675.54
982.878	2705.14
983.177	2679.6
983.475	2667.18
983.774	2636.22
984.073	2620.17
984.372	2639.61
984.67	2603
984.969	2575.88
985.267	2563.22
985.566	2544.02
985.864	2566.84
986.162	2574.52
986.461	2526.61
986.759	2541.3
987.057	2503.79
987.355	2479.38
987.653	2490.91
987.951	2473.96
988.249	2460.63
988.547	2473.06
988.844	2418.14
989.142	2436.22
989.44	2416.56
989.737	2442.32
990.035	2382.89
990.332	2381.99
990.63	2377.92
990.927	2388.54
991.224	2376.56
991.521	2335.66
991.819	2357.81
992.116	2332.27
992.413	2285.94
992.71	2291.82
993.006	2271.25
993.303	2307.41
993.6	2280.75
993.897	2279.39
994.193	2248.2
994.49	2260.18
994.787	2256.34
995.083	2250.46
995.379	2207.98
995.676	2194.65
995.972	2196.91
996.268	2160.07
996.565	2180.63
996.861	2136.12
997.157	2165.49
997.453	2128.88
997.749	2107.42
998.044	2152.84
998.34	2109.22
998.636	2074.87
998.932	2056.8
999.227	2074.87
999.523	2067.64
999.818	2043.01
1000.114	2039.4
1000.409	2027.87
1000.704	2036.91
1001	2000.53
1001.295	2006.63
1001.59	1965.5
1001.885	1970.7
1002.18	1930.92
1002.475	1953.52
1002.77	1951.49
1003.065	1919.85
1003.359	1951.71
1003.654	1936.12
1003.949	1929.57
1004.243	1910.13
1004.538	1881.89
1004.832	1862.68
1005.127	1877.37
1005.421	1843.69
1005.715	1863.81
1006.009	1819.97
1006.304	1836.91
1006.598	1801.21
1006.892	1808.67
1007.186	1789.91
1007.48	1799.63
1007.773	1729.12
1008.067	1805.5
1008.361	1767.99
1008.655	1762.34
1008.948	1726.64
1009.242	1714.43
1009.535	1708.56
1009.829	1706.97
1010.122	1687.09
1010.415	1667.88
1010.708	1691.16
1011.001	1653.64
1011.295	1656.81
1011.588	1647.99
1011.881	1680.99
1012.173	1623.59
1012.466	1607.09
1012.759	1633.3
1013.052	1610.93
1013.344	1588.56
1013.637	1597.15
1013.93	1556.7
1014.222	1570.48
1014.514	1568.9
1014.807	1551.5
1015.099	1510.14
1015.391	1529.58
1015.683	1516.92
1015.976	1523.02
1016.268	1490.71
1016.56	1484.38
1016.851	1476.47
1017.143	1466.98
1017.435	1459.75
1017.727	1445.06
1018.018	1453.2
1018.31	1446.42
1018.602	1426.53
1018.893	1412.52
1019.185	1407.55
1019.476	1394.67
1019.767	1389.24
1020.058	1377.04
1020.35	1371.16
1020.641	1353.99
1020.932	1339.75
1021.223	1356.02
1021.514	1351.96
1021.804	1312.41
1022.095	1317.15
1022.386	1318.06
1022.677	1320.54
1022.967	1299.75
1023.258	1302.47
1023.548	1285.52
1023.839	1276.48
1024.129	1272.86
1024.419	1245.74
1024.709	1263.37
1025	1248.68
1025.29	1242.81
1025.58	1216.59
1025.87	1214.56
1026.16	1212.3
1026.449	1224.05
1026.739	1192.19
1027.029	1196.25
1027.319	1191.51
1027.608	1207.33
1027.898	1176.59
1028.187	1149.02
1028.477	1171.4
1028.766	1123.94
1029.055	1145.63
1029.344	1117.39
1029.634	1135.92
1029.923	1135.01
1030.212	1116.48
1030.501	1095.69
1030.79	1107.22
1031.078	1062.92
1031.367	1087.1
1031.656	1065.41
1031.945	1088.01
1032.233	1044.17
1032.522	1038.29
1032.81	1047.33
1033.099	1019.31
1033.387	1019.76
1033.675	1022.25
1033.963	1009.82
1034.251	971.4
1034.54	1017.28
1034.828	1006.2
1035.116	973.21
1035.403	989.93
1035.691	973.66
1035.979	978.63
1036.267	960.55
1036.554	976.6
1036.842	997.84
1037.129	946.99
1037.417	938.41
1037.704	928.24
1037.992	951.97
1038.279	923.49
1038.566	918.3
1038.853	918.3
1039.14	918.3
