Data from hue_10_FLMS001491_99.txt Node
Date: Mon Feb 06 15:32:51 GMT 2017
User: dcchb
Spectrometer: FLMS00149
Trigger mode: 0
Integration Time (sec): 2.000000E-2
Scans to average: 10
Electric dark correction enabled: true
Nonlinearity correction enabled: false
Boxcar width: 0
XAxis mode: Wavelengths
Number of Pixels in Spectrum: 2048
>>>>>Begin Spectral Data<<<<<
341.393	-9.35
341.776	-9.35
342.16	-9.35
342.543	-55.68
342.927	-66.52
343.31	-57.94
343.693	-51.61
344.077	-84.38
344.46	-69.24
344.843	-54.55
345.226	-43.02
345.61	-45.28
345.993	5.56
346.376	8.28
346.759	6.47
347.142	24.32
347.525	43.98
347.908	56.86
348.291	71.1
348.674	93.02
349.057	96.41
349.44	112
349.823	152.45
350.206	168.27
350.588	181.15
350.971	234.49
351.354	225.67
351.737	239.01
352.119	239.23
352.502	250.76
352.884	273.58
353.267	283.3
353.65	302.28
354.032	291.66
354.414	303.86
354.797	294.6
355.179	294.6
355.562	322.17
355.944	324.2
356.326	327.14
356.709	319
357.091	321.26
357.473	346.57
357.855	337.08
358.238	345.67
358.62	358.55
359.002	337.31
359.384	344.31
359.766	353.58
360.148	339.12
360.53	340.7
360.912	333.01
361.294	337.53
361.676	295.95
362.057	349.96
362.439	335.5
362.821	333.92
363.203	324.65
363.584	329.85
363.966	290.53
364.348	314.03
364.729	321.94
365.111	308.83
365.493	323.07
365.874	315.61
366.256	320.58
366.637	289.4
367.019	325.78
367.4	309.96
367.781	308.38
368.163	316.07
368.544	315.61
368.925	322.39
369.306	330.3
369.688	305.44
370.069	312
370.45	317.2
370.831	321.71
371.212	321.49
371.593	325.56
371.974	329.85
372.355	305.22
372.736	306.8
373.117	311.32
373.498	318.55
373.879	302.51
374.26	310.19
374.641	307.93
375.021	314.94
375.402	325.33
375.783	337.08
376.163	326.01
376.544	338.89
376.925	293.69
377.305	305.67
377.686	326.69
378.066	295.5
378.447	328.27
378.827	323.3
379.208	330.08
379.588	318.32
379.968	313.58
380.349	331.88
380.729	322.84
381.109	335.27
381.489	319.68
381.87	334.82
382.25	334.82
382.63	320.81
383.01	327.59
383.39	329.4
383.77	335.27
384.15	327.59
384.53	337.08
384.91	349.51
385.29	349.51
385.67	335.95
386.049	335.95
386.429	349.96
386.809	351.77
387.189	337.08
387.568	343.86
387.948	343.64
388.328	343.86
388.707	354.48
389.087	333.69
389.466	362.17
389.846	354.48
390.225	356.06
390.605	359.91
390.984	342.05
391.363	366.69
391.743	369.4
392.122	368.49
392.501	363.07
392.881	362.17
393.26	363.75
393.639	334.82
394.018	371.88
394.397	366.69
394.776	401.03
395.155	373.92
395.534	362.84
395.913	382.73
396.292	400.13
396.671	358.55
397.05	379.57
397.429	402.39
397.808	357.42
398.186	380.7
398.565	391.32
398.944	364.43
399.323	370.08
399.701	379.57
400.08	371.2
400.458	386.8
400.837	386.12
401.215	389.28
401.594	392.22
401.972	366.46
402.351	395.84
402.729	387.25
403.107	377.76
403.486	398.55
403.864	399.45
404.242	387.25
404.62	406.01
404.999	388.61
405.377	399.23
405.755	395.61
406.133	410.3
406.511	414.82
406.889	406.68
407.267	415.72
407.645	413.46
408.023	420.92
408.401	425.44
408.779	421.37
409.156	415.72
409.534	430.86
409.912	436.29
410.29	442.84
410.667	439.68
411.045	428.6
411.422	413.69
411.8	445.78
412.178	430.41
412.555	436.74
412.933	436.06
413.31	439.45
413.687	462.28
414.065	457.98
414.442	457.53
414.819	457.76
415.197	471.77
415.574	466.57
415.951	483.29
416.328	470.41
416.705	489.39
417.082	458.66
417.46	486.68
417.837	482.39
418.214	479.22
418.591	491.88
418.967	472.22
419.344	484.2
419.721	491.65
420.098	490.3
420.475	499.11
420.852	488.72
421.228	494.82
421.605	517.64
421.982	499.34
422.358	518.77
422.735	522.16
423.111	508.15
423.488	504.76
423.864	499.56
424.241	503.86
424.617	531.2
424.994	535.95
425.37	517.42
425.746	529.84
426.123	545.89
426.499	537.3
426.875	545.89
427.251	544.53
427.627	565.55
428.003	566.23
428.379	575.95
428.756	565.1
429.132	562.61
429.507	561.03
429.883	584.98
430.259	582.95
430.635	588.15
431.011	581.82
431.387	594.7
431.763	580.46
432.138	576.4
432.514	615.04
432.89	606.9
433.265	609.62
433.641	599.9
434.016	594.93
434.392	632.44
434.767	636.06
435.143	622.27
435.518	648.71
435.894	648.94
436.269	644.19
436.644	674.7
437.02	663.63
437.395	669.5
437.77	673.57
438.145	671.76
438.52	663.17
438.895	711.08
439.271	686.22
439.646	693.46
440.021	688.94
440.395	698.43
440.77	705.66
441.145	699.11
441.52	692.33
441.895	713.57
442.27	714.02
442.645	695.49
443.019	711.08
443.394	732.1
443.769	729.61
444.143	724.87
444.518	741.59
444.892	716.28
445.267	727.13
445.641	737.75
446.016	744.3
446.39	774.81
446.764	749.95
447.139	763.96
447.513	770.74
447.887	765.77
448.262	764.87
448.636	759.44
449.01	767.58
449.384	788.6
449.758	784.98
450.132	794.47
450.506	774.81
450.88	820.46
451.254	822.94
451.628	829.95
452.002	817.52
452.376	826.11
452.75	833.57
453.123	848.71
453.497	841.7
453.871	843.28
454.244	866.11
454.618	843.28
454.992	874.69
455.365	853.23
455.739	891.87
456.112	885.54
456.486	906.78
456.859	905.88
457.232	878.31
457.606	917.41
457.979	928.25
458.352	936.39
458.725	960.34
459.099	946.33
459.472	942.04
459.845	971.87
460.218	979.32
460.591	981.81
460.964	1005.31
461.337	1006.22
461.71	1026.78
462.083	1048.48
462.456	1061.58
462.829	1026.33
463.201	1040.79
463.574	1048.02
463.947	1082.37
464.32	1089.38
464.692	1119.43
465.065	1103.84
465.438	1121.47
465.81	1120.34
466.183	1155.14
466.555	1150.62
466.928	1149.49
467.3	1173.44
467.672	1171.86
468.045	1200.34
468.417	1215.48
468.789	1220
469.161	1229.04
469.534	1282.14
469.906	1280.79
470.278	1293.44
470.65	1311.97
471.022	1306.77
471.394	1355.59
471.766	1351.07
472.138	1369.6
472.51	1383.38
472.882	1427
473.253	1440.78
473.625	1448.69
473.997	1473.55
474.369	1490.5
474.74	1497.73
475.112	1548.8
475.484	1574.56
475.855	1589.25
476.227	1610.72
476.598	1658.85
476.97	1688.01
477.341	1707.89
477.713	1742.24
478.084	1738.17
478.455	1765.74
478.827	1832.86
479.198	1832.64
479.569	1867.44
479.94	1909.92
480.311	1938.17
480.682	1983.59
481.053	2001.9
481.424	2017.49
481.795	2050.03
482.166	2088.22
482.537	2136.13
482.908	2181.55
483.279	2201.44
483.65	2255.9
484.021	2280.53
484.391	2319.63
484.762	2363.24
485.133	2384.49
485.503	2426.29
485.874	2470.81
486.244	2494.09
486.615	2533.41
486.985	2548.1
487.356	2616.12
487.726	2620.64
488.097	2711.26
488.467	2749.22
488.837	2757.58
489.207	2814.76
489.578	2829.67
489.948	2893.62
490.318	2946.5
490.688	2956.67
491.058	3010.68
491.428	3036.67
491.798	3106.05
492.168	3121.87
492.538	3166.39
492.908	3180.4
493.278	3222.2
493.648	3247.51
494.017	3282.31
494.387	3311.01
494.757	3337
495.126	3370
495.496	3414.29
495.866	3435.98
496.235	3486.6
496.605	3518.92
496.974	3550.33
497.344	3542.65
497.713	3609.09
498.082	3606.83
498.452	3645.92
498.821	3671.91
499.19	3646.6
499.559	3724.56
499.928	3715.98
500.298	3747.84
500.667	3775.41
501.036	3793.71
501.405	3816.54
501.774	3833.49
502.143	3900.83
502.512	3927.5
502.88	3936.76
503.249	3910.55
503.618	3980.38
503.987	4026.7
504.356	3999.13
504.724	3999.81
505.093	4007.27
505.462	4064.67
505.83	4085.23
506.199	4109.41
506.567	4172.01
506.936	4176.75
507.304	4217.43
507.672	4218.79
508.041	4195.96
508.409	4242.29
508.777	4284.1
509.145	4305.56
509.514	4345.79
509.882	4373.59
510.25	4312.34
510.618	4355.96
510.986	4364.55
511.354	4471.21
511.722	4465.11
512.09	4471.89
512.458	4462.85
512.826	4551.43
513.193	4500.36
513.561	4556.41
513.929	4605.22
514.297	4604.77
514.664	4620.81
515.032	4620.81
515.4	4680.24
515.767	4665.1
516.135	4669.62
516.502	4698.32
516.869	4765.89
517.237	4742.84
517.604	4776.06
517.972	4767.02
518.339	4794.14
518.706	4792.56
519.073	4786.46
519.44	4866.23
519.808	4851.31
520.175	4828.26
520.542	4877.53
520.909	4944.64
521.276	4938.32
521.643	4944.19
522.009	4992.1
522.376	4999.33
522.743	5089.5
523.11	5075.49
523.477	5130.85
523.843	5148.03
524.21	5130.85
524.577	5191.87
524.943	5179.21
525.31	5277.29
525.676	5311.19
526.043	5307.8
526.409	5279.78
526.776	5363.84
527.142	5368.59
527.508	5330.85
527.874	5440.45
528.241	5437.06
528.607	5480.68
528.973	5489.04
529.339	5519.77
529.705	5604.29
530.071	5603.61
530.437	5604.06
530.803	5656.72
531.169	5652.65
531.535	5671.86
531.901	5721.8
532.267	5710.5
532.632	5767.67
532.998	5769.93
533.364	5832.3
533.73	5854.9
534.095	5876.82
534.461	5914.34
534.826	5933.77
535.192	5922.02
535.557	5999.08
535.923	5951.4
536.288	6018.29
536.653	6015.58
537.019	6064.39
537.384	6059.19
537.749	6055.8
538.114	6060.77
538.479	6119.53
538.845	6195.68
539.21	6187.78
539.575	6205.63
539.94	6257.15
540.305	6209.7
540.67	6260.32
541.034	6328.79
541.399	6298.05
541.764	6357.04
542.129	6300.77
542.494	6425.06
542.858	6415.57
543.223	6497.6
543.587	6485.62
543.952	6509.8
544.316	6499.86
544.681	6516.35
545.045	6572.17
545.41	6588.22
545.774	6598.39
546.138	6654.43
546.503	6688.1
546.867	6696.69
547.231	6765.61
547.595	6747.31
547.959	6716.35
548.324	6821.43
548.688	6809.45
549.052	6792.51
549.416	6839.06
549.779	6846.51
550.143	6868.21
550.507	6996.57
550.871	6971.94
551.235	6971.48
551.599	6997.47
551.962	7032.95
552.326	7050.8
552.689	7095.55
553.053	7073.4
553.417	7102.55
553.78	7191.14
554.143	7162.89
554.507	7132.16
554.87	7185.72
555.234	7223.91
555.597	7229.33
555.96	7216.9
556.323	7287.41
556.686	7256.22
557.05	7398.14
557.413	7274.07
557.776	7369.44
558.139	7416.22
558.502	7413.51
558.865	7409.44
559.228	7501.64
559.59	7473.39
559.953	7585.48
560.316	7565.82
560.679	7533.5
561.041	7670.22
561.404	7692.82
561.767	7698.24
562.129	7716.55
562.492	7770.11
562.854	7767.17
563.217	7700.28
563.579	7817.79
563.941	7825.02
564.304	7879.03
564.666	7954.51
565.028	7965.58
565.39	7979.37
565.753	8002.42
566.115	8029.31
566.477	8091
566.839	8065.24
567.201	8164.9
567.563	8152.92
567.925	8173.71
568.287	8174.39
568.648	8212.35
569.01	8294.84
569.372	8315.4
569.734	8326.48
570.095	8371.67
570.457	8329.87
570.819	8390.66
571.18	8396.76
571.542	8519.01
571.903	8524.21
572.265	8518.56
572.626	8630.2
572.987	8659.35
573.349	8698.67
573.71	8695.05
574.071	8758.78
574.432	8796.29
574.794	8876.74
575.155	8947.7
575.516	8936.4
575.877	9027.7
576.238	9049.85
576.599	9129.62
576.96	9210.29
577.32	9242.84
577.681	9341.14
578.042	9406
578.403	9481.02
578.763	9561.02
579.124	9656.16
579.485	9825.19
579.845	9845.08
580.206	9923.72
580.566	9978.18
580.927	10145.86
581.287	10301.57
581.648	10283.94
582.008	10513.76
582.368	10622.69
582.728	10711.27
583.089	10936.35
583.449	10989.68
583.809	11146.97
584.169	11282.56
584.529	11340.63
584.889	11646.39
585.249	11749.44
585.609	11908.53
585.969	12147.17
586.329	12254.73
586.688	12476.88
587.048	12661.28
587.408	12841.16
587.768	13055.39
588.127	13216.06
588.487	13495.61
588.846	13662.83
589.206	13799.55
589.565	14036.16
589.925	14315.25
590.284	14525.64
590.643	14801.79
591.003	15114.77
591.362	15307.31
591.721	15531.94
592.08	15789.1
592.44	16041.53
592.799	16262.31
593.158	16578.69
593.517	16811.22
593.876	17163.08
594.235	17397.65
594.593	17654.59
594.952	18031.98
595.311	18131.42
595.67	18476.94
596.029	18761
596.387	19153.08
596.746	19448.22
597.104	19567.08
597.463	19926.4
597.822	20163.45
598.18	20342.88
598.538	20692.03
598.897	21130.89
599.255	21188.96
599.613	21812.22
599.972	21946.68
600.33	22312.1
600.688	22508.48
601.046	22683.84
601.404	23126.76
601.762	23296.25
602.12	23613.08
602.478	23975.56
602.836	24265.49
603.194	24392.04
603.552	24621.64
603.91	24780.05
604.268	25159.03
604.625	25363.09
604.983	25701.39
605.341	25796.53
605.698	26120.36
606.056	26493.68
606.413	26676.95
606.771	27027.45
607.128	27269.93
607.485	27448.69
607.843	27593.54
608.2	27967.32
608.557	28146.97
608.914	28349.68
609.272	28616.11
609.629	28887.52
609.986	29101.3
610.343	29236.43
610.7	29527.27
611.057	29799.36
611.414	29948.51
611.771	30153.25
612.127	30506.01
612.484	30569.51
612.841	30820.35
613.198	30920.68
613.554	31048.14
613.911	31414.91
614.267	31583.49
614.624	31626.88
614.98	31841.79
615.337	32115.23
615.693	32234.55
616.05	32244.27
616.406	32657.36
616.762	32547.08
617.118	32874.53
617.475	33047.63
617.831	33208.76
618.187	33392.48
618.543	33463.44
618.899	33706.6
619.255	33862.08
619.611	33936.42
619.967	34084.44
620.323	34264.55
620.678	34183.2
621.034	34300.03
621.39	34380.25
621.746	34488.5
622.101	35083.74
622.457	34921.48
622.812	34913.8
623.168	35095.04
623.523	35235.15
623.879	35502.71
624.234	35390.62
624.589	35533.44
624.945	35625.19
625.3	35669.49
625.655	35692.76
626.01	35853.21
626.365	35956.26
626.72	35902.25
627.075	36090.94
627.43	36027.89
627.785	36081.9
628.14	36155.35
628.495	36288.9
628.85	36191.28
629.205	36160.09
629.559	36404.38
629.914	36395.12
630.269	36424.72
630.623	36302.46
630.978	36311.5
631.332	36508.11
631.687	36570.48
632.041	36485.51
632.396	36616.58
632.75	36634.66
633.104	36509.01
633.459	36403.93
633.813	36559.86
634.167	36537.71
634.521	36516.92
634.875	36710.14
635.229	36664.26
635.583	36549.46
635.937	36561.21
636.291	36645.73
636.645	36657.71
636.999	36563.02
637.352	36707.65
637.706	36457.49
638.06	36670.14
638.413	36634.88
638.767	36622.46
639.121	36684.6
639.474	36512.63
639.828	36612.96
640.181	36581.33
640.534	36667.65
640.888	36560.08
641.241	36436.92
641.594	36444.61
641.947	36621.33
642.301	36586.3
642.654	36632.17
643.007	36601.21
643.36	36656.8
643.713	36535.9
644.066	36641.44
644.419	36401.67
644.771	36196.25
645.124	35980.66
645.477	35937.73
645.83	35708.58
646.182	35591.97
646.535	35358.31
646.888	35541.35
647.24	35393.33
647.593	35678.3
647.945	35577.74
648.298	35263.85
648.65	35253.9
649.002	35303.39
649.355	35450.28
649.707	35292.55
650.059	35481.47
650.411	35889.82
650.763	36029.7
651.115	36341.33
651.467	36208.91
651.819	36144.28
652.171	36092.53
652.523	36067.67
652.875	36145.63
653.227	35875.13
653.578	36280.77
653.93	36194.44
654.282	35801.23
654.633	35797.17
654.985	35900.89
655.337	35979.76
655.688	36007.1
656.039	36005.75
656.391	35746.55
656.742	35854.11
657.094	35877.39
657.445	35990.38
657.796	35922.36
658.147	35774.34
658.498	35812.98
658.849	35894.11
659.2	35878.97
659.551	35774.34
659.902	35957.39
660.253	35784.29
660.604	35950.83
660.955	35650.28
661.306	35667.23
661.656	35704.06
662.007	35692.08
662.358	35779.99
662.708	35670.39
663.059	35722.14
663.409	35593.56
663.76	35864.06
664.11	35765.98
664.461	35735.02
664.811	35803.49
665.161	35646.44
665.511	35652.99
665.862	35650.28
666.212	35787.9
666.562	35714.23
666.912	35709.26
667.262	35608.02
667.612	35706.77
667.962	35669.49
668.312	35673.55
668.662	35876.94
669.011	35668.81
669.361	35586.1
669.711	35627.91
670.06	35499.55
670.41	35431.3
670.76	35465.65
671.109	35631.07
671.459	35578.64
671.808	35480.79
672.157	35597.85
672.507	35406.22
672.856	35406.44
673.205	35377.06
673.554	35474.01
673.904	35431.07
674.253	35669.49
674.602	35444.41
674.951	35006.68
675.3	34780.02
675.649	35263.85
675.998	35253.9
676.346	35119.9
676.695	35336.84
677.044	35117.18
677.393	35282.38
677.741	35289.83
678.09	35104.98
678.438	35137.3
678.787	35218.65
679.135	35108.82
679.484	34938.66
679.832	35097.75
680.181	34925.55
680.529	35019.11
680.877	35021.82
681.225	34942.95
681.573	35116.28
681.922	34906.79
682.27	34667.48
682.618	34686.69
682.966	34658.66
683.314	34696.86
683.661	34495.05
684.009	34477.43
684.357	34337.54
684.705	34323.53
685.053	34221.84
685.4	34318.33
685.748	34129.41
686.095	34097.78
686.443	34027.5
686.79	34003.99
687.138	34067.72
687.485	34019.81
687.832	33829.99
688.18	33916.09
688.527	33751.57
688.874	33810.1
689.221	33656.21
689.568	33575.53
689.915	33533.95
690.262	33645.13
690.609	33411.24
690.956	33276.1
691.303	33250.79
691.65	33186.16
691.997	33135.09
692.344	33013.28
692.69	32861.88
693.037	33025.04
693.383	32842.89
693.73	32825.27
694.077	32667.08
694.423	32651.26
694.769	32653.97
695.116	32349.12
695.462	32443.58
695.808	32325.39
696.155	32270.71
696.501	32100.99
696.847	31971.73
697.193	31905.07
697.539	31966.76
697.885	31680.44
698.231	31720.21
698.577	31640.67
698.923	31595.92
699.269	31457.39
699.614	31377.85
699.96	31288.58
700.306	31408.35
700.651	31154.35
700.997	31022.6
701.342	31038.87
701.688	31016.27
702.033	30932.21
702.379	30769.5
702.724	30667.58
703.069	30848.82
703.415	30356.41
703.76	30513.01
704.105	30444.09
704.45	30291.55
704.795	30219.01
705.14	30076.19
705.485	30023.53
705.83	29935.63
706.175	29990.54
706.52	29943.31
706.865	29760.94
707.209	29845.01
707.554	29763.43
707.899	29698.57
708.243	29496.54
708.588	29595.07
708.932	29484.34
709.277	29260.16
709.621	29404.11
709.966	29186.27
710.31	29220.39
710.654	29061.3
710.998	29073.73
711.342	28981.98
711.687	28829.44
712.031	28698.37
712.375	28640.07
712.719	28748.76
713.063	28725.26
713.407	28705.83
713.75	28591.71
714.094	28703.34
714.438	28426.74
714.782	28529.56
715.125	28320.75
715.469	28336.12
715.812	28238.49
716.156	28072.85
716.499	28191.04
716.843	28148.1
717.186	28087.31
717.53	28133.41
717.873	28017.03
718.216	28018.61
718.559	27727.77
718.902	27798.05
719.246	27884.15
719.589	27564.84
719.932	27549.47
720.275	27503.82
720.617	27551.73
720.96	27518.29
721.303	27496.59
721.646	27504.28
721.989	27222.7
722.331	27406.2
722.674	27275.58
723.016	27253.44
723.359	27176.83
723.701	27263.38
724.044	27011.41
724.386	26954.46
724.729	27018.64
725.071	26999.88
725.413	27007.34
725.755	26888.02
726.097	26947.46
726.439	26706.56
726.782	26788.82
727.124	26840.79
727.465	26707.24
727.807	26751.3
728.149	26669.27
728.491	26446
728.833	26510.63
729.175	26399
729.516	26434.25
729.858	26440.12
730.199	26394.48
730.541	26216.4
730.882	26232.9
731.224	26396.74
731.565	26105.44
731.906	26147.25
732.248	26336.4
732.589	26071.09
732.93	25943.87
733.271	25940.7
733.612	26102.05
733.953	26010.98
734.294	25869.07
734.635	25844.43
734.976	25789.97
735.317	25760.37
735.658	25715.85
735.999	25718.79
736.339	25718.11
736.68	25728.28
737.021	25521.73
737.361	25589.07
737.702	25623.87
738.042	25556.98
738.383	25500.26
738.723	25529.87
739.063	25402.19
739.404	25422.98
739.744	25434.73
740.084	25307.05
740.424	25333.26
740.764	25294.62
741.104	25366.93
741.444	25178.01
741.784	25133.72
742.124	25186.82
742.464	25162.87
742.804	25103.44
743.143	25084
743.483	25192.93
743.823	24964.23
744.162	24984.12
744.502	24945.02
744.841	24950.22
745.181	24810.79
745.52	24681.53
745.86	24855.76
746.199	24804.46
746.538	24621.64
746.877	24794.52
747.216	24813.73
747.556	24681.3
747.895	24583.68
748.234	24592.04
748.573	24606.27
748.911	24533.51
749.25	24513.85
749.589	24339.61
749.928	24440.85
750.267	24459.16
750.605	24317.92
750.944	24232.5
751.283	24216.91
751.621	24256.68
751.96	24120.86
752.298	24031.6
752.636	24152.5
752.975	23933.07
753.313	23861.21
753.651	24006.29
753.989	23884.48
754.327	23860.98
754.666	23758.84
755.004	23815.11
755.342	23855.56
755.679	23724.04
756.017	23661.89
756.355	23669.12
756.693	23478.39
757.031	23546.19
757.368	23359.08
757.706	23381.67
758.044	23390.26
758.381	23406.98
758.719	23360.43
759.056	23267.55
759.394	23180.1
759.731	23128.57
760.068	22968.35
760.405	23027.11
760.743	22806.77
761.08	23006.32
761.417	22757.28
761.754	22793.44
762.091	22650.17
762.428	22618.53
762.765	22556.38
763.102	22615.14
763.438	22442.49
763.775	22355.49
764.112	22374.02
764.449	22291.53
764.785	22245.88
765.122	22139.22
765.458	22113.46
765.795	21996.85
766.131	22032.1
766.467	21920.24
766.804	21894.25
767.14	21793.47
767.476	21797.53
767.812	21730.42
768.148	21683.19
768.485	21428.73
768.821	21483.42
769.157	21302.86
769.492	21360.94
769.828	21321.16
770.164	21103.99
770.5	21085.46
770.836	21076.88
771.171	20910.1
771.507	20976.09
771.842	20751.69
772.178	20666.49
772.513	20727.05
772.849	20621.07
773.184	20456.1
773.519	20492.26
773.855	20498.36
774.19	20299.72
774.525	20206.62
774.86	20212.27
775.195	20189.67
775.53	20021.76
775.865	20001.88
776.2	19805.95
776.535	19759.85
776.87	19676.46
777.205	19546.75
777.539	19572.51
777.874	19716.01
778.209	19507.2
778.543	19345.17
778.878	19252.06
779.212	19331.84
779.547	19097.04
779.881	19244.83
780.215	19053.2
780.55	19115.34
780.884	18958.96
781.218	18924.62
781.552	18903.6
781.886	18815.01
782.22	18656.83
782.554	18529.15
782.888	18440.79
783.222	18401.24
783.556	18360.34
783.889	18251.19
784.223	18194.47
784.557	18107.01
784.89	18129.61
785.224	18042.38
785.557	18016.62
785.891	17949.95
786.224	17848.49
786.558	17823.4
786.891	17691.88
787.224	17710.41
787.557	17588.15
787.891	17552
788.224	17560.58
788.557	17476.07
788.89	17421.38
789.223	17433.58
789.556	17206.24
789.888	17266.35
790.221	17099.35
790.554	16991.11
790.887	16991.11
791.219	16967.15
791.552	16927.83
791.884	16851
792.217	16752.7
792.549	16741.17
792.882	16693.94
793.214	16490.33
793.546	16658.69
793.879	16471.35
794.211	16349.09
794.543	16289.2
794.875	16295.53
795.207	16418.92
795.539	16173.05
795.871	16190
796.203	16138.47
796.535	16119.94
796.867	16046.27
797.198	15971.25
797.53	15965.6
797.862	15852.83
798.193	15846.05
798.525	15764.92
798.856	15812.15
799.188	15631.37
799.519	15557.92
799.85	15533.29
800.182	15600.86
800.513	15514.54
800.844	15401.09
801.175	15392.05
801.506	15431.83
801.837	15289.46
802.168	15249.01
802.499	15263.69
802.83	15129.23
803.161	15082.91
803.491	15059.86
803.822	15049.01
804.153	15017.6
804.483	14841.33
804.814	14794.1
805.145	14770.83
805.475	14849.47
805.805	14661.45
806.136	14764.05
806.466	14692.18
806.796	14691.28
807.126	14575.13
807.457	14451.51
807.787	14554.79
808.117	14387.79
808.447	14261.01
808.777	14395.24
809.107	14302.59
809.436	14313.66
809.766	14318.86
810.096	14159.54
810.426	14190.73
810.755	14148.47
811.085	14122.03
811.414	14054.69
811.744	14060.11
812.073	14022.37
812.403	13939.21
812.732	13867.35
813.061	13868.93
813.39	13827.12
813.719	13832.55
814.049	13946.89
814.378	13787.35
814.707	13694.92
815.036	13720.01
815.365	13556.17
815.693	13568.37
816.022	13494.93
816.351	13437.3
816.68	13457.19
817.008	13463.74
817.337	13389.85
817.665	13329.96
817.994	13330.86
818.322	13339
818.651	13285.67
818.979	13234.37
819.307	13303.97
819.636	13206.35
819.964	13156.18
820.292	13137.2
820.62	13148.72
820.948	13124.77
821.276	13082.96
821.604	12992.34
821.932	13106.01
822.259	13025.34
822.587	13098.33
822.915	13046.13
823.243	13052
823.57	12973.36
823.898	13089.97
824.225	13045.22
824.553	13038.89
824.88	13003.87
825.207	13079.12
825.535	12888.62
825.862	13097.2
826.189	12943.76
826.516	13086.12
826.843	13117.76
827.17	13081.83
827.497	13094.49
827.824	13040.93
828.151	13048.16
828.478	13027.14
828.805	13120.25
829.131	12955.05
829.458	13013.36
829.785	12913.02
830.111	12988.95
830.438	13023.53
830.764	13020.59
831.09	13011.32
831.417	12835.96
831.743	13005
832.069	13007.03
832.395	12905.11
832.722	12934.72
833.048	12969.52
833.374	12922.06
833.7	12823.31
834.026	12905.34
834.351	12857.88
834.677	12860.14
835.003	12815.62
835.329	12794.16
835.654	12835.51
835.98	12720.94
836.306	12781.73
836.631	12689.3
836.956	12725.91
837.282	12722.52
837.607	12668.06
837.932	12651.56
838.258	12628.74
838.583	12642.97
838.908	12569.98
839.233	12602.07
839.558	12573.37
839.883	12490.89
840.208	12482.07
840.533	12482.75
840.858	12479.14
841.182	12516.42
841.507	12433.26
841.832	12380.61
842.156	12404.56
842.481	12297.67
842.805	12352.58
843.13	12253.6
843.454	12240.95
843.778	12197.56
844.103	12126.83
844.427	12122.76
844.751	12203.21
845.075	12071.01
845.399	12034.4
845.723	11946.27
846.047	12040.73
846.371	11960.05
846.695	11900.39
847.019	11815.88
847.343	11787.18
847.666	11684.13
847.99	11751.7
848.313	11637.35
848.637	11651.13
848.96	11602.55
849.284	11537.69
849.607	11527.52
849.931	11440.29
850.254	11366.62
850.577	11342.89
850.9	11226.06
851.223	11242.56
851.546	11218.6
851.869	11123.69
852.192	11199.62
852.515	10974.54
852.838	10998.5
853.161	11039.85
853.483	10944.26
853.806	10916.24
854.129	10870.59
854.451	10782
854.774	10743.14
855.096	10741.1
855.419	10753.08
855.741	10665.17
856.063	10594.66
856.385	10611.16
856.708	10560.99
857.03	10539.07
857.352	10626.53
857.674	10521.22
857.996	10457.72
858.318	10455.69
858.64	10464.95
858.961	10347.67
859.283	10322.58
859.605	10288.68
859.926	10293.2
860.248	10264.5
860.57	10239.42
860.891	10250.27
861.212	10206.2
861.534	10177.05
861.855	10133.66
862.176	10113.1
862.498	10147.67
862.819	10154.22
863.14	10055.92
863.461	10112.42
863.782	10049.37
864.103	10002.59
864.424	9968.24
864.745	9958.3
865.065	9959.65
865.386	9876.94
865.707	9899.77
866.027	9914.23
866.348	9884.85
866.668	9846.21
866.989	9867.23
867.309	9732.54
867.63	9836.72
867.95	9777.51
868.27	9740.9
868.59	9816.83
868.91	9744.07
869.23	9762.6
869.55	9704.29
869.87	9705.87
870.19	9678.76
870.51	9703.39
870.83	9657.74
871.15	9613.9
871.469	9631.07
871.789	9611.41
872.109	9618.87
872.428	9563.73
872.748	9622.71
873.067	9488.93
873.386	9576.16
873.706	9520.57
874.025	9474.24
874.344	9411.42
874.663	9511.76
874.982	9380.46
875.301	9404.41
875.62	9363.96
875.939	9402.38
876.258	9337.3
876.577	9363.06
876.896	9344.75
877.214	9291.42
877.533	9329.61
877.852	9285.55
878.17	9324.87
878.489	9223.4
878.807	9292.78
879.125	9258.65
879.444	9237.41
879.762	9172.33
880.08	9230.86
880.398	9155.38
880.716	9264.98
881.034	9128.26
881.352	9132.78
881.67	9051.43
881.988	9107.92
882.306	9040.58
882.624	8970.75
882.941	9010.3
883.259	8956.97
883.577	8968.04
883.894	8937.53
884.212	8898.66
884.529	8933.24
884.846	8853.24
885.164	8840.59
885.481	8852.34
885.798	8823.41
886.115	8712.45
886.432	8753.36
886.75	8700.7
887.067	8718.78
887.383	8655.51
887.7	8724.88
888.017	8642.17
888.334	8650.31
888.651	8649.63
888.967	8629.07
889.284	8571.22
889.6	8542.97
889.917	8488.05
890.233	8479.92
890.55	8481.27
890.866	8447.83
891.182	8404.89
891.498	8432.01
891.815	8398.34
892.131	8364.44
892.447	8356.53
892.763	8339.81
893.079	8320.15
893.395	8246.7
893.71	8233.37
894.026	8258.46
894.342	8185.46
894.657	8128.06
894.973	8175.52
895.289	8096.88
895.604	8140.27
895.92	8062.3
896.235	8079.48
896.55	7985.47
896.865	8004.9
897.181	7986.82
897.496	7992.47
897.811	7908.18
898.126	7823.66
898.441	7902.31
898.756	7834.29
899.071	7815.75
899.386	7803.78
899.7	7757
900.015	7693.95
900.33	7653.73
900.644	7642.65
900.959	7634.52
901.273	7546.84
901.588	7592.71
901.902	7498.93
902.216	7495.99
902.531	7549.32
902.845	7479.94
903.159	7441.98
903.473	7391.81
903.787	7364.02
904.101	7335.09
904.415	7324.02
904.729	7282.21
905.042	7230.69
905.356	7254.41
905.67	7209.67
905.984	7217.8
906.297	7148.43
906.611	7125.83
906.924	7111.59
907.237	7081.08
907.551	7059.84
907.864	6995.44
908.177	7035.66
908.491	7061.42
908.804	6934.2
909.117	6944.37
909.43	6895.33
909.743	6852.39
910.056	6839.06
910.368	6829.11
910.681	6810.13
910.994	6736.46
911.307	6735.33
911.619	6670.7
911.932	6620.98
912.244	6644.03
912.557	6659.63
912.869	6573.75
913.181	6581.44
913.494	6577.82
913.806	6478.61
914.118	6530.14
914.43	6473.19
914.742	6470.48
915.054	6397.94
915.366	6362.69
915.678	6396.58
915.99	6344.38
916.302	6283.14
916.613	6225.06
916.925	6264.38
917.236	6216.7
917.548	6217.15
917.859	6210.6
918.171	6106.87
918.482	6102.35
918.794	6105.97
919.105	6104.84
919.416	6054.9
919.727	6063.94
920.038	5979.87
920.349	5940.32
920.66	5934.67
920.971	5932.41
921.282	5891.74
921.593	5872.98
921.903	5843.83
922.214	5835.24
922.525	5850.61
922.835	5802.7
923.146	5800.21
923.456	5763.83
923.767	5684.06
924.077	5714.79
924.387	5675.7
924.697	5660.11
925.008	5591.86
925.318	5600.45
925.628	5636.38
925.938	5581.69
926.248	5510.96
926.558	5458.98
926.867	5459.21
927.177	5499.88
927.487	5436.38
927.796	5438.64
928.106	5381.47
928.416	5368.81
928.725	5358.64
929.034	5327.46
929.344	5349.83
929.653	5345.54
929.962	5247.69
930.271	5225.31
930.581	5227.8
930.89	5189.16
931.199	5165.66
931.508	5155.26
931.817	5132.66
932.125	5102.15
932.434	5061.03
932.743	5036.17
933.051	5068.03
933.36	5023.96
933.669	4974.93
933.977	5004.98
934.286	4969.05
934.594	4931.76
934.902	4876.4
935.21	4857.64
935.519	4858.77
935.827	4881.14
936.135	4802.73
936.443	4754.37
936.751	4753.69
937.059	4788.49
937.367	4769.51
937.674	4773.58
937.982	4670.75
938.29	4667.82
938.597	4760.69
938.905	4623.52
939.213	4626.69
939.52	4593.24
939.827	4575.16
940.135	4551.89
940.442	4567.03
940.749	4576.07
941.056	4508.27
941.363	4489.74
941.67	4494.71
941.977	4429.18
942.284	4366.35
942.591	4413.81
942.898	4405.22
943.205	4430.76
943.511	4364.77
943.818	4355.05
944.125	4363.19
944.431	4338.11
944.738	4285
945.044	4299.69
945.35	4304.43
945.657	4275.51
945.963	4213.36
946.269	4223.98
946.575	4211.56
946.881	4145.34
947.187	4142.41
947.493	4145.57
947.799	4145.79
948.105	4093.59
948.41	4066.02
948.716	4073.71
949.022	4042.52
949.327	4009.08
949.633	3980.6
949.938	4001.62
950.244	3936.53
950.549	3945.8
950.854	3964.56
951.16	3932.24
951.465	3887.04
951.77	3866.93
952.075	3852.02
952.38	3859.02
952.685	3820.61
952.99	3820.61
953.294	3796.43
953.599	3803.21
953.904	3757.1
954.209	3779.48
954.513	3734.73
954.818	3697.67
955.122	3714.85
955.426	3680.27
955.731	3671.91
956.035	3676.88
956.339	3667.84
956.643	3624.23
956.948	3634.17
957.252	3596.43
957.556	3559.82
957.86	3588.52
958.163	3522.76
958.467	3531.35
958.771	3569.09
959.075	3507.39
959.378	3490.9
959.682	3459.26
959.985	3456.55
960.289	3433.5
960.592	3440.73
960.896	3377
961.199	3387.85
961.502	3362.54
961.805	3368.64
962.108	3358.47
962.411	3353.73
962.714	3306.27
963.017	3335.87
963.32	3302.88
963.623	3252.26
963.926	3281.41
964.228	3257.23
964.531	3241.19
964.833	3225.82
965.136	3219.49
965.438	3198.25
965.741	3166.16
966.043	3180.85
966.345	3159.83
966.648	3170.91
966.95	3120.96
967.252	3118.25
967.554	3121.42
967.856	3089.33
968.158	3049.55
968.46	3068.76
968.761	3087.97
969.063	3024.47
969.365	3051.36
969.666	3078.03
969.968	2962.1
970.269	2955.32
970.571	3005.03
970.872	2990.8
971.174	2962.1
971.475	2907.18
971.776	2943.57
972.077	2889.1
972.378	2928.88
972.679	2873.96
972.98	2884.59
973.281	2871.25
973.582	2817.47
973.883	2823.57
974.183	2802.1
974.484	2845.26
974.785	2801.88
975.085	2759.62
975.386	2791.03
975.686	2779.05
975.986	2788.99
976.287	2734.98
976.587	2725.04
976.887	2732.95
977.187	2706.74
977.487	2694.08
977.787	2697.92
978.087	2636.23
978.387	2658.38
978.687	2652.95
978.987	2654.53
979.286	2641.88
979.586	2599.85
979.885	2614.08
980.185	2579.51
980.484	2591.71
980.784	2578.15
981.083	2536.35
981.382	2540.19
981.682	2555.1
981.981	2522.56
982.28	2504.71
982.579	2528.89
982.878	2476.46
983.177	2497.48
983.475	2464.71
983.774	2434.2
984.073	2441.88
984.372	2431.49
984.67	2443.92
984.969	2403.24
985.267	2407.54
985.566	2407.99
985.864	2401.66
986.162	2388.1
986.461	2342.45
986.759	2347.65
987.057	2339.06
987.355	2318.5
987.653	2310.81
987.951	2319.18
988.249	2277.6
988.547	2299.06
988.844	2294.54
989.142	2297.03
989.44	2298.84
989.737	2240.99
990.035	2246.86
990.332	2198.73
990.63	2249.12
990.927	2226.75
991.224	2173.87
991.521	2199.63
991.819	2205.73
992.116	2203.25
992.413	2159.41
992.71	2152.85
993.006	2152.4
993.303	2116.92
993.6	2133.64
993.897	2126.64
994.193	2109.69
994.49	2117.6
994.787	2095.23
995.083	2106.75
995.379	2045.96
995.676	2082.35
995.972	2047.32
996.268	2002.57
996.565	2019.98
996.861	2005.74
997.157	1982.46
997.453	1992.63
997.749	1969.81
998.044	1975
998.34	1984.04
998.636	1949.02
998.932	1933.65
999.227	1938.62
999.523	1918.51
999.818	1942.24
1000.114	1900.88
1000.409	1909.7
1000.704	1884.39
1001	1880.54
1001.295	1879.19
1001.59	1871.05
1001.885	1882.35
1002.18	1813.2
1002.475	1852.97
1002.77	1841
1003.065	1808.46
1003.359	1839.19
1003.654	1771.17
1003.949	1764.39
1004.243	1771.17
1004.538	1743.15
1004.832	1749.7
1005.127	1761
1005.421	1738.17
1005.715	1704.28
1006.009	1716.48
1006.304	1722.58
1006.598	1664.05
1006.892	1683.49
1007.186	1679.65
1007.48	1649.82
1007.773	1669.02
1008.067	1662.24
1008.361	1620.89
1008.655	1693.66
1008.948	1639.42
1009.242	1624.28
1009.535	1593.55
1009.829	1573.21
1010.122	1594.9
1010.415	1573.66
1010.708	1565.98
1011.001	1564.39
1011.295	1570.04
1011.588	1538.41
1011.881	1570.27
1012.173	1565.98
1012.466	1516.26
1012.759	1513.55
1013.052	1481.23
1013.344	1516.94
1013.637	1492.53
1013.93	1491.85
1014.222	1464.51
1014.514	1457.96
1014.807	1462.25
1015.099	1459.76
1015.391	1421.35
1015.683	1419.99
1015.976	1438.97
1016.268	1445.75
1016.56	1422.93
1016.851	1401.69
1017.143	1390.39
1017.435	1390.61
1017.727	1373.21
1018.018	1393.55
1018.31	1342.93
1018.602	1329.37
1018.893	1337.96
1019.185	1331.86
1019.476	1305.64
1019.767	1322.82
1020.058	1309.71
1020.35	1287.57
1020.641	1311.29
1020.932	1302.48
1021.223	1257.74
1021.514	1259.09
1021.804	1265.19
1022.095	1262.25
1022.386	1254.35
1022.677	1227.23
1022.967	1241.46
1023.258	1217.96
1023.548	1228.81
1023.839	1207.12
1024.129	1205.08
1024.419	1198.3
1024.709	1163.73
1025	1156.72
1025.29	1168.47
1025.58	1161.01
1025.87	1143.39
1026.16	1147.46
1026.449	1154.01
1026.739	1141.81
1027.029	1132.09
1027.319	1109.72
1027.608	1118.3
1027.898	1103.62
1028.187	1091.86
1028.477	1076.27
1028.766	1060.68
1029.055	1074.46
1029.344	1086.67
1029.634	1067.01
1029.923	1048.93
1030.212	1059.55
1030.501	1028.59
1030.79	1031.75
1031.078	1041.02
1031.367	1010.28
1031.656	1026.55
1031.945	1008.93
1032.233	1010.51
1032.522	1004.18
1032.81	998.76
1033.099	970.29
1033.387	977.29
1033.675	953.79
1033.963	971.42
1034.251	990.85
1034.54	930.96
1034.828	943.39
1035.116	956.5
1035.403	953.11
1035.691	931.64
1035.979	950.62
1036.267	921.02
1036.554	905.43
1036.842	918.54
1037.129	881.02
1037.417	904.98
1037.704	911.98
1037.992	890.74
1038.279	877.86
1038.566	874.02
1038.853	874.02
1039.14	874.02
