Data from hue_190_FLMS001491_00095.txt Node
Date: Tue Feb 07 16:46:02 GMT 2017
User: dcchb
Spectrometer: FLMS00149
Trigger mode: 0
Integration Time (sec): 2.000000E-2
Scans to average: 10
Electric dark correction enabled: true
Nonlinearity correction enabled: false
Boxcar width: 0
XAxis mode: Wavelengths
Number of Pixels in Spectrum: 2048
>>>>>Begin Spectral Data<<<<<
341.393	-2.46
341.776	-2.46
342.16	-2.46
342.543	-49.46
342.927	-66.18
343.31	-65.73
343.693	-64.83
344.077	-68.22
344.46	-49.01
344.843	-78.39
345.226	-34.32
345.61	-57.6
345.993	-18.73
346.376	2.51
346.759	13.14
347.142	30.08
347.525	49.52
347.908	67.82
348.291	85.22
348.674	85.45
349.057	103.08
349.44	137.88
349.823	146.24
350.206	173.81
350.588	215.16
350.971	200.7
351.354	209.74
351.737	219.68
352.119	250.87
352.502	251.1
352.884	260.36
353.267	274.82
353.65	272.56
354.032	292.9
354.414	289.74
354.797	303.07
355.179	308.95
355.562	299.23
355.944	307.36
356.326	329.51
356.709	328.16
357.091	335.61
357.473	334.93
357.855	332.45
358.238	335.16
358.62	338.32
359.002	326.35
359.384	359.11
359.766	330.64
360.148	336.74
360.53	359.79
360.912	322.05
361.294	332.22
361.676	318.66
362.057	323.41
362.439	316.86
362.821	347.14
363.203	318.44
363.584	314.37
363.966	313.69
364.348	313.92
364.729	324.31
365.111	342.17
365.493	310.3
365.874	315.5
366.256	303.98
366.637	310.53
367.019	302.17
367.4	319.79
367.781	303.3
368.163	313.69
368.544	324.54
368.925	278.66
369.306	310.08
369.688	312.79
370.069	319.12
370.45	300.13
370.831	294.26
371.212	310.08
371.593	315.05
371.974	299.46
372.355	295.16
372.736	310.08
373.117	305.1
373.498	299.23
373.879	301.04
374.26	291.77
374.641	314.37
375.021	308.04
375.402	306.23
375.783	307.36
376.163	320.92
376.544	315.73
376.925	307.59
377.305	313.92
377.686	322.73
378.066	320.02
378.447	315.27
378.827	318.66
379.208	329.06
379.588	313.24
379.968	319.57
380.349	316.18
380.729	328.16
381.109	335.39
381.489	314.82
381.87	316.4
382.25	334.93
382.63	326.12
383.01	346.01
383.39	314.37
383.77	325.9
384.15	339.23
384.53	325.67
384.91	332.22
385.29	333.35
385.67	339.68
386.049	347.82
386.429	335.61
386.809	348.04
387.189	344.43
387.568	350.75
387.948	347.36
388.328	359.34
388.707	355.95
389.087	360.24
389.466	340.36
389.846	342.17
390.225	319.12
390.605	357.08
390.984	348.95
391.363	353.24
391.743	342.84
392.122	347.82
392.501	352.56
392.881	353.01
393.26	366.12
393.639	360.7
394.018	387.81
394.397	380.36
394.776	364.31
395.155	384.88
395.534	368.15
395.913	384.88
396.292	361.37
396.671	376.06
397.05	415.16
397.429	380.36
397.808	374.71
398.186	389.85
398.565	391.88
398.944	387.81
399.323	414.03
399.701	390.75
400.08	416.06
400.458	390.3
400.837	405.22
401.215	417.42
401.594	395.72
401.972	404.99
402.351	402.73
402.729	411.99
403.107	398.21
403.486	415.16
403.864	396.85
404.242	402.96
404.62	419.9
404.999	424.65
405.377	414.03
405.755	433.92
406.133	436.17
406.511	437.08
406.889	457.64
407.267	460.58
407.645	461.26
408.023	460.36
408.401	449.06
408.779	459.9
409.156	473.24
409.534	495.83
409.912	491.31
410.29	503.74
410.667	493.35
411.045	490.86
411.422	526.57
411.8	517.75
412.178	540.35
412.555	520.47
412.933	549.84
413.31	570.18
413.687	585.1
414.065	585.78
414.442	574.7
414.819	575.38
415.197	595.04
415.574	605.21
415.951	610.86
416.328	605.21
416.705	629.39
417.082	635.49
417.46	611.76
417.837	664.64
418.214	637.53
418.591	656.96
418.967	671.42
419.344	663.51
419.721	680.01
420.098	689.28
420.475	715.26
420.852	709.39
421.228	711.87
421.605	725.43
421.982	759.33
422.358	756.84
422.735	778.76
423.111	784.41
423.488	804.3
423.864	798.43
424.241	826.45
424.617	834.13
424.994	841.81
425.37	864.86
425.746	863.51
426.123	860.57
426.499	905.09
426.875	915.71
427.251	910.74
427.627	940.79
428.003	955.94
428.379	946.67
428.756	948.48
429.132	979.89
429.507	966.78
429.883	983.28
430.259	1005.88
430.635	1009.49
431.011	1021.92
431.387	1056.95
431.763	1054.01
432.138	1059.21
432.514	1090.17
432.89	1103.73
433.265	1128.59
433.641	1151.64
434.016	1177.85
434.392	1190.28
434.767	1229.37
435.143	1235.02
435.518	1211.3
435.894	1260.11
436.269	1261.01
436.644	1320.45
437.02	1320.22
437.395	1346.43
437.77	1392.31
438.145	1410.61
438.52	1416.26
438.895	1465.07
439.271	1455.58
439.646	1454
440.021	1515.24
440.395	1542.36
440.77	1512.98
441.145	1531.74
441.52	1581.23
441.895	1587.33
442.27	1622.13
442.645	1612.42
443.019	1646.09
443.394	1656.71
443.769	1681.11
444.143	1690.38
444.518	1710.04
444.892	1725.41
445.267	1745.97
445.641	1736.48
446.016	1749.13
446.39	1802.47
446.764	1807.66
447.139	1817.38
447.513	1847.44
447.887	1860.09
448.262	1868.45
448.636	1880.66
449.01	1914.78
449.384	1908
449.758	1926.31
450.132	1948.68
450.506	1957.04
450.88	1999.07
451.254	1990.94
451.628	2011.95
452.002	2030.71
452.376	2081.78
452.75	2102.57
453.123	2121.1
453.497	2149.58
453.871	2144.83
454.244	2185.96
454.618	2230.48
454.992	2215.34
455.365	2237.26
455.739	2299.4
456.112	2284.71
456.486	2330.36
456.859	2359.97
457.232	2380.98
457.606	2387.54
457.979	2421.21
458.352	2480.87
458.725	2476.12
459.099	2520.64
459.472	2552.96
459.845	2618.94
460.218	2598.38
460.591	2623.69
460.964	2627.98
461.337	2719.96
461.71	2774.19
462.083	2832.72
462.456	2789.33
462.829	2818.49
463.201	2875.88
463.574	2886.51
463.947	2932.15
464.32	2998.59
464.692	3001.53
465.065	3048.08
465.438	3105.48
465.81	3149.1
466.183	3164.01
466.555	3260.51
466.928	3265.48
467.3	3208.98
467.672	3344.35
468.045	3412.82
468.417	3417.34
468.789	3449.2
469.161	3449.88
469.534	3562.42
469.906	3584.57
470.278	3629.31
470.65	3701.4
471.022	3778.01
471.394	3827.5
471.766	3863.88
472.138	3919.7
472.51	3996.99
472.882	4062.97
473.253	4108.62
473.625	4186.36
473.997	4262.29
474.369	4293.47
474.74	4334.38
475.112	4397.43
475.484	4462.06
475.855	4634.26
476.227	4594.71
476.598	4710.86
476.97	4760.58
477.341	4897.53
477.713	4949.5
478.084	5020.69
478.455	5102.27
478.827	5151.31
479.198	5313.33
479.569	5249.38
479.94	5501.13
480.311	5509.71
480.682	5666.77
481.053	5748.35
481.424	5850.72
481.795	5908.57
482.166	6015.69
482.537	6072.64
482.908	6223.82
483.279	6273.31
483.65	6395.34
484.021	6499.07
484.391	6557.37
484.762	6617.03
485.133	6739.06
485.503	6807.98
485.874	6978.38
486.244	7001.2
486.615	7208.88
486.985	7246.17
487.356	7325.26
487.726	7448.65
488.097	7563.67
488.467	7595.99
488.837	7723.44
489.207	7791.91
489.578	7936.32
489.948	7981.29
490.318	8129.31
490.688	8201.39
491.058	8312.35
491.428	8377.66
491.798	8499.24
492.168	8647.94
492.538	8649.52
492.908	8760.25
493.278	8864.43
493.648	8810.87
494.017	9017.87
494.387	9044.76
494.757	9103.97
495.126	9153.46
495.496	9211.99
495.866	9291.76
496.235	9307.13
496.605	9349.39
496.974	9413.11
497.344	9560
497.713	9552.77
498.082	9671.86
498.452	9717.06
498.821	9725.65
499.19	9722.03
499.559	9837.74
499.928	9843.39
500.298	9849.03
500.667	9987.79
501.036	9979.2
501.405	10010.61
501.774	10019.65
502.143	10122.7
502.512	10212.19
502.88	10211.06
503.249	10215.8
503.618	10303.94
503.987	10308.23
504.356	10343.26
504.724	10381.22
505.093	10419.42
505.462	10420.32
505.83	10478.4
506.199	10534.67
506.567	10585.74
506.936	10601.56
507.304	10643.82
507.672	10696.24
508.041	10668
508.409	10752.74
508.777	10752.29
509.145	10776.02
509.514	10763.36
509.882	10807.65
510.25	10823.02
510.618	10877.93
510.986	10851.49
511.354	10876.58
511.722	10999.51
512.09	11027.99
512.458	10903.24
512.826	11009.46
513.193	11071.83
513.561	10981.66
513.929	11051.94
514.297	11088.1
514.664	11140.53
515.032	11122.22
515.4	11152.96
515.767	11180.53
516.135	11180.3
516.502	11080.41
516.869	11218.72
517.237	11240.86
517.604	11160.64
517.972	11194.54
518.339	11224.14
518.706	11153.86
519.073	11238.6
519.44	11229.34
519.808	11215.55
520.175	11291.71
520.542	11375.55
520.909	11290.13
521.276	11287.42
521.643	11364.93
522.009	11320.86
522.376	11336.23
522.743	11353.63
523.11	11363.57
523.477	11416.9
523.843	11419.16
524.21	11454.42
524.577	11528.09
524.943	11478.82
525.31	11417.13
525.676	11512.27
526.043	11516.79
526.409	11497.58
526.776	11492.16
527.142	11539.39
527.508	11495.55
527.874	11517.69
528.241	11497.35
528.607	11466.62
528.973	11517.92
529.339	11430.01
529.705	11516.34
530.071	11402.21
530.437	11420.74
530.803	11404.93
531.169	11385.72
531.535	11284.03
531.901	11259.85
532.267	11272.5
532.632	11227.3
532.998	11286.06
533.364	11182.79
533.73	11214.65
534.095	11253.97
534.461	11228.21
534.826	11133.97
535.192	11104.82
535.557	11150.7
535.923	11002.45
536.288	11004.03
536.653	10928.1
537.019	10893.98
537.384	10856.24
537.749	10863.02
538.114	10687.66
538.479	10682.46
538.845	10669.35
539.21	10602.91
539.575	10557.72
539.94	10516.81
540.305	10522.92
540.67	10428.45
541.034	10448.12
541.399	10324.05
541.764	10281.34
542.129	10332.41
542.494	10263.49
542.858	10169.03
543.223	10142.13
543.587	10171.29
543.952	10008.8
544.316	9964.51
544.681	9892.42
545.045	9912.99
545.41	9936.49
545.774	9804.52
546.138	9786.21
546.503	9759.09
546.867	9653.33
547.231	9670.96
547.595	9593
547.959	9543.96
548.324	9536.05
548.688	9407.69
549.052	9367.92
549.416	9291.54
549.779	9316.62
550.143	9230.07
550.507	9240.92
550.871	9167.02
551.235	9171.76
551.599	9089.96
551.962	9074.37
552.326	9022.16
552.689	8968.83
553.053	8931.32
553.417	8844.09
553.78	8928.38
554.143	8812.23
554.507	8823.98
554.87	8794.6
555.234	8768.61
555.597	8620.59
555.96	8667.82
556.323	8649.07
556.686	8623.08
557.05	8579.46
557.413	8605.45
557.776	8492.69
558.139	8510.99
558.502	8534.49
558.865	8449.07
559.228	8535.85
559.59	8428.73
559.953	8322.07
560.316	8499.24
560.679	8379.92
561.041	8444.78
561.404	8355.06
561.767	8336.76
562.129	8291.11
562.492	8336.76
562.854	8234.84
563.217	8234.16
563.579	8246.14
563.941	8264.44
564.304	8210.21
564.666	8245.01
565.028	8217.89
565.39	8197.1
565.753	8178.57
566.115	8219.7
566.477	8193.26
566.839	8183.99
567.201	8173.37
567.563	8117.78
567.925	8139.48
568.287	8135.41
568.648	8198.23
569.01	8163.66
569.372	8225.8
569.734	8156.88
570.095	8219.47
570.457	8203.43
570.819	8141.51
571.18	8131.79
571.542	8223.31
571.903	8163.66
572.265	8160.72
572.626	8178.57
572.987	8155.29
573.349	8150.77
573.71	8182.86
574.071	8175.63
574.432	8136.54
574.794	8151.68
575.155	8183.54
575.516	8085.69
575.877	8201.17
576.238	8101.51
576.599	8142.19
576.96	8168.18
577.32	8123.2
577.681	8162.75
578.042	8078.69
578.403	8162.75
578.763	8134.5
579.124	8096.99
579.485	8169.76
579.845	8158.01
580.206	8110.55
580.566	8072.58
580.927	8118.01
581.287	8137.67
581.648	8021.29
582.008	8040.49
582.368	8053.38
582.728	8073.04
583.089	8080.95
583.449	8046.6
583.809	8052.92
584.169	8019.48
584.529	8012.02
584.889	8079.82
585.249	7989.42
585.609	8023.55
585.969	8002.53
586.329	7950.33
586.688	7991.91
587.048	7940.84
587.408	7970.67
587.768	7965.02
588.127	7856.54
588.487	7822.65
588.846	7973.83
589.206	7900.39
589.565	7902.42
589.925	7938.58
590.284	7845.47
590.643	7882.08
591.003	7844.12
591.362	7889.54
591.721	7898.35
592.08	7872.36
592.44	7879.82
592.799	7867.62
593.158	7813.83
593.517	7803.44
593.876	7817.22
594.235	7807.05
594.593	7763.89
594.952	7747.4
595.311	7744.46
595.67	7732.93
596.029	7770.9
596.387	7793.5
596.746	7844.12
597.104	7714.18
597.463	7651.13
597.822	7756.66
598.18	7675.08
598.538	7741.29
598.897	7749.88
599.255	7684.12
599.613	7740.39
599.972	7624.01
600.33	7687.74
600.688	7732.71
601.046	7697.23
601.404	7760.28
601.762	7639.38
602.12	7786.94
602.478	7712.14
602.836	7647.51
603.194	7653.84
603.552	7619.04
603.91	7674.4
604.268	7711.24
604.625	7689.77
604.983	7631.69
605.341	7659.04
605.698	7611.81
606.056	7652.03
606.413	7616.78
606.771	7703.33
607.128	7650.45
607.485	7630.56
607.843	7671.46
608.2	7678.02
608.557	7742.65
608.914	7704.68
609.272	7718.47
609.629	7694.97
609.986	7739.26
610.343	7697.23
610.7	7745.36
611.057	7677.79
611.414	7660.39
611.771	7770.9
612.127	7720.05
612.484	7747.4
612.841	7700.84
613.198	7763.21
613.554	7728.86
613.911	7796.43
614.267	7709.88
614.624	7678.24
614.98	7713.5
615.337	7768.19
615.693	7727.06
616.05	7725.93
616.406	7785.13
616.762	7734.74
617.118	7798.92
617.475	7800.73
617.831	7765.47
618.187	7735.42
618.543	7736.1
618.899	7816.32
619.255	7779.48
619.611	7825.13
619.967	7825.59
620.323	7816.55
620.678	7847.05
621.034	7771.35
621.39	7797.34
621.746	7808.86
622.101	7838.01
622.457	7768.86
622.812	7806.6
623.168	7823.1
623.523	7788.3
623.879	7827.85
624.234	7719.37
624.589	7841.18
624.945	7822.87
625.3	7794.4
625.655	7831.69
626.01	7789.43
626.365	7828.52
626.72	7786.26
627.075	7816.55
627.43	7668.98
627.785	7794.85
628.14	7764.34
628.495	7794.4
628.85	7744.01
629.205	7705.81
629.559	7804.79
629.914	7706.72
630.269	7753.5
630.623	7634.18
630.978	7702.42
631.332	7714.63
631.687	7654.06
632.041	7685.02
632.396	7644.57
632.75	7632.37
633.104	7665.82
633.459	7574.52
633.813	7638.25
634.167	7633.5
634.521	7553.05
634.875	7588.98
635.229	7578.59
635.583	7541.52
635.937	7504.69
636.291	7600.05
636.645	7563.9
636.999	7583.33
637.352	7554.63
637.706	7490.68
638.06	7520.06
638.413	7507.85
638.767	7492.94
639.121	7523.9
639.474	7416.33
639.828	7478.93
640.181	7489.55
640.534	7426.27
640.888	7472.6
641.241	7387.86
641.594	7393.73
641.947	7447.29
642.301	7459.95
642.654	7391.02
643.007	7385.82
643.36	7401.19
643.713	7392.6
644.066	7351.02
644.419	7382.21
644.771	7308.76
645.124	7220.86
645.477	7273.96
645.83	7182.21
646.182	7221.76
646.535	7157.35
646.888	7167.07
647.24	7183.79
647.593	7164.13
647.945	7176.79
648.298	7123.91
648.65	7154.19
649.002	7084.59
649.355	7133.85
649.707	7177.24
650.059	7220.86
650.411	7260.4
650.763	7317.8
651.115	7334.52
651.467	7324.36
651.819	7330.91
652.171	7326.84
652.523	7267.41
652.875	7306.95
653.227	7253.4
653.578	7339.95
653.93	7245.94
654.282	7265.83
654.633	7247.07
654.985	7289.33
655.337	7351.25
655.688	7339.72
656.039	7327.07
656.391	7297.92
656.742	7319.61
657.094	7398.25
657.445	7411.36
657.796	7357.8
658.147	7343.56
658.498	7293.85
658.849	7393.51
659.2	7331.59
659.551	7383.79
659.902	7425.37
660.253	7356.67
660.604	7339.95
660.955	7287.75
661.306	7374.52
661.656	7404.58
662.007	7336.56
662.358	7350.12
662.708	7337.69
663.059	7397.35
663.409	7325.49
663.76	7379.04
664.11	7397.35
664.461	7350.12
664.811	7406.16
665.161	7419.95
665.511	7358.7
665.862	7402.77
666.212	7417.69
666.562	7408.2
666.912	7379.95
667.262	7413.17
667.612	7347.41
667.962	7419.72
668.312	7395.09
668.662	7457.69
669.011	7405.26
669.361	7394.18
669.711	7433.51
670.06	7321.87
670.41	7365.26
670.76	7387.18
671.109	7374.07
671.459	7379.04
671.808	7313.73
672.157	7399.38
672.507	7367.97
672.856	7377.01
673.205	7306.05
673.554	7385.82
673.904	7291.59
674.253	7279.16
674.602	7399.38
674.951	7205.26
675.3	7225.83
675.649	7345.37
675.998	7326.39
676.346	7290.68
676.695	7343.11
677.044	7279.38
677.393	7261.08
677.741	7300.85
678.09	7240.52
678.438	7287.75
678.787	7249.33
679.135	7266.05
679.484	7216.34
679.832	7149.67
680.181	7125.94
680.529	7180.86
680.877	7141.76
681.225	7148.99
681.573	7184.92
681.922	7126.85
682.27	7137.92
682.618	7064.25
682.966	7047.07
683.314	7091.59
683.661	7006.85
684.009	7036
684.357	7009.56
684.705	6959.39
685.053	6980.86
685.4	6997.13
685.748	6929.11
686.095	6980.18
686.443	6956.23
686.79	6931.15
687.138	6896.12
687.485	6896.8
687.832	6916
688.18	6903.58
688.527	6852.96
688.874	6822.45
689.221	6782.67
689.568	6745.16
689.915	6807.31
690.262	6722.11
690.609	6704.71
690.956	6723.69
691.303	6738.83
691.65	6673.53
691.997	6623.81
692.344	6652.96
692.69	6648.44
693.037	6602.57
693.383	6554.43
693.73	6544.71
694.077	6480.54
694.423	6528.44
694.769	6464.49
695.116	6461.1
695.462	6425.85
695.808	6427.66
696.155	6436.47
696.501	6366.87
696.847	6344.95
697.193	6244.16
697.539	6270.37
697.885	6273.76
698.231	6297.94
698.577	6204.16
698.923	6196.02
699.269	6153.54
699.614	6162.13
699.96	6148.12
700.306	6175.91
700.651	6091.17
700.997	6086.2
701.342	6048.91
701.688	6074.44
702.033	6017.27
702.379	6019.08
702.724	5952.41
703.069	5961
703.415	5901.57
703.76	5871.74
704.105	5916.03
704.45	5889.59
704.795	5830.16
705.14	5823.83
705.485	5826.99
705.83	5783.38
706.175	5823.38
706.52	5749.48
706.865	5702.25
707.209	5714.68
707.554	5707.45
707.899	5723.95
708.243	5692.53
708.588	5633.33
708.932	5593.1
709.277	5625.64
709.621	5635.36
709.966	5575.02
710.31	5594.01
710.654	5559.43
710.998	5529.37
711.342	5564.4
711.687	5529.15
712.031	5535.02
712.375	5496.83
712.719	5493.22
713.063	5466.33
713.407	5511.07
713.75	5481.01
714.094	5454.57
714.438	5444.18
714.782	5433.33
715.125	5373.9
715.469	5366.67
715.812	5366.21
716.156	5338.19
716.499	5351.53
716.843	5358.98
717.186	5356.5
717.53	5373.45
717.873	5329.61
718.216	5367.57
718.559	5326.89
718.902	5255.71
719.246	5345.42
719.589	5308.14
719.932	5290.96
720.275	5259.32
720.617	5307.46
720.96	5201.93
721.303	5260.91
721.646	5282.6
721.989	5260.45
722.331	5289.15
722.674	5212.32
723.016	5238.99
723.359	5192.89
723.701	5189.5
724.044	5202.38
724.386	5220.68
724.729	5247.57
725.071	5180.68
725.413	5159.21
725.755	5214.58
726.097	5238.31
726.439	5194.69
726.782	5146.56
727.124	5190.63
727.465	5160.57
727.807	5149.95
728.149	5099.33
728.491	5134.81
728.833	5164.86
729.175	5175.03
729.516	5140.46
729.858	5155.82
730.199	5202.83
730.541	5158.54
730.882	5159.67
731.224	5187.91
731.565	5125.32
731.906	5169.38
732.248	5187.01
732.589	5190.4
732.93	5133.45
733.271	5171.42
733.612	5172.1
733.953	5175.71
734.294	5170.74
734.635	5182.04
734.976	5139.55
735.317	5159.89
735.658	5177.75
735.999	5191.3
736.339	5152.44
736.68	5265.2
737.021	5220.46
737.361	5152.89
737.702	5178.88
738.042	5225.2
738.383	5233.11
738.723	5295.26
739.063	5229.04
739.404	5218.2
739.744	5238.76
740.084	5234.24
740.424	5262.04
740.764	5272.43
741.104	5314.01
741.444	5285.54
741.784	5328.02
742.124	5320.11
742.464	5358.08
742.804	5382.03
743.143	5418.42
743.483	5438.76
743.823	5387.68
744.162	5437.85
744.502	5485.76
744.841	5482.82
745.181	5492.77
745.52	5566.21
745.86	5589.26
746.199	5591.07
746.538	5620.9
746.877	5659.54
747.216	5731.4
747.556	5742.48
747.895	5848.01
748.234	5842.81
748.573	5848.69
748.911	5909.93
749.25	5996.25
749.589	6058.85
749.928	6081.45
750.267	6185.4
750.605	6226.98
750.944	6288.9
751.283	6356.25
751.621	6425.62
751.96	6503.81
752.298	6598.05
752.636	6653.64
752.975	6807.98
753.313	6792.39
753.651	6955.55
753.989	7043.46
754.327	7158.48
754.666	7219.5
755.004	7408.2
755.342	7498.59
755.679	7611.35
756.017	7754.4
756.355	7964.56
756.693	8049.31
757.031	8187.38
757.368	8292.47
757.706	8484.1
758.044	8608.62
758.381	8777.65
758.719	8910.98
759.056	9073.01
759.394	9210.41
759.731	9291.08
760.068	9527.69
760.405	9645.88
760.743	9821.24
761.08	9991.63
761.417	10093.32
761.754	10345.52
762.091	10485.18
762.428	10650.6
762.765	10790.48
763.102	11057.36
763.438	11129.68
763.775	11274.76
764.112	11554.07
764.449	11652.6
764.785	11792.94
765.122	11910.68
765.458	12114.06
765.795	12318.12
766.131	12469.53
766.467	12586.14
766.804	12737.09
767.14	12814.15
767.476	13034.26
767.812	13190.87
768.148	13393.12
768.485	13461.14
768.821	13544.53
769.157	13615.04
769.492	13839.66
769.828	13944.97
770.164	14007.12
770.5	14165.98
770.836	14372.98
771.171	14357.84
771.507	14600.32
771.842	14485.98
772.178	14751.5
772.513	14878.28
772.849	14939.3
773.184	14929.35
773.519	15040.31
773.855	15250.93
774.19	15241.21
774.525	15315.56
774.86	15401.43
775.195	15529.56
775.53	15618.6
775.865	15616.11
776.2	15581.31
776.535	15618.6
776.87	15707.86
777.205	15763.68
777.539	15743.12
777.874	15910.57
778.209	15867.18
778.543	15967.07
778.878	16009.55
779.212	15952.6
779.547	16027.18
779.881	16117.12
780.215	15988.76
780.55	16233.95
780.884	16159.83
781.218	16257.45
781.552	16221.07
781.886	16280.28
782.22	16212.03
782.554	16309.2
782.888	16240.28
783.222	16165.03
783.556	16212.26
783.889	16246.38
784.223	16094.07
784.557	16130
784.89	16279.15
785.224	16104.24
785.557	16130.23
785.891	16131.81
786.224	16179.04
786.558	16269.88
786.891	16145.14
787.224	16076.44
787.557	16158.7
787.891	16116.89
788.224	16095.2
788.557	16144.46
788.89	16189.66
789.223	16161.19
789.556	16036.89
789.888	16043
790.221	15997.57
790.554	16000.51
790.887	15974.07
791.219	16001.64
791.552	15886.62
791.884	15897.46
792.217	15906.28
792.549	15849.78
792.882	15772.95
793.214	15809.33
793.546	15824.02
793.879	15680.07
794.211	15648.66
794.543	15712.16
794.875	15698.6
795.207	15757.58
795.539	15612.05
795.871	15772.95
796.203	15562.56
796.535	15481.2
796.867	15475.33
797.198	15489.11
797.53	15495.21
797.862	15483.24
798.193	15525.72
798.525	15441.88
798.856	15412.5
799.188	15282.11
799.519	15277.82
799.85	15186.75
800.182	15185.84
800.513	15195.79
800.844	15041.44
801.175	15140.2
801.506	15207.09
801.837	15029.46
802.168	14977.71
802.499	15018.84
802.83	14867.21
803.161	14888.9
803.491	14930.94
803.822	14936.81
804.153	14898.39
804.483	14792.18
804.814	14742.69
805.145	14694.56
805.475	14688.91
805.805	14669.93
806.136	14643.03
806.466	14606.2
806.796	14618.85
807.126	14515.58
807.457	14579.08
807.787	14398.97
808.117	14482.59
808.447	14399.65
808.777	14424.06
809.107	14460.89
809.436	14341.57
809.766	14327.11
810.096	14259.54
810.426	14268.35
810.755	14242.59
811.085	14262.25
811.414	14202.59
811.744	14052.99
812.073	14145.42
812.403	14115.36
812.732	13980.9
813.061	14062.94
813.39	14057.51
813.719	13931.41
814.049	13995.14
814.378	13974.35
814.707	13911.53
815.036	13903.62
815.365	13888.02
815.693	13818.42
816.022	13763.96
816.351	13738.42
816.68	13733.68
817.008	13740.01
817.337	13594.47
817.665	13610.52
817.994	13587.92
818.322	13600.12
818.651	13585.89
818.979	13418.66
819.307	13569.16
819.636	13610.07
819.964	13504.53
820.292	13574.59
820.62	13580.69
820.948	13438.09
821.276	13523.74
821.604	13431.54
821.932	13499.33
822.259	13563.29
822.587	13412.56
822.915	13405.33
823.243	13440.13
823.57	13411.2
823.898	13470.18
824.225	13336.63
824.553	13356.29
824.88	13485.1
825.207	13413.23
825.535	13359.45
825.862	13432.22
826.189	13468.37
826.516	13487.81
826.843	13532.1
827.17	13485.78
827.497	13471.31
827.824	13505.66
828.151	13471.76
828.478	13541.59
828.805	13548.6
829.131	13433.57
829.458	13471.09
829.785	13377.3
830.111	13455.04
830.438	13476.06
830.764	13463.63
831.09	13454.36
831.417	13397.64
831.743	13431.77
832.069	13497.07
832.395	13373.46
832.722	13462.73
833.048	13416.17
833.374	13504.31
833.7	13362.39
834.026	13379.56
834.351	13370.3
834.677	13402.39
835.003	13463.86
835.329	13414.82
835.654	13204.43
835.98	13344.76
836.306	13337.3
836.631	13343.86
836.956	13357.87
837.282	13330.98
837.607	13217.31
837.932	13206.91
838.258	13185.9
838.583	13236.52
838.908	13143.86
839.233	13168.72
839.558	13158.33
839.883	13108.61
840.208	13096.63
840.533	13063.41
840.858	13016.18
841.182	13016.18
841.507	13098.67
841.832	12939.58
842.156	12981.16
842.481	12940.48
842.805	12908.16
843.13	12840.14
843.454	12807.6
843.778	12866.81
844.103	12762.18
844.427	12800.14
844.751	12807.38
845.075	12730.54
845.399	12716.98
845.723	12575.74
846.047	12629.07
846.371	12575.52
846.695	12538.91
847.019	12477.44
847.343	12388.18
847.666	12274.51
847.99	12324.45
848.313	12334.17
848.637	12112.7
848.96	12219.59
849.284	12091.24
849.607	12077.9
849.931	11980.96
850.254	11900.73
850.577	11837.01
850.9	11788.42
851.223	11848.53
851.546	11766.72
851.869	11745.03
852.192	11648.08
852.515	11613.73
852.838	11551.14
853.161	11572.38
853.483	11477.24
853.806	11474.75
854.129	11483.79
854.451	11383.01
854.774	11384.59
855.096	11308.43
855.419	11230.69
855.741	11317.24
856.063	11164.03
856.385	11170.58
856.708	11140.98
857.03	11100.3
857.352	11137.14
857.674	11012.17
857.996	11002.68
858.318	10926.97
858.64	10964.03
858.961	10914.54
859.283	10878.16
859.605	10846.52
859.926	10875.67
860.248	10810.82
860.57	10772.17
860.891	10827.31
861.212	10642.46
861.534	10697.37
861.855	10665.74
862.176	10628.45
862.498	10707.54
862.819	10618.96
863.14	10553.65
863.461	10577.83
863.782	10609.92
864.103	10552.52
864.424	10474.33
864.745	10505.06
865.065	10501.45
865.386	10497.83
865.707	10442.01
866.027	10430.04
866.348	10355.91
866.668	10334.22
866.989	10367.67
867.309	10311.17
867.63	10325.41
867.95	10354.56
868.27	10280.66
868.59	10328.57
868.91	10242.7
869.23	10218.06
869.55	10151.4
869.87	10270.72
870.19	10172.64
870.51	10225.3
870.83	10152.98
871.15	10181.68
871.469	10191.85
871.789	10139.87
872.109	10144.85
872.428	10030.95
872.748	10092.19
873.067	10088.8
873.386	10016.94
873.706	10030.72
874.025	9903.95
874.344	9959.54
874.663	9985.08
874.982	9963.61
875.301	10036.6
875.62	9887.68
875.939	9965.64
876.258	9926.32
876.577	9952.76
876.896	9837.96
877.214	9825.98
877.533	9821.92
877.852	9775.82
878.17	9800
878.489	9752.99
878.807	9797.74
879.125	9746.89
879.444	9721.35
879.762	9693.11
880.08	9697.4
880.398	9649.94
880.716	9638.19
881.034	9630.96
881.352	9653.56
881.67	9640.9
881.988	9618.31
882.306	9575.6
882.624	9545.77
882.941	9457.63
883.259	9458.31
883.577	9447.01
883.894	9465.32
884.212	9441.59
884.529	9439.55
884.846	9401.14
885.164	9398.43
885.481	9346.9
885.798	9368.6
886.115	9283.63
886.432	9284.3
886.75	9214.48
887.067	9242.05
887.383	9270.29
887.7	9219.45
888.017	9176.28
888.334	9215.15
888.651	9124.76
888.967	9136.06
889.284	9104.2
889.6	9118.21
889.917	8988.94
890.233	8983.52
890.55	9000.7
890.866	9015.84
891.182	8947.59
891.498	8937.42
891.815	8930.87
892.131	8863.75
892.447	8754.15
892.763	8772.68
893.079	8730.65
893.395	8746.24
893.71	8696.75
894.026	8752.79
894.342	8631.21
894.657	8636.19
894.973	8592.57
895.289	8615.39
895.604	8583.53
895.92	8550.76
896.235	8428.06
896.55	8513.93
896.865	8454.72
897.181	8412.46
897.496	8457.66
897.811	8389.64
898.126	8350.77
898.441	8284.1
898.756	8255.63
899.071	8253.6
899.386	8210.66
899.7	8189.19
900.015	8221.96
900.33	8081.4
900.644	8090.66
900.959	8063.09
901.273	7985.58
901.588	7994.39
901.902	7909.65
902.216	7867.84
902.531	7946.71
902.845	7883.89
903.159	7807.51
903.473	7748.98
903.787	7762.76
904.101	7732.48
904.415	7757.34
904.729	7709.2
905.042	7622.2
905.356	7600.73
905.67	7576.1
905.984	7590.79
906.297	7529.55
906.611	7518.93
906.924	7465.59
907.237	7475.54
907.551	7456.56
907.864	7416.1
908.177	7331.81
908.491	7334.07
908.804	7284.13
909.117	7322.1
909.43	7215.43
909.743	7227.86
910.056	7207.75
910.368	7162.55
910.681	7173.17
910.994	7018.15
911.307	7087.98
911.619	7026.06
911.932	7018.6
912.244	7003.46
912.557	6966.4
912.869	6941.54
913.181	6857.48
913.494	6870.13
913.806	6859.51
914.118	6840.3
914.43	6823.35
914.742	6789.68
915.054	6715.78
915.366	6698.16
915.678	6675.11
915.99	6654.54
916.302	6597.59
916.613	6631.49
916.925	6582.91
917.236	6561.21
917.548	6530.93
917.859	6508.56
918.171	6496.58
918.482	6403.25
918.794	6441.44
919.105	6408
919.416	6356.47
919.727	6360.76
920.038	6362.35
920.349	6292.29
920.66	6243.71
920.971	6257.49
921.282	6234.67
921.593	6200.77
921.903	6160.54
922.214	6162.13
922.525	6129.81
922.835	6102.69
923.146	6123.94
923.456	6026.31
923.767	5964.84
924.077	6028.57
924.387	5915.13
924.697	5976.14
925.008	5981.34
925.318	5920.1
925.628	5903.38
925.938	5857.95
926.248	5878.07
926.558	5795.81
926.867	5820.89
927.177	5808.24
927.487	5699.31
927.796	5692.08
928.106	5691.4
928.416	5654.12
928.725	5648.02
929.034	5582.93
929.344	5598.53
929.653	5573.67
929.962	5568.47
930.271	5520.34
930.581	5539.32
930.89	5434.01
931.199	5446.21
931.508	5444.4
931.817	5461.81
932.125	5409.6
932.434	5380.23
932.743	5320.11
933.051	5299.32
933.36	5353.11
933.669	5315.14
933.977	5264.3
934.286	5242.15
934.594	5264.52
934.902	5182.49
935.21	5178.2
935.519	5198.31
935.827	5161.47
936.135	5114.47
936.443	5107.46
936.751	5065.21
937.059	5057.52
937.367	4991.54
937.674	5041.93
937.982	5003.74
938.29	4950.41
938.597	4960.12
938.905	4886.68
939.213	4903.85
939.52	4863.86
939.827	4859.11
940.135	4847.36
940.442	4879
940.749	4810.98
941.056	4791.09
941.363	4726.23
941.67	4718.1
941.977	4708.83
942.284	4684.88
942.591	4664.54
942.898	4647.14
943.205	4635.39
943.511	4620.47
943.818	4588.83
944.125	4542.96
944.431	4576.86
944.738	4542.28
945.044	4523.75
945.35	4481.72
945.657	4532.34
945.963	4446.92
946.269	4414.38
946.575	4427.48
946.881	4399.01
947.187	4409.18
947.493	4326.02
947.799	4373.92
948.105	4339.35
948.41	4329.18
948.716	4291.44
949.022	4281.27
949.327	4252.8
949.633	4232.91
949.938	4218
950.244	4232.91
950.549	4145.46
950.854	4167.38
951.16	4184.55
951.465	4141.39
951.77	4119.47
952.075	4087.38
952.38	4076.31
952.685	4114.72
952.99	4035.18
953.294	4032.46
953.599	4033.82
953.904	4012.35
954.209	4025.91
954.513	3974.39
954.818	3950.88
955.122	3938
955.426	3948.17
955.731	3888.51
956.035	3825.46
956.339	3864.11
956.643	3906.82
956.948	3823.2
957.252	3820.72
957.556	3794.28
957.86	3787.5
958.163	3744.11
958.467	3745.01
958.771	3732.36
959.075	3756.77
959.378	3710.44
959.682	3711.34
959.985	3666.82
960.289	3641.06
960.592	3625.92
960.896	3629.54
961.199	3624.11
961.502	3629.31
961.805	3546.38
962.108	3562.87
962.411	3522.65
962.714	3547.05
963.017	3505.92
963.32	3539.14
963.623	3503.66
963.926	3467.51
964.228	3450.78
964.531	3464.8
964.833	3450.56
965.136	3386.15
965.438	3343.22
965.741	3363.56
966.043	3371.47
966.345	3352.93
966.648	3371.69
966.95	3349.32
967.252	3339.6
967.554	3307.74
967.856	3274.29
968.158	3250.79
968.46	3270.45
968.761	3272.94
969.063	3217.57
969.365	3230.9
969.666	3215.76
969.968	3170.79
970.269	3156.1
970.571	3146.16
970.872	3126.05
971.174	3149.78
971.475	3113.84
971.776	3075.2
972.077	3100.51
972.378	3077.24
972.679	3084.92
972.98	3069.1
973.281	3015.54
973.582	3012.83
973.883	3033.39
974.183	2999.05
974.484	2991.14
974.785	2973.74
975.085	2957.46
975.386	2994.3
975.686	2934.41
975.986	2965.6
976.287	2951.14
976.587	2882.89
976.887	2917.24
977.187	2878.6
977.487	2865.94
977.787	2843.8
978.087	2846.73
978.387	2792.05
978.687	2832.95
978.987	2813.97
979.286	2783.01
979.586	2773.51
979.885	2776.68
980.185	2730.58
980.484	2723.12
980.784	2693.52
981.083	2766.51
981.382	2703.69
981.682	2673.4
981.981	2707.75
982.28	2662.56
982.579	2659.85
982.878	2641.54
983.177	2638.6
983.475	2633.18
983.774	2630.69
984.073	2571.03
984.372	2558.38
984.67	2575.55
984.969	2576.91
985.267	2573.52
985.566	2547.98
985.864	2506.18
986.162	2558.83
986.461	2509.57
986.759	2522
987.057	2488.78
987.355	2464.14
987.653	2453.52
987.951	2410.81
988.249	2402.9
988.547	2431.15
988.844	2423.47
989.142	2402.68
989.44	2406.97
989.737	2381.43
990.035	2360.64
990.332	2347.99
990.63	2342.34
990.927	2317.03
991.224	2301.44
991.521	2323.58
991.819	2326.07
992.116	2299.18
992.413	2280.87
992.71	2284.49
993.006	2269.35
993.303	2272.51
993.6	2251.27
993.897	2228.9
994.193	2211.27
994.49	2188.22
994.787	2170.14
995.083	2191.84
995.379	2176.69
995.676	2176.47
995.972	2138.5
996.268	2183.02
996.565	2129.24
996.861	2137.15
997.157	2086.98
997.453	2092.85
997.749	2077.26
998.044	2106.41
998.34	2080.43
998.636	2090.82
998.932	2063.93
999.227	2060.09
999.523	2021.67
999.818	2017.83
1000.114	2002.46
1000.409	2022.8
1000.704	1988
1001	1993.87
1001.295	1945.29
1001.59	1966.98
1001.885	1987.55
1002.18	1963.82
1002.475	1934.44
1002.77	1922.24
1003.065	1899.87
1003.359	1849.02
1003.654	1887.66
1003.949	1861
1004.243	1882.24
1004.538	1864.84
1004.832	1816.25
1005.127	1862.13
1005.421	1831.39
1005.715	1812.86
1006.009	1813.77
1006.304	1784.39
1006.598	1801.79
1006.892	1797.27
1007.186	1777.61
1007.48	1748.68
1007.773	1728.12
1008.067	1730.83
1008.361	1742.81
1008.655	1715.69
1008.948	1687.67
1009.242	1705.97
1009.535	1696.93
1009.829	1681.34
1010.122	1669.36
1010.415	1666.88
1010.708	1648.12
1011.001	1621.45
1011.295	1613.55
1011.588	1636.82
1011.881	1637.05
1012.173	1602.92
1012.466	1596.82
1012.759	1571.06
1013.052	1588.91
1013.344	1563.6
1013.637	1559.31
1013.93	1542.36
1014.222	1566.99
1014.514	1545.98
1014.807	1502.81
1015.099	1529.71
1015.391	1513.43
1015.683	1493.1
1015.976	1483.15
1016.268	1472.08
1016.56	1445.87
1016.851	1441.57
1017.143	1456.49
1017.435	1452.65
1017.727	1424.62
1018.018	1407.9
1018.31	1423.49
1018.602	1414
1018.893	1423.49
1019.185	1383.95
1019.476	1404.74
1019.767	1365.64
1020.058	1390.27
1020.35	1356.38
1020.641	1332.65
1020.932	1330.39
1021.223	1350.28
1021.514	1344.4
1021.804	1318.86
1022.095	1288.81
1022.386	1285.87
1022.677	1295.59
1022.967	1270.73
1023.258	1284.06
1023.548	1283.84
1023.839	1244.29
1024.129	1243.16
1024.419	1251.75
1024.709	1221.01
1025	1213.33
1025.29	1235.93
1025.58	1201.58
1025.87	1194.8
1026.16	1160.22
1026.449	1185.99
1026.739	1171.97
1027.029	1188.25
1027.319	1158.64
1027.608	1144.63
1027.898	1154.8
1028.187	1149.6
1028.477	1143.95
1028.766	1150.51
1029.055	1107.57
1029.344	1091.98
1029.634	1110.06
1029.923	1104.63
1030.212	1057.85
1030.501	1107.12
1030.79	1082.03
1031.078	1067.34
1031.367	1063.96
1031.656	1035.03
1031.945	1058.98
1032.233	1059.44
1032.522	1018.98
1032.81	1019.44
1033.099	1041.13
1033.387	1006.56
1033.675	997.74
1033.963	997.29
1034.251	1008.82
1034.54	996.61
1034.828	973.34
1035.116	983.73
1035.403	972.21
1035.691	954.13
1035.979	968.82
1036.267	938.08
1036.554	958.42
1036.842	958.87
1037.129	942.83
1037.417	925.2
1037.704	926.78
1037.992	914.81
1038.279	925.88
1038.566	884.98
1038.853	884.98
1039.14	884.98
