Data from hue_32_FLMS001491_00094.txt Node
Date: Tue Feb 07 17:24:16 GMT 2017
User: dcchb
Spectrometer: FLMS00149
Trigger mode: 0
Integration Time (sec): 2.000000E-2
Scans to average: 10
Electric dark correction enabled: true
Nonlinearity correction enabled: false
Boxcar width: 0
XAxis mode: Wavelengths
Number of Pixels in Spectrum: 2048
>>>>>Begin Spectral Data<<<<<
341.393	-26.68
341.776	-26.68
342.16	-26.68
342.543	-66.68
342.927	-58.77
343.31	-68.26
343.693	-98.54
344.077	-76.17
344.46	-57.64
344.843	-40.47
345.226	-49.5
345.61	-38.88
345.993	-0.47
346.376	-19.67
346.759	15.8
347.142	22.13
347.525	33.21
347.908	74.56
348.291	83.15
348.674	98.97
349.057	121.79
349.44	118.63
349.823	144.16
350.206	148.23
350.588	213.31
350.971	214.22
351.354	214.9
351.737	222.58
352.119	268.45
352.502	253.09
352.884	266.19
353.267	278.85
353.65	296.25
354.032	305.51
354.414	308.23
354.797	293.99
355.179	301.22
355.562	316.59
355.944	324.72
356.326	344.61
356.709	359.52
357.091	337.6
357.473	343.03
357.855	336.25
358.238	312.07
358.62	341.22
359.002	344.84
359.384	341.9
359.766	352.97
360.148	343.03
360.53	351.84
360.912	338.06
361.294	353.42
361.676	335.57
362.057	321.79
362.439	342.35
362.821	324.27
363.203	326.53
363.584	325.4
363.966	330.37
364.348	337.83
364.729	315.68
365.111	317.94
365.493	319.98
365.874	324.05
366.256	326.3
366.637	328.11
367.019	304.38
367.4	317.04
367.781	305.29
368.163	319.3
368.544	306.19
368.925	334.67
369.306	327.43
369.688	308
370.069	323.37
370.45	323.82
370.831	318.62
371.212	317.94
371.593	323.59
371.974	317.27
372.355	314.1
372.736	317.94
373.117	323.59
373.498	329.47
373.879	317.27
374.26	321.33
374.641	324.5
375.021	305.74
375.402	309.13
375.783	333.08
376.163	338.51
376.544	322.92
376.925	311.62
377.305	326.08
377.686	329.69
378.066	336.02
378.447	344.61
378.827	345.97
379.208	336.25
379.588	336.02
379.968	336.25
380.349	335.57
380.729	353.87
381.109	333.54
381.489	329.24
381.87	321.11
382.25	352.97
382.63	319.75
383.01	333.76
383.39	346.64
383.77	336.02
384.15	339.19
384.53	326.3
384.91	356.59
385.29	349.81
385.67	339.41
386.049	363.59
386.429	338.28
386.809	372.63
387.189	347.77
387.568	373.31
387.948	368.56
388.328	364.72
388.707	359.3
389.087	369.69
389.466	365.85
389.846	366.76
390.225	370.6
390.605	367.66
390.984	382.12
391.363	369.02
391.743	351.84
392.122	375.8
392.501	374.44
392.881	371.73
393.26	381.44
393.639	373.31
394.018	380.31
394.397	366.98
394.776	382.35
395.155	360.2
395.534	377.15
395.913	397.72
396.292	368.56
396.671	424.38
397.05	402.46
397.429	374.21
397.808	374.67
398.186	388.22
398.565	370.37
398.944	384.38
399.323	402.46
399.701	421.22
400.08	403.37
400.458	401.56
400.837	419.64
401.215	397.04
401.594	409.01
401.972	402.69
402.351	394.33
402.729	407.43
403.107	431.84
403.486	411.73
403.864	403.59
404.242	422.35
404.62	426.19
404.999	438.84
405.377	412.63
405.755	432.52
406.133	416.02
406.511	450.14
406.889	450.14
407.267	442.46
407.645	424.38
408.023	431.16
408.401	458.5
408.779	444.49
409.156	449.69
409.534	437.71
409.912	432.52
410.29	428.9
410.667	471.16
411.045	452.86
411.422	468.22
411.8	446.98
412.178	476.36
412.555	459.86
412.933	471.16
413.31	462.12
413.687	476.81
414.065	479.3
414.442	489.01
414.819	481.56
415.197	497.83
415.574	494.44
415.951	514.55
416.328	500.54
416.705	499.41
417.082	497.6
417.46	504.61
417.837	536.69
418.214	530.14
418.591	537.6
418.967	523.59
419.344	526.75
419.721	542.12
420.098	554.1
420.475	532.63
420.852	536.02
421.228	542.8
421.605	524.27
421.982	552.74
422.358	534.44
422.735	566.3
423.111	550.93
423.488	535.79
423.864	549.8
424.241	564.72
424.617	561.1
424.994	569.69
425.37	567.2
425.746	587.77
426.123	570.37
426.499	562.46
426.875	580.54
427.251	587.77
427.627	587.09
428.003	590.03
428.379	605.17
428.756	605.85
429.132	595.68
429.507	623.47
429.883	614.66
430.259	614.88
430.635	602.91
431.011	623.47
431.387	658.73
431.763	640.2
432.138	650.82
432.514	631.38
432.89	646.97
433.265	657.82
433.641	661.21
434.016	669.12
434.392	691.49
434.767	700.98
435.143	697.59
435.518	697.37
435.894	701.44
436.269	709.35
436.644	697.37
437.02	700.53
437.395	720.42
437.77	715.45
438.145	736.69
438.52	747.08
438.895	738.05
439.271	753.86
439.646	779.85
440.021	770.14
440.395	760.64
440.77	756.12
441.145	753.64
441.52	774.65
441.895	764.94
442.27	777.59
442.645	774.65
443.019	781.21
443.394	794.77
443.769	785.73
444.143	810.59
444.518	800.19
444.892	821.43
445.267	838.61
445.641	821.21
446.016	843.13
446.39	825.5
446.764	839.51
447.139	812.85
447.513	844.48
447.887	834.31
448.262	854.88
448.636	878.38
449.01	860.53
449.384	883.13
449.758	887.42
450.132	891.26
450.506	900.53
450.88	914.99
451.254	883.35
451.628	886.52
452.002	917.93
452.376	931.26
452.75	918.15
453.123	920.41
453.497	927.65
453.871	922.9
454.244	975.55
454.618	980.07
454.992	976.23
455.365	953.86
455.739	994.54
456.112	1032.28
456.486	1001.77
456.859	1013.07
457.232	1063.69
457.606	1052.16
457.979	1057.81
458.352	1051.48
458.725	1060.3
459.099	1092.16
459.472	1108.66
459.845	1110.69
460.218	1123.57
460.591	1149.11
460.964	1119.28
461.337	1167.86
461.71	1169.45
462.083	1177.81
462.456	1199.73
462.829	1164.48
463.201	1217.81
463.574	1208.77
463.947	1247.18
464.32	1251.25
464.692	1246.28
465.065	1287.86
465.438	1304.36
465.81	1321.53
466.183	1344.81
466.555	1320.4
466.928	1368.31
467.3	1348.42
467.672	1390.23
468.045	1427.29
468.417	1443.11
468.789	1446.28
469.161	1487.18
469.534	1459.61
469.906	1535.54
470.278	1536.67
470.65	1533.96
471.022	1561.75
471.394	1598.59
471.766	1644.46
472.138	1626.84
472.51	1675.2
472.882	1695.99
473.253	1746.61
473.625	1747.28
473.997	1824.57
474.369	1828.41
474.74	1822.76
475.112	1879.71
475.484	1909.31
475.855	1972.36
476.227	1967.84
476.598	2076.77
476.97	2066.6
477.341	2119.25
477.713	2152.7
478.084	2196.99
478.455	2256.65
478.827	2300.94
479.198	2363.99
479.569	2414.61
479.94	2480.82
480.311	2475.18
480.682	2562.63
481.053	2632.01
481.424	2682.63
481.795	2740.25
482.166	2776.86
482.537	2863.41
482.908	2885.11
483.279	2977.31
483.65	3065.44
484.021	3126.01
484.391	3190.18
484.762	3233.35
485.133	3302.5
485.503	3334.81
485.874	3475.37
486.244	3500.01
486.615	3595.15
486.985	3690.06
487.356	3772.09
487.726	3814.12
488.097	3969.82
488.467	3967.11
488.837	4102.48
489.207	4188.8
489.578	4231.06
489.948	4259.99
490.318	4365.97
490.688	4457.04
491.058	4525.52
491.428	4639.41
491.798	4707.43
492.168	4805.96
492.538	4877.37
492.908	4959.4
493.278	5043.02
493.648	5088.89
494.017	5186.74
494.387	5282.78
494.757	5355.1
495.126	5383.12
495.496	5494.76
495.866	5530.24
496.235	5615.88
496.605	5704.69
496.974	5725.71
497.344	5837.12
497.713	5897.91
498.082	5926.16
498.452	6078.24
498.821	6151.01
499.19	6131.8
499.559	6231.46
499.928	6265.36
500.298	6391.23
500.667	6383.09
501.036	6438.23
501.405	6588.29
501.774	6574.5
502.143	6657.21
502.512	6713.48
502.88	6720.49
503.249	6777.66
503.618	6856.08
503.987	6892.91
504.356	6983.98
504.724	7024.89
505.093	7071.89
505.462	7125.67
505.83	7201.6
506.199	7230.08
506.567	7337.65
506.936	7350.98
507.304	7459
507.672	7466.68
508.041	7491.99
508.409	7515.49
508.777	7600.69
509.145	7741.25
509.514	7696.28
509.882	7823.96
510.25	7825.32
510.618	7860.34
510.986	7966.1
511.354	8019.21
511.722	8001.58
512.09	8144.4
512.458	8163.39
512.826	8186.89
513.193	8281.58
513.561	8256.49
513.929	8344.85
514.297	8394.57
514.664	8419.43
515.032	8486.09
515.4	8602.7
515.767	8556.6
516.135	8683.37
516.502	8591.62
516.869	8699.87
517.237	8738.74
517.604	8693.77
517.972	8873.65
518.339	8853.31
518.706	8921.11
519.073	8973.31
519.44	8982.12
519.808	9135.11
520.175	9066.87
520.542	9172.4
520.909	9226.18
521.276	9231.38
521.643	9331.94
522.009	9309.57
522.376	9336.46
522.743	9431.6
523.11	9573.52
523.477	9634.53
523.843	9554.99
524.21	9686.51
524.577	9761.54
524.943	9840.41
525.31	9911.59
525.676	10016.67
526.043	9966.73
526.409	10101.87
526.776	10164.46
527.142	10136.67
527.508	10230.45
527.874	10323.78
528.241	10419.82
528.607	10369.66
528.973	10483.33
529.339	10422.08
529.705	10619.59
530.071	10697.11
530.437	10703.43
530.803	10763.09
531.169	10867.72
531.535	10820.49
531.901	10886.25
532.267	10914.73
532.632	10992.47
532.998	10984.1
533.364	11085.12
533.73	11133.7
534.095	11191.56
534.461	11205.34
534.826	11309.74
535.192	11331.89
535.557	11444.66
535.923	11420.25
536.288	11509.29
536.653	11555.16
537.019	11451.21
537.384	11599.45
537.749	11609.85
538.114	11622.51
538.479	11704.99
538.845	11757.87
539.21	11742.95
539.575	11876.51
539.94	11926.45
540.305	11933.91
540.67	11907.47
541.034	11994.25
541.399	12116.96
541.764	12119.89
542.129	12206.9
542.494	12314.01
542.858	12217.52
543.223	12316.95
543.587	12322.83
543.952	12415.93
544.316	12458.87
544.681	12529.83
545.045	12485.53
545.41	12637.39
545.774	12599.65
546.138	12650.27
546.503	12739.99
546.867	12725.98
547.231	12885.52
547.595	12851.63
547.959	12885.3
548.324	12868.8
548.688	12965.97
549.052	13098.17
549.416	13083.26
549.779	13087.33
550.143	13110.15
550.507	13180.43
550.871	13250.03
551.235	13195.57
551.599	13362.35
551.962	13405.96
552.326	13484.6
552.689	13523.02
553.053	13487.31
553.417	13566.86
553.78	13651.6
554.143	13625.39
554.507	13664.49
554.87	13734.31
555.234	13821.09
555.597	13781.09
555.96	13847.31
556.323	13852.05
556.686	13978.6
557.05	14050.92
557.413	14079.62
557.776	14176.34
558.139	14212.95
558.502	14224.92
558.865	14210.46
559.228	14275.99
559.59	14375.65
559.953	14449.55
560.316	14561.86
560.679	14443.9
561.041	14566.61
561.404	14647.96
561.767	14775.64
562.129	14752.59
562.492	14856.32
562.854	14838.24
563.217	14779.94
563.579	14873.95
563.941	14976.54
564.304	15035.52
564.666	15137.89
565.028	15217.66
565.39	15095.18
565.753	15241.62
566.115	15260.15
566.477	15350.54
566.839	15459.01
567.201	15538.11
567.563	15565.68
567.925	15660.82
568.287	15637.99
568.648	15703.75
569.01	15717.31
569.372	15877.99
569.734	15798.67
570.095	15923.63
570.457	15972.67
570.819	16013.12
571.18	16006.34
571.542	16211.31
571.903	16275.94
572.265	16330.4
572.626	16453.11
572.987	16453.79
573.349	16508.7
573.71	16543.73
574.071	16684.07
574.432	16731.52
574.794	17012.19
575.155	17014.91
575.516	17006.77
575.877	17136.71
576.238	17213.32
576.599	17406.08
576.96	17454.22
577.32	17527.43
577.681	17707.77
578.042	17771.27
578.403	17829.57
578.763	17944.37
579.124	18162.9
579.485	18201.77
579.845	18502.55
580.206	18504.13
580.566	18679.49
580.927	18856.89
581.287	19069.31
581.648	19065.7
582.008	19407.84
582.368	19463.2
582.728	19687.15
583.089	19827.49
583.449	19997.88
583.809	20168.95
584.169	20301.6
584.529	20541.37
584.889	20919.21
585.249	21084.86
585.609	21170.95
585.969	21553.77
586.329	21510.38
586.688	21930.71
587.048	22089.8
587.408	22263.36
587.768	22457.47
588.127	22718.26
588.487	22944.69
588.846	23360.95
589.206	23441.18
589.565	23674.39
589.925	24022.18
590.284	24221.72
590.643	24536.97
591.003	24770.41
591.362	25118.2
591.721	25332.43
592.08	25512.76
592.44	25905.29
592.799	26191.61
593.158	26401.33
593.517	26628.66
593.876	26972.61
594.235	27173.96
594.593	27477
594.952	27747.28
595.311	27986.82
595.67	28266.36
596.029	28688.5
596.387	28857.98
596.746	29223.85
597.104	29356.95
597.463	29581.13
597.822	29954.23
598.18	30045.07
598.538	30331.84
598.897	30711.49
599.255	30797.82
599.613	31485.49
599.972	31416.56
600.33	31799.83
600.688	31802.77
601.046	32198.24
601.404	32471
601.762	32682.29
602.12	32961.38
602.478	33265.78
602.836	33516.62
603.194	33440.01
603.552	33713
603.91	33741.92
604.268	34242.25
604.625	34271.63
604.983	34620.32
605.341	34701.67
605.698	34938.05
606.056	35284.93
606.413	35441.54
606.771	35571.03
607.128	35866.16
607.485	35887.4
607.843	36095.99
608.2	36495.52
608.557	36706.14
608.914	36748.4
609.272	37107.94
609.629	37306.35
609.986	37476.51
610.343	37448.49
610.7	37902.04
611.057	37992.89
611.414	38096.61
611.771	38281.01
612.127	38636.03
612.484	38619.31
612.841	38896.14
613.198	38876.7
613.554	39002.35
613.911	39284.83
614.267	39358.72
614.624	39440.76
614.98	39679.17
615.337	39812.72
615.693	39785.61
616.05	39882.33
616.406	40215.43
616.762	40148.53
617.118	40309.66
617.475	40273.5
617.831	40857.89
618.187	40851.79
618.543	40819.48
618.899	41214.72
619.255	41140.83
619.611	41313.7
619.967	41451.33
620.323	41667.14
620.678	41622.62
621.034	41437.09
621.39	41714.14
621.746	41728.38
622.101	42105.09
622.457	42000.92
622.812	42166.11
623.168	42319.78
623.523	42194.36
623.879	42414.24
624.234	42174.92
624.589	42424.41
624.945	42525.42
625.3	42702.14
625.655	42454.01
626.01	42661.01
626.365	42651.29
626.72	42793.44
627.075	42855.81
627.43	42768.58
627.785	42781.23
628.14	42861.23
628.495	42969.25
628.85	43055.12
629.205	42737.62
629.559	43076.59
629.914	43029.59
630.269	43139.19
630.623	42961.12
630.978	43058.97
631.332	43152.52
631.687	43254.22
632.041	43111.17
632.396	43274.1
632.75	43121.34
633.104	43294.67
633.459	43025.75
633.813	43091.06
634.167	43166.31
634.521	43040.44
634.875	43175.12
635.229	43178.06
635.583	43091.06
635.937	43035.46
636.291	42987.1
636.645	42939.65
636.999	43024.39
637.352	43064.62
637.706	43031.62
638.06	43070.94
638.413	43140.55
638.767	42960.44
639.121	43035.24
639.474	42825.98
639.828	42929.03
640.181	43074.79
640.534	42994.79
640.888	42821.23
641.241	42871.18
641.594	42773.78
641.947	43079.76
642.301	42862.14
642.654	42959.08
643.007	42861.01
643.36	42944.17
643.713	42843.38
644.066	42926.31
644.419	42700.11
644.771	42581.01
645.124	42120.91
645.477	41990.75
645.83	41974.7
646.182	41717.08
646.535	41661.72
646.888	41722.96
647.24	41428.73
647.593	41704.2
647.945	41612.45
648.298	41444.32
648.65	41401.38
649.002	41296.53
649.355	41501.49
649.707	41374.94
650.059	41618.55
650.411	42121.59
650.763	42042.5
651.115	42467.12
651.467	42216.05
651.819	42336.95
652.171	42315.94
652.523	42244.75
652.875	42260.8
653.227	42138.09
653.578	42219.89
653.93	42187.8
654.282	42155.49
654.633	42025.32
654.985	42135.6
655.337	42122.04
655.688	42195.94
656.039	42332.43
656.391	41926.79
656.742	42100.35
657.094	42113.68
657.445	42247.01
657.796	42057.19
658.147	42053.34
658.498	42039.78
658.849	42185.54
659.2	42003.18
659.551	41873.24
659.902	42193.23
660.253	41988.94
660.604	42019.67
660.955	41877.75
661.306	41951.65
661.656	41904.42
662.007	42082.95
662.358	41882.73
662.708	41927.47
663.059	41928.6
663.409	41754.82
663.76	42024.64
664.11	41988.71
664.461	41934.25
664.811	42003.63
665.161	41964.53
665.511	41874.14
665.862	41873.69
666.212	41925.21
666.562	41777.64
666.912	41770.41
667.262	41630.53
667.612	41757.31
667.962	41713.69
668.312	41633.92
668.662	41838.66
669.011	41794.14
669.361	41683.18
669.711	41684.99
670.06	41640.02
670.41	41673.24
670.76	41462.4
671.109	41773.12
671.459	41721.15
671.808	41642.05
672.157	41715.27
672.507	41396.86
672.856	41504.88
673.205	41470.76
673.554	41652.22
673.904	41480.25
674.253	41728.61
674.602	41522.96
674.951	40944.67
675.3	40806.37
675.649	41491.32
675.998	41419.01
676.346	41426.92
676.695	41522.74
677.044	41158
677.393	41368.16
677.741	41395.28
678.09	41421.5
678.438	41176.76
678.787	41356.19
679.135	41275.51
679.484	41121.62
679.832	41144.44
680.181	40987.38
680.529	41168.62
680.877	40927.95
681.225	40876.88
681.573	41156.42
681.922	40894.73
682.27	40816.77
682.618	40874.62
682.966	40659.26
683.314	40786.03
683.661	40629.43
684.009	40521.63
684.357	40332.03
684.705	40331.13
685.053	40505.81
685.4	40311.47
685.748	40157.35
686.095	40100.63
686.443	40017.46
686.79	39823.8
687.138	40024.02
687.485	40034.19
687.832	39851.59
688.18	40059.72
688.527	39707.64
688.874	39812.27
689.221	39663.8
689.568	39496.35
689.915	39463.58
690.262	39410.02
690.609	39331.61
690.956	39250.25
691.303	39102.69
691.65	38938.17
691.997	39077.83
692.344	38717.84
692.69	38717.84
693.037	38722.13
693.383	38412.99
693.73	38478.97
694.077	38333.44
694.423	38382.03
694.769	38157.17
695.116	38166.44
695.462	38127.8
695.808	38018.2
696.155	37984.98
696.501	37803.96
696.847	37781.37
697.193	37559.68
697.539	37863.85
697.885	37444.43
698.231	37326.91
698.577	37365.11
698.923	37221.38
699.269	37056.19
699.614	36845.57
699.96	36924.66
700.306	36851.9
700.651	36706.59
700.997	36639.93
701.342	36594.28
701.688	36485.58
702.033	36455.52
702.379	36325.13
702.724	36194.29
703.069	36310.9
703.415	35965.59
703.76	36009.43
704.105	35922.66
704.45	35835.2
704.795	35705.04
705.14	35615.32
705.485	35584.13
705.83	35516.11
706.175	35499.17
706.52	35320.64
706.865	35283.8
707.209	35244.71
707.554	35100.53
707.899	35285.16
708.243	34916.13
708.588	34891.05
708.932	34769.92
709.277	34645.63
709.621	34724.72
709.966	34576.25
710.31	34541
710.654	34352.75
710.998	34262.59
711.342	34381.23
711.687	34136.26
712.031	34126.09
712.375	33918.19
712.719	34093.78
713.063	33913.22
713.407	34119.99
713.75	33825.31
714.094	33870.06
714.438	33700.12
714.782	33697.86
715.125	33544.64
715.469	33731.3
715.812	33296.51
716.156	33164.76
716.499	33287.02
716.843	33368.6
717.186	33168.15
717.53	33161.15
717.873	33248.38
718.216	33169.96
718.559	33041.6
718.902	32749.41
719.246	32835.51
719.589	32759.58
719.932	32579.47
720.275	32634.38
720.617	32595.96
720.96	32543.31
721.303	32549.41
721.646	32454.73
721.989	32441.84
722.331	32327.05
722.674	32370.89
723.016	32310.77
723.359	32306.71
723.701	32300.15
724.044	32116.88
724.386	31859.94
724.729	32053.83
725.071	31932.71
725.413	31978.13
725.755	31791.47
726.097	31688.19
726.439	31577.23
726.782	31659.49
727.124	31629.66
727.465	31664.01
727.807	31550.57
728.149	31259.95
728.491	31348.09
728.833	31434.41
729.175	31295.43
729.516	31392.15
729.858	31261.76
730.199	31293.63
730.541	31235.1
730.882	31198.04
731.224	31290.91
731.565	30955.33
731.906	30973.18
732.248	31041.2
732.589	30748.56
732.93	30732.29
733.271	30739.06
733.612	30859.06
733.953	30790.81
734.294	30690.03
734.635	30714.66
734.976	30654.32
735.317	30578.84
735.658	30566.19
735.999	30563.93
736.339	30489.81
736.68	30473.76
737.021	30471.05
737.361	30315.8
737.702	30430.6
738.042	30319.64
738.383	30154.9
738.723	30304.5
739.063	30185.18
739.404	30102.25
739.744	30084.62
740.084	29886.21
740.424	29976.82
740.764	29886.66
741.104	30030.83
741.444	29761.46
741.784	29701.8
742.124	29816.15
742.464	29825.87
742.804	29672.65
743.143	29585.65
743.483	29598.53
743.823	29402.38
744.162	29498.42
744.502	29542.71
744.841	29467.01
745.181	29554.46
745.52	29374.81
745.86	29463.84
746.199	29460.23
746.538	29264.3
746.877	29346.11
747.216	29159.45
747.556	29149.05
747.895	29227.24
748.234	29093.68
748.573	29000.58
748.911	29021.14
749.25	28884.88
749.589	28919.68
749.928	28905.44
750.267	28849.85
750.605	28668.84
750.944	28698.21
751.283	28651.21
751.621	28648.05
751.96	28529.86
752.298	28644.88
752.636	28577.99
752.975	28426.81
753.313	28318.11
753.651	28373.03
753.989	28165.57
754.327	28122.64
754.666	28046.25
755.004	28096.65
755.342	28192.01
755.679	28129.42
756.017	27892.59
756.355	28036.54
756.693	27782.08
757.031	27786.15
757.368	27602.2
757.706	27634.51
758.044	27611.24
758.381	27550.45
758.719	27513.84
759.056	27525.36
759.394	27484.01
759.731	27177.8
760.068	27288.53
760.405	27129.44
760.743	26991.14
761.08	27138.71
761.417	26856.45
761.754	26845.83
762.091	26879.51
762.428	26720.64
762.765	26597.25
763.102	26642.22
763.438	26518.16
763.775	26414.88
764.112	26517.71
764.449	26519.51
764.785	26315.45
765.122	26103.71
765.458	26052.86
765.795	25941.9
766.131	25943.94
766.467	25823.71
766.804	25707.56
767.14	25613.32
767.476	25596.83
767.812	25500.33
768.148	25526.77
768.485	25376.04
768.821	25312.99
769.157	25121.59
769.492	25126.56
769.828	25046.56
770.164	24878.65
770.5	24768.37
770.836	24936.51
771.171	24711.65
771.507	24612.22
771.842	24435.28
772.178	24495.39
772.513	24310.99
772.849	24340.59
773.184	24211.78
773.519	24162.06
773.855	24061.5
774.19	23975.4
774.525	23912.13
774.86	23856.31
775.195	23701.51
775.53	23592.13
775.865	23608.4
776.2	23456.09
776.535	23259.49
776.87	23247.06
777.205	23186.72
777.539	22981.53
777.874	23063.79
778.209	22881.64
778.543	22856.33
778.878	22780.4
779.212	22791.48
779.547	22594.19
779.881	22558.94
780.215	22457.7
780.55	22474.88
780.884	22303.58
781.218	22305.84
781.552	22263.58
781.886	22121.66
782.22	22011.84
782.554	21943.59
782.888	21746.08
783.222	21631.96
783.556	21577.05
783.889	21504.73
784.223	21474.22
784.557	21311.29
784.89	21390.84
785.224	21223.38
785.557	21234.91
785.891	21049.6
786.224	20996.72
786.558	20948.59
786.891	20817.74
787.224	20751.3
787.557	20634.92
787.891	20732.32
788.224	20574.59
788.557	20594.02
788.89	20495.27
789.223	20405.33
789.556	20282.84
789.888	20307.47
790.221	20188.16
790.554	20038.33
790.887	20015.05
791.219	20016.41
791.552	19971.21
791.884	19772.35
792.217	19783.19
792.549	19698.22
792.882	19544.56
793.214	19481.28
793.546	19638.34
793.879	19368.06
794.211	19244
794.543	19425.69
794.875	19289.2
795.207	19268.86
795.539	19134.17
795.871	19086.94
796.203	19026.38
796.535	18935.08
796.867	18832.03
797.198	18795.42
797.53	18858.25
797.862	18583.68
798.193	18729.21
798.525	18536.67
798.856	18566.28
799.188	18402.89
799.519	18342.78
799.85	18211.26
800.182	18245.61
800.513	18281.77
800.844	18162.22
801.175	18133.29
801.506	18095.56
801.837	18060.53
802.168	17962
802.499	17891.72
802.83	17850.59
803.161	17737.82
803.491	17712.06
803.822	17684.49
804.153	17564.95
804.483	17491.73
804.814	17450.15
805.145	17435.01
805.475	17426.87
805.805	17436.82
806.136	17289.47
806.466	17395.91
806.796	17278.4
807.126	17183.26
807.457	17098.97
807.787	17023.95
808.117	17049.03
808.447	16978.52
808.777	16938.07
809.107	16893.78
809.436	16910.05
809.766	16763.16
810.096	16776.49
810.426	16766.78
810.755	16658.08
811.085	16648.59
811.414	16684.29
811.744	16435.26
812.073	16416.28
812.403	16355.71
812.732	16344.41
813.061	16346.67
813.39	16223.97
813.719	16227.36
814.049	16232.78
814.378	16134.48
814.707	16146.68
815.036	16054.93
815.365	16091.54
815.693	15822.85
816.022	15885.9
816.351	15810.19
816.68	15783.53
817.008	15881.38
817.337	15736.97
817.665	15648.16
817.994	15666.92
818.322	15699.69
818.651	15572.46
818.979	15504.44
819.307	15517.09
819.636	15467.38
819.964	15443.42
820.292	15485.45
820.62	15446.36
820.948	15411.33
821.276	15461.95
821.604	15387.83
821.932	15404.33
822.259	15503.31
822.587	15350.32
822.915	15397.1
823.243	15298.79
823.57	15307.61
823.898	15337.21
824.225	15292.01
824.553	15248.17
824.88	15245.69
825.207	15352.35
825.535	15255.63
825.862	15306.7
826.189	15303.99
826.516	15315.06
826.843	15355.97
827.17	15371.11
827.497	15381.95
827.824	15294.95
828.151	15318.23
828.478	15299.24
828.805	15286.82
829.131	15244.33
829.458	15239.81
829.785	15189.42
830.111	15319.13
830.438	15321.16
830.764	15226.7
831.09	15267.83
831.417	15192.58
831.743	15219.02
832.069	15270.09
832.395	15125.01
832.722	15260.6
833.048	15213.82
833.374	15171.79
833.7	15053.15
834.026	15136.54
834.351	15183.32
834.677	15167.27
835.003	15179.93
835.329	15116.2
835.654	15061.06
835.98	15028.07
836.306	15040.04
836.631	14910.33
836.956	14986.26
837.282	14909.88
837.607	14913.27
837.932	14928.86
838.258	15016.99
838.583	14837.56
838.908	14728.41
839.233	14802.99
839.558	14766.15
839.883	14722.08
840.208	14658.58
840.533	14691.58
840.858	14693.16
841.182	14737.45
841.507	14621.07
841.832	14573.16
842.156	14464.01
842.481	14541.52
842.805	14449.55
843.13	14466.27
843.454	14377.01
843.778	14352.15
844.103	14331.36
844.427	14354.18
844.751	14366.16
845.075	14184.7
845.399	14275.09
845.723	14113.97
846.047	14192.61
846.371	14099.05
846.695	14030.13
847.019	13893.63
847.343	13874.88
847.666	13792.84
847.99	13728.66
848.313	13773.18
848.637	13652.28
848.96	13661.55
849.284	13608.44
849.607	13485.51
849.931	13450.48
850.254	13413.19
850.577	13248.23
850.9	13204.16
851.223	13280.54
851.546	13198.28
851.869	13091.39
852.192	13149.02
852.515	12991.96
852.838	12952.19
853.161	12912.64
853.483	12793.77
853.806	12873.77
854.129	12862.47
854.451	12765.98
854.774	12618.19
855.096	12629.94
855.419	12596.04
855.741	12619.54
856.063	12526.21
856.385	12495.02
856.708	12529.15
857.03	12377.74
857.352	12382.71
857.674	12343.39
857.996	12337.97
858.318	12204.41
858.64	12265.88
858.961	12236.95
859.283	12152.21
859.605	12080.57
859.926	12045.09
860.248	12105.66
860.57	12025.88
860.891	12043.51
861.212	11979.56
861.534	11937.3
861.855	11933.23
862.176	11917.41
862.498	11920.35
862.819	11771.2
863.14	11822.05
863.461	11784.08
863.782	11796.96
864.103	11657.08
864.424	11749.28
864.745	11768.94
865.065	11666.35
865.386	11619.12
865.707	11577.53
866.027	11521.49
866.348	11542.73
866.668	11599
866.989	11558.1
867.309	11456.18
867.63	11427.71
867.95	11486.24
868.27	11404.21
868.59	11379.8
868.91	11465.67
869.23	11436.07
869.55	11259.8
869.87	11492.11
870.19	11354.94
870.51	11346.13
870.83	11345.9
871.15	11286.69
871.469	11329.18
871.789	11307.03
872.109	11300.48
872.428	11180.93
872.748	11196.08
873.067	11221.84
873.386	11162.4
873.706	11082.63
874.025	11084.67
874.344	11045.12
874.663	11125.34
874.982	11089.19
875.301	11054.38
875.62	11064.78
875.939	11065.01
876.258	11013.93
876.577	10989.53
876.896	11025.23
877.214	10890.1
877.533	10955.4
877.852	10869.3
878.17	10867.27
878.489	10894.61
878.807	10932.81
879.125	10837.22
879.444	10829.76
879.762	10811
880.08	10776.43
880.398	10708.18
880.716	10733.04
881.034	10711.12
881.352	10729.65
881.67	10684
881.988	10685.58
882.306	10633.83
882.624	10610.55
882.941	10578.24
883.259	10498.69
883.577	10520.39
883.894	10521.97
884.212	10424.8
884.529	10494.17
884.846	10343.44
885.164	10382.09
885.481	10344.12
885.798	10383.44
886.115	10273.16
886.432	10255.54
886.75	10266.83
887.067	10221.19
887.383	10242.65
887.7	10251.92
888.017	10154.75
888.334	10148.42
888.651	10193.16
888.967	10158.36
889.284	10078.14
889.6	10048.08
889.917	9983
890.233	10006.28
890.55	9950.01
890.866	9941.87
891.182	9936.9
891.498	9878.82
891.815	9811.93
892.131	9865.49
892.447	9801.08
892.763	9775.1
893.079	9704.82
893.395	9762.22
893.71	9664.14
894.026	9693.97
894.342	9602.9
894.657	9648.32
894.973	9519.96
895.289	9528.32
895.604	9521.32
895.92	9461.21
896.235	9403.13
896.55	9408.33
896.865	9373.52
897.181	9373.52
897.496	9322.9
897.811	9284.94
898.126	9258.95
898.441	9183.47
898.756	9140.54
899.071	9085.62
899.386	9153.87
899.7	9050.14
900.015	9017.6
900.33	8970.82
900.644	8962.01
900.959	8963.59
901.273	8992.29
901.588	8922.46
901.902	8884.95
902.216	8851.5
902.531	8828
902.845	8749.36
903.159	8747.55
903.473	8675.69
903.787	8627.33
904.101	8636.59
904.415	8629.59
904.729	8571.29
905.042	8542.59
905.356	8482.93
905.67	8522.7
905.984	8501.46
906.297	8462.14
906.611	8427.11
906.924	8342.82
907.237	8403.15
907.551	8323.61
907.864	8245.64
908.177	8275.93
908.491	8253.78
908.804	8160.45
909.117	8110.96
909.43	8152.77
909.743	8080
910.056	8025.31
910.368	7969.72
910.681	7937.63
910.994	7970.85
911.307	7849.5
911.619	7856.73
911.932	7876.61
912.244	7765.21
912.557	7754.81
912.869	7759.56
913.181	7692.66
913.494	7686.56
913.806	7648.82
914.118	7616.96
914.43	7534.48
914.742	7506.46
915.054	7503.07
915.366	7487.25
915.678	7447.93
915.99	7459
916.302	7337.65
916.613	7326.12
916.925	7378.32
917.236	7292.68
917.548	7235.28
917.859	7263.52
918.171	7174.71
918.482	7192.79
918.794	7164.09
919.105	7135.62
919.416	7122.06
919.727	7041.38
920.038	7044.77
920.349	7055.85
920.66	6982.63
920.971	6935.85
921.282	6915.96
921.593	6881.84
921.903	6856.08
922.214	6835.06
922.525	6822.86
922.835	6794.84
923.146	6713.26
923.456	6688.62
923.767	6662.41
924.077	6649.75
924.387	6615.18
924.697	6568.63
925.008	6565.91
925.318	6501.28
925.628	6482.75
925.938	6488.85
926.248	6421.51
926.558	6388.97
926.867	6444.79
927.177	6374.06
927.487	6350.33
927.796	6307.84
928.106	6272.82
928.416	6264.45
928.725	6260.16
929.034	6181.74
929.344	6219.48
929.653	6175.19
929.962	6120.5
930.271	6128.41
930.581	6027.17
930.89	6015.65
931.199	6002.54
931.508	6007.96
931.817	6002.09
932.125	5974.29
932.434	5955.76
932.743	5895.42
933.051	5857.46
933.36	5879.61
933.669	5805.48
933.977	5800.74
934.286	5749.44
934.594	5766.84
934.902	5693.62
935.21	5717.12
935.519	5677.58
935.827	5665.83
936.135	5619.73
936.443	5614.08
936.751	5586.28
937.059	5538.82
937.367	5456.57
937.674	5490.69
937.982	5479.62
938.29	5394.65
938.597	5442.33
938.905	5381.09
939.213	5402.33
939.52	5348.77
939.827	5382.9
940.135	5325.04
940.442	5294.99
940.749	5289.79
941.056	5225.39
941.363	5184.03
941.67	5197.36
941.977	5119.85
942.284	5114.88
942.591	5117.14
942.898	5114.88
943.205	5148.33
943.511	5078.5
943.818	5092.51
944.125	5029.46
944.431	4975.22
944.738	5002.57
945.044	4977.71
945.35	4964.6
945.657	4907.2
945.963	4865.17
946.269	4853.42
946.575	4809.12
946.881	4892.74
947.187	4835.79
947.493	4809.58
947.799	4765.51
948.105	4745.62
948.41	4738.84
948.716	4735.23
949.022	4680.31
949.327	4721.67
949.633	4617.49
949.938	4639.64
950.244	4661.56
950.549	4580.2
950.854	4574.1
951.16	4552.63
951.465	4492.3
951.77	4495.69
952.075	4525.52
952.38	4487.33
952.685	4463.82
952.99	4425.86
953.294	4431.73
953.599	4387.89
953.904	4399.19
954.209	4330.95
954.513	4348.35
954.818	4333.88
955.122	4320.78
955.426	4277.61
955.731	4263.38
956.035	4216.15
956.339	4242.59
956.643	4239.65
956.948	4170.05
957.252	4190.61
957.556	4170.5
957.86	4138.41
958.163	4119.2
958.467	4111.06
958.771	4063.38
959.075	4072.42
959.378	4006.66
959.682	4033.78
959.985	3989.26
960.289	4034.91
960.592	3978.41
960.896	3945.87
961.199	3928.47
961.502	3955.59
961.805	3867.91
962.108	3862.48
962.411	3851.41
962.714	3852.09
963.017	3834.01
963.32	3876.04
963.623	3804.41
963.926	3774.12
964.228	3756.95
964.531	3749.27
964.833	3758.76
965.136	3698.42
965.438	3719.44
965.741	3675.82
966.043	3695.48
966.345	3659.55
966.648	3630.4
966.95	3655.03
967.252	3605.77
967.554	3604.64
967.856	3594.47
968.158	3560.57
968.46	3524.86
968.761	3519.22
969.063	3501.81
969.365	3503.85
969.666	3497.52
969.968	3431.31
970.269	3479.67
970.571	3461.14
970.872	3405.55
971.174	3384.08
971.475	3403.06
971.776	3405.55
972.077	3372.78
972.378	3357.19
972.679	3339.56
972.98	3313.8
973.281	3332.33
973.582	3307.47
973.883	3271.99
974.183	3268.37
974.484	3256.62
974.785	3225.44
975.085	3233.35
975.386	3247.81
975.686	3183.86
975.986	3166.91
976.287	3177.53
976.587	3177.98
976.887	3137.08
977.187	3159.68
977.487	3124.2
977.787	3107.7
978.087	3064.31
978.387	3115.16
978.687	3092.11
978.987	3066.57
979.286	3016.63
979.586	3040.36
979.885	3004.88
980.185	2960.13
980.484	2975.27
980.784	2966.24
981.083	2960.81
981.382	2895.95
981.682	2919.68
981.981	2872.68
982.28	2895.05
982.579	2916.75
982.878	2859.12
983.177	2873.36
983.475	2856.18
983.774	2827.03
984.073	2825.9
984.372	2836.3
984.67	2809.63
984.969	2774.83
985.267	2803.53
985.566	2772.57
985.864	2772.12
986.162	2736.19
986.461	2697.77
986.759	2723.3
987.057	2698.9
987.355	2676.98
987.653	2634.04
987.951	2682.85
988.249	2643.31
988.547	2634.27
988.844	2629.75
989.142	2616.87
989.44	2614.38
989.737	2542.52
990.035	2548.85
990.332	2561.05
990.63	2569.18
990.927	2554.72
991.224	2548.17
991.521	2519.02
991.819	2498.45
992.116	2489.64
992.413	2487.83
992.71	2476.08
993.006	2456.42
993.303	2475.18
993.6	2435.63
993.897	2408.28
994.193	2442.86
994.49	2427.49
994.787	2394.5
995.083	2378.23
995.379	2354.27
995.676	2338
995.972	2343.65
996.268	2353.6
996.565	2339.81
996.861	2297.1
997.157	2290.77
997.453	2301.17
997.749	2297.78
998.044	2279.47
998.34	2220.04
998.636	2221.4
998.932	2221.17
999.227	2243.09
999.523	2228.18
999.818	2181.85
1000.114	2198.35
1000.409	2174.39
1000.704	2135.97
1001	2169.19
1001.295	2141.4
1001.59	2144.34
1001.885	2128.52
1002.18	2115.41
1002.475	2116.09
1002.77	2075.86
1003.065	2076.99
1003.359	2058.46
1003.654	2044.45
1003.949	2038.35
1004.243	2051.46
1004.538	2004.68
1004.832	1999.93
1005.127	1982.08
1005.421	1951.8
1005.715	1967.62
1006.009	1967.17
1006.304	1924.68
1006.598	1965.81
1006.892	1943.21
1007.186	1906.38
1007.48	1906.83
1007.773	1892.14
1008.067	1879.71
1008.361	1860.05
1008.655	1855.3
1008.948	1855.3
1009.242	1857.11
1009.535	1832.48
1009.829	1844.01
1010.122	1795.64
1010.415	1796.55
1010.708	1793.39
1011.001	1794.51
1011.295	1762.88
1011.588	1779.37
1011.881	1748.87
1012.173	1775.76
1012.466	1757.45
1012.759	1724.01
1013.052	1724.46
1013.344	1710
1013.637	1691.69
1013.93	1689.88
1014.222	1676.55
1014.514	1649.89
1014.807	1671.35
1015.099	1629.77
1015.391	1632.26
1015.683	1612.6
1015.976	1627.06
1016.268	1584.35
1016.56	1605.14
1016.851	1572.37
1017.143	1573.05
1017.435	1565.14
1017.727	1571.47
1018.018	1544.58
1018.31	1535.99
1018.602	1533.05
1018.893	1527.18
1019.185	1500.29
1019.476	1490.12
1019.767	1467.29
1020.058	1481.98
1020.35	1470.68
1020.641	1441.98
1020.932	1408.76
1021.223	1441.98
1021.514	1447.63
1021.804	1403.11
1022.095	1407.18
1022.386	1406.28
1022.677	1381.87
1022.967	1404.24
1023.258	1360.18
1023.548	1392.72
1023.839	1330.12
1024.129	1367.41
1024.419	1363.79
1024.709	1322.89
1025	1324.47
1025.29	1302.1
1025.58	1317.24
1025.87	1311.36
1026.16	1291.7
1026.449	1291.7
1026.739	1278.37
1027.029	1264.81
1027.319	1292.38
1027.608	1260.52
1027.898	1237.02
1028.187	1240.18
1028.477	1241.31
1028.766	1228.43
1029.055	1214.64
1029.344	1199.95
1029.634	1201.08
1029.923	1187.53
1030.212	1176.68
1030.501	1171.25
1030.79	1177.13
1031.078	1139.16
1031.367	1147.75
1031.656	1127.64
1031.945	1162.44
1032.233	1138.26
1032.522	1132.84
1032.81	1098.71
1033.099	1067.3
1033.387	1089.22
1033.675	1085.16
1033.963	1057.13
1034.251	1088.32
1034.54	1081.54
1034.828	1056.23
1035.116	1053.74
1035.403	1035.44
1035.691	1052.16
1035.979	1036.79
1036.267	1022.11
1036.554	1015.55
1036.842	1030.24
1037.129	1002.22
1037.417	1026.17
1037.704	992.28
1037.992	990.24
1038.279	985.72
1038.566	991.37
1038.853	991.37
1039.14	991.37
