Data from hue_100_FLMS001491_00009.txt Node
Date: Tue Feb 07 17:02:34 GMT 2017
User: dcchb
Spectrometer: FLMS00149
Trigger mode: 0
Integration Time (sec): 2.000000E-2
Scans to average: 10
Electric dark correction enabled: true
Nonlinearity correction enabled: false
Boxcar width: 0
XAxis mode: Wavelengths
Number of Pixels in Spectrum: 2048
>>>>>Begin Spectral Data<<<<<
341.393	-9.96
341.776	-9.96
342.16	-9.96
342.543	-76.85
342.927	-70.75
343.31	-79.79
343.693	-69.62
344.077	-49.96
344.46	-61.93
344.843	-56.51
345.226	-42.72
345.61	-26.23
345.993	-25.1
346.376	-8.38
346.759	14.45
347.142	18.29
347.525	43.15
347.908	59.87
348.291	56.71
348.674	91.73
349.057	136.03
349.44	123.6
349.823	132.64
350.206	149.36
350.588	215.57
350.971	216.48
351.354	220.77
351.737	236.82
352.119	273.88
352.502	271.17
352.884	271.39
353.267	283.37
353.65	279.75
354.032	323.59
354.414	302.12
354.797	319.53
355.179	327.66
355.562	333.08
355.944	325.4
356.326	340.54
356.709	337.6
357.091	318.4
357.473	352.29
357.855	308.68
358.238	336.93
358.62	347.32
359.002	328.34
359.384	316.59
359.766	329.47
360.148	334.44
360.53	345.74
360.912	343.71
361.294	337.38
361.676	344.38
362.057	318.62
362.439	329.24
362.821	331.05
363.203	311.84
363.584	318.17
363.966	314.33
364.348	333.99
364.729	331.05
365.111	306.87
365.493	303.48
365.874	328.11
366.256	305.06
366.637	321.79
367.019	338.51
367.4	306.19
367.781	301.9
368.163	314.78
368.544	327.89
368.925	321.11
369.306	308
369.688	299.86
370.069	301.9
370.45	323.82
370.831	325.4
371.212	318.4
371.593	315.91
371.974	303.93
372.355	323.14
372.736	301.45
373.117	331.05
373.498	326.53
373.879	322.92
374.26	322.46
374.641	317.72
375.021	336.02
375.402	347.1
375.783	305.29
376.163	321.79
376.544	323.82
376.925	321.33
377.305	340.99
377.686	342.58
378.066	335.34
378.447	330.15
378.827	362.46
379.208	335.12
379.588	326.08
379.968	337.38
380.349	331.5
380.729	329.24
381.109	359.3
381.489	359.75
381.87	329.24
382.25	345.51
382.63	335.8
383.01	354.1
383.39	347.1
383.77	349.58
384.15	341.9
384.53	378.96
384.91	348.23
385.29	340.09
385.67	344.16
386.049	369.02
386.429	379.18
386.809	360.2
387.189	354.33
387.568	357.26
387.948	372.86
388.328	346.42
388.707	364.27
389.087	352.97
389.466	377.15
389.846	366.3
390.225	362.46
390.605	386.64
390.984	378.28
391.363	405.85
391.743	381.67
392.122	384.83
392.501	396.36
392.881	375.34
393.26	393.2
393.639	402.69
394.018	390.03
394.397	385.96
394.776	398.85
395.155	408.79
395.534	399.3
395.913	392.07
396.292	385.51
396.671	384.83
397.05	406.08
397.429	407.66
397.808	409.47
398.186	413.31
398.565	408.56
398.944	400.43
399.323	411.5
399.701	412.63
400.08	390.03
400.458	406.98
400.837	414.89
401.215	416.25
401.594	420.54
401.972	437.94
402.351	419.64
402.729	418.05
403.107	441.78
403.486	433.19
403.864	443.59
404.242	426.64
404.62	432.29
404.999	455.57
405.377	450.14
405.755	434.32
406.133	430.48
406.511	448.79
406.889	477.26
407.267	474.1
407.645	463.7
408.023	458.73
408.401	493.98
408.779	468.67
409.156	465.51
409.534	470.93
409.912	481.78
410.29	488.56
410.667	492.85
411.045	481.56
411.422	490.59
411.8	509.8
412.178	498.28
412.555	505.96
412.933	531.95
413.31	523.14
413.687	515.68
414.065	537.15
414.442	541.21
414.819	523.81
415.197	537.82
415.574	553.87
415.951	563.59
416.328	558.62
416.705	542.34
417.082	563.13
417.46	553.19
417.837	550.03
418.214	526.53
418.591	588.9
418.967	552.97
419.344	568.33
419.721	552.51
420.098	582.8
420.475	612.85
420.852	599.74
421.228	607.43
421.605	594.77
421.982	604.04
422.358	613.98
422.735	615.11
423.111	614.66
423.488	616.69
423.864	624.15
424.241	627.77
424.617	632.74
424.994	613.98
425.37	655.79
425.746	633.64
426.123	653.08
426.499	649.91
426.875	673.87
427.251	666.41
427.627	694.43
428.003	672.28
428.379	694.66
428.756	684.04
429.132	697.59
429.507	690.82
429.883	700.98
430.259	709.35
430.635	703.47
431.011	705.96
431.387	721.1
431.763	749.8
432.138	761.1
432.514	771.04
432.89	777.14
433.265	773.52
433.641	763.81
434.016	802.22
434.392	794.77
434.767	786.41
435.143	795.9
435.518	823.69
435.894	823.24
436.269	827.76
436.644	841.32
437.02	867.76
437.395	860.08
437.77	864.82
438.145	883.35
438.52	892.62
438.895	893.52
439.271	888.1
439.646	878.15
440.021	913.63
440.395	917.02
440.77	914.54
441.145	897.36
441.52	920.41
441.895	958.6
442.27	956.57
442.645	936.46
443.019	941.43
443.394	962.22
443.769	969.45
444.143	965.16
444.518	972.84
444.892	969.45
445.267	974.2
445.641	976.46
446.016	999.28
446.39	985.04
446.764	1006.06
447.139	1018.04
447.513	1015.78
447.887	1032.73
448.262	1028.43
448.636	1033.18
449.01	1050.13
449.384	1053.97
449.758	1065.04
450.132	1065.04
450.506	1072.05
450.88	1079.96
451.254	1085.61
451.628	1093.52
452.002	1082.9
452.376	1121.54
452.75	1135.55
453.123	1155.21
453.497	1154.76
453.871	1166.96
454.244	1197.24
454.618	1181.42
454.992	1198.37
455.365	1197.92
455.739	1252.38
456.112	1227.52
456.486	1250.57
456.859	1260.74
457.232	1311.82
457.606	1295.09
457.979	1303.68
458.352	1355.88
458.725	1360.85
459.099	1350.91
459.472	1394.53
459.845	1404.02
460.218	1436.11
460.591	1434.3
460.964	1421.42
461.337	1466.61
461.71	1490.34
462.083	1521.53
462.456	1512.26
462.829	1559.72
463.201	1542.32
463.574	1587.51
463.947	1554.3
464.32	1639.49
464.692	1630.9
465.065	1639.94
465.438	1669.32
465.81	1736.66
466.183	1754.06
466.555	1796.32
466.928	1817.11
467.3	1790.9
467.672	1861.86
468.045	1868.64
468.417	1908.86
468.789	1935.75
469.161	1918.81
469.534	1967.17
469.906	2047.39
470.278	2052.59
470.65	2090.33
471.022	2133.04
471.394	2173.49
471.766	2222.98
472.138	2222.75
472.51	2295.97
472.882	2342.07
473.253	2431.33
473.625	2439.24
473.997	2476.3
474.369	2530.31
474.74	2577.09
475.112	2653.02
475.484	2704.77
475.855	2758.33
476.227	2796.75
476.598	2944.09
476.97	2926.24
477.341	2983.41
477.713	3074.26
478.084	3147.47
478.455	3261.37
478.827	3324.87
479.198	3433.79
479.569	3492.1
479.94	3612.77
480.311	3612.77
480.682	3782.49
481.053	3827
481.424	3975.25
481.795	4072.65
482.166	4161.23
482.537	4234.9
482.908	4363.26
483.279	4456.37
483.65	4574.33
484.021	4737.49
484.391	4815.68
484.762	4935.22
485.133	5022.9
485.503	5102.68
485.874	5262.67
486.244	5396.23
486.615	5558.26
486.985	5638.03
487.356	5820.62
487.726	5934.52
488.097	6145.36
488.467	6187.85
488.837	6396.43
489.207	6542.19
489.578	6658.34
489.948	6816.53
490.318	6969.52
490.688	7087.94
491.058	7203.41
491.428	7428.49
491.798	7480.47
492.168	7715.04
492.538	7944.18
492.908	8027.12
493.278	8193.89
493.648	8247.9
494.017	8523.38
494.387	8551.17
494.757	8799.75
495.126	8883.14
495.496	8926.3
495.866	9127.66
496.235	9255.11
496.605	9463.01
496.974	9526.97
497.344	9648.09
497.713	9747.98
498.082	9993.62
498.452	10106.16
498.821	10175.76
499.19	10338.7
499.559	10375.98
499.928	10546.83
500.298	10674.51
500.667	10838.12
501.036	10902.98
501.405	10956.76
501.774	11060.03
502.143	11158.56
502.512	11323.3
502.88	11437.88
503.249	11462.74
503.618	11509.29
503.987	11619.34
504.356	11825.66
504.724	11832.67
505.093	11940.24
505.462	12060.01
505.83	12183.85
506.199	12229.95
506.567	12428.81
506.936	12501.58
507.304	12597.39
507.672	12680.78
508.041	12751.29
508.409	12874.68
508.777	12930.95
509.145	13104.27
509.514	13026.76
509.882	13242.58
510.25	13158.74
510.618	13307.21
510.986	13337.94
511.354	13443.7
511.722	13509.46
512.09	13738.61
512.458	13652.96
512.826	13740.42
513.193	13877.59
513.561	13938.83
513.929	13961.65
514.297	14109.45
514.664	14193.06
515.032	14193.96
515.4	14244.58
515.767	14363.68
516.135	14376.33
516.502	14302.66
516.869	14580.62
517.237	14474.63
517.604	14535.87
517.972	14511.92
518.339	14584.24
518.706	14720.73
519.073	14671.24
519.44	14758.69
519.808	14930.44
520.175	14813.38
520.542	15006.6
520.909	15075.75
521.276	14896.54
521.643	15090.89
522.009	15068.74
522.376	15266.48
522.743	15287.95
523.11	15363.65
523.477	15501.95
523.843	15579.46
524.21	15582.18
524.577	15646.35
524.943	15672.34
525.31	15726.35
525.676	15833.24
526.043	15842.73
526.409	15847.48
526.776	15974.26
527.142	15886.35
527.508	15928.15
527.874	16028.49
528.241	16155.72
528.607	16088.38
528.973	16172.44
529.339	16037.08
529.705	16207.24
530.071	16247.47
530.437	16254.25
530.803	16304.64
531.169	16368.14
531.535	16224.19
531.901	16296.96
532.267	16219.9
532.632	16277.3
532.998	16383.51
533.364	16324.98
533.73	16273.68
534.095	16403.62
534.461	16392.78
534.826	16363.85
535.192	16357.3
535.557	16414.24
535.923	16320.91
536.288	16307.81
536.653	16401.59
537.019	16264.64
537.384	16238.43
537.749	16334.92
538.114	16226.45
538.479	16244.76
538.845	16200.01
539.21	16198.88
539.575	16233.46
539.94	16103.97
540.305	16179.9
540.67	16177.87
541.034	16121.82
541.399	16151.2
541.764	16106.23
542.129	16079.79
542.494	16067.36
542.858	15980.81
543.223	16089.73
543.587	16016.97
543.952	15898.32
544.316	15927.48
544.681	15849.51
545.045	15831.66
545.41	15950.53
545.774	15905.33
546.138	15824.88
546.503	15810.64
546.867	15751.21
547.231	15816.07
547.595	15690.42
547.959	15787.37
548.324	15729.29
548.688	15651.1
549.052	15668.95
549.416	15722.74
549.779	15581.27
550.143	15520.48
550.507	15695.17
550.871	15674.83
551.235	15508.28
551.599	15525.23
551.962	15415.4
552.326	15541.27
552.689	15529.75
553.053	15396.87
553.417	15440.03
553.78	15515.74
554.143	15360.49
554.507	15423.54
554.87	15423.76
555.234	15532.01
555.597	15367.27
555.96	15390.77
556.323	15341.05
556.686	15283.65
557.05	15528.17
557.413	15394.16
557.776	15434.83
558.139	15446.59
558.502	15376.3
558.865	15289.98
559.228	15465.79
559.59	15457.66
559.953	15335.18
560.316	15465.34
560.679	15524.55
561.041	15448.62
561.404	15589.63
561.767	15562.51
562.129	15568.16
562.492	15537.43
562.854	15576.3
563.217	15519.8
563.579	15525.68
563.941	15584.66
564.304	15612.46
564.666	15660.59
565.028	15712.57
565.39	15643.64
565.753	15757.99
566.115	15757.99
566.477	15758.89
566.839	15792.34
567.201	15789.63
567.563	15801.15
567.925	15923.18
568.287	15905.1
568.648	15779.91
569.01	15902.39
569.372	16045.21
569.734	15854.94
570.095	16031.43
570.457	15997.08
570.819	16018.32
571.18	16017.64
571.542	16042.05
571.903	16061.26
572.265	16122.95
572.626	16090.64
572.987	16163.63
573.349	16100.35
573.71	16237.98
574.071	16185.1
574.432	16267.58
574.794	16281.14
575.155	16258.09
575.516	16219.9
575.877	16240.69
576.238	16261.03
576.599	16236.85
576.96	16211.09
577.32	16276.17
577.681	16425.32
578.042	16323.85
578.403	16372.21
578.763	16365.43
579.124	16289.05
579.485	16429.61
579.845	16429.84
580.206	16286.11
580.566	16331.99
580.927	16369.95
581.287	16377.86
581.648	16356.17
582.008	16427.35
582.368	16343.06
582.728	16388.48
583.089	16311.2
583.449	16385.32
583.809	16378.54
584.169	16300.35
584.529	16248.82
584.889	16405.2
585.249	16343.28
585.609	16273.91
585.969	16351.87
586.329	16228.94
586.688	16294.92
587.048	16231.88
587.408	16301.48
587.768	16294.02
588.127	16196.85
588.487	16266.22
588.846	16322.95
589.206	16237.3
589.565	16166.11
589.925	16321.36
590.284	16165.44
590.643	16157.98
591.003	16127.47
591.362	16269.16
591.721	16153.23
592.08	16127.02
592.44	16241.82
592.799	16177.64
593.158	16148.71
593.517	16100.58
593.876	16122.95
594.235	16125.66
594.593	16129.05
594.952	16112.78
595.311	16142.16
595.67	16193.01
596.029	16167.92
596.387	16235.04
596.746	16199.33
597.104	16107.36
597.463	16160.69
597.822	16243.4
598.18	16178.09
598.538	16087.7
598.897	16253.57
599.255	16085.66
599.613	16210.86
599.972	16097.64
600.33	16104.2
600.688	16091.77
601.046	16202.5
601.404	16230.75
601.762	16211.99
602.12	16240.91
602.478	16144.19
602.836	16203.18
603.194	16119.56
603.552	16113.23
603.91	16070.52
604.268	16157.53
604.625	16179.9
604.983	16170.86
605.341	16097.87
605.698	16083.4
606.056	16269.61
606.413	16209.96
606.771	16176.06
607.128	16165.21
607.485	16051.77
607.843	16120.69
608.2	16265.77
608.557	16247.47
608.914	16179
609.272	16191.2
609.629	16253.12
609.986	16373.34
610.343	16233.91
610.7	16328.82
611.057	16349.61
611.414	16265.55
611.771	16344.64
612.127	16387.35
612.484	16349.61
612.841	16426.67
613.198	16365.21
613.554	16408.37
613.911	16492.43
614.267	16487.24
614.624	16479.1
614.98	16555.48
615.337	16507.57
615.693	16537.18
616.05	16561.13
616.406	16604.75
616.762	16470.51
617.118	16503.05
617.475	16574.69
617.831	16540.12
618.187	16569.27
618.543	16518.65
618.899	16586.44
619.255	16606.55
619.611	16654.01
619.967	16558.87
620.323	16619.66
620.678	16636.61
621.034	16616.95
621.39	16571.75
621.746	16597.29
622.101	16887.68
622.457	16680.9
622.812	16620.79
623.168	16698.76
623.523	16755.48
623.879	16717.51
624.234	16687.46
624.589	16691.3
624.945	16623.05
625.3	16554.8
625.655	16610.62
626.01	16664.63
626.365	16616.05
626.72	16605.42
627.075	16544.41
627.43	16639.77
627.785	16608.36
628.14	16621.02
628.495	16592.77
628.85	16642.49
629.205	16522.49
629.559	16626.89
629.914	16514.81
630.269	16507.8
630.623	16558.19
630.978	16430.29
631.332	16491.3
631.687	16567.69
632.041	16490.85
632.396	16524.75
632.75	16424.41
633.104	16435.94
633.459	16450.4
633.813	16378.76
634.167	16455.82
634.521	16412.89
634.875	16362.49
635.229	16364.08
635.583	16335.15
635.937	16307.58
636.291	16316.39
636.645	16266.45
636.999	16243.17
637.352	16203.63
637.706	16124.08
638.06	16119.56
638.413	16101.26
638.767	16085.89
639.121	16146.23
639.474	16071.43
639.828	15984.65
640.181	16037.98
640.534	16117.98
640.888	16020.13
641.241	15981.26
641.594	15928.61
641.947	15950.3
642.301	15992.79
642.654	15969.74
643.007	15974.71
643.36	15970.64
643.713	15859.68
644.066	15952.79
644.419	15931.77
644.771	15773.81
645.124	15595.73
645.477	15670.99
645.83	15463.76
646.182	15462.86
646.535	15527.49
646.888	15422.86
647.24	15311.22
647.593	15411.11
647.945	15334.5
648.298	15320.71
648.65	15339.47
649.002	15319.58
649.355	15388.51
649.707	15384.67
650.059	15441.16
650.411	15560.71
650.763	15561.16
651.115	15824.65
651.467	15702.85
651.819	15749.4
652.171	15661.49
652.523	15709.4
652.875	15677.31
653.227	15583.76
653.578	15713.47
653.93	15619.01
654.282	15677.99
654.633	15575.85
654.985	15685.22
655.337	15634.6
655.688	15628.28
656.039	15676.86
656.391	15607.49
656.742	15645.68
657.094	15666.47
657.445	15717.54
657.796	15666.47
658.147	15646.13
658.498	15572.23
658.849	15605.68
659.2	15628.73
659.551	15675.28
659.902	15719.8
660.253	15579.92
660.604	15710.53
660.955	15623.53
661.306	15707.14
661.656	15742.4
662.007	15689.74
662.358	15621.95
662.708	15674.83
663.059	15648.39
663.409	15565.23
663.76	15689.74
664.11	15648.39
664.461	15818.1
664.811	15780.81
665.161	15694.71
665.511	15624.89
665.862	15671.44
666.212	15765.22
666.562	15716.86
666.912	15734.94
667.262	15699.91
667.612	15645.9
667.962	15667.37
668.312	15676.86
668.662	15813.36
669.011	15682.06
669.361	15670.76
669.711	15650.42
670.06	15739.46
670.41	15640.03
670.76	15588.95
671.109	15691.1
671.459	15526.36
671.808	15612.23
672.157	15574.94
672.507	15531.1
672.856	15565.9
673.205	15499.47
673.554	15575.17
673.904	15523.65
674.253	15571.33
674.602	15485
674.951	15276.19
675.3	15267.38
675.649	15437.55
675.998	15429.18
676.346	15397.77
676.695	15531.1
677.044	15326.81
677.393	15367.94
677.741	15444.55
678.09	15347.38
678.438	15348.28
678.787	15325.23
679.135	15403.2
679.484	15230.55
679.832	15241.62
680.181	15142.86
680.529	15178.12
680.877	15156.2
681.225	15065.13
681.573	15195.29
681.922	15095.63
682.27	14967.95
682.618	15074.17
682.966	15105.8
683.314	15099.7
683.661	15006.82
684.009	14892.48
684.357	14896.77
684.705	14864.45
685.053	14895.87
685.4	14833.27
685.748	14778.58
686.095	14751.46
686.443	14662.2
686.79	14685.02
687.138	14761.86
687.485	14714.63
687.832	14529.77
688.18	14529.32
688.527	14443.9
688.874	14482.32
689.221	14452.04
689.568	14469.21
689.915	14438.48
690.262	14361.19
690.609	14367.29
690.956	14341.98
691.303	14268.99
691.65	14241.87
691.997	14188.09
692.344	14064.25
692.69	14033.74
693.037	13988.09
693.383	13955.33
693.73	13957.36
694.077	13861.54
694.423	13919.17
694.769	13919.17
695.116	13758.72
695.462	13810.02
695.808	13754.88
696.155	13772.73
696.501	13547.2
696.847	13557.6
697.193	13436.47
697.539	13548.56
697.885	13349.24
698.231	13365.28
698.577	13367.54
698.923	13393.53
699.269	13203.93
699.614	13135.69
699.96	13119.64
700.306	13052.98
700.651	13043.48
700.997	13036.03
701.342	12916.71
701.688	12928.46
702.033	12888.69
702.379	12844.17
702.724	12846.88
703.069	12930.95
703.415	12676.94
703.76	12639.2
704.105	12748.35
704.45	12723.04
704.795	12572.76
705.14	12543.38
705.485	12485.53
705.83	12486.21
706.175	12445.53
706.52	12362.6
706.865	12261.36
707.209	12267.69
707.554	12265.88
707.899	12249.61
708.243	12211.64
708.588	12189.95
708.932	12141.81
709.277	12120.12
709.621	12097.29
709.966	11986.79
710.31	12044.19
710.654	11904.08
710.998	11969.84
711.342	11966.9
711.687	11870.41
712.031	11881.71
712.375	11796.29
712.719	11869.73
713.063	11855.27
713.407	11824.08
713.75	11749.51
714.094	11775.04
714.438	11676.29
714.782	11644.2
715.125	11625.44
715.469	11571.21
715.812	11582.51
716.156	11496.18
716.499	11471.55
716.843	11520.36
717.186	11412.57
717.53	11515.16
717.873	11466.8
718.216	11519.91
718.559	11363.98
718.902	11380.93
719.246	11401.49
719.589	11388.61
719.932	11380.25
720.275	11310.65
720.617	11332.8
720.96	11367.6
721.303	11291.89
721.646	11294.83
721.989	11238.56
722.331	11257.99
722.674	11245.34
723.016	11222.06
723.359	11168.28
723.701	11187.04
724.044	11131.22
724.386	11129.41
724.729	11158.56
725.071	11148.39
725.413	11189.97
725.755	11135.74
726.097	11094.61
726.439	11081.28
726.782	11025.68
727.124	11067.49
727.465	10958.57
727.807	11011.67
728.149	10999.24
728.491	10969.64
728.833	11042.18
729.175	10942.97
729.516	10956.76
729.858	10953.37
730.199	10890.32
730.541	10930.09
730.882	10916.08
731.224	10963.31
731.565	10893.26
731.906	10921.28
732.248	10895.97
732.589	10966.48
732.93	10874.73
733.271	10928.29
733.612	10905.01
733.953	10902.52
734.294	10888.51
734.635	10870.66
734.976	10873.15
735.317	10807.84
735.658	10874.73
735.999	10899.81
736.339	10854.62
736.68	10881.28
737.021	10838.34
737.361	10850.55
737.702	10966.25
738.042	10866.14
738.383	10911.56
738.723	10883.54
739.063	10802.19
739.404	10885.35
739.744	10962.41
740.084	10904.11
740.424	10925.35
740.764	10940.04
741.104	11026.59
741.444	10937.78
741.784	10927.16
742.124	10978.23
742.464	10939.81
742.804	11046.25
743.143	10996.76
743.483	11093.48
743.823	11058.9
744.162	11048.96
744.502	11144.1
744.841	11145
745.181	11153.14
745.52	11199.47
745.86	11232.23
746.199	11284.66
746.538	11273.14
746.877	11384.09
747.216	11406.01
747.556	11350.87
747.895	11498.21
748.234	11399.23
748.573	11514.71
748.911	11598.55
749.25	11720.13
749.589	11629.06
749.928	11756.74
750.267	11926.23
750.605	11912.44
750.944	11941.37
751.283	12039.44
751.621	12141.36
751.96	12138.42
752.298	12324.41
752.636	12433.78
752.975	12481.24
753.313	12614.34
753.651	12745.87
753.989	12835.81
754.327	12847.11
754.666	12966.65
755.004	13162.58
755.342	13208.45
755.679	13359.18
756.017	13427.66
756.355	13606.41
756.693	13710.81
757.031	13953.52
757.368	13990.58
757.706	14193.06
758.044	14287.07
758.381	14416.56
758.719	14542.2
759.056	14857.22
759.394	14863.78
759.731	14966.15
760.068	15207.72
760.405	15358.45
760.743	15386.02
761.08	15642.29
761.417	15756.63
761.754	15930.87
762.091	16093.35
762.428	16239.11
762.765	16429.16
763.102	16603.17
763.438	16722.03
763.775	16830.5
764.112	17026.43
764.449	17264.39
764.785	17307.1
765.122	17475.23
765.458	17633.87
765.795	17711.38
766.131	17837.93
766.467	18075.22
766.804	18103.69
767.14	18263.91
767.476	18319.28
767.812	18502.78
768.148	18704.13
768.485	18621.19
768.821	18835.2
769.157	18868.42
769.492	18956.32
769.828	19187.05
770.164	19199.71
770.5	19222.53
770.836	19474.05
771.171	19427.27
771.507	19562.18
771.842	19569.64
772.178	19679.69
772.513	19737.32
772.849	19799.92
773.184	19845.57
773.519	19963.53
773.855	19959.01
774.19	20040.59
774.525	20116.75
774.86	20216.4
775.195	20239.45
775.53	20275.16
775.865	20303.18
776.2	20213.92
776.535	20202.17
776.87	20254.14
777.205	20288.49
777.539	20348.38
777.874	20481.71
778.209	20329.85
778.543	20325.1
778.878	20420.01
779.212	20394.7
779.547	20435.38
779.881	20467.02
780.215	20419.11
780.55	20554.93
780.884	20459.79
781.218	20412.1
781.552	20561.03
781.886	20406.68
782.22	20453.91
782.554	20397.64
782.888	20226.12
783.222	20252.11
783.556	20220.7
783.889	20250.98
784.223	20067.93
784.557	20171.21
784.89	20269.96
785.224	20157.42
785.557	19932.34
785.891	20092.79
786.224	20068.84
786.558	20140.25
786.891	19957.43
787.224	19893.25
787.557	19918.56
787.891	19895.73
788.224	19918.11
788.557	19941.38
788.89	19899.35
789.223	19901.61
789.556	19801.73
789.888	19707.26
790.221	19722.18
790.554	19558.57
790.887	19546.82
791.219	19509.98
791.552	19488.96
791.884	19433.83
792.217	19512.24
792.549	19364.9
792.882	19304.11
793.214	19327.84
793.546	19304.79
793.879	19276.32
794.211	19145.47
794.543	19226.82
794.875	19193.38
795.207	19133.72
795.539	19095.08
795.871	18989.54
796.203	18869.55
796.535	18856.21
796.867	18803.56
797.198	18779.61
797.53	18817.12
797.862	18704.58
798.193	18701.42
798.525	18623
798.856	18689.66
799.188	18459.16
799.519	18488.09
799.85	18296.23
800.182	18355.21
800.513	18349.33
800.844	18158.15
801.175	18371.25
801.506	18244.7
801.837	18132.16
802.168	18035.9
802.499	18003.58
802.83	17920.19
803.161	18051.94
803.491	17951.83
803.822	17948.21
804.153	17870.02
804.483	17720.65
804.814	17756.58
805.145	17706.19
805.475	17691.27
805.805	17640.88
806.136	17597.72
806.466	17658.28
806.796	17615.12
807.126	17471.39
807.457	17385.29
807.787	17458.06
808.117	17305.97
808.447	17255.35
808.777	17337.61
809.107	17315.46
809.436	17291.73
809.766	17108.01
810.096	17073.89
810.426	17083.15
810.755	17077.28
811.085	17047.67
811.414	17006.32
811.744	16883.84
812.073	16848.81
812.403	16863.05
812.732	16800.45
813.061	16875.02
813.39	16661.24
813.719	16643.62
814.049	16823.5
814.378	16700.79
814.707	16570.85
815.036	16602.26
815.365	16487.24
815.693	16445.43
816.022	16401.59
816.351	16357.52
816.68	16358.65
817.008	16378.76
817.337	16208.15
817.665	16153.46
817.994	16174.93
818.322	16253.12
818.651	16102.16
818.979	16111.2
819.307	16180.8
819.636	16084.08
819.964	15932.45
820.292	16084.99
820.62	16021.94
820.948	16029.39
821.276	16031.2
821.604	15952.79
821.932	16039.34
822.259	16148.94
822.587	15978.1
822.915	15920.7
823.243	16090.86
823.57	15962.05
823.898	15953.92
824.225	15927.48
824.553	15941.04
824.88	15939.91
825.207	15942.17
825.535	15908.04
825.862	15988.94
826.189	15906.46
826.516	15951.2
826.843	16037.53
827.17	16004.76
827.497	15977.42
827.824	15969.51
828.151	16019.23
828.478	15918.66
828.805	16028.04
829.131	15887.48
829.458	15930.19
829.785	15820.13
830.111	15868.72
830.438	15998.44
830.764	16075.72
831.09	15971.32
831.417	16006.57
831.743	15995.27
832.069	16021.26
832.395	15887.7
832.722	15983.29
833.048	15895.39
833.374	15887.03
833.7	15807.25
834.026	15978.55
834.351	15863.75
834.677	15821.04
835.003	15914.37
835.329	15794.82
835.654	15749.63
835.98	15699.23
836.306	15759.35
836.631	15635.96
836.956	15757.76
837.282	15725
837.607	15623.98
837.932	15679.8
838.258	15680.03
838.583	15656.07
838.908	15462.18
839.233	15470.99
839.558	15539.01
839.883	15456.08
840.208	15437.09
840.533	15385.57
840.858	15389.19
841.182	15425.57
841.507	15446.13
841.832	15318.68
842.156	15280.94
842.481	15226.93
842.805	15249.75
843.13	15241.62
843.454	15099.02
843.778	15023.55
844.103	15168.63
844.427	15045.01
844.751	15040.27
845.075	14985.13
845.399	14887.5
845.723	14836.21
846.047	14892.02
846.371	14826.94
846.695	14808.18
847.019	14608.64
847.343	14640.5
847.666	14541.3
847.99	14496.33
848.313	14471.24
848.637	14444.35
848.96	14326.39
849.284	14275.32
849.607	14220.18
849.931	14188.31
850.254	14087.75
850.577	14112.61
850.9	13866.51
851.223	13878.27
851.546	13841.2
851.869	13672.85
852.192	13814.31
852.515	13642.34
852.838	13548.33
853.161	13683.24
853.483	13543.13
853.806	13478.05
854.129	13473.08
854.451	13463.36
854.774	13368
855.096	13325.06
855.419	13267.66
855.741	13247.32
856.063	13138.17
856.385	13147.89
856.708	13076.25
857.03	13119.87
857.352	13069.92
857.674	12970.49
857.996	12968.23
858.318	12898.86
858.64	12858.18
858.961	12852.3
859.283	12796.26
859.605	12725.53
859.926	12822.93
860.248	12714.23
860.57	12674.68
860.891	12688.24
861.212	12597.17
861.534	12557.62
861.855	12556.72
862.176	12546.77
862.498	12541.13
862.819	12562.37
863.14	12449.15
863.461	12503.61
863.782	12418.87
864.103	12396.27
864.424	12414.8
864.745	12377.51
865.065	12316.27
865.386	12264.75
865.707	12240.79
866.027	12253.45
866.348	12177.29
866.668	12230.85
866.989	12074.7
867.309	12165.77
867.63	12137.75
867.95	12145.66
868.27	12023.17
868.59	12100.91
868.91	12069.27
869.23	11966
869.55	11979.56
869.87	12052.78
870.19	11968.03
870.51	12030.4
870.83	11964.19
871.15	11917.86
871.469	11899.56
871.789	11925.77
872.109	11968.48
872.428	11832.9
872.748	11885.55
873.067	11804.87
873.386	11785.66
873.706	11797.64
874.025	11761.26
874.344	11704.76
874.663	11695.95
874.982	11649.85
875.301	11674.03
875.62	11626.57
875.939	11586.57
876.258	11613.47
876.577	11513.13
876.896	11579.12
877.214	11519.46
877.533	11467.48
877.852	11463.19
878.17	11584.77
878.489	11527.59
878.807	11479.91
879.125	11493.92
879.444	11446.69
879.762	11355.62
880.08	11328.05
880.398	11336.41
880.716	11342.29
881.034	11354.94
881.352	11343.42
881.67	11278.79
881.988	11234.72
882.306	11196.08
882.624	11086.02
882.941	11111.11
883.259	11055.06
883.577	11105.68
883.894	11081.95
884.212	11083.54
884.529	11089.86
884.846	10998.79
885.164	10995.63
885.481	10884.67
885.798	10953.37
886.115	10880.6
886.432	10870.21
886.75	10852.58
887.067	10849.42
887.383	10815.97
887.7	10807.61
888.017	10723.55
888.334	10771.45
888.651	10684.22
888.967	10720.61
889.284	10616.2
889.6	10584.79
889.917	10592.02
890.233	10542.53
890.55	10514.74
890.866	10521.52
891.182	10468.41
891.498	10386.61
891.815	10399.26
892.131	10315.42
892.447	10370.79
892.763	10278.81
893.079	10247.63
893.395	10213.5
893.71	10182.77
894.026	10183.67
894.342	10166.05
894.657	10051.47
894.973	10090.34
895.289	10083.11
895.604	10035.43
895.92	9996.79
896.235	10003.11
896.55	9884.02
896.865	9858.94
897.181	9878.14
897.496	9878.6
897.811	9817.58
898.126	9787.75
898.441	9744.14
898.756	9728.32
899.071	9646.06
899.386	9595.21
899.7	9521.77
900.015	9490.36
900.33	9489.45
900.644	9506.4
900.959	9488.32
901.273	9442.45
901.588	9315.22
901.902	9258.73
902.216	9319.29
902.531	9287.65
902.845	9219.63
903.159	9143.7
903.473	9189.35
903.787	9101.67
904.101	9079.3
904.415	9046.98
904.729	9005.62
905.042	8933.99
905.356	9010.14
905.67	8896.7
905.984	8893.99
906.297	8911.16
906.611	8724.28
906.924	8741.22
907.237	8759.08
907.551	8743.26
907.864	8713.2
908.177	8711.17
908.491	8656.48
908.804	8602.25
909.117	8541
909.43	8521.8
909.743	8456.03
910.056	8470.95
910.368	8391.86
910.681	8363.61
910.994	8359.31
911.307	8284.51
911.619	8226.44
911.932	8225.08
912.244	8200.22
912.557	8137.63
912.869	8146.44
913.181	8125.87
913.494	8086.78
913.806	7997.06
914.118	8020.34
914.43	7976.73
914.742	7976.73
915.054	7869.16
915.366	7929.72
915.678	7865.32
915.99	7787.58
916.302	7672.1
916.613	7684.53
916.925	7688.82
917.236	7663.29
917.548	7635.72
917.859	7522.5
918.171	7553.46
918.482	7500.13
918.794	7494.48
919.105	7520.92
919.416	7355.5
919.727	7402.28
920.038	7342.39
920.349	7312.56
920.66	7306.69
920.971	7300.81
921.282	7291.32
921.593	7235.05
921.903	7183.75
922.214	7099.46
922.525	7133.58
922.835	7128.16
923.146	7033.93
923.456	7030.76
923.767	7002.51
924.077	7040.93
924.387	6932.23
924.697	6904.66
925.008	6869.41
925.318	6863.99
925.628	6884.32
925.938	6825.57
926.248	6775.85
926.558	6771.33
926.867	6746.48
927.177	6675.06
927.487	6654.95
927.796	6647.95
928.106	6602.3
928.416	6554.62
928.725	6564.79
929.034	6550.55
929.344	6505.8
929.653	6513.71
929.962	6403.89
930.271	6417.22
930.581	6401.63
930.89	6385.13
931.199	6314.4
931.508	6335.86
931.817	6333.6
932.125	6260.16
932.434	6267.84
932.743	6237.56
933.051	6178.81
933.36	6224.45
933.669	6154.4
933.977	6148.98
934.286	6133.84
934.594	6118.7
934.902	6011.13
935.21	5994.86
935.519	6019.26
935.827	5987.85
936.135	5933.84
936.443	5892.26
936.751	5886.16
937.059	5903.11
937.367	5813.17
937.674	5860.85
937.982	5767.29
938.29	5814.3
938.597	5782.88
938.905	5699.27
939.213	5701.3
939.52	5639.84
939.827	5697.01
940.135	5638.26
940.442	5610.23
940.749	5579.05
941.056	5604.58
941.363	5516.23
941.67	5512.61
941.977	5468.54
942.284	5419.96
942.591	5458.15
942.898	5419.05
943.205	5416.34
943.511	5380.18
943.818	5318.26
944.125	5287.08
944.431	5238.27
944.738	5238.04
945.044	5262.9
945.35	5195.56
945.657	5153.97
945.963	5175.89
946.269	5123.24
946.575	5104.48
946.881	5121.43
947.187	5091.15
947.493	5029.46
947.799	5025.16
948.105	5019.51
948.41	4966.18
948.716	4980.19
949.022	5004.6
949.327	4929.35
949.633	4907.2
949.938	4893.42
950.244	4869.69
950.549	4833.76
950.854	4800.31
951.16	4804.83
951.465	4778.84
951.77	4790.59
952.075	4726.87
952.38	4693.2
952.685	4716.02
952.99	4679.18
953.294	4669.92
953.599	4669.47
953.904	4675.57
954.209	4607.77
954.513	4587.44
954.818	4573.65
955.122	4574.33
955.426	4576.81
955.731	4489.81
956.035	4483.26
956.339	4497.27
956.643	4442.35
956.948	4361
957.252	4387.89
957.556	4380.44
957.86	4394.22
958.163	4370.27
958.467	4332.75
958.771	4288.01
959.075	4311.51
959.378	4294.56
959.682	4286.2
959.985	4255.02
960.289	4203.27
960.592	4178.41
960.896	4183.15
961.199	4161.46
961.502	4187.67
961.805	4163.49
962.108	4152.87
962.411	4116.71
962.714	4060.67
963.017	4067.68
963.32	4093.44
963.623	4050.27
963.926	4018.41
964.228	3971.41
964.531	3976.6
964.833	3940.67
965.136	3956.72
965.438	3946.1
965.741	3909.49
966.043	3868.58
966.345	3850.73
966.648	3874.69
966.95	3810.96
967.252	3788.13
967.554	3810.06
967.856	3782.71
968.158	3770.51
968.46	3756.5
968.761	3740.45
969.063	3721.47
969.365	3690.51
969.666	3685.09
969.968	3676.05
970.269	3663.17
970.571	3641.02
970.872	3645.54
971.174	3631.53
971.475	3614.81
971.776	3555.37
972.077	3541.36
972.378	3548.37
972.679	3507.24
972.98	3566.9
973.281	3467.92
973.582	3501.14
973.883	3505.2
974.183	3457.97
974.484	3422.04
974.785	3391.99
975.085	3383.63
975.386	3404.87
975.686	3394.02
975.986	3335.49
976.287	3354.7
976.587	3331.65
976.887	3327.58
977.187	3281.48
977.487	3288.26
977.787	3251.88
978.087	3253.23
978.387	3279.67
978.687	3193.35
978.987	3202.61
979.286	3196.96
979.586	3207.36
979.885	3173.24
980.185	3192.9
980.484	3164.87
980.784	3136.17
981.083	3104.54
981.382	3075.84
981.682	3109.28
981.981	3064.31
982.28	3060.47
982.579	3008.95
982.878	2996.52
983.177	3009.17
983.475	2995.84
983.774	2977.53
984.073	2980.25
984.372	2963.75
984.67	2937.54
984.969	2955.39
985.267	2964.2
985.566	2909.74
985.864	2888.5
986.162	2877.65
986.461	2875.84
986.759	2847.82
987.057	2813.92
987.355	2816.63
987.653	2823.19
987.951	2838.33
988.249	2780.25
988.547	2792.68
988.844	2779.12
989.142	2773.25
989.44	2747.94
989.737	2698.9
990.035	2721.27
990.332	2711.78
990.63	2716.3
990.927	2667.49
991.224	2666.81
991.521	2659.8
991.819	2624.55
992.116	2651.44
992.413	2630.88
992.71	2603.99
993.006	2589.75
993.303	2580.26
993.6	2546.36
993.897	2555.85
994.193	2542.07
994.49	2544.1
994.787	2539.81
995.083	2519.47
995.379	2465.01
995.676	2494.61
995.972	2469.98
996.268	2436.31
996.565	2430.66
996.861	2435.18
997.157	2458
997.453	2367.38
997.749	2406.93
998.044	2389.08
998.34	2389.53
998.636	2361.96
998.932	2369.64
999.227	2329.64
999.523	2342.75
999.818	2302.3
1000.114	2255.52
1000.409	2282.41
1000.704	2255.52
1001	2288.29
1001.295	2248.29
1001.59	2244.9
1001.885	2247.16
1002.18	2217.33
1002.475	2218.91
1002.77	2195.41
1003.065	2159.25
1003.359	2165.8
1003.654	2153.6
1003.949	2169.42
1004.243	2143.43
1004.538	2099.14
1004.832	2112.02
1005.127	2070.67
1005.421	2075.86
1005.715	2042.19
1006.009	2077.45
1006.304	2041.51
1006.598	2008.97
1006.892	2017.79
1007.186	2028.63
1007.48	1997.45
1007.773	2005.13
1008.067	1992.02
1008.361	1966.94
1008.655	1941.86
1008.948	1941.4
1009.242	1933.27
1009.535	1926.94
1009.829	1881.29
1010.122	1884.91
1010.415	1884
1010.708	1898.47
1011.001	1874.51
1011.295	1872.93
1011.588	1822.76
1011.881	1827.51
1012.173	1806.72
1012.466	1845.36
1012.759	1813.72
1013.052	1797.68
1013.344	1769.88
1013.637	1778.24
1013.93	1761.07
1014.222	1782.54
1014.514	1753.16
1014.807	1745.7
1015.099	1729.21
1015.391	1680.85
1015.683	1690.56
1015.976	1696.21
1016.268	1682.65
1016.56	1650.11
1016.851	1651.02
1017.143	1640.17
1017.435	1628.87
1017.727	1658.93
1018.018	1609.66
1018.31	1587.74
1018.602	1602.88
1018.893	1565.59
1019.185	1570.79
1019.476	1565.59
1019.767	1587.29
1020.058	1539.61
1020.35	1490.12
1020.641	1505.48
1020.932	1507.97
1021.223	1518.59
1021.514	1501.42
1021.804	1481.08
1022.095	1484.24
1022.386	1471.59
1022.677	1466.16
1022.967	1456.9
1023.258	1450.34
1023.548	1457.57
1023.839	1407.41
1024.129	1424.81
1024.419	1399.05
1024.709	1370.35
1025	1384.81
1025.29	1364.7
1025.58	1391.81
1025.87	1337.58
1026.16	1324.24
1026.449	1341.87
1026.739	1341.87
1027.029	1322.44
1027.319	1303
1027.608	1304.81
1027.898	1313.85
1028.187	1280.63
1028.477	1284.02
1028.766	1241.99
1029.055	1264.13
1029.344	1242.21
1029.634	1233.85
1029.923	1218.03
1030.212	1214.19
1030.501	1201.99
1030.79	1212.84
1031.078	1209.9
1031.367	1199.28
1031.656	1176.45
1031.945	1180.29
1032.233	1186.17
1032.522	1196.56
1032.81	1160.41
1033.099	1138.26
1033.387	1158.83
1033.675	1130.8
1033.963	1139.39
1034.251	1119.5
1034.54	1097.58
1034.828	1109.56
1035.116	1099.17
1035.403	1103.46
1035.691	1095.32
1035.979	1091.48
1036.267	1051.26
1036.554	1063.46
1036.842	1024.37
1037.129	1027.98
1037.417	1041.09
1037.704	1034.99
1037.992	1006.29
1038.279	1035.21
1038.566	1006.51
1038.853	1006.51
1039.14	1006.51
