Data from hue_310_FLMS001491_66.txt Node
Date: Mon Feb 06 15:50:01 GMT 2017
User: dcchb
Spectrometer: FLMS00149
Trigger mode: 0
Integration Time (sec): 2.000000E-2
Scans to average: 10
Electric dark correction enabled: true
Nonlinearity correction enabled: false
Boxcar width: 0
XAxis mode: Wavelengths
Number of Pixels in Spectrum: 2048
>>>>>Begin Spectral Data<<<<<
341.393	-8.7
341.776	-8.7
342.16	-8.7
342.543	-67.46
342.927	-48.47
343.31	-63.61
343.693	-51.41
344.077	-68.81
344.46	-64.29
344.843	-47.34
345.226	-44.63
345.61	-56.61
345.993	-19.77
346.376	-3.28
346.759	12.54
347.142	30.17
347.525	54.8
347.908	63.16
348.291	54.12
348.674	103.39
349.057	101.58
349.44	136.38
349.823	139.32
350.206	160.33
350.588	186.55
350.971	196.49
351.354	214.34
351.737	240.11
352.119	257.73
352.502	236.26
352.884	267.68
353.267	292.76
353.65	287.56
354.032	293.21
354.414	306.32
354.797	309.26
355.179	336.15
355.562	316.94
355.944	313.33
356.326	340.67
356.709	321.23
357.091	330.95
357.473	332.53
357.855	343.38
358.238	337.73
358.62	336.15
359.002	322.59
359.384	328.24
359.766	336.83
360.148	333.66
360.53	351.29
360.912	321.46
361.294	339.31
361.676	335.47
362.057	335.47
362.439	330.5
362.821	309.48
363.203	332.53
363.584	328.92
363.966	325.53
364.348	333.44
364.729	309.94
365.111	303.38
365.493	318.07
365.874	322.59
366.256	319.43
366.637	316.26
367.019	309.94
367.4	323.04
367.781	311.29
368.163	302.48
368.544	297.51
368.925	311.74
369.306	331.18
369.688	323.27
370.069	315.36
370.45	311.74
370.831	297.51
371.212	314.68
371.593	307.45
371.974	319.65
372.355	311.07
372.736	300.9
373.117	316.26
373.498	296.38
373.879	317.62
374.26	328.01
374.641	294.79
375.021	323.49
375.402	309.03
375.783	290.05
376.163	317.17
376.544	333.21
376.925	320.1
377.305	326.66
377.686	332.31
378.066	333.89
378.447	311.74
378.827	341.12
379.208	352.87
379.588	348.58
379.968	339.09
380.349	313.55
380.729	320.78
381.109	319.2
381.489	345.87
381.87	349.93
382.25	337.05
382.63	322.14
383.01	340.44
383.39	328.92
383.77	337.05
384.15	344.06
384.53	338.86
384.91	337.73
385.29	351.74
385.67	351.97
386.049	341.12
386.429	331.4
386.809	357.84
387.189	338.64
387.568	344.74
387.948	347.67
388.328	348.13
388.707	365.53
389.087	349.03
389.466	342.48
389.846	359.88
390.225	356.26
390.605	353.1
390.984	359.43
391.363	362.82
391.743	370.5
392.122	347.9
392.501	361.46
392.881	383.15
393.26	365.3
393.639	348.35
394.018	361.91
394.397	368.01
394.776	376.37
395.155	359.65
395.534	369.37
395.913	371.18
396.292	388.8
396.671	370.5
397.05	367.79
397.429	373.21
397.808	391.06
398.186	391.06
398.565	411.18
398.944	407.79
399.323	398.52
399.701	414.11
400.08	414.57
400.458	400.1
400.837	394.45
401.215	397.62
401.594	405.07
401.972	397.62
402.351	420.21
402.729	412.98
403.107	427.9
403.486	424.73
403.864	396.71
404.242	438.07
404.62	414.57
404.999	427.67
405.377	420.89
405.755	429.93
406.133	436.71
406.511	429.03
406.889	452.3
407.267	443.27
407.645	447.11
408.023	454.34
408.401	451.85
408.779	441.23
409.156	483.26
409.534	463.38
409.912	478.97
410.29	488.46
410.667	494.79
411.045	483.26
411.422	497.05
411.8	500.66
412.178	534.56
412.555	539.31
412.933	529.82
413.31	545.18
413.687	554.45
414.065	531.4
414.442	537.73
414.819	580.66
415.197	569.14
415.574	556.48
415.951	587.44
416.328	575.92
416.705	604.62
417.082	594.67
417.46	605.07
417.837	619.76
418.214	640.1
418.591	621.11
418.967	645.97
419.344	636.93
419.721	642.58
420.098	667.44
420.475	657.27
420.852	652.75
421.228	669.02
421.605	680.32
421.982	675.35
422.358	688.46
422.735	710.15
423.111	696.37
423.488	728.23
423.864	729.13
424.241	745.18
424.617	729.36
424.994	764.39
425.37	737.95
425.746	758.06
426.123	763.03
426.499	788.79
426.875	789.24
427.251	824.27
427.627	828.34
428.003	798.28
428.379	783.37
428.756	844.16
429.132	849.36
429.507	840.32
429.883	864.95
430.259	855.91
430.635	872.18
431.011	880.32
431.387	877.38
431.763	924.16
432.138	907.89
432.514	896.59
432.89	916.7
433.265	944.95
433.641	959.41
434.016	949.69
434.392	958.96
434.767	1007.09
435.143	1006.87
435.518	977.26
435.894	1020.2
436.269	1026.3
436.644	1055.9
437.02	1080.54
437.395	1045.74
437.77	1070.14
438.145	1074.21
438.52	1084.38
438.895	1073.98
439.271	1097.71
439.646	1096.13
440.021	1128.9
440.395	1126.19
440.77	1087.09
441.145	1113.3
441.52	1147.88
441.895	1138.84
442.27	1155.11
442.645	1142.91
443.019	1149.01
443.394	1154.88
443.769	1175.22
444.143	1170.48
444.518	1200.31
444.892	1174.55
445.267	1195.56
445.641	1203.92
446.016	1227.65
446.39	1217.03
446.764	1227.65
447.139	1223.58
447.513	1212.51
447.887	1220.19
448.262	1237.14
448.636	1227.43
449.01	1200.31
449.384	1260.64
449.758	1255.45
450.132	1280.08
450.506	1298.61
450.88	1264.49
451.254	1269.68
451.628	1286.41
452.002	1276.01
452.376	1284.15
452.75	1305.84
453.123	1327.99
453.497	1309.91
453.871	1342.68
454.244	1359.63
454.618	1348.33
454.992	1361.43
455.365	1372.05
455.739	1380.19
456.112	1385.39
456.486	1369.79
456.859	1426.29
457.232	1425.39
457.606	1435.78
457.979	1416.8
458.352	1454.09
458.725	1465.61
459.099	1441.66
459.472	1486.85
459.845	1503.12
460.218	1510.13
460.591	1529.79
460.964	1508.55
461.337	1522.11
461.71	1539.28
462.083	1591.03
462.456	1577.7
462.829	1585.83
463.201	1591.48
463.574	1597.81
463.947	1597.36
464.32	1637.36
464.692	1643.69
465.065	1646.4
465.438	1625.83
465.81	1672.61
466.183	1678.03
466.555	1707.64
466.928	1686.62
467.3	1687.53
467.672	1728.88
468.045	1757.13
468.417	1766.85
468.789	1774.76
469.161	1806.39
469.534	1775.43
469.906	1786.51
470.278	1808.88
470.65	1852.95
471.022	1890.91
471.394	1902.66
471.766	1929.1
472.138	1930.01
472.51	1945.37
472.882	1975.2
473.253	1986.05
473.625	2000.51
473.997	2024.24
474.369	2046.39
474.74	2035.54
475.112	2073.5
475.484	2132.26
475.855	2133.16
476.227	2119.61
476.598	2161.86
476.97	2201.64
477.341	2200.96
477.713	2201.86
478.084	2244.35
478.455	2277.57
478.827	2287.06
479.198	2327.06
479.569	2381.07
479.94	2384.23
480.311	2407.28
480.682	2422.65
481.053	2466.71
481.424	2516.88
481.795	2500.61
482.166	2497.67
482.537	2557.79
482.908	2612.02
483.279	2584.68
483.65	2637.11
484.021	2661.96
484.391	2706.26
484.762	2707.39
485.133	2721.85
485.503	2757.33
485.874	2809.08
486.244	2829.42
486.615	2863.77
486.985	2869.19
487.356	2937.66
487.726	2930.88
488.097	2993.71
488.467	2981.28
488.837	3021.73
489.207	3075.74
489.578	3084.33
489.948	3133.59
490.318	3115.96
490.688	3162.52
491.058	3127.26
491.428	3206.81
491.798	3247.03
492.168	3259.24
492.538	3279.35
492.908	3258.33
493.278	3336.07
493.648	3369.29
494.017	3418.55
494.387	3381.94
494.757	3440.47
495.126	3451.55
495.496	3427.82
495.866	3478.44
496.235	3478.89
496.605	3478.89
496.974	3537.87
497.344	3551.66
497.713	3559.12
498.082	3588.72
498.452	3612
498.821	3615.61
499.19	3617.42
499.559	3651.32
499.928	3623.75
500.298	3720.47
500.667	3685.89
501.036	3645.44
501.405	3698.77
501.774	3695.16
502.143	3739.68
502.512	3730.64
502.88	3809.28
503.249	3783.29
503.618	3839.56
503.987	3866
504.356	3869.84
504.724	3809.5
505.093	3871.65
505.462	3858.32
505.83	3900.58
506.199	3898.77
506.567	3909.16
506.936	3907.13
507.304	3943.51
507.672	3951.42
508.041	3965.43
508.409	4018.76
508.777	4004.98
509.145	4027.8
509.514	4024.64
509.882	4034.81
510.25	4038.42
510.618	4015.83
510.986	4034.36
511.354	4069.16
511.722	4090.17
512.09	4174.01
512.458	4113.45
512.826	4155.48
513.193	4191.64
513.561	4143.73
513.929	4153.68
514.297	4208.14
514.664	4215.6
515.032	4225.54
515.4	4252.43
515.767	4251.3
516.135	4223.5
516.502	4229.61
516.869	4309.6
517.237	4301.24
517.604	4303.05
517.972	4345.08
518.339	4356.16
518.706	4334.46
519.073	4367.68
519.44	4378.98
519.808	4308.25
520.175	4376.72
520.542	4410.17
520.909	4434.8
521.276	4400.68
521.643	4462.59
522.009	4421.47
522.376	4491.29
522.743	4519.54
523.11	4511.41
523.477	4548.47
523.843	4585.98
524.21	4623.72
524.577	4658.52
524.943	4647.9
525.31	4655.13
525.676	4698.29
526.043	4728.58
526.409	4686.09
526.776	4761.12
527.142	4708.46
527.508	4737.62
527.874	4858.52
528.241	4819.2
528.607	4880.66
528.973	4879.76
529.339	4846.77
529.705	4950.27
530.071	4944.16
530.437	4997.95
530.803	5003.15
531.169	4994.56
531.535	5000.21
531.901	5050.6
532.267	5086.98
532.632	5044.5
532.998	5090.83
533.364	5088.79
533.73	5125.63
534.095	5172.41
534.461	5204.95
534.826	5191.16
535.192	5221.22
535.557	5270.26
535.923	5306.64
536.288	5317.26
536.653	5309.35
537.019	5256.7
537.384	5338.5
537.749	5380.54
538.114	5417.82
538.479	5395.23
538.845	5439.74
539.21	5409.24
539.575	5442.91
539.94	5475
540.305	5524.04
540.67	5495.79
541.034	5522
541.399	5569.91
541.764	5616.24
542.129	5634.32
542.494	5596.12
542.858	5637.7
543.223	5678.83
543.587	5699.4
543.952	5675.9
544.316	5754.54
544.681	5744.14
545.045	5780.75
545.41	5815.33
545.774	5819.17
546.138	5816.91
546.503	5876.57
546.867	5929.67
547.231	5893.07
547.595	5944.36
547.959	5950.92
548.324	6004.25
548.688	6017.36
549.052	6016.9
549.416	6039.73
549.779	6015.32
550.143	6093.06
550.507	6109.56
550.871	6152.72
551.235	6121.08
551.599	6183.45
551.962	6171.7
552.326	6177.58
552.689	6259.16
553.053	6232.94
553.417	6292.38
553.78	6279.95
554.143	6303
554.507	6281.98
554.87	6328.08
555.234	6384.13
555.597	6325.6
555.96	6389.78
556.323	6405.59
556.686	6387.74
557.05	6495.54
557.413	6443.79
557.776	6496.21
558.139	6484.01
558.502	6512.03
558.865	6590.9
559.228	6608.07
559.59	6579.38
559.953	6601.75
560.316	6704.8
560.679	6622.31
561.041	6668.41
561.404	6709.32
561.767	6747.73
562.129	6762.2
562.492	6758.13
562.854	6807.17
563.217	6768.75
563.579	6808.52
563.941	6849.2
564.304	6843.32
564.666	6875.86
565.028	6884.23
565.39	6900.72
565.753	6969.65
566.115	6954.51
566.477	6984.56
566.839	7046.71
567.201	7068.85
567.563	7053.26
567.925	7127.84
568.287	7147.27
568.648	7099.36
569.01	7185.01
569.372	7199.25
569.734	7223.88
570.095	7293.03
570.457	7313.59
570.819	7311.56
571.18	7397.88
571.542	7470.65
571.903	7461.84
572.265	7491.22
572.626	7487.6
572.987	7512.68
573.349	7526.92
573.71	7633.81
574.071	7674.49
574.432	7665.9
574.794	7849.4
575.155	7816.18
575.516	7869.51
575.877	8008.04
576.238	7937.53
576.599	8046.68
576.96	8140.92
577.32	8200.8
577.681	8283.29
578.042	8305.21
578.403	8402.38
578.763	8453.9
579.124	8619.32
579.485	8690.05
579.845	8841.01
580.206	8832.88
580.566	8913.32
580.927	9115.81
581.287	9273.32
581.648	9344.95
582.008	9549.92
582.368	9659.97
582.728	9758.27
583.089	9840.31
583.449	10066.29
583.809	10201.65
584.169	10364.59
584.529	10554.19
584.889	10738.14
585.249	10903.78
585.609	11014.06
585.969	11305.13
586.329	11522.3
586.688	11705.12
587.048	11887.48
587.408	12119.12
587.768	12343.29
588.127	12579.67
588.487	12839.78
588.846	13098.3
589.206	13221.91
589.565	13509.59
589.925	13802.69
590.284	13992.51
590.643	14270.92
591.003	14598.6
591.362	14915.2
591.721	15077
592.08	15328.3
592.44	15652.13
592.799	15992.69
593.158	16260.25
593.517	16558.32
593.876	16768.03
594.235	17074.47
594.593	17390.62
594.952	17734.79
595.311	17926.42
595.67	18348.33
596.029	18714.2
596.387	18966.85
596.746	19264.69
597.104	19370.23
597.463	19768.86
597.822	20074.61
598.18	20287.26
598.538	20556.41
598.897	20905.55
599.255	21128.6
599.613	21732.42
599.972	21819.65
600.33	22244.95
600.688	22403.37
601.046	22718.39
601.404	23128.32
601.762	23302.1
602.12	23618.48
602.478	23922.65
602.836	24262.75
603.194	24368.06
603.552	24638.34
603.91	24762.63
604.268	25222.27
604.625	25406
604.983	25722.83
605.341	25833.56
605.698	26150.16
606.056	26558.74
606.413	26701.33
606.771	27100.42
607.128	27264.93
607.485	27278.27
607.843	27673.06
608.2	28024.91
608.557	28292.7
608.914	28368.63
609.272	28695.4
609.629	28979.24
609.986	29221.04
610.343	29146.47
610.7	29638.66
611.057	29765.21
611.414	30092.43
611.771	30187.57
612.127	30494.45
612.484	30672.75
612.841	30875.23
613.198	30985.06
613.554	31106.64
613.911	31577.59
614.267	31496.01
614.624	31778.26
614.98	31853.29
615.337	32215.31
615.693	32230.45
616.05	32329.21
616.406	32762.19
616.762	32745.24
617.118	32791.57
617.475	33028.62
617.831	33237.88
618.187	33372.57
618.543	33571.43
618.899	33762.62
619.255	33941.14
619.611	33839.68
619.967	34031.76
620.323	34228.14
620.678	34393.33
621.034	34258.2
621.39	34354.69
621.746	34592.88
622.101	35003.03
622.457	34815.24
622.812	35006.88
623.168	35108.79
623.523	35272.41
623.879	35505.85
624.234	35278.96
624.589	35488.67
624.945	35487.32
625.3	35695.45
625.655	35815.44
626.01	35953.07
626.365	35960.52
626.72	35996.23
627.075	35942.44
627.43	36131.59
627.785	36093.18
628.14	36267.41
628.495	36441.87
628.85	36285.94
629.205	36226.73
629.559	36609.77
629.914	36458.59
630.269	36527.74
630.623	36431.47
630.978	36407.52
631.332	36587.17
631.687	36688.64
632.041	36546.5
632.396	36654.06
632.75	36634.4
633.104	36632.37
633.459	36574.29
633.813	36647.28
634.167	36703.33
634.521	36817
634.875	36870.56
635.229	36756.66
635.583	36698.36
635.937	36671.47
636.291	36758.92
636.645	36794.17
636.999	36650.22
637.352	37026.48
637.706	36672.37
638.06	36878.92
638.413	36778.81
638.767	36819.26
639.121	36820.84
639.474	36754.17
639.828	36671.24
640.181	36779.48
640.534	36960.27
640.888	36811.12
641.241	36561.41
641.594	36660.39
641.947	36842.76
642.301	36717.11
642.654	36834.62
643.007	36760.05
643.36	36765.7
643.713	36667.17
644.066	36834.62
644.419	36597.34
644.771	36330.23
645.124	36134.98
645.477	36139.73
645.83	35786.97
646.182	35800.98
646.535	35769.34
646.888	35895.21
647.24	35579.29
647.593	35797.59
647.945	35777.7
648.298	35606.63
648.65	35591.04
649.002	35510.14
649.355	35604.6
649.707	35565.05
650.059	35923.69
650.411	36016.34
650.763	36311.7
651.115	36480.51
651.467	36375.2
651.819	36421.53
652.171	36326.39
652.523	36340.85
652.875	36299.05
653.227	36160.52
653.578	36425.14
653.93	36307.18
654.282	36066.96
654.633	36133.4
654.985	36191.25
655.337	36260.85
655.688	36287.75
656.039	36397.35
656.391	36042.33
656.742	35987.64
657.094	36061.54
657.445	36246.84
657.796	36093.85
658.147	36141.76
658.498	36186.51
658.849	36199.16
659.2	36089.33
659.551	36084.36
659.902	36179.73
660.253	36141.31
660.604	36224.47
660.955	36056.34
661.306	35995.1
661.656	36059.96
662.007	36050.46
662.358	36010.92
662.708	35913.74
663.059	35975.89
663.409	35817.93
663.76	35941.54
664.11	36011.82
664.461	36076.68
664.811	36054.98
665.161	36057.92
665.511	35875.1
665.862	35998.71
666.212	36079.62
666.562	36099.28
666.912	36076.68
667.262	35981.31
667.612	36020.63
667.962	36033.29
668.312	35782.45
668.662	36094.76
669.011	35958.94
669.361	35904.48
669.711	35870.13
670.06	35882.79
670.41	35852.28
670.76	35838.49
671.109	36031.93
671.459	35846.4
671.808	35885.27
672.157	35925.95
672.507	35648.22
672.856	35640.98
673.205	35813.18
673.554	35821.54
673.904	35509.46
674.253	35875.1
674.602	35669.23
674.951	35125.52
675.3	34953.09
675.649	35556.47
675.998	35542.46
676.346	35576.35
676.695	35700.87
677.044	35397.37
677.393	35529.8
677.741	35625.39
678.09	35542.23
678.438	35350.82
678.787	35551.95
679.135	35561.44
679.484	35226.31
679.832	35518.73
680.181	35210.03
680.529	35394.44
680.877	35219.07
681.225	35306.76
681.573	35419.07
681.922	35245.97
682.27	35090.94
682.618	35111.05
682.966	34989.25
683.314	35064.95
683.661	35017.05
684.009	34788.58
684.357	34751.29
684.705	34775.47
685.053	34702.25
685.4	34637.62
685.748	34575.48
686.095	34546.78
686.443	34367.57
686.79	34347.68
687.138	34459.77
687.485	34411.41
687.832	34210.74
688.18	34301.81
688.527	34164.41
688.874	34012.55
689.221	34029.95
689.568	33910.63
689.915	33955.38
690.262	33823.4
690.609	33773.91
690.956	33835.61
691.303	33757.19
691.65	33645.1
691.997	33550.64
692.344	33397.2
692.69	33258.22
693.037	33369.18
693.383	32954.27
693.73	33220.71
694.077	33013.48
694.423	32892.58
694.769	32876.54
695.116	32792.7
695.462	32743.88
695.808	32624.34
696.155	32828.63
696.501	32450.33
696.847	32512.7
697.193	32391.58
697.539	32406.49
697.885	32202.43
698.231	32029.55
698.577	32084.02
698.923	31990.68
699.269	31831.82
699.614	31729.45
699.96	31611.03
700.306	31760.86
700.651	31480.42
700.997	31590.47
701.342	31384.37
701.688	31437.7
702.033	31336.24
702.379	31266.64
702.724	31150.03
703.069	31424.6
703.415	31016.02
703.76	30859.87
704.105	31057.38
704.45	30829.81
704.795	30623.26
705.14	30601.57
705.485	30542.13
705.83	30514.34
706.175	30505.98
706.52	30428.69
706.865	30324.29
707.209	30137.17
707.554	30226.44
707.899	30250.84
708.243	29920
708.588	29903.06
708.932	29800.23
709.277	29823.51
709.621	29809.5
709.966	29691.08
710.31	29785.54
710.654	29423.52
710.998	29610.18
711.342	29476.63
711.687	29268.5
712.031	29261.94
712.375	29168.61
712.719	29112.57
713.063	29105.79
713.407	29224.43
713.75	29064.66
714.094	29050.42
714.438	28863.08
714.782	29017.43
715.125	28914.61
715.469	28902.86
715.812	28749.19
716.156	28635.29
716.499	28547.38
716.843	28601.39
717.186	28463.32
717.53	28564.79
717.873	28531.11
718.216	28588.51
718.559	28400.5
718.902	28178.36
719.246	28233.27
719.589	28158.47
719.932	28022.43
720.275	28042.99
720.617	28082.54
720.96	27894.97
721.303	27967.51
721.646	27920.28
721.989	27830.79
722.331	27869.66
722.674	27705.6
723.016	27772.26
723.359	27773.39
723.701	27802.09
724.044	27467.87
724.386	27475.77
724.729	27563.68
725.071	27447.53
725.413	27474.64
725.755	27419.73
726.097	27338.15
726.439	27252.28
726.782	27214.54
727.124	27210.7
727.465	27057.71
727.807	27090.7
728.149	27069.01
728.491	27078.05
728.833	27116.46
729.175	26963.25
729.516	26811.39
729.858	26799.41
730.199	26918.95
730.541	26685.96
730.882	26793.31
731.224	26831.95
731.565	26565.29
731.906	26566.65
732.248	26497.5
732.589	26543.82
732.93	26470.38
733.271	26420.21
733.612	26368.01
733.953	26480.09
734.294	26357.16
734.635	26322.81
734.976	26298.63
735.317	26127.56
735.658	26213.21
735.999	26136.6
736.339	26156.94
736.68	26190.38
737.021	26129.82
737.361	25944.29
737.702	26101.35
738.042	25983.16
738.383	25962.37
738.723	25937.96
739.063	25864.97
739.404	25905.87
739.744	25816.61
740.084	25707.46
740.424	25699.55
740.764	25785.42
741.104	25802.6
741.444	25516.73
741.784	25482.83
742.124	25584.75
742.464	25494.58
742.804	25396.73
743.143	25374.81
743.483	25413.23
743.823	25260.69
744.162	25231.99
744.502	25252.1
744.841	25208.49
745.181	25352.44
745.52	25202.61
745.86	25169.85
746.199	25056.63
746.538	25080.13
746.877	25064.54
747.216	24996.97
747.556	24916.97
747.895	24918.78
748.234	24787.94
748.573	24708.16
748.911	24699.58
749.25	24731.21
749.589	24631.56
749.928	24607.15
750.267	24601.95
750.605	24545
750.944	24562.86
751.283	24448.51
751.621	24479.7
751.96	24338.46
752.298	24376.42
752.636	24367.38
752.975	24104.34
753.313	24107.05
753.651	24281.51
753.989	24062.98
754.327	24148.86
754.666	23940.05
755.004	23944.12
755.342	23905.93
755.679	23881.52
756.017	23743.44
756.355	23837
756.693	23630.68
757.031	23710.22
757.368	23585.03
757.706	23481.3
758.044	23547.52
758.381	23485.82
758.719	23376.67
759.056	23412.83
759.394	23188.2
759.731	23158.37
760.068	23092.39
760.405	23027.53
760.743	22993.18
761.08	23019.85
761.417	22955.89
761.754	22795.45
762.091	22816.24
762.428	22667.77
762.765	22553.64
763.102	22691.04
763.438	22467.54
763.775	22311.84
764.112	22458.51
764.449	22421.22
764.785	22277.49
765.122	22204.27
765.458	22054.45
765.795	22058.74
766.131	22035.24
766.467	21981.68
766.804	21809.71
767.14	21732.65
767.476	21717.28
767.812	21624.4
768.148	21610.84
768.485	21521.81
768.821	21319.33
769.157	21396.16
769.492	21267.8
769.828	21278.65
770.164	21029.39
770.5	21076.85
770.836	20992.33
771.171	20827.36
771.507	20844.76
771.842	20694.71
772.178	20703.98
772.513	20701.04
772.849	20563.64
773.184	20467.6
773.519	20487.94
773.855	20352.35
774.19	20388.05
774.525	20285.68
774.86	20181.5
775.195	20186.93
775.53	20033.03
775.865	19873.94
776.2	19894.51
776.535	19765.24
776.87	19854.73
777.205	19617.9
777.539	19602.31
777.874	19647.51
778.209	19426.49
778.543	19454.29
778.878	19189.21
779.212	19307.63
779.547	19163.68
779.881	19221.53
780.215	19098.14
780.55	19069.67
780.884	18861.99
781.218	18890.46
781.552	18857.24
781.886	18776.12
782.22	18670.13
782.554	18618.15
782.888	18404.37
783.222	18438.5
783.556	18340.2
783.889	18292.97
784.223	18142.46
784.557	18200.99
784.89	18182.69
785.224	17994.22
785.557	17949.92
785.891	17807.1
786.224	17852.52
786.558	17842.13
786.891	17714.22
787.224	17660.21
787.557	17581.12
787.891	17579.99
788.224	17482.14
788.557	17539.99
788.89	17457.96
789.223	17373.44
789.556	17220
789.888	17204.86
790.221	17166.22
790.554	16991.76
790.887	17047.12
791.219	16881.03
791.552	16896.62
791.884	16841.48
792.217	16756.51
792.549	16696.85
792.882	16518.55
793.214	16537.76
793.546	16602.61
793.879	16550.19
794.211	16411.43
794.543	16300.25
794.875	16334.15
795.207	16361.49
795.539	16222.29
795.871	16215.51
796.203	16043.76
796.535	16108.16
796.867	15940.71
797.198	15896.87
797.53	15903.88
797.862	15848.06
798.193	15849.87
798.525	15697.1
798.856	15775.97
799.188	15606.71
799.519	15513.38
799.85	15416.88
800.182	15471.34
800.513	15472.47
800.844	15288.75
801.175	15403.78
801.506	15315.87
801.837	15184.12
802.168	15184.57
802.499	15182.99
802.83	15172.14
803.161	15083.11
803.491	15072.49
803.822	14991.81
804.153	14888.54
804.483	14872.72
804.814	14822.1
805.145	14794.98
805.475	14713.62
805.805	14646.96
806.136	14740.52
806.466	14715.43
806.796	14757.69
807.126	14538.04
807.457	14547.08
807.787	14473.4
808.117	14397.47
808.447	14391.15
808.777	14409.68
809.107	14302.11
809.436	14247.65
809.766	14187.54
810.096	14119.97
810.426	14128.56
810.755	14100.53
811.085	14140.53
811.414	14098.73
811.744	13978.73
812.073	13980.31
812.403	13910.03
812.732	13803.37
813.061	13834.78
813.39	13791.84
813.719	13749.58
814.049	13822.8
814.378	13758.17
814.707	13692.86
815.036	13684.95
815.365	13547.1
815.693	13552.07
816.022	13477.05
816.351	13451.28
816.68	13370.16
817.008	13404.96
817.337	13292.19
817.665	13330.84
817.994	13406.31
818.322	13274.34
818.651	13179.2
818.979	13216.04
819.307	13152.31
819.636	13175.81
819.964	13041.8
820.292	13103.27
820.62	13156.38
820.948	13095.59
821.276	13143.72
821.604	13136.49
821.932	13068.7
822.259	13138.52
822.587	13045.87
822.915	13011.75
823.243	13123.61
823.57	13071.18
823.898	13018.98
824.225	12941.24
824.553	13038.19
824.88	13021.47
825.207	13040
825.535	13042.03
825.862	13036.61
826.189	12975.82
826.516	13032.31
826.843	13081.8
827.17	12998.64
827.497	13032.54
827.824	13045.42
828.151	13050.39
828.478	13000.45
828.805	13053.56
829.131	12961.13
829.458	12981.01
829.785	12932.65
830.111	12951.41
830.438	12981.24
830.764	12949.15
831.09	12984.86
831.417	12973.33
831.743	12930.17
832.069	12963.39
832.395	12891.07
832.722	12882.49
833.048	12828.25
833.374	12814.47
833.7	12783.96
834.026	12841.58
834.351	12853.11
834.677	12878.42
835.003	12838.19
835.329	12770.85
835.654	12775.14
835.98	12784.64
836.306	12775.37
836.631	12748.48
836.956	12706.67
837.282	12775.37
837.607	12620.35
837.932	12634.36
838.258	12582.61
838.583	12574.25
838.908	12537.86
839.233	12573.34
839.558	12559.1
839.883	12462.61
840.208	12476.85
840.533	12472.1
840.858	12440.69
841.182	12458.54
841.507	12487.47
841.832	12330.86
842.156	12341.94
842.481	12350.75
842.805	12388.94
843.13	12219
843.454	12247.25
843.778	12227.36
844.103	12187.82
844.427	12164.09
844.751	12180.13
845.075	12084.54
845.399	12069.4
845.723	11994.15
846.047	12016.07
846.371	11845.23
846.695	11849.29
847.019	11809.52
847.343	11757.54
847.666	11623.31
847.99	11620.6
848.313	11614.72
848.637	11611.33
848.96	11492.92
849.284	11501.05
849.607	11469.19
849.931	11339.93
850.254	11365.46
850.577	11336.99
850.9	11259.93
851.223	11187.84
851.546	11174.73
851.869	11080.5
852.192	11085.47
852.515	11052.93
852.838	10958.02
853.161	10978.36
853.483	10930.67
853.806	10894.29
854.129	10930.22
854.451	10752.6
854.774	10813.16
855.096	10691.13
855.419	10626.05
855.741	10729.77
856.063	10647.06
856.385	10561.64
856.708	10538.14
857.03	10507.41
857.352	10547.86
857.674	10463.57
857.996	10489.1
858.318	10419.05
858.64	10359.39
858.961	10343.57
859.283	10418.82
859.605	10290.01
859.926	10268.09
860.248	10303.8
860.57	10212.73
860.891	10229.22
861.212	10226.74
861.534	10101.77
861.855	10121.43
862.176	10136.57
862.498	10138.38
862.819	10029.68
863.14	10070.81
863.461	10023.8
863.782	9965.73
864.103	9987.42
864.424	9926.18
864.745	9942.22
865.065	9940.64
865.386	9862.68
865.707	9838.95
866.027	9870.36
866.348	9885.05
866.668	9760.31
866.989	9864.49
867.309	9685.73
867.63	9747.43
867.95	9766.41
868.27	9734.09
868.59	9730.48
868.91	9762.57
869.23	9707.88
869.55	9621.78
869.87	9641.22
870.19	9630.59
870.51	9621.1
870.83	9610.71
871.15	9592.63
871.469	9582.91
871.789	9640.76
872.109	9504.5
872.428	9497.72
872.748	9490.94
873.067	9546.08
873.386	9475.12
873.706	9513.31
874.025	9447.32
874.344	9453.65
874.663	9406.42
874.982	9380.88
875.301	9419.3
875.62	9383.37
875.939	9345.86
876.258	9337.95
876.577	9337.72
876.896	9282.58
877.214	9267.89
877.533	9343.14
877.852	9302.02
878.17	9315.35
878.489	9259.98
878.807	9234.67
879.125	9170.27
879.444	9215.24
879.762	9159.65
880.08	9168.91
880.398	9115.13
880.716	9141.57
881.034	9087.33
881.352	9095.92
881.67	9081.46
881.988	9062.25
882.306	9059.99
882.624	9047.78
882.941	8960.33
883.259	8983.15
883.577	8966.43
883.894	8902.7
884.212	8928.92
884.529	8900.44
884.846	8840.33
885.164	8843.04
885.481	8865.19
885.798	8846.21
886.115	8746.32
886.432	8695.25
886.75	8685.76
887.067	8781.58
887.383	8686.89
887.7	8683.95
888.017	8644.41
888.334	8695.03
888.651	8676.27
888.967	8629.49
889.284	8561.7
889.6	8484.41
889.917	8507.46
890.233	8504.07
890.55	8453.9
890.866	8485.77
891.182	8489.61
891.498	8424.98
891.815	8482.38
892.131	8386.11
892.447	8321.48
892.763	8299.33
893.079	8236.51
893.395	8287.13
893.71	8245.55
894.026	8255.94
894.342	8159.45
894.657	8096.4
894.973	8132.78
895.289	8107.7
895.604	8107.24
895.92	8035.83
896.235	8010.52
896.55	7961.03
896.865	7996.51
897.181	7881.49
897.496	7935.72
897.811	7916.52
898.126	7863.18
898.441	7846.46
898.756	7812.34
899.071	7827.48
899.386	7807.59
899.7	7744.32
900.015	7729.85
900.33	7622.29
900.644	7604.21
900.959	7649.86
901.273	7640.59
901.588	7537.77
901.902	7532.57
902.216	7494.15
902.531	7469.07
902.845	7467.49
903.159	7452.35
903.473	7401.05
903.787	7340.26
904.101	7311.11
904.415	7299.13
904.729	7307.72
905.042	7241.5
905.356	7257.78
905.67	7239.7
905.984	7188.4
906.297	7173.94
906.611	7105.46
906.924	7103.43
907.237	7053.26
907.551	7084.9
907.864	7001.28
908.177	6988.86
908.491	6938.01
908.804	6910.67
909.117	6909.08
909.43	6883.32
909.743	6822.76
910.056	6876.77
910.368	6741.63
910.681	6789.54
910.994	6723.55
911.307	6697.79
911.619	6698.92
911.932	6684.01
912.244	6659.37
912.557	6615.53
912.869	6553.16
913.181	6529.66
913.494	6593.61
913.806	6465.25
914.118	6488.76
914.43	6413.96
914.742	6430
915.054	6394.52
915.366	6443.11
915.678	6408.98
915.99	6345.26
916.302	6284.02
916.613	6267.07
916.925	6277.01
917.236	6269.78
917.548	6261.19
917.859	6199.5
918.171	6162.89
918.482	6142.32
918.794	6130.12
919.105	6136.22
919.416	6040.63
919.727	6045.6
920.038	6008.77
920.349	5959.28
920.66	5948.43
920.971	5905.04
921.282	5859.39
921.593	5888.55
921.903	5859.39
922.214	5825.5
922.525	5813.75
922.835	5737.59
923.146	5741.2
923.456	5751.6
923.767	5707.31
924.077	5691.26
924.387	5677.03
924.697	5636.57
925.008	5632.96
925.318	5617.37
925.628	5618.04
925.938	5569.46
926.248	5473.64
926.558	5492.17
926.867	5419.86
927.177	5483.58
927.487	5415.34
927.796	5364.49
928.106	5400.87
928.416	5426.41
928.725	5379.63
929.034	5311.39
929.344	5316.58
929.653	5294.89
929.962	5235.68
930.271	5226.64
930.581	5237.26
930.89	5189.13
931.199	5175.8
931.508	5147.55
931.817	5104.39
932.125	5073.65
932.434	5082.24
932.743	5044.05
933.051	5018.51
933.36	5008.79
933.669	4968.34
933.977	4950.72
934.286	4966.99
934.594	4947.33
934.902	4896.48
935.21	4852.41
935.519	4897.61
935.827	4814.68
936.135	4841.79
936.443	4808.12
936.751	4766.99
937.059	4752.76
937.367	4728.58
937.674	4702.14
937.982	4715.47
938.29	4676.6
938.597	4649.03
938.905	4592.76
939.213	4589.82
939.52	4588.01
939.827	4590.5
940.135	4574
940.442	4562.25
940.749	4538.07
941.056	4503.5
941.363	4495.81
941.67	4477.96
941.977	4431.63
942.284	4439.09
942.591	4432.76
942.898	4346.67
943.205	4365.42
943.511	4343.5
943.818	4361.81
944.125	4305.76
944.431	4263.5
944.738	4284.75
945.044	4290.85
945.35	4285.65
945.657	4161.81
945.963	4178.31
946.269	4207.23
946.575	4185.09
946.881	4153
947.187	4153.9
947.493	4119.55
947.799	4069.84
948.105	4069.84
948.41	4051.31
948.716	4066.22
949.022	4050.63
949.327	4047.24
949.633	4011.98
949.938	3978.99
950.244	3981.48
950.549	3944.87
950.854	3947.35
951.16	3909.39
951.465	3922.27
951.77	3898.09
952.075	3861.93
952.38	3873.68
952.685	3806.34
952.99	3823.74
953.294	3803.4
953.599	3748.94
953.904	3753.91
954.209	3757.08
954.513	3729.96
954.818	3698.32
955.122	3706.91
955.426	3703.74
955.731	3653.35
956.035	3646.34
956.339	3633.69
956.643	3616.74
956.948	3627.14
957.252	3595.05
957.556	3593.92
957.86	3554.37
958.163	3508.04
958.467	3508.95
958.771	3482.28
959.075	3490.64
959.378	3489.06
959.682	3497.87
959.985	3426.46
960.289	3461.49
960.592	3432.34
960.896	3397.09
961.199	3390.53
961.502	3361.15
961.805	3381.49
962.108	3339.91
962.411	3334.71
962.714	3329.07
963.017	3306.47
963.32	3275.28
963.623	3289.97
963.926	3282.74
964.228	3233.02
964.531	3270.31
964.833	3230.31
965.136	3224.66
965.438	3215.85
965.741	3207.71
966.043	3182.63
966.345	3120.93
966.648	3134.27
966.95	3186.24
967.252	3085.91
967.554	3108.05
967.856	3101.73
968.158	3056.3
968.46	3031.45
968.761	3024.44
969.063	3030.99
969.365	2999.58
969.666	3028.06
969.968	2961.39
970.269	3010.2
970.571	3002.52
970.872	2985.8
971.174	2993.48
971.475	2967.04
971.776	2902.64
972.077	2917.1
972.378	2859.47
972.679	2892.47
972.98	2901.51
973.281	2865.57
973.582	2826.48
973.883	2837.55
974.183	2818.34
974.484	2836.87
974.785	2803.66
975.085	2808.17
975.386	2781.73
975.686	2725.69
975.986	2741.74
976.287	2748.74
976.587	2740.15
976.887	2689.76
977.187	2720.04
977.487	2711.68
977.787	2715.3
978.087	2669.87
978.387	2653.38
978.687	2606.82
978.987	2638.91
979.286	2635.07
979.586	2617.45
979.885	2602.08
980.185	2554.4
980.484	2561.4
980.784	2585.81
981.083	2567.5
981.382	2556.2
981.682	2525.24
981.981	2509.65
982.28	2512.59
982.579	2492.48
982.878	2506.04
983.177	2502.87
983.475	2493.83
983.774	2434.85
984.073	2426.94
984.372	2414.06
984.67	2454.06
984.969	2419.26
985.267	2394.85
985.566	2407.28
985.864	2411.35
986.162	2374.29
986.461	2357.11
986.759	2347.17
987.057	2333.84
987.355	2323.44
987.653	2304.01
987.951	2323.22
988.249	2293.61
988.547	2274.18
988.844	2274.4
989.142	2287.51
989.44	2277.34
989.737	2221.52
990.035	2271.92
990.332	2224.69
990.63	2218.13
990.927	2217.46
991.224	2193.95
991.521	2191.47
991.819	2163.67
992.116	2161.41
992.413	2161.86
992.71	2163.67
993.006	2101.98
993.303	2122.77
993.6	2117.12
993.897	2071.92
994.193	2094.97
994.49	2104.46
994.787	2080.28
995.083	2068.99
995.379	2051.81
995.676	2066.5
995.972	2050.45
996.268	2046.39
996.565	2043.45
996.861	2010.91
997.157	2033.05
997.453	1995.54
997.749	2003.45
998.044	1966.39
998.34	1955.99
998.636	1987.63
998.932	1955.77
999.227	1937.46
999.523	1926.84
999.818	1923.68
1000.114	1889.55
1000.409	1880.29
1000.704	1891.14
1001	1891.36
1001.295	1883.45
1001.59	1861.76
1001.885	1849.56
1002.18	1848.2
1002.475	1828.54
1002.77	1816.79
1003.065	1815.43
1003.359	1801.65
1003.654	1815.21
1003.949	1777.47
1004.243	1752.84
1004.538	1771.37
1004.832	1755.55
1005.127	1788.77
1005.421	1727.98
1005.715	1720.52
1006.009	1719.84
1006.304	1719.62
1006.598	1689.33
1006.892	1692.05
1007.186	1671.71
1007.48	1685.27
1007.773	1678.49
1008.067	1647.75
1008.361	1642.56
1008.655	1633.29
1008.948	1625.83
1009.242	1592.39
1009.535	1611.37
1009.829	1612.73
1010.122	1596
1010.415	1594.42
1010.708	1575.44
1011.001	1577.7
1011.295	1539.96
1011.588	1548.55
1011.881	1547.87
1012.173	1522.33
1012.466	1508.77
1012.759	1502.45
1013.052	1517.59
1013.344	1476.68
1013.637	1477.81
1013.93	1475.55
1014.222	1480.07
1014.514	1464.71
1014.807	1469.9
1015.099	1456.57
1015.391	1442.79
1015.683	1450.7
1015.976	1428.78
1016.268	1424.93
1016.56	1429.91
1016.851	1373.64
1017.143	1409.79
1017.435	1362.79
1017.727	1379.51
1018.018	1368.21
1018.31	1359.4
1018.602	1343.13
1018.893	1321.89
1019.185	1325.73
1019.476	1351.04
1019.767	1329.57
1020.058	1308.1
1020.35	1288.44
1020.641	1262
1020.932	1266.75
1021.223	1281.44
1021.514	1264.49
1021.804	1261.1
1022.095	1241.66
1022.386	1249.35
1022.677	1246.63
1022.967	1222
1023.258	1207.99
1023.548	1217.26
1023.839	1196.01
1024.129	1225.17
1024.419	1201.21
1024.709	1196.92
1025	1170.7
1025.29	1170.25
1025.58	1125.96
1025.87	1135.9
1026.16	1146.52
1026.449	1131.61
1026.739	1129.57
1027.029	1133.64
1027.319	1119.63
1027.608	1103.81
1027.898	1115.11
1028.187	1110.14
1028.477	1096.81
1028.766	1089.8
1029.055	1092.29
1029.344	1076.24
1029.634	1067.2
1029.923	1055.23
1030.212	1042.8
1030.501	1062.91
1030.79	1063.14
1031.078	1033.08
1031.367	1026.98
1031.656	1008.9
1031.945	1005.96
1032.233	1019.52
1032.522	1008.45
1032.81	987.21
1033.099	968.45
1033.387	1008
1033.675	981.33
1033.963	981.1
1034.251	984.72
1034.54	952.18
1034.828	928.45
1035.116	962.12
1035.403	930.26
1035.691	943.37
1035.979	917.38
1036.267	920.99
1036.554	905.63
1036.842	910.82
1037.129	919.41
1037.417	916.7
1037.704	906.3
1037.992	875.8
1038.279	884.84
1038.566	867.43
1038.853	867.43
1039.14	867.43
