Data from hue_10_FLMS001491_26.txt Node
Date: Mon Feb 06 15:31:39 GMT 2017
User: dcchb
Spectrometer: FLMS00149
Trigger mode: 0
Integration Time (sec): 2.000000E-2
Scans to average: 10
Electric dark correction enabled: true
Nonlinearity correction enabled: false
Boxcar width: 0
XAxis mode: Wavelengths
Number of Pixels in Spectrum: 2048
>>>>>Begin Spectral Data<<<<<
341.393	-1.14
341.776	-1.14
342.16	-1.14
342.543	-53.8
342.927	-57.19
343.31	-69.16
343.693	-68.03
344.077	-61.48
344.46	-65.1
344.843	-75.49
345.226	-42.05
345.61	-13.57
345.993	-19.45
346.376	-6.57
346.759	22.13
347.142	25.75
347.525	38.18
347.908	77.05
348.291	67.55
348.674	74.33
349.057	115.92
349.44	124.95
349.823	128.8
350.206	174.67
350.588	199.98
350.971	203.37
351.354	233.88
351.737	233.88
352.119	253.09
352.502	267.55
352.884	279.53
353.267	281.56
353.65	304.38
354.032	314.78
354.414	322.92
354.797	307.32
355.179	332.86
355.562	310.26
355.944	319.75
356.326	331.73
356.709	347.55
357.091	315.68
357.473	357.72
357.855	350.49
358.238	346.19
358.62	347.77
359.002	346.87
359.384	344.61
359.766	340.99
360.148	348.23
360.53	322.46
360.912	330.37
361.294	330.15
361.676	315.68
362.057	338.96
362.439	318.4
362.821	330.37
363.203	322.69
363.584	318.4
363.966	316.14
364.348	314.1
364.729	312.29
365.111	348.9
365.493	322.92
365.874	325.4
366.256	312.29
366.637	307.77
367.019	314.78
367.4	305.74
367.781	305.51
368.163	298.06
368.544	307.1
368.925	316.14
369.306	330.37
369.688	290.37
370.069	274.1
370.45	299.41
370.831	315.68
371.212	320.43
371.593	310.26
371.974	312.97
372.355	288.79
372.736	318.85
373.117	319.98
373.498	302.35
373.879	310.03
374.26	326.53
374.641	303.48
375.021	324.05
375.402	311.39
375.783	325.85
376.163	325.63
376.544	318.85
376.925	319.75
377.305	324.95
377.686	316.81
378.066	321.11
378.447	331.05
378.827	334.44
379.208	322.46
379.588	334.44
379.968	324.72
380.349	322.92
380.729	331.05
381.109	293.09
381.489	328.11
381.87	310.71
382.25	341.67
382.63	341.67
383.01	350.71
383.39	345.06
383.77	336.25
384.15	336.7
384.53	347.1
384.91	347.55
385.29	345.74
385.67	346.64
386.049	334.44
386.429	339.19
386.809	352.97
387.189	345.06
387.568	361.78
387.948	352.97
388.328	350.71
388.707	355
389.087	366.53
389.466	373.08
389.846	362.01
390.225	340.99
390.605	376.93
390.984	373.99
391.363	369.69
391.743	361.56
392.122	363.59
392.501	388
392.881	376.47
393.26	368.11
393.639	372.63
394.018	387.09
394.397	381.67
394.776	371.5
395.155	354.1
395.534	357.04
395.913	378.06
396.292	372.63
396.671	386.42
397.05	377.15
397.429	392.97
397.808	395.91
398.186	383.7
398.565	391.39
398.944	380.99
399.323	385.96
399.701	377.83
400.08	403.82
400.458	395.68
400.837	403.14
401.215	409.24
401.594	380.77
401.972	398.85
402.351	398.17
402.729	399.75
403.107	388.68
403.486	398.85
403.864	409.92
404.242	395
404.62	392.97
404.999	402.91
405.377	388.45
405.755	410.6
406.133	425.96
406.511	418.05
406.889	429.81
407.267	427.32
407.645	431.39
408.023	443.14
408.401	443.82
408.779	424.83
409.156	422.35
409.534	429.13
409.912	445.85
410.29	436.58
410.667	443.82
411.045	435.45
411.422	461.44
411.8	433.42
412.178	469.58
412.555	447.21
412.933	456.25
413.31	478.17
413.687	448.79
414.065	442.23
414.442	452.18
414.819	472.74
415.197	471.84
415.574	471.16
415.951	478.17
416.328	461.89
416.705	480.43
417.082	473.19
417.46	479.75
417.837	486.3
418.214	478.17
418.591	477.26
418.967	485.85
419.344	477.49
419.721	514.55
420.098	500.54
420.475	511.16
420.852	505.74
421.228	513.42
421.605	505.96
421.982	529.24
422.358	536.24
422.735	522.46
423.111	527.66
423.488	530.59
423.864	527.66
424.241	534.44
424.617	538.95
424.994	528.79
425.37	533.53
425.746	541.89
426.123	543.02
426.499	557.94
426.875	548.67
427.251	557.94
427.627	569.46
428.003	577.6
428.379	553.19
428.756	578.05
429.132	557.26
429.507	585.28
429.883	584.83
430.259	604.94
430.635	569.01
431.011	598.39
431.387	580.31
431.763	608.33
432.138	597.48
432.514	616.69
432.89	616.92
433.265	653.53
433.641	657.82
434.016	622.34
434.392	638.16
434.767	654.21
435.143	635.68
435.518	656.47
435.894	647.2
436.269	661.44
436.644	666.18
437.02	661.89
437.395	672.74
437.77	691.27
438.145	709.8
438.52	667.54
438.895	698.95
439.271	698.05
439.646	723.13
440.021	695.79
440.395	718.84
440.77	681.1
441.145	717.48
441.52	736.92
441.895	731.94
442.27	729.68
442.645	728.78
443.019	746.86
443.394	698.27
443.769	748.89
444.143	711.83
444.518	757.71
444.892	750.7
445.267	782.34
445.641	772.62
446.016	756.58
446.39	797.48
446.764	766.97
447.139	754.99
447.513	778.5
447.887	808.33
448.262	784.82
448.636	783.02
449.01	769.01
449.384	782.11
449.758	820.53
450.132	806.29
450.506	803.81
450.88	825.95
451.254	819.63
451.628	805.39
452.002	827.53
452.376	842.45
452.75	853.3
453.123	836.8
453.497	851.71
453.871	862.56
454.244	864.82
454.618	853.3
454.992	890.36
455.365	877.7
455.739	902.34
456.112	896.69
456.486	928.55
456.859	921.32
457.232	945.27
457.606	950.7
457.979	951.6
458.352	944.14
458.725	957.93
459.099	971.49
459.472	965.84
459.845	986.63
460.218	1020.07
460.591	1020.07
460.964	1019.39
461.337	1024.59
461.71	1024.14
462.083	1061.2
462.456	1046.06
462.829	1082.9
463.201	1066.62
463.574	1067.08
463.947	1110.92
464.32	1106.62
464.692	1140.29
465.065	1145.94
465.438	1127.19
465.81	1132.84
466.183	1166.28
466.555	1217.58
466.928	1193.85
467.3	1171.25
467.672	1212.84
468.045	1232.95
468.417	1215.32
468.789	1263
469.161	1267.3
469.534	1286.51
469.906	1320.4
470.278	1312.04
470.65	1320.63
471.022	1344.81
471.394	1378.71
471.766	1397.92
472.138	1405.37
472.51	1435.43
472.882	1452.38
473.253	1468.87
473.625	1489.21
473.997	1536.67
474.369	1554.07
474.74	1559.04
475.112	1578.48
475.484	1631.81
475.855	1669.55
476.227	1672.26
476.598	1707.96
476.97	1713.61
477.341	1733.05
477.713	1799.26
478.084	1803.55
478.455	1849.2
478.827	1887.85
479.198	1926.94
479.569	1933.95
479.94	1990.67
480.311	2006.94
480.682	2049.2
481.053	2077.22
481.424	2150.44
481.795	2142.08
482.166	2173.94
482.537	2248.51
482.908	2255.29
483.279	2300.94
483.65	2375.29
484.021	2397.21
484.391	2422.52
484.762	2468.17
485.133	2502.52
485.503	2522.41
485.874	2592.23
486.244	2641.95
486.615	2700.25
486.985	2708.39
487.356	2768.95
487.726	2805.34
488.097	2833.81
488.467	2873.36
488.837	2926.24
489.207	2960.81
489.578	3044.43
489.948	3086.46
490.318	3121.49
490.688	3123.75
491.058	3164.65
491.428	3244.42
491.798	3241.48
492.168	3312.22
492.538	3325.77
492.908	3379.33
493.278	3448.71
493.648	3476.73
494.017	3487.8
494.387	3561.47
494.757	3537.52
495.126	3641.25
495.496	3620.46
495.866	3675.82
496.235	3730.06
496.605	3747.91
496.974	3800.11
497.344	3799.89
497.713	3862.48
498.082	3856.16
498.452	3890.96
498.821	3949.26
499.19	3903.84
499.559	3975.7
499.928	3990.39
500.298	4016.15
500.667	4059.31
501.036	4076.94
501.405	4111.29
501.774	4104.96
502.143	4140.22
502.512	4165.3
502.88	4226.77
503.249	4223.15
503.618	4240.78
503.987	4233.32
504.356	4278.74
504.724	4340.44
505.093	4301.12
505.462	4340.21
505.83	4371.4
506.199	4377.05
506.567	4365.52
506.936	4436.71
507.304	4480.32
507.672	4528.23
508.041	4582.24
508.409	4560.77
508.777	4582.69
509.145	4615.91
509.514	4606.87
509.882	4625.63
510.25	4632.86
510.618	4652.97
510.986	4675.12
511.354	4707.66
511.722	4738.62
512.09	4807.09
512.458	4744.49
512.826	4782.23
513.193	4819.07
513.561	4822.68
513.929	4857.71
514.297	4896.81
514.664	4978.61
515.032	4926.41
515.4	4977.03
515.767	4952.4
516.135	4965.05
516.502	4934.77
516.869	5039.4
517.237	5043.47
517.604	5037.82
517.972	5032.85
518.339	5047.99
518.706	5078.04
519.073	5054.77
519.44	5109.46
519.808	5137.03
520.175	5184.71
520.542	5170.02
520.909	5262.67
521.276	5198.04
521.643	5235.78
522.009	5282.78
522.376	5331.6
522.743	5340.64
523.11	5357.36
523.477	5394.65
523.843	5452.27
524.21	5469.22
524.577	5471.48
524.943	5473.29
525.31	5534.76
525.676	5589.67
526.043	5597.13
526.409	5605.04
526.776	5654.75
527.142	5681.19
527.508	5650.23
527.874	5741.3
528.241	5767.52
528.607	5737.46
528.973	5802.09
529.339	5820.4
529.705	5879.61
530.071	5843
530.437	5909.89
530.803	5943.56
531.169	5967.06
531.535	5988.98
531.901	5958.93
532.267	6042.31
532.632	6033.95
532.998	6100.62
533.364	6125.25
533.73	6121.86
534.095	6194.85
534.461	6207.28
534.826	6255.87
535.192	6227.39
535.557	6268.07
535.923	6318.46
536.288	6286.15
536.653	6358.01
537.019	6342.42
537.384	6391
537.749	6424.22
538.114	6429.2
538.479	6398.24
538.845	6463.54
539.21	6462.19
539.575	6523.88
539.94	6518.46
540.305	6543.99
540.67	6609.98
541.034	6641.17
541.399	6700.83
541.764	6733.82
542.129	6720.26
542.494	6683.65
542.858	6714.84
543.223	6750.77
543.587	6821.95
543.952	6858.56
544.316	6935.17
544.681	6847.04
545.045	6903.99
545.41	6949.18
545.774	6973.36
546.138	7040.48
546.503	6988.05
546.867	7004.77
547.231	7085.68
547.595	7116.86
547.959	7121.15
548.324	7101.95
548.688	7165.9
549.052	7234.15
549.416	7179.68
549.779	7238.44
550.143	7251.09
550.507	7242.96
550.871	7337.87
551.235	7357.08
551.599	7385.78
551.962	7431.43
552.326	7393.92
552.689	7458.32
553.053	7448.83
553.417	7484.31
553.78	7536.96
554.143	7586.45
554.507	7503.74
554.87	7529.73
555.234	7629.39
555.597	7588.71
555.96	7622.38
556.323	7683.63
556.686	7698.77
557.05	7745.09
557.413	7729.73
557.776	7717.75
558.139	7815.37
558.502	7866.22
558.865	7836.39
559.228	7855.6
559.59	7941.7
559.953	7898.31
560.316	8021.47
560.679	8004.3
561.041	7968.59
561.404	8092.65
561.767	8098.08
562.129	8071.64
562.492	8176.72
562.854	8135.14
563.217	8157.74
563.579	8132.43
563.941	8243.16
564.304	8292.42
564.666	8360.9
565.028	8356.38
565.39	8301.91
565.753	8376.04
566.115	8436.83
566.477	8494
566.839	8500.1
567.201	8517.95
567.563	8503.49
567.925	8562.25
568.287	8592.53
568.648	8638.85
569.01	8719.3
569.372	8692.64
569.734	8684.5
570.095	8701.45
570.457	8808.12
570.819	8902.12
571.18	8838.17
571.542	8892.18
571.903	8975.8
572.265	8943.25
572.626	9088.56
572.987	9058.73
573.349	9142.57
573.71	9181.21
574.071	9214.88
574.432	9305.28
574.794	9386.86
575.155	9384.6
575.516	9463.92
575.877	9540.53
576.238	9602.67
576.599	9720.41
576.96	9701.43
577.32	9788.2
577.681	9894.19
578.042	9992.04
578.403	10099.16
578.763	10143.45
579.124	10201.3
579.485	10331.24
579.845	10472.25
580.206	10587.28
580.566	10632.47
580.927	10840.83
581.287	10981.17
581.648	11043.54
582.008	11214.15
582.368	11336.86
582.728	11442.17
583.089	11631.77
583.449	11793.8
583.809	11976.39
584.169	12184.98
584.529	12344.97
584.889	12658.41
585.249	12750.84
585.609	12924.39
585.969	13295.23
586.329	13443.02
586.688	13682.34
587.048	13866.97
587.408	14103.12
587.768	14325.94
588.127	14553.05
588.487	14838.01
588.846	15242.97
589.206	15251.56
589.565	15691.32
589.925	15999.34
590.284	16183.29
590.643	16500.12
591.003	16892.88
591.362	17237.72
591.721	17500.77
592.08	17705.96
592.44	18062.79
592.799	18333.29
593.158	18728.76
593.517	19103.44
593.876	19444.67
594.235	19684.44
594.593	20066.58
594.952	20370.75
595.311	20662.04
595.67	21079.88
596.029	21453.21
596.387	21841.9
596.746	22227.88
597.104	22410.7
597.463	22785.6
597.822	23197.57
598.18	23450.67
598.538	23748.97
598.897	24195.73
599.255	24407.25
599.613	24993.9
599.972	25148.48
600.33	25566.32
600.688	25720.67
601.046	26201.56
601.404	26585.5
601.762	26908.43
602.12	27361.07
602.478	27706.6
602.836	27893.26
603.194	28108.85
603.552	28502.97
603.91	28615.96
604.268	29290.52
604.625	29380.68
604.983	29783.61
605.341	29961.46
605.698	30379.75
606.056	30704.04
606.413	30888.67
606.771	31339.27
607.128	31627.18
607.485	31812.48
607.843	32082.08
608.2	32504.44
608.557	32816.98
608.914	32945.79
609.272	33392.78
609.629	33641.81
609.986	34130.61
610.343	34091.29
610.7	34640.66
611.057	34738.96
611.414	34951.16
611.771	35063.7
612.127	35477.02
612.484	35705.94
612.841	35952.94
613.198	35945.71
613.554	36310.44
613.911	36625.92
614.267	36774.61
614.624	36970.54
614.98	37194.04
615.337	37572.11
615.693	37649.62
616.05	37822.04
616.406	38234.46
616.762	38212.99
617.118	38466.32
617.475	38592.64
617.831	38782.24
618.187	38948.57
618.543	39224.04
618.899	39489.79
619.255	39312.85
619.611	39623.12
619.967	39891.14
620.323	40044.81
620.678	39984.92
621.034	40144.69
621.39	40257.46
621.746	40390.11
622.101	40907.61
622.457	40501.52
622.812	40925.24
623.168	41028.96
623.523	41083.65
623.879	41433.02
624.234	41158.68
624.589	41539.68
624.945	41630.98
625.3	41794.59
625.655	41743.52
626.01	41913.69
626.365	41930.86
626.72	41903.52
627.075	42008.6
627.43	42103.96
627.785	42125.21
628.14	42228.93
628.495	42322.94
628.85	42458.3
629.205	42306.22
629.559	42687.68
629.914	42463.73
630.269	42587.57
630.623	42537.4
630.978	42424.18
631.332	42742.14
631.687	42863.04
632.041	42809.93
632.396	42852.87
632.75	42725.42
633.104	43012.41
633.459	42764.74
633.813	42782.59
634.167	42844.06
634.521	42860.1
634.875	43012.87
635.229	42999.76
635.583	42781.69
635.937	42855.81
636.291	42976.93
636.645	42836.6
636.999	42849.25
637.352	42950.95
637.706	42828.01
638.06	42853.55
638.413	42888.8
638.767	42821.46
639.121	42917.5
639.474	42773.1
639.828	42824.17
640.181	42910.27
640.534	42966.99
640.888	42834.79
641.241	42663.5
641.594	42700.78
641.947	42926.31
642.301	42705.08
642.654	42768.58
643.007	42839.99
643.36	42877.95
643.713	42709.82
644.066	42814.23
644.419	42618.53
644.771	42309.83
645.124	41955.04
645.477	42190.29
645.83	41796.85
646.182	41738.1
646.535	41569.51
646.888	41683.41
647.24	41385.34
647.593	41597.76
647.945	41466.69
648.298	41412.91
648.65	41381.5
649.002	41204.55
649.355	41448.61
649.707	41381.95
650.059	41573.36
650.411	42007.24
650.763	42008.15
651.115	42505.08
651.467	42433.45
651.819	42387.8
652.171	42303.28
652.523	42310.06
652.875	42218.76
653.227	42087.92
653.578	42381.02
653.93	42251.3
654.282	42060.35
654.633	41959.79
654.985	42113.23
655.337	42196.39
655.688	42232.1
656.039	42200.68
656.391	41950.97
656.742	42066.9
657.094	42043.85
657.445	42060.57
657.796	41921.37
658.147	41908.71
658.498	41977.19
658.849	42071.65
659.2	42039.78
659.551	41901.48
659.902	41980.35
660.253	42023.06
660.604	41941.71
660.955	41766.12
661.306	41974.7
661.656	41914.59
662.007	41775.84
662.358	41877.53
662.708	41941.93
663.059	41789.85
663.409	41654.03
663.76	42031.42
664.11	41972.44
664.461	41940.13
664.811	41861.26
665.161	41956.4
665.511	41724.76
665.862	41950.3
666.212	41948.71
666.562	41918.43
666.912	41889.73
667.262	41809.06
667.612	41928.15
667.962	41801.15
668.312	41840.92
668.662	41992.78
669.011	41861.71
669.361	41783.52
669.711	41692.45
670.06	41678.66
670.41	41499.01
670.76	41628.95
671.109	41673.01
671.459	41740.58
671.808	41662.85
672.157	41804.76
672.507	41527.48
672.856	41563.19
673.205	41468.73
673.554	41567.48
673.904	41595.95
674.253	41737.19
674.602	41525
674.951	41001.62
675.3	40765.47
675.649	41426.02
675.998	41315.51
676.346	41427.82
676.695	41613.13
677.044	41354.6
677.393	41447.48
677.741	41266.92
678.09	41300.14
678.438	41186.7
678.787	41329.52
679.135	41315.96
679.484	41099.24
679.832	41181.73
680.181	40873.94
680.529	41043.88
680.877	40971.56
681.225	40907.38
681.573	41094.05
681.922	40843.88
682.27	40744
682.618	40734.96
682.966	40589.88
683.314	40644.11
683.661	40545.81
684.009	40393.5
684.357	40395.53
684.705	40343.78
685.053	40304.01
685.4	40191.7
685.748	40086.62
686.095	40021.76
686.443	39973.62
686.79	40028.99
687.138	39861.08
687.485	39979.73
687.832	40011.36
688.18	39861.54
688.527	39588.78
688.874	39612.73
689.221	39635.78
689.568	39504.94
689.915	39473.75
690.262	39418.16
690.609	39283.7
690.956	39101.1
691.303	38999.64
691.65	38938.62
691.997	38889.13
692.344	38674.45
692.69	38671.29
693.037	38756.71
693.383	38385.64
693.73	38510.16
694.077	38261.58
694.423	38351.97
694.769	38149.49
695.116	37989.04
695.462	38063.84
695.808	37874.02
696.155	37946.78
696.501	37698.2
696.847	37659.11
697.193	37509.51
697.539	37663.63
697.885	37217.99
698.231	37115.39
698.577	37230.65
698.923	37033.36
699.269	37010.99
699.614	36845.34
699.96	36762.41
700.306	36748.85
700.651	36569.19
700.997	36567.84
701.342	36551.79
701.688	36394.96
702.033	36313.16
702.379	36174.18
702.724	36233.38
703.069	36153.61
703.415	35664.13
703.76	35797.46
704.105	35893.05
704.45	35762.66
704.795	35540.29
705.14	35408.77
705.485	35474.53
705.83	35312.28
706.175	35345.27
706.52	35148.89
706.865	35235.44
707.209	35070.25
707.554	34891.27
707.899	35065.5
708.243	34841.33
708.588	34754.78
708.932	34438.63
709.277	34622.35
709.621	34584.84
709.966	34338.97
710.31	34517.95
710.654	34173.32
710.998	34220.1
711.342	34218.3
711.687	34093.55
712.031	33978.08
712.375	33838.87
712.719	33911.41
713.063	33758.19
713.407	34004.06
713.75	33603.17
714.094	33649.27
714.438	33619.67
714.782	33587.35
715.125	33320.92
715.469	33412.21
715.812	33160.24
716.156	33122.05
716.499	33174.93
716.843	33162.5
717.186	32907.82
717.53	33170.19
717.873	32991.43
718.216	32975.84
718.559	32909.63
718.902	32558.45
719.246	32777.43
719.589	32552.35
719.932	32520.26
720.275	32487.49
720.617	32425.35
720.96	32382.86
721.303	32366.37
721.646	32313.94
721.989	32060.16
722.331	32270.55
722.674	32085.92
723.016	32160.27
723.359	32060.39
723.701	31971.8
724.044	31966.83
724.386	31721.86
724.729	31931.58
725.071	31811.13
725.413	31745.14
725.755	31656.55
726.097	31624.01
726.439	31434.41
726.782	31505.37
727.124	31638.02
727.465	31401.19
727.807	31282.33
728.149	31306.96
728.491	31256.79
728.833	31242.78
729.175	31177.47
729.516	31022.67
729.858	31122.11
730.199	31145.83
730.541	31017.93
730.882	30898.83
731.224	31080.3
731.565	30795.33
731.906	30766.41
732.248	30958.49
732.589	30734.09
732.93	30598.05
733.271	30643.25
733.612	30629.01
733.953	30603.93
734.294	30443.93
734.635	30445.96
734.976	30466.53
735.317	30366.65
735.658	30388.79
735.999	30214.33
736.339	30271.28
736.68	30317.38
737.021	30203.71
737.361	30040.55
737.702	30288.68
738.042	30182.7
738.383	30092.98
738.723	30065.86
739.063	29907
739.404	29979.99
739.744	29870.39
740.084	29739.32
740.424	29925.53
740.764	29740.22
741.104	29909.26
741.444	29622.03
741.784	29639.66
742.124	29628.81
742.464	29693.44
742.804	29540.68
743.143	29520.11
743.483	29506.78
743.823	29341.36
744.162	29307.01
744.502	29303.17
744.841	29294.58
745.181	29301.36
745.52	29124.64
745.86	29200.8
746.199	29169.61
746.538	29231.53
746.877	29102.27
747.216	29141.37
747.556	28975.27
747.895	29060.92
748.234	28848.72
748.573	28818.44
748.911	28843.07
749.25	28821.83
749.589	28644.66
749.928	28715.39
750.267	28744.31
750.605	28661.83
750.944	28563.53
751.283	28435.62
751.621	28630.65
751.96	28282.63
752.298	28348.62
752.636	28431.78
752.975	28238.11
753.313	28171
753.651	28301.61
753.989	28133.03
754.327	28031.11
754.666	27981.62
755.004	28032.92
755.342	28039.93
755.679	27994.28
756.017	27684.91
756.355	27806.49
756.693	27745.7
757.031	27730.78
757.368	27611.01
757.706	27635.87
758.044	27537.57
758.381	27546.15
758.719	27347.74
759.056	27334.18
759.394	27245.82
759.731	27065.04
760.068	27178.71
760.405	27077.69
760.743	26961.76
761.08	26992.5
761.417	26882.44
761.754	26895.1
762.091	26796.8
762.428	26673.63
762.765	26420.99
763.102	26532.85
763.438	26354.32
763.775	26244.72
764.112	26347.99
764.449	26231.61
764.785	26115.91
765.122	25948.91
765.458	25930.15
765.795	25935.12
766.131	25888.12
766.467	25798.86
766.804	25570.84
767.14	25554.57
767.476	25441.8
767.812	25317.96
768.148	25504.85
768.485	25290.39
768.821	25065.77
769.157	25119.33
769.492	24971.31
769.828	25038.2
770.164	24731.76
770.5	24757.08
770.836	24658.32
771.171	24525.22
771.507	24572.22
771.842	24344.2
772.178	24536.97
772.513	24301.04
772.849	24119.35
773.184	24165.9
773.519	24070.31
773.855	23958.23
774.19	23915.52
774.525	23834.61
774.86	23761.85
775.195	23705.13
775.53	23651.57
775.865	23524.57
776.2	23307.17
776.535	23217.23
776.87	23169.32
777.205	23148.08
777.539	22967.97
777.874	23045.03
778.209	22842.32
778.543	22880.51
778.878	22635.55
779.212	22708.77
779.547	22463.8
779.881	22594.42
780.215	22317.14
780.55	22332.73
780.884	22166.63
781.218	22267.42
781.552	22113.53
781.886	22068.56
782.22	21929.35
782.554	21780.66
782.888	21735.23
783.222	21559.87
783.556	21462.92
783.889	21529.14
784.223	21349.26
784.557	21204.17
784.89	21373.44
785.224	21318.52
785.557	21082.37
785.891	21131.18
786.224	21071.3
786.558	20876.27
786.891	20843.51
787.224	20740.91
787.557	20615.49
787.891	20590.86
788.224	20599.22
788.557	20601.7
788.89	20413.69
789.223	20430.41
789.556	20367.59
789.888	20200.58
790.221	20177.08
790.554	19997.2
790.887	19893.02
791.219	19927.37
791.552	19959.01
791.884	19860.71
792.217	19638.79
792.549	19607.83
792.882	19571
793.214	19441.96
793.546	19527.38
793.879	19348.86
794.211	19323.77
794.543	19320.83
794.875	19209.2
795.207	19236.32
795.539	19120.39
795.871	19063.89
796.203	18974.63
796.535	18971.24
796.867	18805.59
797.198	18734.41
797.53	18722.66
797.862	18619.16
798.193	18620.51
798.525	18449.67
798.856	18518.37
799.188	18315.89
799.519	18352.5
799.85	18132.16
800.182	18163.35
800.513	18059.17
800.844	17937.37
801.175	18071.38
801.506	18107.98
801.837	17912.06
802.168	17879.97
802.499	17797.48
802.83	17782.57
803.161	17769.01
803.491	17645.4
803.822	17615.57
804.153	17585.96
804.483	17457.61
804.814	17387.33
805.145	17388.46
805.475	17313.65
805.805	17349.36
806.136	17350.26
806.466	17217.39
806.796	17169.03
807.126	17073.89
807.457	16990.73
807.787	16989.14
808.117	16972.87
808.447	16917.96
808.777	16953.89
809.107	16832.76
809.436	16744.86
809.766	16795.25
810.096	16666.21
810.426	16633.67
810.755	16655.37
811.085	16639.55
811.414	16466.22
811.744	16354.81
812.073	16365.88
812.403	16425.99
812.732	16309.16
813.061	16270.97
813.39	16149.17
813.719	16240.69
814.049	16265.09
814.378	16151.88
814.707	15995.05
815.036	16017.42
815.365	15992.33
815.693	15887.7
816.022	15826.69
816.351	15828.5
816.68	15704.21
817.008	15692.45
817.337	15692.23
817.665	15680.25
817.994	15661.04
818.322	15624.21
818.651	15600.93
818.979	15503.08
819.307	15558.45
819.636	15490.43
819.964	15462.4
820.292	15466.02
820.62	15367.72
820.948	15334.27
821.276	15408.17
821.604	15276.19
821.932	15390.32
822.259	15290.66
822.587	15384.21
822.915	15206.82
823.243	15314.16
823.57	15310.32
823.898	15240.04
824.225	15110.77
824.553	15276.42
824.88	15232.35
825.207	15304.44
825.535	15190.55
825.862	15289.08
826.189	15263.31
826.516	15279.58
826.843	15293.6
827.17	15178.12
827.497	15322.97
827.824	15391.67
828.151	15228.06
828.478	15258.12
828.805	15175.18
829.131	15170.43
829.458	15185.8
829.785	15179.93
830.111	15086.37
830.438	15263.54
830.764	15232.58
831.09	15287.27
831.417	15170.89
831.743	15223.77
832.069	15197.1
832.395	15187.38
832.722	15151
833.048	15130.44
833.374	15120.72
833.7	15066.48
834.026	15108.97
834.351	15120.04
834.677	15101.28
835.003	15035.75
835.329	15076.65
835.654	14978.58
835.98	14977.9
836.306	14995.3
836.631	14944.9
836.956	14913.49
837.282	14947.16
837.607	14906.49
837.932	14775.64
838.258	14792.37
838.583	14788.07
838.908	14717.79
839.233	14751.69
839.558	14724.12
839.883	14632.14
840.208	14657.23
840.533	14591.24
840.858	14642.99
841.182	14570.9
841.507	14569.09
841.832	14464.46
842.156	14489.32
842.481	14401.64
842.805	14489.1
843.13	14388.53
843.454	14304.92
843.778	14238.71
844.103	14247.75
844.427	14245.04
844.751	14308.08
845.075	14262.89
845.399	14074.19
845.723	14070.35
846.047	14087.53
846.371	13989.9
846.695	14043.01
847.019	13869.9
847.343	13780.19
847.666	13753.52
847.99	13648.21
848.313	13650.02
848.637	13586.3
848.96	13582.68
849.284	13506.52
849.607	13429.69
849.931	13436.92
850.254	13312.4
850.577	13170.04
850.9	13170.04
851.223	13175.68
851.546	13037.84
851.869	13014.78
852.192	13028.8
852.515	12901.12
852.838	12806.65
853.161	12894.79
853.483	12777.95
853.806	12770.72
854.129	12675.36
854.451	12618.64
854.774	12626.09
855.096	12551.07
855.419	12579.32
855.741	12525.98
856.063	12535.02
856.385	12388.36
856.708	12372.54
857.03	12356.27
857.352	12334.12
857.674	12234.24
857.996	12193.56
858.318	12156.95
858.64	12169.16
858.961	12158.31
859.283	12064.08
859.605	12004.19
859.926	12055.26
860.248	12053.91
860.57	12000.57
860.891	12022.27
861.212	11872.67
861.534	11885.32
861.855	11857.53
862.176	11871.99
862.498	11871.99
862.819	11784.99
863.14	11754.71
863.461	11650.3
863.782	11761.48
864.103	11716.29
864.424	11703.86
864.745	11691.2
865.065	11581.83
865.386	11562.39
865.707	11580.92
866.027	11607.14
866.348	11507.03
866.668	11580.92
866.989	11508.16
867.309	11392.23
867.63	11475.62
867.95	11409.18
868.27	11351.33
868.59	11374.38
868.91	11354.72
869.23	11333.93
869.55	11257.54
869.87	11349.29
870.19	11317.2
870.51	11308.16
870.83	11272.68
871.15	11212.57
871.469	11213.25
871.789	11271.55
872.109	11226.36
872.428	11143.42
872.748	11149.75
873.067	11107.26
873.386	11068.17
873.706	11165.12
874.025	11015.52
874.344	11123.99
874.663	11062.97
874.982	11072.01
875.301	11019.81
875.62	10973.93
875.939	10957.89
876.258	10947.49
876.577	10854.39
876.896	10932.81
877.214	10884.9
877.533	10879.93
877.852	10817.78
878.17	10853.49
878.489	10851
878.807	10815.07
879.125	10789.31
879.444	10761.74
879.762	10688.97
880.08	10674.51
880.398	10707.05
880.716	10653.94
881.034	10630.89
881.352	10666.82
881.67	10570.78
881.988	10588.86
882.306	10566.94
882.624	10570.78
882.941	10479.26
883.259	10419.82
883.577	10448.98
883.894	10355.42
884.212	10463.89
884.529	10349.09
884.846	10352.71
885.164	10339.15
885.481	10302.77
885.798	10308.64
886.115	10197.46
886.432	10198.14
886.75	10256.67
887.067	10238.13
887.383	10193.39
887.7	10198.14
888.017	10066.16
888.334	10157.68
888.651	10054.18
888.967	9993.17
889.284	10017.58
889.6	9964.24
889.917	9907.52
890.233	9959.5
890.55	9903
890.866	9894.19
891.182	9789.11
891.498	9759.96
891.815	9771.25
892.131	9755.89
892.447	9701.88
892.763	9712.72
893.079	9636.34
893.395	9663.91
893.71	9664.59
894.026	9622.56
894.342	9663.46
894.657	9498.49
894.973	9620.98
895.289	9467.53
895.604	9456.91
895.92	9371.04
896.235	9294.88
896.55	9403.81
896.865	9357.93
897.181	9268.89
897.496	9379.63
897.811	9261.66
898.126	9241.55
898.441	9148.67
898.756	9185.51
899.071	9102.57
899.386	9117.03
899.7	9029.35
900.015	9011.27
900.33	8949.13
900.644	8882.46
900.959	8900.54
901.273	8888.11
901.588	8823.71
901.902	8801.56
902.216	8737.38
902.531	8721.34
902.845	8736.25
903.159	8639.08
903.473	8647.44
903.787	8589.82
904.101	8581
904.415	8580.1
904.729	8559.53
905.042	8522.25
905.356	8447.9
905.67	8451.29
905.984	8383.49
906.297	8332.2
906.611	8368.13
906.924	8286.1
907.237	8291.29
907.551	8242.71
907.864	8186.21
908.177	8236.83
908.491	8154.12
908.804	8132.88
909.117	8078.87
909.43	8030.06
909.743	8005.65
910.056	8017.4
910.368	7909.38
910.681	7920.91
910.994	7869.61
911.307	7920.46
911.619	7770.4
911.932	7822.38
912.244	7709.61
912.557	7734.02
912.869	7661.48
913.181	7669.61
913.494	7632.55
913.806	7555.95
914.118	7565.44
914.43	7529.28
914.742	7530.86
915.054	7491.31
915.366	7409.28
915.678	7422.39
915.99	7372.9
916.302	7379.23
916.613	7346.23
916.925	7296.74
917.236	7341.94
917.548	7196.18
917.859	7228.95
918.171	7166.8
918.482	7082.96
918.794	7078.67
919.105	7108.5
919.416	7007.26
919.727	7015.17
920.038	6995.06
920.349	6943.98
920.66	6926.36
920.971	6905.57
921.282	6835.96
921.593	6817.89
921.903	6807.72
922.214	6796.64
922.525	6752.58
922.835	6694.27
923.146	6654.73
923.456	6616.76
923.767	6623.54
924.077	6636.2
924.387	6609.76
924.697	6589.42
925.008	6553.49
925.318	6510.55
925.628	6516.42
925.938	6515.29
926.248	6394.85
926.558	6410.21
926.867	6344
927.177	6338.12
927.487	6308.07
927.796	6262.65
928.106	6225.58
928.416	6274.85
928.725	6229.43
929.034	6227.39
929.344	6132.25
929.653	6178.58
929.962	6116.21
930.271	6075.76
930.581	6068.53
930.89	6021.75
931.199	6024.69
931.508	5974.07
931.817	5973.39
932.125	5942.43
932.434	5894.07
932.743	5865.14
933.051	5847.29
933.36	5802.09
933.669	5773.62
933.977	5733.62
934.286	5746.5
934.594	5748.76
934.902	5668.31
935.21	5631.93
935.519	5696.56
935.827	5659.72
936.135	5583.57
936.443	5533.4
936.751	5540.41
937.059	5511.03
937.367	5492.72
937.674	5445.49
937.982	5450.46
938.29	5440.52
938.597	5438.26
938.905	5371.37
939.213	5357.36
939.52	5328.21
939.827	5363.46
940.135	5309.22
940.442	5311.48
940.749	5247.31
941.056	5281.88
941.363	5162.11
941.67	5140.64
941.977	5156.01
942.284	5124.37
942.591	5091.6
942.898	5102.45
943.205	5055.9
943.511	5046.41
943.818	5043.47
944.125	4985.39
944.431	4937.48
944.738	4929.35
945.044	4928.67
945.35	4918.95
945.657	4873.76
945.963	4884.15
946.269	4857.26
946.575	4807.09
946.881	4840.54
947.187	4773.42
947.493	4786.98
947.799	4744.27
948.105	4725.29
948.41	4671.73
948.716	4711.27
949.022	4684.61
949.327	4676.93
949.633	4587.89
949.938	4632.63
950.244	4593.99
950.549	4589.24
950.854	4534.33
951.16	4575.91
951.465	4487.1
951.77	4500.66
952.075	4429.93
952.38	4451.62
952.685	4418.85
952.99	4415.24
953.294	4405.75
953.599	4356.03
953.904	4373.66
954.209	4337.95
954.513	4297.5
954.818	4261.57
955.122	4254.11
955.426	4274.9
955.731	4203.04
956.035	4241.23
956.339	4163.27
956.643	4171.85
956.948	4158.52
957.252	4182.25
957.556	4131.85
957.86	4115.81
958.163	4049.37
958.467	4066.77
958.771	4090.05
959.075	4078.97
959.378	4019.99
959.682	3988.58
959.985	4007.56
960.289	3976.15
960.592	3936.83
960.896	3925.98
961.199	3932.09
961.502	3925.08
961.805	3852.09
962.108	3884.4
962.411	3848.92
962.714	3801.92
963.017	3829.26
963.32	3794.01
963.623	3800.34
963.926	3803.95
964.228	3789.72
964.531	3729.15
964.833	3735.71
965.136	3709.49
965.438	3685.54
965.741	3653.22
966.043	3602.6
966.345	3635.6
966.648	3621.81
966.95	3649.38
967.252	3628.82
967.554	3551.53
967.856	3570.97
968.158	3509.27
968.46	3500.91
968.761	3523.06
969.063	3512.21
969.365	3526.45
969.666	3462.27
969.968	3431.31
970.269	3448.93
970.571	3429.73
970.872	3416.39
971.174	3356.28
971.475	3377.75
971.776	3391.99
972.077	3369.84
972.378	3351.31
972.679	3330.07
972.98	3343.63
973.281	3296.17
973.582	3301.14
973.883	3254.82
974.183	3271.31
974.484	3213.01
974.785	3194.93
975.085	3191.99
975.386	3266.57
975.686	3163.74
975.986	3147.02
976.287	3146.57
976.587	3104.31
976.887	3119.45
977.187	3105.21
977.487	3118.32
977.787	3056.4
978.087	3082.16
978.387	3033.35
978.687	3043.75
978.987	2994.71
979.286	2947.93
979.586	2958.33
979.885	3019.34
980.185	2947.48
980.484	2952.68
980.784	2931.21
981.083	2907.71
981.382	2919.68
981.682	2950.87
981.981	2851.89
982.28	2838.1
982.579	2847.82
982.878	2874.94
983.177	2852.34
983.475	2811.44
983.774	2817.09
984.073	2806.01
984.372	2785.45
984.67	2764.88
984.969	2773.02
985.267	2763.53
985.566	2738.9
985.864	2743.64
986.162	2725.11
986.461	2715.85
986.759	2694.38
987.057	2660.25
987.355	2681.72
987.653	2663.19
987.951	2652.8
988.249	2634.49
988.547	2644.89
988.844	2604.66
989.142	2550.65
989.44	2581.84
989.737	2580.71
990.035	2549.98
990.332	2548.39
990.63	2515.63
990.927	2528.73
991.224	2521.5
991.521	2527.15
991.819	2503.87
992.116	2438.34
992.413	2482.86
992.71	2457.55
993.006	2436.76
993.303	2443.09
993.6	2432.01
993.897	2432.01
994.193	2426.36
994.49	2415.74
994.787	2339.81
995.083	2385.01
995.379	2333.03
995.676	2348.85
995.972	2346.14
996.268	2311.56
996.565	2302.75
996.861	2310.66
997.157	2286.71
997.453	2248.29
997.749	2267.95
998.044	2234.5
998.34	2269.53
998.636	2220.27
998.932	2207.61
999.227	2177.1
999.523	2201.96
999.818	2197.22
1000.114	2160.83
1000.409	2168.06
1000.704	2167.39
1001	2131.23
1001.295	2119.93
1001.59	2097.11
1001.885	2129.42
1002.18	2132.13
1002.475	2093.72
1002.77	2078.12
1003.065	2068.41
1003.359	2046.94
1003.654	2029.54
1003.949	2028.86
1004.243	2046.49
1004.538	1987.28
1004.832	2007.84
1005.127	1983.21
1005.421	1992.7
1005.715	1968.75
1006.009	1951.57
1006.304	1959.48
1006.598	1898.47
1006.892	1959.48
1007.186	1914.29
1007.48	1884.68
1007.773	1903.66
1008.067	1886.04
1008.361	1844.68
1008.655	1838.36
1008.948	1877.9
1009.242	1822.31
1009.535	1824.34
1009.829	1806.49
1010.122	1798.81
1010.415	1792.48
1010.708	1781.41
1011.001	1783.44
1011.295	1762.65
1011.588	1758.36
1011.881	1757
1012.173	1724.69
1012.466	1726.27
1012.759	1696.21
1013.052	1706.16
1013.344	1693.5
1013.637	1708.64
1013.93	1695.76
1014.222	1649.21
1014.514	1674.97
1014.807	1659.6
1015.099	1651.02
1015.391	1641.75
1015.683	1585.48
1015.976	1610.56
1016.268	1601.07
1016.56	1587.51
1016.851	1571.02
1017.143	1563.79
1017.435	1565.37
1017.727	1544.58
1018.018	1519.72
1018.31	1543.9
1018.602	1520.62
1018.893	1514.75
1019.185	1510.45
1019.476	1514.75
1019.767	1501.87
1020.058	1450.8
1020.35	1456.44
1020.641	1469.55
1020.932	1461.64
1021.223	1426.62
1021.514	1408.08
1021.804	1412.38
1022.095	1392.72
1022.386	1401.53
1022.677	1405.37
1022.967	1389.78
1023.258	1388.42
1023.548	1374.41
1023.839	1380.97
1024.129	1336.9
1024.419	1349.55
1024.709	1350.01
1025	1315.43
1025.29	1306.39
1025.58	1311.36
1025.87	1280.18
1026.16	1282.66
1026.449	1277.92
1026.739	1279.27
1027.029	1264.13
1027.319	1277.92
1027.608	1266.17
1027.898	1211.48
1028.187	1227.3
1028.477	1218.71
1028.766	1203.12
1029.055	1175.1
1029.344	1202.21
1029.634	1181.2
1029.923	1183.23
1030.212	1152.5
1030.501	1158.15
1030.79	1143.23
1031.078	1180.07
1031.367	1114.53
1031.656	1138.94
1031.945	1121.31
1032.233	1114.31
1032.522	1136.68
1032.81	1107.08
1033.099	1061.88
1033.387	1082.22
1033.675	1070.01
1033.963	1098.94
1034.251	1056.23
1034.54	1073.63
1034.828	1044.7
1035.116	1042.22
1035.403	1016.91
1035.691	1049
1035.979	1039.05
1036.267	1021.2
1036.554	1021.65
1036.842	984.14
1037.129	1011.48
1037.417	995.44
1037.704	995.67
1037.992	988.89
1038.279	961.99
1038.566	982.56
1038.853	982.56
1039.14	982.56
