Data from hue_34_FLMS001491_00035.txt Node
Date: Tue Feb 07 17:25:32 GMT 2017
User: dcchb
Spectrometer: FLMS00149
Trigger mode: 0
Integration Time (sec): 2.000000E-2
Scans to average: 10
Electric dark correction enabled: true
Nonlinearity correction enabled: false
Boxcar width: 0
XAxis mode: Wavelengths
Number of Pixels in Spectrum: 2048
>>>>>Begin Spectral Data<<<<<
341.393	-20.73
341.776	-20.73
342.16	-20.73
342.543	-61.18
342.927	-86.49
343.31	-74.07
343.693	-69.55
344.077	-67.96
344.46	-83.78
344.843	-40.39
345.226	-39.49
345.61	-35.65
345.993	-32.03
346.376	15.65
346.759	6.38
347.142	56.55
347.525	45.71
347.908	43.22
348.291	69.89
348.674	94.07
349.057	111.47
349.44	131.8
349.823	141.75
350.206	152.82
350.588	185.14
350.971	202.09
351.354	220.39
351.737	244.12
352.119	247.73
352.502	279.6
352.884	287.51
353.267	284.34
353.65	288.18
354.032	280.73
354.414	320.95
354.797	306.26
355.179	324.34
355.562	312.59
355.944	331.35
356.326	341.74
356.709	330.44
357.091	354.17
357.473	356.88
357.855	333.83
358.238	358.47
358.62	337.67
359.002	347.84
359.384	343.55
359.766	327.73
360.148	311.46
360.53	327.96
360.912	337.45
361.294	327.96
361.676	346.49
362.057	340.16
362.439	331.12
362.821	313.49
363.203	326.15
363.584	331.35
363.966	325.02
364.348	332.7
364.729	311.46
365.111	313.27
365.493	329.99
365.874	328.64
366.256	302.87
366.637	298.81
367.019	298.81
367.4	322.08
367.781	306.26
368.163	307.62
368.544	313.27
368.925	314.62
369.306	329.09
369.688	321.86
370.069	318.47
370.45	304.46
370.831	313.95
371.212	303.1
371.593	294.51
371.974	322.76
372.355	317.79
372.736	325.02
373.117	319.37
373.498	322.08
373.879	307.62
374.26	320.27
374.641	319.82
375.021	319.37
375.402	332.48
375.783	318.24
376.163	348.52
376.544	334.96
376.925	345.36
377.305	334.96
377.686	319.14
378.066	314.85
378.447	333.61
378.827	314.17
379.208	311.91
379.588	334.74
379.968	372.25
380.349	332.7
380.729	338.58
381.109	332.25
381.489	341.74
381.87	336.77
382.25	337.22
382.63	325.7
383.01	346.94
383.39	346.94
383.77	341.06
384.15	357.11
384.53	334.06
384.91	339.93
385.29	332.03
385.67	341.97
386.049	357.34
386.429	346.26
386.809	368.63
387.189	337
387.568	358.92
387.948	350.78
388.328	352.14
388.707	345.13
389.087	363.89
389.466	379.26
389.846	365.47
390.225	382.65
390.605	358.24
390.984	362.08
391.363	346.71
391.743	365.7
392.122	397.11
392.501	359.82
392.881	367.5
393.26	373.38
393.639	378.8
394.018	372.48
394.397	348.52
394.776	374.74
395.155	375.41
395.534	373.61
395.913	376.32
396.292	369.31
396.671	375.64
397.05	386.94
397.429	383.1
397.808	377.22
398.186	377.22
398.565	356.21
398.944	377.45
399.323	381.52
399.701	388.75
400.08	383.78
400.458	387.84
400.837	370.89
401.215	417.9
401.594	393.27
401.972	382.65
402.351	389.42
402.729	407.5
403.107	401.63
403.486	404.11
403.864	381.06
404.242	400.05
404.62	411.35
404.999	401.85
405.377	403.66
405.755	418.58
406.133	390.55
406.511	413.6
406.889	411.35
407.267	419.93
407.645	434.4
408.023	435.98
408.401	425.58
408.779	431.46
409.156	445.24
409.534	445.69
409.912	420.16
410.29	431.01
410.667	459.93
411.045	440.72
411.422	438.69
411.8	453.38
412.178	452.47
412.555	465.13
412.933	440.5
413.31	475.75
413.687	466.71
414.065	464.9
414.442	459.93
414.819	468.52
415.197	468.52
415.574	476.2
415.951	463.1
416.328	486.82
416.705	496.77
417.082	481.85
417.46	478.69
417.837	522.98
418.214	477.56
418.591	487.73
418.967	503.09
419.344	494.51
419.721	487.5
420.098	508.97
420.475	510.1
420.852	522.08
421.228	503.09
421.605	521.17
421.982	512.13
422.358	525.92
422.735	533.15
423.111	509.65
423.488	524.56
423.864	529.53
424.241	532.25
424.617	564.11
424.994	537.9
425.37	541.51
425.746	562.98
426.123	542.64
426.499	550.55
426.875	548.06
427.251	556.2
427.627	565.92
428.003	565.92
428.379	571.11
428.756	565.47
429.132	583.09
429.507	580.61
429.883	581.74
430.259	599.59
430.635	596.65
431.011	617.89
431.387	622.86
431.763	599.14
432.138	611.34
432.514	624.45
432.89	635.52
433.265	611.11
433.641	636.88
434.016	631
434.392	637.78
434.767	649.3
435.143	650.66
435.518	655.18
435.894	656.54
436.269	664.45
436.644	689.08
437.02	676.87
437.395	699.93
437.77	667.38
438.145	675.97
438.52	699.25
438.895	695.63
439.271	700.83
439.646	717.33
440.021	701.96
440.395	710.09
440.77	728.17
441.145	721.85
441.52	734.05
441.895	723.2
442.27	736.53
442.645	728.85
443.019	734.05
443.394	743.54
443.769	758.45
444.143	771.34
444.518	768.4
444.892	755.97
445.267	753.26
445.641	789.64
446.016	756.87
446.39	775.4
446.764	772.92
447.139	766.59
447.513	771.79
447.887	768.62
448.262	826.02
448.636	790.09
449.01	810.2
449.384	798.91
449.758	811.11
450.132	822.41
450.506	823.54
450.88	843.88
451.254	826.48
451.628	847.04
452.002	825.8
452.376	860.15
452.75	842.29
453.123	873.25
453.497	878
453.871	862.18
454.244	892.46
454.618	878.45
454.992	895.63
455.365	877.77
455.739	892.01
456.112	917.55
456.486	895.85
456.859	941.05
457.232	953.48
457.606	953.03
457.979	946.02
458.352	995.51
458.725	993.48
459.099	999.35
459.472	996.41
459.845	1009.97
460.218	1022.18
460.591	1038.67
460.964	1025.11
461.337	1037.09
461.71	1067.15
462.083	1092.23
462.456	1085.68
462.829	1092.23
463.201	1116.19
463.574	1097.88
463.947	1142.85
464.32	1163.87
464.692	1162.29
465.065	1175.17
465.438	1197.31
465.81	1214.94
466.183	1225.11
466.555	1233.7
466.928	1252
467.3	1249.06
467.672	1284.32
468.045	1253.36
468.417	1300.81
468.789	1282.28
469.161	1342.39
469.534	1348.95
469.906	1367.48
470.278	1403.86
470.65	1407.03
471.022	1443.18
471.394	1437.53
471.766	1480.47
472.138	1507.14
472.51	1531.32
472.882	1527.25
473.253	1558.89
473.625	1617.42
473.997	1641.14
474.369	1675.04
474.74	1673.68
475.112	1736.73
475.484	1761.59
475.855	1801.37
476.227	1786.9
476.598	1864.41
476.97	1899.67
477.341	1926.56
477.713	1983.73
478.084	2000.91
478.455	2073.9
478.827	2106.22
479.198	2187.57
479.569	2203.39
479.94	2276.15
480.311	2305.98
480.682	2388.69
481.053	2404.06
481.424	2508.47
481.795	2523.38
482.166	2575.58
482.537	2630.27
482.908	2713.66
483.279	2755.24
483.65	2827.55
484.021	2893.09
484.391	2998.62
484.762	3015.57
485.133	3105.51
485.503	3138.73
485.874	3208.33
486.244	3270.25
486.615	3369.69
486.985	3437.48
487.356	3496.24
487.726	3570.58
488.097	3644.03
488.467	3710.92
488.837	3856.45
489.207	3903.46
489.578	3982.1
489.948	4048.09
490.318	4134.64
490.688	4200.62
491.058	4310.68
491.428	4330.34
491.798	4450.56
492.168	4538.92
492.538	4604.23
492.908	4712.47
493.278	4787.95
493.648	4848.52
494.017	4945.46
494.387	5039.02
494.757	5081.73
495.126	5146.81
495.496	5174.38
495.866	5267.71
496.235	5360.14
496.605	5377.77
496.974	5462.96
497.344	5534.15
497.713	5575.28
498.082	5669.74
498.452	5750.41
498.821	5805.55
499.19	5854.14
499.559	5884.42
499.928	5970.75
500.298	6006.9
500.667	6126.68
501.036	6074.02
501.405	6222.04
501.774	6241.25
502.143	6321.7
502.512	6372.77
502.88	6437.63
503.249	6452.77
503.618	6498.87
503.987	6582.03
504.356	6603.5
504.724	6661.8
505.093	6706.09
505.462	6756.71
505.83	6814.57
506.199	6896.6
506.567	6927.33
506.936	6976.14
507.304	7047.33
507.672	7082.36
508.041	7137.04
508.409	7177.95
508.777	7272.86
509.145	7315.57
509.514	7332.52
509.882	7426.3
510.25	7403.93
510.618	7459.75
510.986	7488.67
511.354	7605.96
511.722	7652.96
512.09	7733.19
512.458	7737.25
512.826	7784.26
513.193	7757.14
513.561	7818.83
513.929	7921.88
514.297	7912.62
514.664	8004.82
515.032	8080.75
515.4	8106.51
515.767	8143.35
516.135	8206.62
516.502	8163.68
516.869	8291.36
517.237	8319.16
517.604	8306.5
517.972	8363.68
518.339	8425.6
518.706	8428.31
519.073	8437.12
519.44	8485.94
519.808	8558.02
520.175	8608.87
520.542	8721.18
520.909	8760.96
521.276	8712.37
521.643	8813.84
522.009	8897
522.376	8884.12
522.743	8941.29
523.11	9014.96
523.477	9069.42
523.843	9109.87
524.21	9232.36
524.577	9297.89
524.943	9276.65
525.31	9344.67
525.676	9341.05
526.043	9495.63
526.409	9544.66
526.776	9611.1
527.142	9619.24
527.508	9672.12
527.874	9746.01
528.241	9753.7
528.607	9855.62
528.973	9896.52
529.339	9906.01
529.705	9987.36
530.071	10071.43
530.437	10128.83
530.803	10084.09
531.169	10248.15
531.535	10211.54
531.901	10244.08
532.267	10266.23
532.632	10364.98
532.998	10409.05
533.364	10510.97
533.73	10543.51
534.095	10546.67
534.461	10566.11
534.826	10680.91
535.192	10638.42
535.557	10779.66
535.923	10761.36
536.288	10832.77
536.653	10816.27
537.019	10872.31
537.384	10878.19
537.749	10893.78
538.114	11011.07
538.479	11008.35
538.845	11105.08
539.21	11046.77
539.575	11174.68
539.94	11145.75
540.305	11320.21
540.67	11330.83
541.034	11352.3
541.399	11440.21
541.764	11384.39
542.129	11500.32
542.494	11529.92
542.858	11562.46
543.223	11591.39
543.587	11646.3
543.952	11620.77
544.316	11728.34
544.681	11717.94
545.045	11841.1
545.41	11915.68
545.774	11997.93
546.138	11910.48
546.503	12059.63
546.867	11978.5
547.231	12132.84
547.595	12197.02
547.959	12154.09
548.324	12239.06
548.688	12227.08
549.052	12213.75
549.416	12272.73
549.779	12334.2
550.143	12392.95
550.507	12525.38
550.871	12507.07
551.235	12404.25
551.599	12608.09
551.962	12622.78
552.326	12753.39
552.689	12681.3
553.053	12703.9
553.417	12827.29
553.78	12980.51
554.143	12800.62
554.507	12914.52
554.87	12966.27
555.234	13070.22
555.597	12966.27
555.96	13052.37
556.323	13124.01
556.686	13110.22
557.05	13162.87
557.413	13227.28
557.776	13195.42
558.139	13389.53
558.502	13302.98
558.865	13411.68
559.228	13544.79
559.59	13546.14
559.953	13533.94
560.316	13702.75
560.679	13689.87
561.041	13781.39
561.404	13835.17
561.767	13923.08
562.129	13852.57
562.492	13997.2
562.854	13875.4
563.217	14021.83
563.579	14091.44
563.941	14217.08
564.304	14054.15
564.666	14355.39
565.028	14338.66
565.39	14348.61
565.753	14303.86
566.115	14416.85
566.477	14500.47
566.839	14522.16
567.201	14550.63
567.563	14631.76
567.925	14737.3
568.287	14726.45
568.648	14705.88
569.01	14795.15
569.372	14955.37
569.734	14888.03
570.095	15028.81
570.457	15058.19
570.819	15106.55
571.18	15126.89
571.542	15227.68
571.903	15285.76
572.265	15408.46
572.626	15398.75
572.987	15502.25
573.349	15579.76
573.71	15675.8
574.071	15694.79
574.432	15838.51
574.794	15936.13
575.155	15994.44
575.516	16041.67
575.877	16176.58
576.238	16306.29
576.599	16367.76
576.96	16457.25
577.32	16632.39
577.681	16638.94
578.042	16820.63
578.403	16885.94
578.763	16931.59
579.124	17200.73
579.485	17315.99
579.845	17552.14
580.206	17667.61
580.566	17792.58
580.927	17911.22
581.287	18086.13
581.648	18102.41
582.008	18444.09
582.368	18549.17
582.728	18670.98
583.089	18844.98
583.449	19032.32
583.809	19183.51
584.169	19463.27
584.529	19588.69
584.889	19925.18
585.249	19991.4
585.609	20171.96
585.969	20500.53
586.329	20596.8
586.688	20987.08
587.048	21131.03
587.408	21354.98
587.768	21694.18
588.127	21770.11
588.487	21958.8
588.846	22440.6
589.206	22421.39
589.565	22699.12
589.925	23050.07
590.284	23216.17
590.643	23530.96
591.003	23764.63
591.362	24100.89
591.721	24266.76
592.08	24650.03
592.44	24926.18
592.799	25068.1
593.158	25358.03
593.517	25813.62
593.876	25907.4
594.235	26063.55
594.593	26328.4
594.952	26672.12
595.311	26891.55
595.67	27176.29
596.029	27619.44
596.387	27818.31
596.746	28081.58
597.104	28277.96
597.463	28392.3
597.822	28802.01
598.18	28926.75
598.538	29261.66
598.897	29597.24
599.255	29517.92
599.613	30154.07
599.972	30202.43
600.33	30552.7
600.688	30595.18
601.046	30971.9
601.404	31268.39
601.762	31279.01
602.12	31741.82
602.478	32019.33
602.836	32125.09
603.194	32244.41
603.552	32464.06
603.91	32587
604.268	32911.28
604.625	32924.61
604.983	33275.34
605.341	33314.66
605.698	33675.78
606.056	33943.12
606.413	34019.5
606.771	34211.13
607.128	34504.23
607.485	34595.31
607.843	34741.06
608.2	35032.81
608.557	35241.84
608.914	35355.51
609.272	35651.1
609.629	35712.34
609.986	35944.87
610.343	35935.38
610.7	36378.99
611.057	36348.25
611.414	36605.87
611.771	36684.97
612.127	36868.69
612.484	36960.21
612.841	37227.78
613.198	37181.45
613.554	37409.92
613.911	37820.98
614.267	37846.74
614.624	37886.52
614.98	37965.61
615.337	38286.28
615.693	38363.34
616.05	38406.73
616.406	38671.13
616.762	38645.37
617.118	38592.26
617.475	38868.86
617.831	39066.83
618.187	39154.51
618.543	39280.61
618.899	39460.26
619.255	39555.63
619.611	39549.98
619.967	39751.33
620.323	39805.34
620.678	39807.15
621.034	39936.41
621.39	39874.49
621.746	39976.41
622.101	40520.8
622.457	40182.95
622.812	40326.91
623.168	40353.35
623.523	40521.7
623.879	40613.45
624.234	40348.37
624.589	40581.81
624.945	40746.56
625.3	40840.56
625.655	40866.33
626.01	40861.13
626.365	40976.38
626.72	41110.84
627.075	40958.08
627.43	40905.42
627.785	41088.47
628.14	41135.25
628.495	41200.1
628.85	41190.39
629.205	41202.36
629.559	41459.31
629.914	41156.26
630.269	41218.86
630.623	41306.09
630.978	41268.12
631.332	41354
631.687	41570.26
632.041	41426.09
632.396	41436.93
632.75	41415.92
633.104	41338.86
633.459	41418.63
633.813	41353.55
634.167	41357.61
634.521	41240.78
634.875	41478.29
635.229	41348.35
635.583	41304.28
635.937	41417.5
636.291	41081.69
636.645	41424.5
636.999	41326.88
637.352	41358.52
637.706	41105.87
638.06	41386.54
638.413	41318.52
638.767	41156.49
639.121	41238.52
639.474	40997.85
639.828	41053.89
640.181	41169.6
640.534	41187.67
640.888	41038.75
641.241	40863.16
641.594	40922.14
641.947	41004.18
642.301	40934.12
642.654	41126.88
643.007	41029.94
643.36	41078.3
643.713	40920.11
644.066	41030.62
644.419	40825.42
644.771	40739.78
645.124	40274.7
645.477	40303.4
645.83	39982.51
646.182	39783.42
646.535	39774.6
646.888	39891.89
647.24	39625.68
647.593	40015.95
647.945	39765.79
648.298	39741.16
648.65	39598.56
649.002	39530.99
649.355	39825.9
649.707	39784.77
650.059	39870.42
650.411	40328.71
650.763	40316.06
651.115	40666.78
651.467	40434.7
651.819	40556.28
652.171	40533.23
652.523	40318.32
652.875	40441.03
653.227	40255.5
653.578	40488.94
653.93	40471.53
654.282	40287.13
654.633	40132.33
654.985	40274.03
655.337	40298.43
655.688	40335.04
656.039	40356.06
656.391	40045.11
656.742	40193.8
657.094	40209.62
657.445	40338.2
657.796	40330.52
658.147	40147.25
658.498	40043.3
658.849	40398.77
659.2	40244.87
659.551	40027.93
659.902	40154.48
660.253	40138.66
660.604	40222.5
660.955	39975.95
661.306	40214.14
661.656	40092.11
662.007	40124.88
662.358	39985.67
662.708	40132.11
663.059	40062.51
663.409	39776.64
663.76	39975.95
664.11	40010.76
664.461	40089.85
664.811	40124.88
665.161	39989.97
665.511	39917.65
665.862	40099.12
666.212	40037.42
666.562	40081.94
666.912	40116.29
667.262	39928.27
667.612	39885.56
667.962	40147.02
668.312	39814.6
668.662	40180.47
669.011	39973.92
669.361	39930.31
669.711	40041.49
670.06	39962.85
670.41	39746.36
670.76	39750.65
671.109	39961.94
671.459	39757.66
671.808	39769.86
672.157	39839.23
672.507	39702.06
672.856	39725.79
673.205	39746.58
673.554	39743.42
673.904	39596.08
674.253	39812.79
674.602	39690.99
674.951	39114.96
675.3	38955.87
675.649	39625.46
675.998	39578.22
676.346	39611.22
676.695	39691.44
677.044	39563.99
677.393	39480.6
677.741	39585.46
678.09	39526.47
678.438	39343.65
678.787	39434.27
679.135	39392.69
679.484	39161.51
679.832	39421.39
680.181	39067.28
680.529	39269.53
680.877	38928.52
681.225	38915.64
681.573	39283.77
681.922	39121.74
682.27	38935.76
682.618	39042.19
682.966	38845.36
683.314	38978.24
683.661	38788.42
684.009	38592.26
684.357	38648.31
684.705	38465.94
685.053	38571.02
685.4	38506.61
685.748	38293.96
686.095	38321.99
686.443	38174.42
686.79	38241.54
687.138	38410.57
687.485	38212.39
687.832	38080.19
688.18	38103.24
688.527	37942.56
688.874	37937.14
689.221	37716.13
689.568	37746.41
689.915	37738.73
690.262	37681.33
690.609	37607.2
690.956	37366.53
691.303	37281.34
691.65	37197.5
691.997	37182.13
692.344	36890.39
692.69	36868.47
693.037	36979.42
693.383	36767.45
693.73	36925.41
694.077	36592.31
694.423	36592.31
694.769	36449.95
695.116	36427.35
695.462	36411.98
695.808	36123.63
696.155	36204.98
696.501	36106.23
696.847	36143.74
697.193	35772.9
697.539	35892.67
697.885	35650.42
698.231	35490.87
698.577	35640.7
698.923	35545.11
699.269	35357.77
699.614	35175.4
699.96	35232.35
700.306	35179.92
700.651	34939.7
700.997	34937.67
701.342	34949.87
701.688	34812.25
702.033	34717.79
702.379	34633.95
702.724	34659.71
703.069	34562.99
703.415	34263.34
703.76	34337.91
704.105	34361.19
704.45	34203
704.795	33885.49
705.14	33950.35
705.485	33938.6
705.83	33734.54
706.175	33739.28
706.52	33622.9
706.865	33630.81
707.209	33445.96
707.554	33406.41
707.899	33492.06
708.243	33279.18
708.588	33242.8
708.932	33069.24
709.277	33050.71
709.621	33212.29
709.966	32804.84
710.31	32907.67
710.654	32627
710.998	32717.16
711.342	32671.06
711.687	32700.21
712.031	32477.85
712.375	32419.77
712.719	32512.87
713.063	32365.53
713.407	32472.65
713.75	32286.89
714.094	32139.78
714.438	32021.81
714.782	32191.98
715.125	32111.53
715.469	31928.48
715.812	31812.78
716.156	31749.5
716.499	31715.83
716.843	31724.87
717.186	31588.83
717.53	31737.75
717.873	31665.21
718.216	31583.18
718.559	31463.41
718.902	31247.14
719.246	31384.77
719.589	31220.93
719.932	31025.46
720.275	31106.13
720.617	31112.91
720.96	30924.22
721.303	31029.07
721.646	30838.57
721.989	30763.09
722.331	30812.58
722.674	30801.96
723.016	30777.1
723.359	30688.74
723.701	30655.3
724.044	30421.86
724.386	30445.81
724.729	30609.87
725.071	30384.79
725.413	30517.45
725.755	30246.49
726.097	30216.89
726.439	30055.99
726.782	30038.81
727.124	30246.04
727.465	30116.33
727.807	30088.3
728.149	30017.12
728.491	29924.92
728.833	30017.8
729.175	29877.46
729.516	29715.89
729.858	29708.43
730.199	29857.58
730.541	29767.18
730.882	29699.84
731.224	29717.24
731.565	29490.13
731.906	29521.54
732.248	29536.46
732.589	29368.1
732.93	29434.31
733.271	29277.7
733.612	29244.49
733.953	29364.03
734.294	29279.29
734.635	29163.58
734.976	29297.82
735.317	29058.28
735.658	28976.47
735.999	29092.62
736.339	28959.97
736.68	29038.16
737.021	28806.53
737.361	28906.87
737.702	28888.56
738.042	28831.39
738.383	28809.92
738.723	28752.29
739.063	28661.22
739.404	28680.43
739.744	28548.23
740.084	28603.82
740.424	28549.59
740.764	28650.15
741.104	28560.21
741.444	28402.02
741.784	28418.29
742.124	28403.6
742.464	28296.26
742.804	28316.83
743.143	28243.16
743.483	28154.57
743.823	28149.37
744.162	28119.09
744.502	28134.23
744.841	28024.63
745.181	28135.14
745.52	28008.59
745.86	28121.8
746.199	28022.82
746.538	27947.34
746.877	28077.06
747.216	27850.62
747.556	27903.28
747.895	27816.73
748.234	27738.54
748.573	27603.85
748.911	27504.42
749.25	27533.12
749.589	27372.44
749.928	27487.92
750.267	27518.88
750.605	27462.16
750.944	27362.95
751.283	27298.32
751.621	27261.26
751.96	27002.06
752.298	27123.64
752.636	27218.32
752.975	26940.59
753.313	26835.74
753.651	27015.84
753.989	26882.51
754.327	26845.23
754.666	26723.2
755.004	26831.89
755.342	26757.55
755.679	26633.71
756.017	26492.92
756.355	26655.85
756.693	26540.83
757.031	26515.29
757.368	26359.14
757.706	26273.72
758.044	26250.67
758.381	26244.79
758.719	26123.89
759.056	26165.7
759.394	26022.88
759.731	25949.66
760.068	25835.08
760.405	25805.25
760.743	25753.28
761.08	25769.1
761.417	25599.38
761.754	25581.53
762.091	25485.04
762.428	25402.55
762.765	25310.35
763.102	25378.6
763.438	25224.03
763.775	25104.71
764.112	25209.34
764.449	25142.45
764.785	24945.84
765.122	24763.02
765.458	24740.65
765.795	24688.45
766.131	24706.75
766.467	24623.82
766.804	24507.66
767.14	24373.65
767.476	24326.2
767.812	24261.57
768.148	24212.75
768.485	24143.38
768.821	24012.53
769.157	24031.74
769.492	23858.41
769.828	23852.99
770.164	23652.99
770.5	23599.44
770.836	23527.8
771.171	23486.22
771.507	23401.93
771.842	23329.61
772.178	23198.09
772.513	23112.22
772.849	23092.1
773.184	23033.12
773.519	23045.33
773.855	22805.33
774.19	22767.14
774.525	22664.55
774.86	22661.61
775.195	22601.95
775.53	22589.97
775.865	22416.64
776.2	22299.81
776.535	22222.75
776.87	22055.52
777.205	22050.78
777.539	21993.83
777.874	21884.9
778.209	21785.25
778.543	21738.47
778.878	21703.67
779.212	21644.23
779.547	21469.32
779.881	21508.87
780.215	21280.4
780.55	21455.09
780.884	21246.73
781.218	21149.33
781.552	21156.56
781.886	20977.13
782.22	20850.81
782.554	20799.96
782.888	20619.85
783.222	20610.81
783.556	20489.01
783.889	20503.92
784.223	20420.54
784.557	20408.33
784.89	20260.31
785.224	20159.53
785.557	20094.44
785.891	20015.58
786.224	19988.01
786.558	19846.09
786.891	19708.46
787.224	19734
787.557	19656.71
787.891	19726.54
788.224	19624.63
788.557	19513.89
788.89	19590.05
789.223	19397.96
789.556	19383.05
789.888	19356.16
790.221	19240.68
790.554	19037.97
790.887	19049.73
791.219	19060.8
791.552	18976.05
791.884	18939.22
792.217	18751.43
792.549	18776.51
792.882	18554.6
793.214	18565.44
793.546	18605.67
793.879	18510.3
794.211	18415.39
794.543	18419.23
794.875	18293.13
795.207	18303.08
795.539	18307.6
795.871	18285.9
796.203	18063.99
796.535	17993.26
796.867	17987.38
797.198	17874.84
797.53	17864.22
797.862	17691.34
798.193	17751.23
798.525	17688.4
798.856	17700.16
799.188	17425.59
799.519	17408.86
799.85	17396.66
800.182	17367.51
800.513	17273.27
800.844	17216.55
801.175	17285.7
801.506	17278.47
801.837	17204.58
802.168	17073.51
802.499	17050.46
802.83	16966.16
803.161	16820.63
803.491	16946.28
803.822	16882.32
804.153	16789.22
804.483	16692.5
804.814	16597.13
805.145	16642.56
805.475	16528.89
805.805	16500.19
806.136	16477.82
806.466	16415.44
806.796	16468.78
807.126	16273.98
807.457	16279.85
807.787	16256.13
808.117	16207.09
808.447	16132.29
808.777	16112.18
809.107	16020.88
809.436	16010.48
809.766	16015.45
810.096	15921.45
810.426	15852.75
810.755	15882.12
811.085	15795.35
811.414	15834.22
811.744	15696.37
812.073	15638.74
812.403	15591.06
812.732	15537.5
813.061	15511.97
813.39	15499.76
813.719	15501.34
814.049	15469.03
814.378	15388.35
814.707	15314.68
815.036	15363.27
815.365	15217.51
815.693	15116.5
816.022	15160.79
816.351	15011.87
816.68	15068.13
817.008	15025.88
817.337	14957.63
817.665	14930.06
817.994	14888.03
818.322	14920.12
818.651	14789.95
818.979	14757.41
819.307	14803.74
819.636	14766.45
819.964	14669.95
820.292	14710.63
820.62	14738.43
820.948	14766.45
821.276	14765.09
821.604	14678.09
821.932	14733.91
822.259	14695.49
822.587	14666.11
822.915	14647.35
823.243	14639.9
823.57	14614.59
823.898	14627.69
824.225	14517.64
824.553	14533.69
824.88	14466.12
825.207	14593.8
825.535	14599.22
825.862	14568.49
826.189	14588.37
826.516	14565.1
826.843	14582.95
827.17	14601.25
827.497	14630.86
827.824	14480.35
828.151	14575.49
828.478	14568.26
828.805	14558.77
829.131	14540.92
829.458	14544.53
829.785	14419.11
830.111	14505.44
830.438	14563.52
830.764	14447.81
831.09	14466.12
831.417	14430.41
831.743	14480.81
832.069	14529.39
832.395	14420.02
832.722	14366.01
833.048	14445.33
833.374	14432.9
833.7	14364.88
834.026	14386.34
834.351	14405.1
834.677	14379.34
835.003	14290.53
835.329	14411.65
835.654	14313.8
835.98	14312.9
836.306	14320.13
836.631	14272.68
836.956	14248.04
837.282	14222.96
837.607	14135.05
837.932	14136.63
838.258	14188.84
838.583	14147.03
838.908	14097.54
839.233	14011.67
839.558	14075.39
839.883	13950.65
840.208	13900.48
840.533	13970.31
840.858	13967.6
841.182	13917.88
841.507	13904.32
841.832	13859.81
842.156	13806.93
842.481	13761.95
842.805	13759.02
843.13	13812.12
843.454	13653.93
843.778	13632.47
844.103	13632.24
844.427	13582.75
844.751	13596.08
845.075	13587.95
845.399	13449.19
845.723	13489.42
846.047	13496.65
846.371	13305.24
846.695	13262.53
847.019	13208.97
847.343	13173.27
847.666	13144.57
847.99	13052.82
848.313	13035.65
848.637	12921.52
848.96	12952.48
849.284	12875.65
849.607	12775.09
849.931	12752.94
850.254	12686.73
850.577	12693.73
850.9	12558.14
851.223	12540.07
851.546	12449.45
851.869	12417.36
852.192	12480.41
852.515	12404.7
852.838	12259.85
853.161	12345.72
853.483	12224.37
853.806	12207.87
854.129	12192.28
854.451	12139.17
854.774	12006.29
855.096	12014.2
855.419	12020.53
855.741	12006.97
856.063	11853.98
856.385	11892.85
856.708	11835
857.03	11827.09
857.352	11839.07
857.674	11713.87
857.996	11736.92
858.318	11696.47
858.64	11616.02
858.961	11578.96
859.283	11607.66
859.605	11501
859.926	11521.11
860.248	11467.55
860.57	11453.54
860.891	11455.35
861.212	11414.45
861.534	11354.79
861.855	11343.71
862.176	11337.84
862.498	11311.4
862.819	11315.47
863.14	11318.18
863.461	11201.57
863.782	11217.39
864.103	11253.55
864.424	11098.3
864.745	11230.72
865.065	11109.37
865.386	11045.64
865.707	11005.87
866.027	11069.14
866.348	11061.01
866.668	11050.61
866.989	11028.69
867.309	10900.33
867.63	10912.99
867.95	10868.92
868.27	10865.31
868.59	10957.51
868.91	10835.25
869.23	10856.27
869.55	10832.54
869.87	10900.11
870.19	10785.31
870.51	10784.63
870.83	10865.08
871.15	10710.51
871.469	10778.53
871.789	10723.84
872.109	10675.26
872.428	10639.32
872.748	10741.47
873.067	10678.87
873.386	10663.96
873.706	10598.42
874.025	10634.35
874.344	10569.27
874.663	10652.88
874.982	10602.26
875.301	10517.29
875.62	10514.13
875.939	10449.95
876.258	10478.65
876.577	10425.09
876.896	10452.21
877.214	10367.47
877.533	10352.55
877.852	10391.2
878.17	10355.04
878.489	10337.41
878.807	10253.35
879.125	10306.45
879.444	10329.05
879.762	10271.2
880.08	10302.38
880.398	10242.05
880.716	10279.56
881.034	10166.12
881.352	10153.91
881.67	10124.54
881.988	10155.5
882.306	10096.74
882.624	10036.63
882.941	10040.24
883.259	10016.52
883.577	10017.19
883.894	9981.94
884.212	9957.99
884.529	10009.28
884.846	9933.58
885.164	9833.92
885.481	9883.19
885.798	9885.67
886.115	9797.31
886.432	9800.02
886.75	9729.07
887.067	9773.13
887.383	9710.54
887.7	9734.49
888.017	9650.42
888.334	9703.53
888.651	9679.58
888.967	9644.1
889.284	9617.88
889.6	9535.17
889.917	9543.99
890.233	9546.47
890.55	9469.41
890.866	9480.26
891.182	9433.03
891.498	9406.36
891.815	9388.96
892.131	9375.63
892.447	9309.87
892.763	9317.55
893.079	9245.24
893.395	9250.66
893.71	9266.71
894.026	9286.14
894.342	9118.23
894.657	9099.7
894.973	9118.01
895.289	9074.62
895.604	9075.07
895.92	9012.02
896.235	9037.11
896.55	8967.96
896.865	8907.84
897.181	8914.4
897.496	8897.45
897.811	8862.87
898.126	8828.98
898.441	8810.67
898.756	8756.21
899.071	8763.44
899.386	8704.91
899.7	8593.5
900.015	8614.97
900.33	8557.35
900.644	8559.38
900.959	8624.01
901.273	8499.49
901.588	8517.35
901.902	8380.18
902.216	8378.59
902.531	8422.89
902.845	8375.88
903.159	8316.45
903.473	8301.08
903.787	8248.88
904.101	8172.95
904.415	8179.5
904.729	8169.79
905.042	8143.8
905.356	8108.09
905.67	8066.96
905.984	8076
906.297	8020.86
906.611	7992.39
906.924	8008.89
907.237	8021.54
907.551	7898.15
907.864	7872.17
908.177	7872.17
908.491	7824.71
908.804	7746.75
909.117	7744.94
909.43	7711.72
909.743	7621.55
910.056	7649.12
910.368	7628.78
910.681	7587.43
910.994	7590.82
911.307	7526.86
911.619	7466.75
911.932	7424.95
912.244	7455.45
912.557	7382.01
912.869	7348.34
913.181	7342.91
913.494	7341.56
913.806	7259.07
914.118	7223.37
914.43	7218.85
914.742	7249.13
915.054	7133.43
915.366	7107.67
915.678	7084.16
915.99	7018.18
916.302	7010.27
916.613	6966.88
916.925	6978.18
917.236	6946.31
917.548	6883.04
917.859	6952.87
918.171	6895.24
918.482	6812.31
918.794	6797.39
919.105	6837.62
919.416	6755.59
919.727	6749.71
920.038	6677.62
920.349	6678.3
920.66	6669.71
920.971	6641.24
921.282	6635.81
921.593	6523.5
921.903	6510.85
922.214	6526.21
922.525	6497.74
922.835	6457.06
923.146	6459.1
923.456	6413.45
923.767	6400.34
924.077	6332.55
924.387	6318.53
924.697	6235.15
925.008	6265.88
925.318	6228.14
925.628	6180.46
925.938	6196.05
926.248	6178.43
926.558	6121.93
926.867	6090.07
927.177	6099.11
927.487	6086.9
927.796	6022.95
928.106	5983.85
928.416	5959.22
928.725	5961.93
929.034	5923.52
929.344	5897.98
929.653	5848.26
929.962	5835.84
930.271	5807.36
930.581	5785.67
930.89	5752.45
931.199	5720.36
931.508	5746.35
931.817	5712.9
932.125	5690.53
932.434	5629.51
932.743	5606.24
933.051	5591.1
933.36	5592.23
933.669	5545.22
933.977	5524.88
934.286	5509.52
934.594	5453.92
934.902	5499.8
935.21	5395.62
935.519	5449.63
935.827	5419.12
936.135	5375.73
936.443	5292.57
936.751	5270.65
937.059	5323.76
937.367	5248.73
937.674	5269.07
937.982	5239.69
938.29	5220.94
938.597	5269.97
938.905	5152.24
939.213	5140.26
939.52	5053.71
939.827	5105.68
940.135	5038.12
940.442	5036.53
940.749	5040.83
941.056	5046.93
941.363	4953.82
941.67	4990.21
941.977	4926.25
942.284	4947.27
942.591	4929.19
942.898	4909.98
943.205	4850.1
943.511	4828.4
943.818	4806.94
944.125	4752.25
944.431	4771.91
944.738	4760.38
945.044	4744.34
945.35	4702.08
945.657	4646.71
945.963	4709.09
946.269	4626.38
946.575	4661.85
946.881	4593.16
947.187	4618.47
947.493	4551.35
947.799	4573.95
948.105	4537.56
948.41	4478.36
948.716	4494.63
949.022	4431.13
949.327	4484.23
949.633	4424.57
949.938	4436.78
950.244	4411.47
950.549	4387.51
950.854	4355.65
951.16	4329.66
951.465	4339.15
951.77	4293.73
952.075	4232.26
952.38	4262.54
952.685	4285.37
952.99	4248.53
953.294	4182.55
953.599	4191.13
953.904	4160.4
954.209	4134.64
954.513	4163.56
954.818	4114.98
955.122	4137.35
955.426	4120.63
955.731	4123.34
956.035	4066.16
956.339	4099.16
956.643	4039.72
956.948	4047.63
957.252	4014.19
957.556	3974.64
957.86	3960.86
958.163	3959.95
958.467	3956.34
958.771	3890.12
959.075	3870.24
959.378	3887.86
959.682	3861.42
959.985	3824.36
960.289	3840.86
960.592	3790.92
960.896	3818.49
961.199	3787.75
961.502	3774.87
961.805	3738.49
962.108	3710.47
962.411	3721.99
962.714	3695.78
963.017	3696.68
963.32	3659.4
963.623	3638.15
963.926	3650.81
964.228	3592.05
964.531	3581.21
964.833	3603.8
965.136	3548.89
965.438	3544.37
965.741	3551.6
966.043	3508.21
966.345	3486.97
966.648	3492.85
966.95	3493.52
967.252	3442.9
967.554	3447.88
967.856	3424.6
968.158	3357.26
968.46	3437.93
968.761	3332.17
969.063	3378.72
969.365	3355.9
969.666	3322.91
969.968	3325.62
970.269	3307.09
970.571	3263.25
970.872	3276.13
971.174	3292.85
971.475	3226.86
971.776	3255.11
972.077	3212.18
972.378	3231.61
972.679	3168.56
972.98	3208.33
973.281	3186.64
973.582	3128.11
973.883	3109.13
974.183	3152.06
974.484	3141.67
974.785	3115.91
975.085	3067.77
975.386	3128.11
975.686	3053.08
975.986	3052.63
976.287	3043.14
976.587	2970.37
976.887	2990.94
977.187	2986.42
977.487	2992.52
977.787	2976.7
978.087	2962.24
978.387	2948.68
978.687	2937.38
978.987	2893.54
979.286	2915.69
979.586	2861.9
979.885	2851.05
980.185	2862.81
980.484	2785.07
980.784	2826.2
981.083	2813.32
981.382	2788.91
981.682	2820.77
981.981	2783.94
982.28	2784.84
982.579	2771.51
982.878	2745.52
983.177	2760.44
983.475	2715.47
983.774	2713.21
984.073	2712.53
984.372	2686.09
984.67	2677.5
984.969	2698.52
985.267	2693.09
985.566	2613.1
985.864	2626.65
986.162	2634.79
986.461	2623.04
986.759	2590.5
987.057	2568.8
987.355	2575.13
987.653	2513.44
987.951	2529.26
988.249	2533.55
988.547	2529.48
988.844	2507.34
989.142	2531.29
989.44	2464.4
989.737	2433.66
990.035	2461.23
990.332	2482.7
990.63	2455.81
990.927	2438.18
991.224	2416.94
991.521	2402.93
991.819	2392.31
992.116	2384.17
992.413	2354.12
992.71	2354.57
993.006	2364.97
993.303	2361.8
993.6	2335.59
993.897	2341.01
994.193	2329.49
994.49	2263.5
994.787	2276.38
995.083	2280.67
995.379	2290.17
995.676	2261.47
995.972	2256.95
996.268	2227.12
996.565	2244.29
996.861	2240.9
997.157	2211.3
997.453	2187.34
997.749	2178.53
998.044	2141.7
998.34	2192.54
998.636	2141.02
998.932	2152.09
999.227	2143.28
999.523	2134.69
999.818	2110.06
1000.114	2096.5
1000.409	2069.83
1000.704	2037.97
1001	2076.84
1001.295	2064.41
1001.59	2068.02
1001.885	2067.12
1002.18	2036.39
1002.475	1998.2
1002.77	1992.32
1003.065	2007.91
1003.359	2008.14
1003.654	1938.76
1003.949	1961.81
1004.243	1968.59
1004.538	1922.49
1004.832	1936.73
1005.127	1906.67
1005.421	1883.62
1005.715	1931.08
1006.009	1900.35
1006.304	1850.63
1006.598	1856.73
1006.892	1842.27
1007.186	1833.68
1007.48	1824.64
1007.773	1830.74
1008.067	1837.3
1008.361	1803.85
1008.655	1818.09
1008.948	1777.18
1009.242	1786.68
1009.535	1743.97
1009.829	1758.43
1010.122	1758.2
1010.415	1742.16
1010.708	1734.7
1011.001	1723.18
1011.295	1685.89
1011.588	1676.62
1011.881	1670.3
1012.173	1657.87
1012.466	1660.35
1012.759	1657.64
1013.052	1630.3
1013.344	1624.87
1013.637	1635.27
1013.93	1635.04
1014.222	1614.93
1014.514	1593.46
1014.807	1620.13
1015.099	1588.04
1015.391	1582.16
1015.683	1581.26
1015.976	1565.44
1016.268	1544.87
1016.56	1505.33
1016.851	1504.42
1017.143	1546.68
1017.435	1511.88
1017.727	1516.4
1018.018	1497.42
1018.31	1476.4
1018.602	1442.96
1018.893	1455.16
1019.185	1434.82
1019.476	1426.69
1019.767	1443.63
1020.058	1428.72
1020.35	1422.39
1020.641	1394.6
1020.932	1375.84
1021.223	1397.31
1021.514	1402.51
1021.804	1356.18
1022.095	1363.86
1022.386	1343.07
1022.677	1352.79
1022.967	1321.83
1023.258	1312.79
1023.548	1335.39
1023.839	1314.37
1024.129	1300.36
1024.419	1301.04
1024.709	1278.21
1025	1283.64
1025.29	1254.71
1025.58	1262.17
1025.87	1265.33
1026.16	1248.84
1026.449	1251.1
1026.739	1240.25
1027.029	1206.8
1027.319	1212.45
1027.608	1206.35
1027.898	1191.89
1028.187	1181.49
1028.477	1219.69
1028.766	1176.97
1029.055	1155.28
1029.344	1150.08
1029.634	1141.04
1029.923	1124.09
1030.212	1140.82
1030.501	1132.23
1030.79	1126.58
1031.078	1100.82
1031.367	1125.68
1031.656	1101.5
1031.945	1118.22
1032.233	1061.27
1032.522	1068.28
1032.81	1049.97
1033.099	1074.83
1033.387	1072.8
1033.675	1065.34
1033.963	1049.29
1034.251	1038
1034.54	1032.35
1034.828	1028.73
1035.116	1036.64
1035.403	1023.08
1035.691	1007.71
1035.979	1000.71
1036.267	977.88
1036.554	980.82
1036.842	981.27
1037.129	978.56
1037.417	981.27
1037.704	941.5
1037.992	957.32
1038.279	960.03
1038.566	966.36
1038.853	966.36
1039.14	966.36
