Data from hue_24_FLMS001491_00035.txt Node
Date: Tue Feb 07 17:12:11 GMT 2017
User: dcchb
Spectrometer: FLMS00149
Trigger mode: 0
Integration Time (sec): 2.000000E-2
Scans to average: 10
Electric dark correction enabled: true
Nonlinearity correction enabled: false
Boxcar width: 0
XAxis mode: Wavelengths
Number of Pixels in Spectrum: 2048
>>>>>Begin Spectral Data<<<<<
341.393	-16.96
341.776	-16.96
342.16	-16.96
342.543	-60.35
342.927	-65.78
343.31	-50.86
343.693	-62.16
344.077	-75.49
344.46	-71.88
344.843	-47.24
345.226	-40.24
345.61	-48.15
345.993	-30.97
346.376	2.7
346.759	11.06
347.142	43.15
347.525	47.89
347.908	55.35
348.291	74.79
348.674	88.12
349.057	103.94
349.44	136.48
349.823	159.98
350.206	174.44
350.588	226.87
350.971	211.28
351.354	241.34
351.737	239.75
352.119	249.24
352.502	272.07
352.884	288.34
353.267	288.11
353.65	288.57
354.032	293.76
354.414	326.53
354.797	317.94
355.179	308
355.562	344.16
355.944	336.93
356.326	337.38
356.709	326.98
357.091	346.42
357.473	315.46
357.855	336.25
358.238	350.03
358.62	334.67
359.002	338.28
359.384	350.26
359.766	341.45
360.148	340.32
360.53	345.97
360.912	341.45
361.294	358.85
361.676	343.71
362.057	345.74
362.439	344.16
362.821	332.41
363.203	329.69
363.584	336.7
363.966	304.38
364.348	342.35
364.729	323.37
365.111	313.88
365.493	329.69
365.874	340.32
366.256	299.64
366.637	330.15
367.019	321.79
367.4	304.61
367.781	301.45
368.163	311.62
368.544	324.95
368.925	324.95
369.306	326.08
369.688	308.45
370.069	322.01
370.45	316.81
370.831	310.49
371.212	330.6
371.593	331.73
371.974	316.36
372.355	321.11
372.736	306.19
373.117	321.79
373.498	330.15
373.879	326.53
374.26	309.58
374.641	342.58
375.021	319.3
375.402	336.47
375.783	330.15
376.163	324.05
376.544	324.5
376.925	339.64
377.305	344.16
377.686	335.57
378.066	332.18
378.447	350.71
378.827	334.44
379.208	317.27
379.588	324.72
379.968	348.23
380.349	322.92
380.729	337.38
381.109	359.3
381.489	353.65
381.87	337.83
382.25	353.2
382.63	337.83
383.01	363.37
383.39	350.94
383.77	336.7
384.15	353.87
384.53	345.74
384.91	343.03
385.29	355.46
385.67	343.03
386.049	385.51
386.429	367.89
386.809	369.24
387.189	366.53
387.568	359.98
387.948	346.64
388.328	341.22
388.707	358.85
389.087	380.31
389.466	371.5
389.846	362.24
390.225	392.52
390.605	362.91
390.984	391.61
391.363	395.91
391.743	381.22
392.122	383.7
392.501	390.26
392.881	380.99
393.26	376.25
393.639	377.38
394.018	378.96
394.397	391.16
394.776	385.51
395.155	388.9
395.534	396.59
395.913	390.48
396.292	416.47
396.671	389.81
397.05	419.86
397.429	409.01
397.808	390.26
398.186	409.47
398.565	410.6
398.944	408.34
399.323	425.51
399.701	413.99
400.08	409.47
400.458	399.52
400.837	427.09
401.215	419.86
401.594	425.74
401.972	432.97
402.351	399.98
402.729	449.47
403.107	414.66
403.486	414.66
403.864	413.31
404.242	445.4
404.62	426.42
404.999	446.3
405.377	442.23
405.755	448.34
406.133	426.42
406.511	440.43
406.889	442.01
407.267	465.28
407.645	451.95
408.023	466.87
408.401	466.41
408.779	473.65
409.156	473.42
409.534	468.9
409.912	474.32
410.29	481.56
410.667	455.79
411.045	494.89
411.422	493.98
411.8	498.05
412.178	498.73
412.555	471.16
412.933	499.63
413.31	489.69
413.687	494.66
414.065	525.62
414.442	516.36
414.819	519.52
415.197	528.11
415.574	517.26
415.951	530.14
416.328	517.71
416.705	531.05
417.082	500.09
417.46	526.98
417.837	544.6
418.214	536.47
418.591	539.86
418.967	549.35
419.344	536.02
419.721	550.93
420.098	550.03
420.475	561.78
420.852	574.89
421.228	577.15
421.605	580.99
421.982	560.2
422.358	576.69
422.735	553.87
423.111	579.63
423.488	583.02
423.864	583.7
424.241	581.21
424.617	596.81
424.994	611.04
425.37	592.96
425.746	607.88
426.123	609.01
426.499	601.1
426.875	630.48
427.251	613.76
427.627	612.63
428.003	624.6
428.379	649.01
428.756	630.25
429.132	656.47
429.507	656.01
429.883	645.39
430.259	663.47
430.635	662.34
431.011	670.48
431.387	692.62
431.763	691.27
432.138	693.98
432.514	693.3
432.89	710.93
433.265	712.28
433.641	721.55
434.016	730.36
434.392	715
434.767	740.98
435.143	757.71
435.518	743.47
435.894	754.77
436.269	766.75
436.644	761.32
437.02	770.81
437.395	770.14
437.77	773.75
438.145	799.96
438.52	775.56
438.895	806.07
439.271	811.26
439.646	837.03
440.021	823.24
440.395	803.81
440.77	828.44
441.145	813.07
441.52	834.77
441.895	839.74
442.27	849
442.645	859.85
443.019	863.47
443.394	859.17
443.769	881.54
444.143	861.88
444.518	887.87
444.892	876.8
445.267	843.35
445.641	871.83
446.016	892.62
446.39	891.71
446.764	906.4
447.139	921.09
447.513	902.79
447.887	900.53
448.262	897.82
448.636	928.32
449.01	932.16
449.384	945.95
449.758	915.67
450.132	971.49
450.506	954.09
450.88	980.75
451.254	971.26
451.628	969.45
452.002	1007.19
452.376	984.37
452.75	1004.71
453.123	992.05
453.497	1026.17
453.871	1015.1
454.244	1059.62
454.618	1077.25
454.992	1034.08
455.365	1064.14
455.739	1058.49
456.112	1074.99
456.486	1076.57
456.859	1098.71
457.232	1125.15
457.606	1140.29
457.979	1144.59
458.352	1142.78
458.725	1158.15
459.099	1155.89
459.472	1176.45
459.845	1191.59
460.218	1230.69
460.591	1199.28
460.964	1209.22
461.337	1242.89
461.71	1274.08
462.083	1276.11
462.456	1276.34
462.829	1296
463.201	1286.05
463.574	1350.68
463.947	1336.45
464.32	1358.59
464.692	1351.81
465.065	1401.3
465.438	1396.33
465.81	1419.84
466.183	1440.4
466.555	1463.68
466.928	1453.96
467.3	1471.36
467.672	1513.62
468.045	1534.18
468.417	1517.23
468.789	1551.13
469.161	1585.71
469.534	1593.84
469.906	1590.9
470.278	1642.65
470.65	1625.03
471.022	1655.54
471.394	1726.27
471.766	1731.92
472.138	1732.82
472.51	1782.09
472.882	1802.88
473.253	1805.14
473.625	1859.82
473.997	1924.91
474.369	1918.58
474.74	1953.15
475.112	1966.49
475.484	2017.11
475.855	2051.91
476.227	2055.07
476.598	2118.35
476.97	2114.96
477.341	2136.65
477.713	2229.53
478.084	2251.9
478.455	2311.11
478.827	2379.36
479.198	2415.97
479.569	2415.06
479.94	2499.36
480.311	2521.28
480.682	2565.34
481.053	2644.66
481.424	2721.5
481.795	2717.43
482.166	2761.72
482.537	2789.29
482.908	2865.9
483.279	2890.08
483.65	2987.7
484.021	3016.4
484.391	3064.54
484.762	3101.15
485.133	3149.28
485.503	3174.59
485.874	3268.83
486.244	3306.34
486.615	3385.89
486.985	3394.25
487.356	3492.1
487.726	3536.84
488.097	3622.49
488.467	3670.17
488.837	3688.02
489.207	3740.45
489.578	3800.34
489.948	3850.73
490.318	3897.96
490.688	3973.89
491.058	4030.61
491.428	4082.36
491.798	4085.53
492.168	4185.86
492.538	4198.07
492.908	4264.96
493.278	4332.75
493.648	4359.65
494.017	4451.17
494.387	4460.43
494.757	4568
495.126	4567.1
495.496	4597.15
495.866	4669.92
496.235	4707.88
496.605	4726.87
496.974	4808
497.344	4828.56
497.713	4849.35
498.082	4921.21
498.452	4972.06
498.821	4953.75
499.19	4991.72
499.559	5060.87
499.928	5046.41
500.298	5139.74
500.667	5146.29
501.036	5143.13
501.405	5228.1
501.774	5262.22
502.143	5269.23
502.512	5301.54
502.88	5382.22
503.249	5389.67
503.618	5414.98
503.987	5412.72
504.356	5434.87
504.724	5436.91
505.093	5517.58
505.462	5525.49
505.83	5609.1
506.199	5598.03
506.567	5656.79
506.936	5687.75
507.304	5770.46
507.672	5793.73
508.041	5800.29
508.409	5805.48
508.777	5863.11
509.145	5919.6
509.514	5945.59
509.882	5946.04
510.25	5944.46
510.618	6017
510.986	6063.56
511.354	6114.63
511.722	6136.55
512.09	6174.29
512.458	6166.83
512.826	6223.1
513.193	6187.62
513.561	6214.51
513.929	6309.65
514.297	6298.35
514.664	6371.8
515.032	6424.45
515.4	6419.25
515.767	6466.48
516.135	6488.63
516.502	6456.31
516.869	6515.07
517.237	6600.72
517.604	6530.66
517.972	6653.82
518.339	6560.04
518.706	6616.08
519.073	6668.51
519.44	6656.99
519.808	6801.16
520.175	6733.14
520.542	6790.32
520.909	6872.12
521.276	6836.42
521.643	6916.41
522.009	6900.6
522.376	6932.46
522.743	6999.8
523.11	7073.92
523.477	7109.86
523.843	7174.03
524.21	7223.52
524.577	7239.8
524.943	7326.8
525.31	7344.65
525.676	7358.44
526.043	7385.33
526.409	7440.02
526.776	7552.1
527.142	7513.01
527.508	7590.29
527.874	7581.26
528.241	7663.29
528.607	7677.3
528.973	7761.82
529.339	7735.38
529.705	7834.13
530.071	7935.37
530.437	7902.15
530.803	7912.09
531.169	8042.26
531.535	8002.94
531.901	8039.55
532.267	8057.85
532.632	8102.82
532.998	8128.81
533.364	8225.53
533.73	8215.36
534.095	8315.7
534.461	8249.03
534.826	8356.83
535.192	8360.44
535.557	8413.32
535.923	8424.62
536.288	8496.94
536.653	8530.84
537.019	8469.82
537.384	8615.8
537.749	8623.26
538.114	8618.29
538.479	8635.47
538.845	8694.45
539.21	8671.85
539.575	8771.96
539.94	8744.84
540.305	8843.14
540.67	8821.22
541.034	8824.61
541.399	8906.19
541.764	8926.98
542.129	8988.22
542.494	9015.12
542.858	9044.95
543.223	9028.68
543.587	9133.76
543.952	9150.25
544.316	9173.76
544.681	9152.51
545.045	9278.61
545.41	9270.48
545.774	9328.1
546.138	9316.8
546.503	9371.94
546.867	9352.51
547.231	9516.57
547.595	9480.64
547.959	9525.61
548.324	9507.76
548.688	9549.34
549.052	9564.03
549.416	9623.24
549.779	9596.34
550.143	9712.5
550.507	9737.81
550.871	9821.42
551.235	9756.57
551.599	9844.25
551.962	9915.43
552.326	9928.09
552.689	9949.1
553.053	9966.5
553.417	9946.17
553.78	10094.64
554.143	10033.17
554.507	10050.34
554.87	10128.76
555.234	10159.04
555.597	10126.73
555.96	10192.49
556.323	10198.59
556.686	10251.69
557.05	10396.77
557.413	10373.5
557.776	10359.26
558.139	10376.66
558.502	10446.72
558.865	10521.07
559.228	10626.6
559.59	10600.39
559.953	10552.25
560.316	10740.04
560.679	10688.74
561.041	10730.33
561.404	10776.88
561.767	10833.83
562.129	10706.15
562.492	10888.74
562.854	10960.15
563.217	10892.35
563.579	11036.31
563.941	11081.95
564.304	11113.37
564.666	11167.6
565.028	11164.21
565.39	11250.54
565.753	11281.72
566.115	11342.06
566.477	11263.64
566.839	11361.72
567.201	11387.48
567.563	11357.2
567.925	11487.37
568.287	11472.45
568.648	11545.9
569.01	11567.82
569.372	11648.04
569.734	11625.22
570.095	11745.67
570.457	11790.41
570.819	11801.26
571.18	11840.8
571.542	11933.23
571.903	11993.34
572.265	11924.42
572.626	12099.1
572.987	12163.51
573.349	12151.53
573.71	12236.5
574.071	12286.67
574.432	12291.41
574.794	12431.07
575.155	12489.15
575.516	12555.81
575.877	12598.3
576.238	12685.98
576.599	12762.14
576.96	12813.43
577.32	12869.25
577.681	12998.97
578.042	13086.2
578.403	13169.13
578.763	13257.04
579.124	13403.48
579.485	13517.14
579.845	13626.52
580.206	13734.54
580.566	13758.49
580.927	13948.55
581.287	14111.71
581.648	14105.6
582.008	14330.46
582.368	14511.69
582.728	14671.24
583.089	14803.44
583.449	14944.45
583.809	15099.02
584.169	15288.62
584.529	15417.43
584.889	15653.13
585.249	15796.63
585.609	15941.49
585.969	16169.96
586.329	16393.23
586.688	16705.31
587.048	16814.23
587.408	17028.46
587.768	17323.37
588.127	17514.1
588.487	17759.29
588.846	18131.94
589.206	18277.02
589.565	18447.64
589.925	18848.98
590.284	19065.93
590.643	19288.97
591.003	19704.78
591.362	19902.74
591.721	20149.06
592.08	20511.99
592.44	20770.06
592.799	21131.41
593.158	21340.22
593.517	21638.74
593.876	22012.06
594.235	22268.1
594.593	22562.78
594.952	23005.03
595.311	23151.02
595.67	23493.15
596.029	23899.47
596.387	24315.5
596.746	24522.5
597.104	24704.2
597.463	25088.37
597.822	25454.23
598.18	25616.94
598.538	25824.84
598.897	26462.57
599.255	26474.77
599.613	27155.2
599.972	27279.04
600.33	27554.29
600.688	27790.44
601.046	28226.59
601.404	28446.02
601.762	28833.13
602.12	29259.1
602.478	29469.49
602.836	29685.31
603.194	29870.84
603.552	30254.11
603.91	30375.01
604.268	30878.72
604.625	31064.48
604.983	31409.78
605.341	31573.62
605.698	31978.35
606.056	32249.08
606.413	32371.56
606.771	32702.63
607.128	33023.52
607.485	33093.8
607.843	33380.8
608.2	33713.9
608.557	34085.87
608.914	34177.17
609.272	34564.73
609.629	34783.48
609.986	35127.2
610.343	35165.61
610.7	35585.94
611.057	35718.82
611.414	35845.15
611.771	36145.7
612.127	36361.74
612.484	36731
612.841	36857.77
613.198	37088.28
613.554	37212.34
613.911	37470.87
614.267	37704.76
614.624	37711.54
614.98	37933.45
615.337	38424.96
615.693	38517.39
616.05	38584.28
616.406	38900.43
616.762	38918.96
617.118	38963.93
617.475	39184.94
617.831	39520.98
618.187	39485.95
618.543	39709.22
618.899	40096.78
619.255	40087.52
619.611	40264.69
619.967	40374.07
620.323	40694.74
620.678	40654.74
621.034	40643.44
621.39	40863.77
621.746	40976.99
622.101	41384.43
622.457	41228.73
622.812	41370.65
623.168	41483.19
623.523	41638.89
623.879	41824.65
624.234	41673.69
624.589	41834.37
624.945	41968.83
625.3	42086.56
625.655	42023.97
626.01	42150.97
626.365	42206.11
626.72	42231.87
627.075	42268.03
627.43	42439.32
627.785	42401.13
628.14	42523.16
628.495	42713.67
628.85	42701.01
629.205	42554.57
629.559	42876.37
629.914	42718.41
630.269	42767.22
630.623	42658.53
630.978	42694
631.332	43042.47
631.687	43106.2
632.041	42985.97
632.396	42978.74
632.75	43041.34
633.104	43073.2
633.459	42967.9
633.813	42891.29
634.167	42990.04
634.521	43142.58
634.875	43222.58
635.229	43182.81
635.583	42966.09
635.937	43149.59
636.291	43065.75
636.645	43160.43
636.999	42966.54
637.352	43156.59
637.706	42875.69
638.06	43150.94
638.413	43170.15
638.767	43066.2
639.121	43041.79
639.474	42896.03
639.828	42971.29
640.181	43080.21
640.534	43066.42
640.888	42905.75
641.241	42802.25
641.594	43098.74
641.947	42971.29
642.301	42905.52
642.654	43076.59
643.007	43063.71
643.36	43032.07
643.713	42808.8
644.066	43209.92
644.419	42864.17
644.771	42733.1
645.124	42314.13
645.477	42227.35
645.83	42016.73
646.182	41984.64
646.535	41776.06
646.888	41848.38
647.24	41552.79
647.593	41880.69
647.945	41634.37
648.298	41557.09
648.65	41591.43
649.002	41423.3
649.355	41726.35
649.707	41651.09
650.059	41855.61
650.411	42231.87
650.763	42284.52
651.115	42712.76
651.467	42576.95
651.819	42594.57
652.171	42501.92
652.523	42414.69
652.875	42361.13
653.227	42264.86
653.578	42634.57
653.93	42394.58
654.282	42303.05
654.633	42248.37
654.985	42353.67
655.337	42455.82
655.688	42403.84
656.039	42604.97
656.391	42144.64
656.742	42337.18
657.094	42337.86
657.445	42498.98
657.796	42351.87
658.147	42242.04
658.498	42236.62
658.849	42187.8
659.2	42276.39
659.551	42213.34
659.902	42392.09
660.253	42177.63
660.604	42253.34
660.955	42081.14
661.306	42369.49
661.656	42173.57
662.007	42292.66
662.358	42199.55
662.708	42178.31
663.059	42146.9
663.409	41890.18
663.76	42195.71
664.11	42222.15
664.461	42327.46
664.811	42337.18
665.161	42176.73
665.511	42136.28
665.862	42182.61
666.212	42329.27
666.562	42216.5
666.912	42138.76
667.262	42145.32
667.612	42096.73
667.962	42173.79
668.312	42034.13
668.662	42303.28
669.011	42077.98
669.361	42022.84
669.711	42052.44
670.06	41982.84
670.41	41953.23
670.76	41775.16
671.109	42071.2
671.459	41864.65
671.808	41837.98
672.157	41969.05
672.507	41679.12
672.856	41853.8
673.205	41811.54
673.554	41980.12
673.904	41791.88
674.253	42068.03
674.602	41882.5
674.951	41308.96
675.3	41201.84
675.649	41700.58
675.998	41690.42
676.346	41715.27
676.695	41708.04
677.044	41500.14
677.393	41604.09
677.741	41713.69
678.09	41476.18
678.438	41546.46
678.787	41518.44
679.135	41533.58
679.484	41229.41
679.832	41393.47
680.181	41234.61
680.529	41310.76
680.877	41296.53
681.225	41136.31
681.573	41355.06
681.922	41051.56
682.27	41084.33
682.618	41008.17
682.966	40916.42
683.314	41077.78
683.661	40811.79
684.009	40651.35
684.357	40763.21
684.705	40534.29
685.053	40843.43
685.4	40595.08
685.748	40652.7
686.095	40588.3
686.443	40380.62
686.79	40360.73
687.138	40368.64
687.485	40412.03
687.832	40102.89
688.18	40196.67
688.527	40002.1
688.874	39992.61
689.221	39878.94
689.568	39833.74
689.915	39818.83
690.262	39809.56
690.609	39473.07
690.956	39508.55
691.303	39411.83
691.65	39210.25
691.997	39270.14
692.344	39111.5
692.69	39065.4
693.037	39004.38
693.383	38736.37
693.73	38888.91
694.077	38584.28
694.423	38687.56
694.769	38509.03
695.116	38334.8
695.462	38323.5
695.808	38315.36
696.155	38357.62
696.501	37936.84
696.847	38105.88
697.193	37760.8
697.539	37988.14
697.885	37564.65
698.231	37617.3
698.577	37697.07
698.923	37510.19
699.269	37440.36
699.614	37215.73
699.96	37188.16
700.306	37248.72
700.651	37016.64
700.997	36975.96
701.342	36898.45
701.688	36769.19
702.033	36676.31
702.379	36723.09
702.724	36500.5
703.069	36484.45
703.415	36228.64
703.76	36249.43
704.105	36185.25
704.45	36210.11
704.795	35906.84
705.14	35877.01
705.485	35767.18
705.83	35637.47
706.175	35782.32
706.52	35533.06
706.865	35545.27
707.209	35540.97
707.554	35331.94
707.899	35496.23
708.243	35227.99
708.588	35221.66
708.932	34982.79
709.277	34951.84
709.621	35107.09
709.966	34793.42
710.31	34869.58
710.654	34489.93
710.998	34618.96
711.342	34654.44
711.687	34520.43
712.031	34256.03
712.375	34251.06
712.719	34363.15
713.063	34197.28
713.407	34340.55
713.75	34095.36
714.094	34080.67
714.438	33894.01
714.782	34015.59
715.125	33798.65
715.469	33807.46
715.812	33675.94
716.156	33588.48
716.499	33464.19
716.843	33441.59
717.186	33287.7
717.53	33503.96
717.873	33442.95
718.216	33363.18
718.559	33168.15
718.902	32982.4
719.246	33114.14
719.589	32899.23
719.932	32918.44
720.275	32812.46
720.617	32949.4
720.96	32811.55
721.303	32889.52
721.646	32778.11
721.989	32490.66
722.331	32606.59
722.674	32548.96
723.016	32590.77
723.359	32462.41
723.701	32527.27
724.044	32310.55
724.386	32235.07
724.729	32379.25
725.071	32184.68
725.413	32183.77
725.755	32008.86
726.097	32048.63
726.439	31857.45
726.782	31838.47
727.124	31948.3
727.465	31759.15
727.807	31776.33
728.149	31823.1
728.491	31580.17
728.833	31741.07
729.175	31526.61
729.516	31551.02
729.858	31353.96
730.199	31480.06
730.541	31441.87
730.882	31337.24
731.224	31499.04
731.565	31226.96
731.906	31304.25
732.248	31244.36
732.589	31164.82
732.93	30904.94
733.271	30960.53
733.612	31019.06
733.953	31047.08
734.294	30954.88
734.635	30896.57
734.976	30827.65
735.317	30693.42
735.658	30785.84
735.999	30849.57
736.339	30679.18
736.68	30816.58
737.021	30598.5
737.361	30449.35
737.702	30611.84
738.042	30458.39
738.383	30515.57
738.723	30450.48
739.063	30417.72
739.404	30446.42
739.744	30270.38
740.084	30182.7
740.424	30300.66
740.764	30098.4
741.104	30311.51
741.444	30019.99
741.784	29981.12
742.124	29961.46
742.464	30123.49
742.804	29973.44
743.143	29847.56
743.483	29818.41
743.823	29760.56
744.162	29737.74
744.502	29769.15
744.841	29709.04
745.181	29720.11
745.52	29565.08
745.86	29776.38
746.199	29666.32
746.538	29460.23
746.877	29445.31
747.216	29466.33
747.556	29549.27
747.895	29507.46
748.234	29371.42
748.573	29283.51
748.911	29237.86
749.25	29301.36
749.589	29133.68
749.928	29288.93
750.267	29212.55
750.605	29108.15
750.944	29012.78
751.283	29004.65
751.621	29000.13
751.96	28945.89
752.298	28989.73
752.636	28828.83
752.975	28704.77
753.313	28623.64
753.651	28641.27
753.989	28635.39
754.327	28544.32
754.666	28406.47
755.004	28463.64
755.342	28442.63
755.679	28384.55
756.017	28362.4
756.355	28269.98
756.693	28032.47
757.031	28231.11
757.368	28074.5
757.706	28001.96
758.044	28005.13
758.381	27959.25
758.719	27858.46
759.056	27874.28
759.394	27803.77
759.731	27515.87
760.068	27542.54
760.405	27420.73
760.743	27356.33
761.08	27374.41
761.417	27314.52
761.754	27190.68
762.091	27282.88
762.428	27118.14
762.765	26954.08
763.102	27104.81
763.438	26854.65
763.775	26815.33
764.112	26849.68
764.449	26894.19
764.785	26671.83
765.122	26552.51
765.458	26430.7
765.795	26395.9
766.131	26282.68
766.467	26201.78
766.804	26160.43
767.14	25955.69
767.476	25902.81
767.812	25898.06
768.148	25910.49
768.485	25691.74
768.821	25626.2
769.157	25563.61
769.492	25534.68
769.828	25502.59
770.164	25272.99
770.5	25243.39
770.836	25256.5
771.171	25021.47
771.507	24894.25
771.842	24851.76
772.178	24838.65
772.513	24797.98
772.849	24642.95
773.184	24504.65
773.519	24516.18
773.855	24418.78
774.19	24353.02
774.525	24259.69
774.86	24201.84
775.195	24114.61
775.53	23958.9
775.865	23808.85
776.2	23704.67
776.535	23601.17
776.87	23568.63
777.205	23461.52
777.539	23412.48
777.874	23454.28
778.209	23236.89
778.543	23220.62
778.878	23039.83
779.212	23066.05
779.547	22896.11
779.881	22950.57
780.215	22769.33
780.55	22885.03
780.884	22684.14
781.218	22716
781.552	22657.92
781.886	22624.93
782.22	22358.04
782.554	22307.2
782.888	22143.13
783.222	22036.02
783.556	21897.04
783.889	21892.74
784.223	21779.3
784.557	21707.21
784.89	21655.91
785.224	21634.45
785.557	21424.28
785.891	21438.52
786.224	21480.78
786.558	21364.17
786.891	21257.05
787.224	21124.4
787.557	21049.83
787.891	21002.37
788.224	20958.53
788.557	20984.52
788.89	20986.1
789.223	20790.17
789.556	20702.04
789.888	20599.44
790.221	20504.08
790.554	20403.52
790.887	20396.74
791.219	20279.45
791.552	20253.24
791.884	20215.27
792.217	20114.94
792.549	20099.8
792.882	19888.95
793.214	19859.12
793.546	19811.22
793.879	19857.32
794.211	19648.73
794.543	19607.15
794.875	19574.61
795.207	19636.08
795.539	19454.16
795.871	19499.13
796.203	19252.59
796.535	19160.16
796.867	19186.6
797.198	19102.76
797.53	19161.74
797.862	19031.8
798.193	18954.06
798.525	18873.39
798.856	18960.39
799.188	18710
799.519	18657.8
799.85	18441.99
800.182	18571.02
800.513	18563.79
800.844	18438.82
801.175	18510.01
801.506	18466.39
801.837	18303.69
802.168	18143.69
802.499	18176.01
802.83	18171.26
803.161	18099.62
803.491	18035.22
803.822	18109.34
804.153	17997.7
804.483	17722.91
804.814	17773.98
805.145	17759.52
805.475	17717.71
805.805	17593.42
806.136	17623.7
806.466	17694.21
806.796	17532.86
807.126	17417.61
807.457	17363.6
807.787	17385.97
808.117	17352.07
808.447	17243.15
808.777	17289.47
809.107	17192.53
809.436	17072.08
809.766	17103.72
810.096	17014.91
810.426	16967.22
810.755	16953.66
811.085	16889.26
811.414	16864.63
811.744	16713.9
812.073	16718.87
812.403	16661.47
812.732	16695.59
813.061	16589.38
813.39	16489.5
813.719	16513.22
814.049	16569.72
814.378	16534.47
814.707	16374.7
815.036	16424.19
815.365	16374.92
815.693	16240.01
816.022	16178.09
816.351	16142.61
816.68	16019
817.008	16119.56
817.337	16007.47
817.665	15897.19
817.994	15993.01
818.322	15973.13
818.651	15822.62
818.979	15791.21
819.307	15904.43
819.636	15802.96
819.964	15703.08
820.292	15733.36
820.62	15800.7
820.948	15663.75
821.276	15740.59
821.604	15583.3
821.932	15632.57
822.259	15726.35
822.587	15714.15
822.915	15601.61
823.243	15657.43
823.57	15663.08
823.898	15574.04
824.225	15557.99
824.553	15607.94
824.88	15609.97
825.207	15567.26
825.535	15587.6
825.862	15623.3
826.189	15552.12
826.516	15603.42
826.843	15600.93
827.17	15613.36
827.497	15559.8
827.824	15577.66
828.151	15657.65
828.478	15543.76
828.805	15639.12
829.131	15502.63
829.458	15621.72
829.785	15480.26
830.111	15559.35
830.438	15542.18
830.764	15505.79
831.09	15618.78
831.417	15489.52
831.743	15546.47
832.069	15506.47
832.395	15413.37
832.722	15509.41
833.048	15343.76
833.374	15434.16
833.7	15334.5
834.026	15371.33
834.351	15429.64
834.677	15283.65
835.003	15466.7
835.329	15307.83
835.654	15227.16
835.98	15220.15
836.306	15245.46
836.631	15217.21
836.956	15258.79
837.282	15232.58
837.607	15151.45
837.932	15100.15
838.258	15111.9
838.583	15169.76
838.908	14991.46
839.233	15029.65
839.558	14998.46
839.883	14979.7
840.208	14992.81
840.533	14885.24
840.858	14924.11
841.182	14926.37
841.507	14887.5
841.832	14775.19
842.156	14820.61
842.481	14747.62
842.805	14648.87
843.13	14666.72
843.454	14689.54
843.778	14636.66
844.103	14556.89
844.427	14502.66
844.751	14526.61
845.075	14490.23
845.399	14472.15
845.723	14404.13
846.047	14324.58
846.371	14298.59
846.695	14209.1
847.019	14202.32
847.343	14030.35
847.666	14074.64
847.99	14009.79
848.313	13955.55
848.637	13861.54
848.96	13861.32
849.284	13787.87
849.607	13752.84
849.931	13650.7
850.254	13659.29
850.577	13530.03
850.9	13498.61
851.223	13475.56
851.546	13415.23
851.869	13276.47
852.192	13414.77
852.515	13255.23
852.838	13137.04
853.161	13224.95
853.483	13125.74
853.806	12984.05
854.129	13030.6
854.451	12990.38
854.774	12914
855.096	12885.75
855.419	12861.57
855.741	12833.09
856.063	12706.09
856.385	12696.83
856.708	12689.37
857.03	12602.82
857.352	12599.88
857.674	12548.58
857.996	12520.33
858.318	12429.49
858.64	12454.12
858.961	12420.9
859.283	12372.99
859.605	12253
859.926	12340.45
860.248	12301.81
860.57	12224.3
860.891	12251.87
861.212	12134.13
861.534	12101.36
861.855	12109.72
862.176	12175.03
862.498	12113.34
862.819	12100.68
863.14	11973
863.461	12020.46
863.782	11937.98
864.103	11958.54
864.424	11935.49
864.745	11917.86
865.065	11866.79
865.386	11808.71
865.707	11870.18
866.027	11838.09
866.348	11798.77
866.668	11849.39
866.989	11744.54
867.309	11655.72
867.63	11767.81
867.95	11666.35
868.27	11605.33
868.59	11665.44
868.91	11606.01
869.23	11606.91
869.55	11565.33
869.87	11601.26
870.19	11458.44
870.51	11610.08
870.83	11532.11
871.15	11514.03
871.469	11471.55
871.789	11458.22
872.109	11439.91
872.428	11396.3
872.748	11354.72
873.067	11412.12
873.386	11389.29
873.706	11330.08
874.025	11271.78
874.344	11253.02
874.663	11284.21
874.982	11232.91
875.301	11244.89
875.62	11238.56
875.939	11166.7
876.258	11243.08
876.577	11077.21
876.896	11119.24
877.214	11104.78
877.533	11161.95
877.852	11062.07
878.17	11041.73
878.489	11055.97
878.807	10990.88
879.125	11035.4
879.444	11072.24
879.762	10927.83
880.08	10996.31
880.398	10868.4
880.716	10975.06
881.034	10895.52
881.352	10910.89
881.67	10841.73
881.988	10912.47
882.306	10826.14
882.624	10760.61
882.941	10676.32
883.259	10715.86
883.577	10682.87
883.894	10640.38
884.212	10607.39
884.529	10633.83
884.846	10552.02
885.164	10611.23
885.481	10657.78
885.798	10588.18
886.115	10447.85
886.432	10505.25
886.75	10386.61
887.067	10419.6
887.383	10393.16
887.7	10482.87
888.017	10371.46
888.334	10267.06
888.651	10320.84
888.967	10312.94
889.284	10268.19
889.6	10181.41
889.917	10181.87
890.233	10205.59
890.55	10125.6
890.866	10141.19
891.182	10103.9
891.498	10067.97
891.815	9979.84
892.131	9989.33
892.447	9947.52
892.763	9874.3
893.079	9884.92
893.395	9911.59
893.71	9859.84
894.026	9813.97
894.342	9810.12
894.657	9753.63
894.973	9717.7
895.289	9725.15
895.604	9651.71
895.92	9551.37
896.235	9574.88
896.55	9569
896.865	9592.28
897.181	9520.64
897.496	9484.48
897.811	9430.47
898.126	9420.53
898.441	9429.34
898.756	9420.08
899.071	9330.36
899.386	9287.43
899.7	9213.75
900.015	9183.7
900.33	9154.55
900.644	9133.08
900.959	9139.86
901.273	9100.76
901.588	9132.63
901.902	8986.64
902.216	8967.66
902.531	8991.39
902.845	8959.07
903.159	8901.45
903.473	8861
903.787	8794.33
904.101	8796.82
904.415	8842.47
904.729	8757.95
905.042	8639.31
905.356	8676.14
905.67	8658.06
905.984	8637.95
906.297	8604.28
906.611	8607.22
906.924	8522.25
907.237	8510.72
907.551	8477.05
907.864	8421.23
908.177	8366.55
908.491	8413.55
908.804	8331.74
909.117	8262.37
909.43	8230.73
909.743	8221.01
910.056	8200
910.368	8172.43
910.681	8127.68
910.994	8067.12
911.307	8060.11
911.619	7959.55
911.932	7903.51
912.244	7906.9
912.557	7901.92
912.869	7917.29
913.181	7849.5
913.494	7914.81
913.806	7769.95
914.118	7782.15
914.43	7736.96
914.742	7703.74
915.054	7619.9
915.366	7616.96
915.678	7668.71
915.99	7545.1
916.302	7512.56
916.613	7473.46
916.925	7482.05
917.236	7433.69
917.548	7391.43
917.859	7413.8
918.171	7333.58
918.482	7297.65
918.794	7253.35
919.105	7278.66
919.416	7203.41
919.727	7193.47
920.038	7161.61
920.349	7160.93
920.66	7046.35
920.971	7074.83
921.282	7071.89
921.593	7014.49
921.903	6950.54
922.214	6922.29
922.525	6906.02
922.835	6889.75
923.146	6832.12
923.456	6801.39
923.767	6763.2
924.077	6762.29
924.387	6744.22
924.697	6699.7
925.008	6698.11
925.318	6650.21
925.628	6613.37
925.938	6609.53
926.248	6546.71
926.558	6510.55
926.867	6531.11
927.177	6455.64
927.487	6422.87
927.796	6398.69
928.106	6375.19
928.416	6335.19
928.725	6426.26
929.034	6282.08
929.344	6334.96
929.653	6287.28
929.962	6217.68
930.271	6190.11
930.581	6214.74
930.89	6170.67
931.199	6134.97
931.508	6073.95
931.817	6127.06
932.125	6044.8
932.434	6104.46
932.743	6035.31
933.051	5986.95
933.36	5950.11
933.669	5897.68
933.977	5928.42
934.286	5930.9
934.594	5948.98
934.902	5842.77
935.21	5753.73
935.519	5818.36
935.827	5790.34
936.135	5776.11
936.443	5690.23
936.751	5692.94
937.059	5665.37
937.367	5625.15
937.674	5598.71
937.982	5582.89
938.29	5582.21
938.597	5561.42
938.905	5535.21
939.213	5454.76
939.52	5426.06
939.827	5491.14
940.135	5429.45
940.442	5392.84
940.749	5430.35
941.056	5355.33
941.363	5304.25
941.67	5264.48
941.977	5259.73
942.284	5253.41
942.591	5170.7
942.898	5193.07
943.205	5198.49
943.511	5131.6
943.818	5197.36
944.125	5136.35
944.431	5073.3
944.738	5125.27
945.044	5086.18
945.35	5032.62
945.657	4997.82
945.963	4956.01
946.269	5004.6
946.575	4980.19
946.881	4891.83
947.187	4920.99
947.493	4886.64
947.799	4876.02
948.105	4826.3
948.41	4858.39
948.716	4800.76
949.022	4734.32
949.327	4807.09
949.633	4759.18
949.938	4716.25
950.244	4706.75
950.549	4665.17
950.854	4671.05
951.16	4566.87
951.465	4592.41
951.77	4623.37
952.075	4539.3
952.38	4510.83
952.685	4556.93
952.99	4499.08
953.294	4508.12
953.599	4462.47
953.904	4434.45
954.209	4423.15
954.513	4428.12
954.818	4369.59
955.122	4383.15
955.426	4357.39
955.731	4306.77
956.035	4290.04
956.339	4293.88
956.643	4313.32
956.948	4252.76
957.252	4256.37
957.556	4215.69
957.86	4199.2
958.163	4191.29
958.467	4168.46
958.771	4138.41
959.075	4147.67
959.378	4069.26
959.682	4113.1
959.985	4066.09
960.289	4027.68
960.592	4020.9
960.896	4002.82
961.199	3991.07
961.502	3978.64
961.805	3991.75
962.108	3943.39
962.411	3917.4
962.714	3916.04
963.017	3908.58
963.32	3903.61
963.623	3838.98
963.926	3826.1
964.228	3793.56
964.531	3829.49
964.833	3828.36
965.136	3793.33
965.438	3777.51
965.741	3749.04
966.043	3730.96
966.345	3737.97
966.648	3724.63
966.95	3733.9
967.252	3668.82
967.554	3657.06
967.856	3629.95
968.158	3586.33
968.46	3625.65
968.761	3612.09
969.063	3578.2
969.365	3553.79
969.666	3540.46
969.968	3526.22
970.269	3510.4
970.571	3503.17
970.872	3458.43
971.174	3495.71
971.475	3441.48
971.776	3451.19
972.077	3402.16
972.378	3392.44
972.679	3401.7
972.98	3358.54
973.281	3384.08
973.582	3373.46
973.883	3359.67
974.183	3311.99
974.484	3302.72
974.785	3266.79
975.085	3316.51
975.386	3271.76
975.686	3255.72
975.986	3253.46
976.287	3222.5
976.587	3226.34
976.887	3226.79
977.187	3158.32
977.487	3154.93
977.787	3164.2
978.087	3148.38
978.387	3121.49
978.687	3111.54
978.987	3102.73
979.286	3121.26
979.586	3062.05
979.885	3075.16
980.185	3053.92
980.484	3016.86
980.784	3000.13
981.083	3010.53
981.382	2998.33
981.682	2991.77
981.981	2967.14
982.28	2925.11
982.579	2960.36
982.878	2924.43
983.177	2854.83
983.475	2883.75
983.774	2881.94
984.073	2863.41
984.372	2860.48
984.67	2840.82
984.969	2858.44
985.267	2831.1
985.566	2804.21
985.864	2768.73
986.162	2766.01
986.461	2767.6
986.759	2785.68
987.057	2709.29
987.355	2723.76
987.653	2697.99
987.951	2711.55
988.249	2700.03
988.547	2646.92
988.844	2664.55
989.142	2670.2
989.44	2628.17
989.737	2629.07
990.035	2610.99
990.332	2618.45
990.63	2603.99
990.927	2592.46
991.224	2552.01
991.521	2530.31
991.819	2553.37
992.116	2533.03
992.413	2536.87
992.71	2502.29
993.006	2514.04
993.303	2474.5
993.6	2501.62
993.897	2430.88
994.193	2430.88
994.49	2440.37
994.787	2427.04
995.083	2440.83
995.379	2394.73
995.676	2425.46
995.972	2371.9
996.268	2371.45
996.565	2373.03
996.861	2376.42
997.157	2348.85
997.453	2335.07
997.749	2311.11
998.044	2270.43
998.34	2310.89
998.636	2295.29
998.932	2265.24
999.227	2248.29
999.523	2253.71
999.818	2242.41
1000.114	2254.84
1000.409	2211.68
1000.704	2211.91
1001	2203.32
1001.295	2192.02
1001.59	2198.57
1001.885	2166.03
1002.18	2141.85
1002.475	2153.15
1002.77	2130.55
1003.065	2119.93
1003.359	2101.85
1003.654	2097.78
1003.949	2093.26
1004.243	2075.41
1004.538	2078.12
1004.832	2039.25
1005.127	2020.5
1005.421	1999.03
1005.715	2003.1
1006.009	1996.54
1006.304	1975.08
1006.598	1982.76
1006.892	1942.76
1007.186	1925.81
1007.48	1926.49
1007.773	1916.77
1008.067	1942.99
1008.361	1888.3
1008.655	1916.55
1008.948	1878.35
1009.242	1891.46
1009.535	1854.4
1009.829	1843.55
1010.122	1811.46
1010.415	1854.63
1010.708	1817.79
1011.001	1797
1011.295	1801.07
1011.588	1799.71
1011.881	1815.76
1012.173	1754.74
1012.466	1770.56
1012.759	1755.19
1013.052	1745.7
1013.344	1721.3
1013.637	1712.71
1013.93	1701.18
1014.222	1701.64
1014.514	1692.82
1014.807	1679.49
1015.099	1667.29
1015.391	1668.42
1015.683	1680.17
1015.976	1651.47
1016.268	1616.44
1016.56	1629.55
1016.851	1613.95
1017.143	1592.03
1017.435	1586.16
1017.727	1587.29
1018.018	1587.51
1018.31	1572.83
1018.602	1539.83
1018.893	1548.87
1019.185	1565.82
1019.476	1497.57
1019.767	1506.16
1020.058	1505.26
1020.35	1502.32
1020.641	1498.25
1020.932	1482.21
1021.223	1443.79
1021.514	1474.52
1021.804	1444.24
1022.095	1470.23
1022.386	1403.56
1022.677	1397.69
1022.967	1404.02
1023.258	1395.43
1023.548	1418.93
1023.839	1392.72
1024.129	1384.13
1024.419	1351.14
1024.709	1363.11
1025	1358.37
1025.29	1343.68
1025.58	1348.65
1025.87	1336.45
1026.16	1309.33
1026.449	1284.25
1026.739	1293.96
1027.029	1278.14
1027.319	1293.74
1027.608	1280.4
1027.898	1277.69
1028.187	1247.18
1028.477	1230.69
1028.766	1245.83
1029.055	1258.03
1029.344	1218.03
1029.634	1231.37
1029.923	1202.44
1030.212	1194.76
1030.501	1173.97
1030.79	1173.97
1031.078	1171.03
1031.367	1180.29
1031.656	1156.11
1031.945	1150.46
1032.233	1143.01
1032.522	1135.1
1032.81	1146.17
1033.099	1146.85
1033.387	1105.72
1033.675	1104.82
1033.963	1095.78
1034.251	1095.78
1034.54	1093.97
1034.828	1067.3
1035.116	1064.36
1035.403	1079.96
1035.691	1075.89
1035.979	1044.7
1036.267	1019.85
1036.554	1018.72
1036.842	1015.33
1037.129	1012.16
1037.417	1027.76
1037.704	1009.9
1037.992	1013.29
1038.279	984.37
1038.566	966.74
1038.853	966.74
1039.14	966.74
