Data from hue_40_FLMS001491_38.txt Node
Date: Mon Feb 06 15:07:49 GMT 2017
User: dcchb
Spectrometer: FLMS00149
Trigger mode: 0
Integration Time (sec): 2.000000E-2
Scans to average: 10
Electric dark correction enabled: true
Nonlinearity correction enabled: false
Boxcar width: 0
XAxis mode: Wavelengths
Number of Pixels in Spectrum: 2048
>>>>>Begin Spectral Data<<<<<
341.393	-16.71
341.776	-16.71
342.16	-16.71
342.543	-72.3
342.927	-72.3
343.31	-65.07
343.693	-73.2
344.077	-77.72
344.46	-47.89
344.843	-59.65
345.226	-38.85
345.61	-43.6
345.993	-28.01
346.376	-15.13
346.759	19.9
347.142	31.65
347.525	59
347.908	50.86
348.291	72.78
348.674	96.51
349.057	118.43
349.44	136.28
349.823	151.42
350.206	160.91
350.588	196.39
350.971	209.05
351.354	236.84
351.737	237.97
352.119	251.08
352.502	246.56
352.884	253.79
353.267	279.1
353.65	274.58
354.032	302.83
354.414	295.83
354.797	305.09
355.179	326.33
355.562	330.63
355.944	313.9
356.326	329.05
356.709	327.92
357.091	334.69
357.473	363.39
357.855	334.47
358.238	334.92
358.62	345.09
359.002	337.86
359.384	337.63
359.766	337.41
360.148	350.97
360.53	342.38
360.912	320.91
361.294	336.5
361.676	318.42
362.057	331.53
362.439	329.05
362.821	318.42
363.203	320.91
363.584	332.89
363.966	308.93
364.348	320.91
364.729	350.97
365.111	308.03
365.493	319.78
365.874	313.45
366.256	325.43
366.637	329.95
367.019	311.87
367.4	297.41
367.781	310.29
368.163	300.8
368.544	317.97
368.925	311.87
369.306	313.68
369.688	323.85
370.069	299.89
370.45	340.8
370.831	318.65
371.212	322.04
371.593	325.43
371.974	281.59
372.355	307.58
372.736	298.54
373.117	320.68
373.498	308.93
373.879	303.73
374.26	334.24
374.641	310.06
375.021	320.46
375.402	324.98
375.783	320.68
376.163	310.97
376.544	312.32
376.925	334.92
377.305	335.82
377.686	313.68
378.066	306.67
378.447	325.43
378.827	324.3
379.208	336.28
379.588	331.98
379.968	330.17
380.349	336.95
380.729	355.49
381.109	340.8
381.489	332.66
381.87	324.3
382.25	334.02
382.63	341.02
383.01	335.37
383.39	340.12
383.77	324.98
384.15	336.73
384.53	360
384.91	340.57
385.29	346.22
385.67	355.94
386.049	331.98
386.429	345.77
386.809	334.24
387.189	332.66
387.568	347.58
387.948	336.28
388.328	366.33
388.707	361.13
389.087	347.8
389.466	358.87
389.846	350.74
390.225	361.36
390.605	355.94
390.984	348.93
391.363	358.42
391.743	379.67
392.122	353
392.501	359.1
392.881	368.59
393.26	349.38
393.639	351.87
394.018	358.65
394.397	362.26
394.776	364.07
395.155	383.51
395.534	366.11
395.913	368.14
396.292	385.09
396.671	348.93
397.05	385.77
397.429	379.67
397.808	401.36
398.186	379.44
398.565	374.47
398.944	376.95
399.323	356.39
399.701	368.37
400.08	367.01
400.458	394.35
400.837	376.05
401.215	375.6
401.594	381.7
401.972	388.48
402.351	382.15
402.729	375.15
403.107	396.16
403.486	398.87
403.864	406.33
404.242	382.15
404.62	410.85
404.999	391.19
405.377	413.79
405.755	411.08
406.133	399.33
406.511	410.62
406.889	406.78
407.267	421.47
407.645	409.72
408.023	416.27
408.401	417.4
408.779	428.25
409.156	398.87
409.534	418.76
409.912	411.98
410.29	430.74
410.667	417.63
411.045	451.98
411.422	432.77
411.8	441.81
412.178	425.09
412.555	439.55
412.933	459.66
413.31	441.13
413.687	455.82
414.065	454.24
414.442	463.05
414.819	463.96
415.197	458.31
415.574	471.64
415.951	487.01
416.328	443.62
416.705	442.71
417.082	454.92
417.46	460.57
417.837	460.34
418.214	481.13
418.591	482.26
418.967	477.74
419.344	507.12
419.721	482.26
420.098	473.67
420.475	486.78
420.852	485.2
421.228	504.86
421.605	485.43
421.982	475.26
422.358	494.24
422.735	522.49
423.111	521.81
423.488	513.67
423.864	509.61
424.241	510.06
424.617	523.39
424.994	502.37
425.37	540.79
425.746	528.81
426.123	530.4
426.499	563.84
426.875	544.86
427.251	546.44
427.627	552.77
428.003	537.18
428.379	554.8
428.756	530.85
429.132	550.51
429.507	549.38
429.883	555.71
430.259	570.17
430.635	572.65
431.011	585.08
431.387	590.06
431.763	601.81
432.138	585.31
432.514	609.94
432.89	594.8
433.265	596.38
433.641	622.14
434.016	629.83
434.392	594.57
434.767	607.68
435.143	605.65
435.518	614.69
435.894	622.82
436.269	642.94
436.644	657.17
437.02	637.74
437.395	641.81
437.77	630.28
438.145	680.45
438.52	656.27
438.895	672.99
439.271	645.19
439.646	668.7
440.021	684.29
440.395	692.43
440.77	666.89
441.145	683.39
441.52	697.85
441.895	694.01
442.27	708.7
442.645	692.65
443.019	703.05
443.394	717.74
443.769	700.56
444.143	696.04
444.518	690.62
444.892	715.7
445.267	741.46
445.641	724.97
446.016	727.23
446.39	751.63
446.764	711.18
447.139	736.27
447.513	762.71
447.887	750.28
448.262	764.51
448.636	733.55
449.01	766.77
449.384	759.54
449.758	736.49
450.132	762.71
450.506	772.65
450.88	764.74
451.254	768.58
451.628	785.76
452.002	794.57
452.376	787.79
452.75	799.77
453.123	796.38
453.497	813.1
453.871	833.21
454.244	834.79
454.618	854.23
454.992	840.22
455.365	848.58
455.739	862.36
456.112	855.58
456.486	885.41
456.859	889.93
457.232	884.51
457.606	884.28
457.979	915.7
458.352	921.35
458.725	941.23
459.099	939.65
459.472	927.22
459.845	955.7
460.218	948.01
460.591	980.33
460.964	985.52
461.337	1008.12
461.71	968.8
462.083	994.56
462.456	1009.03
462.829	1034.34
463.201	1049.48
463.574	1050.38
463.947	1051.96
464.32	1035.69
464.692	1118.63
465.065	1077.73
465.438	1122.92
465.81	1112.3
466.183	1138.29
466.555	1162.02
466.928	1144.16
467.3	1151.85
467.672	1195.24
468.045	1206.99
468.417	1231.62
468.789	1226.2
469.161	1263.94
469.534	1277.95
469.906	1283.6
470.278	1314.1
470.65	1338.96
471.022	1349.36
471.394	1368.57
471.766	1411.95
472.138	1430.26
472.51	1471.16
472.882	1494.44
473.253	1480.43
473.625	1517.49
473.997	1572.18
474.369	1602.91
474.74	1612.18
475.112	1664.6
475.484	1668.44
475.855	1698.5
476.227	1712.29
476.598	1789.8
476.97	1851.26
477.341	1869.12
477.713	1929.91
478.084	1938.72
478.455	1998.38
478.827	2044.03
479.198	2115.66
479.569	2160.41
479.94	2220.07
480.311	2275.43
480.682	2335.55
481.053	2436.56
481.424	2477.01
481.795	2517.01
482.166	2569.66
482.537	2668.64
482.908	2724.46
483.279	2810.34
483.65	2872.03
484.021	2906.38
484.391	3014.17
484.762	3099.59
485.133	3100.72
485.503	3187.95
485.874	3294.16
486.244	3369.87
486.615	3496.65
486.985	3537.1
487.356	3648.73
487.726	3708.84
488.097	3801.95
488.467	3895.96
488.837	4010.76
489.207	4068.83
489.578	4207.59
489.948	4292.33
490.318	4364.65
490.688	4496.39
491.058	4581.36
491.428	4646.22
491.798	4725.54
492.168	4829.72
492.538	4960.11
492.908	5018.64
493.278	5147.68
493.648	5220.22
494.017	5342.7
494.387	5406.43
494.757	5486.2
495.126	5586.76
495.496	5706.3
495.866	5735.46
496.235	5878.5
496.605	5963.02
496.974	6019.97
497.344	6102.45
497.713	6193.75
498.082	6299.28
498.452	6443.69
498.821	6478.71
499.19	6565.72
499.559	6699.27
499.928	6727.75
500.298	6810.68
500.667	6923.67
501.036	6935.42
501.405	7066.04
501.774	7049.32
502.143	7230.78
502.512	7215.64
502.88	7302.42
503.249	7399.82
503.618	7478.24
503.987	7534.28
504.356	7583.09
504.724	7671
505.093	7784.22
505.462	7821.73
505.83	7893.14
506.199	8014.49
506.567	8122.51
506.936	8149.4
507.304	8258.33
507.672	8322.06
508.041	8394.6
508.409	8478.21
508.777	8521.82
509.145	8609.05
509.514	8671.2
509.882	8740.8
510.25	8742.84
510.618	8887.24
510.986	8830.74
511.354	8991.19
511.722	9051.3
512.09	9172.43
512.458	9213.78
512.826	9273.44
513.193	9303.05
513.561	9350.95
513.929	9436.15
514.297	9500.33
514.664	9556.82
515.032	9609.93
515.4	9707.33
515.767	9726.31
516.135	9800.89
516.502	9804.05
516.869	9954.33
517.237	10025.06
517.604	10062.8
517.972	10063.48
518.339	10189.8
518.706	10217.82
519.073	10256.69
519.44	10334.66
519.808	10418.5
520.175	10449.68
520.542	10566.52
520.909	10606.29
521.276	10722.67
521.643	10722.9
522.009	10827.53
522.376	10853.06
522.743	10967.41
523.11	10985.04
523.477	11146.61
523.843	11123.11
524.21	11254.41
524.577	11334.18
524.943	11383.22
525.31	11507.73
525.676	11629.99
526.043	11632.7
526.409	11726.26
526.776	11804.22
527.142	11860.04
527.508	11974.39
527.874	12017.1
528.241	12036.08
528.607	12207.38
528.973	12232.01
529.339	12324.44
529.705	12358.79
530.071	12424.55
530.437	12424.09
530.803	12569.4
531.169	12613.92
531.535	12688.04
531.901	12716.52
532.267	12754.71
532.632	12865.44
532.998	12873.35
533.364	13008.49
533.73	13009.84
534.095	13135.26
534.461	13196.05
534.826	13288.7
535.192	13250.97
535.557	13395.59
535.923	13415.93
536.288	13450.06
536.653	13504.29
537.019	13535.93
537.384	13600.79
537.749	13622.48
538.114	13751.29
538.479	13756.04
538.845	13827.67
539.21	13764.4
539.575	13927.56
539.94	13922.36
540.305	13953.55
540.67	14042.58
541.034	14149.02
541.399	14146.53
541.764	14201.67
542.129	14315.57
542.494	14335.68
542.858	14422.91
543.223	14360.99
543.587	14460.65
543.952	14496.36
544.316	14444.83
544.681	14538.39
545.045	14667.2
545.41	14772.06
545.774	14746.29
546.138	14758.95
546.503	14884.59
546.867	14889.34
547.231	15038.04
547.595	15051.37
547.959	15080.75
548.324	15085.27
548.688	15127.75
549.052	15178.37
549.416	15234.64
549.779	15285.71
550.143	15404.35
550.507	15391.7
550.871	15468.53
551.235	15535.88
551.599	15607.74
551.962	15695.87
552.326	15654.29
552.689	15789.66
553.053	15739.49
553.417	15790.56
553.78	15960.05
554.143	15847.51
554.507	15977.67
554.87	16029.88
555.234	16205.24
555.597	16069.42
555.96	16161.85
556.323	16251.34
556.686	16398
557.05	16455.4
557.413	16546.47
557.776	16488.62
558.139	16656.98
558.502	16648.62
558.865	16680.71
559.228	16802.96
559.59	16886.12
559.953	16839.12
560.316	17048.38
560.679	17037.31
561.041	17137.64
561.404	17178.32
561.767	17274.81
562.129	17369.27
562.492	17526.11
562.854	17471.19
563.217	17486.56
563.579	17563.17
563.941	17738.08
564.304	17757.06
564.666	17809.04
565.028	17790.73
565.39	17950.05
565.753	18029.82
566.115	18119.54
566.477	18169.25
566.839	18222.59
567.201	18361.34
567.563	18352.07
567.925	18469.58
568.287	18454.9
568.648	18507.1
569.01	18577.15
569.372	18691.5
569.734	18688.79
570.095	18840.65
570.457	18849.24
570.819	18959.06
571.18	18950.93
571.542	19140.08
571.903	19118.61
572.265	19149.79
572.626	19327.19
572.987	19314.76
573.349	19397.7
573.71	19488.32
574.071	19537.58
574.432	19659.84
574.794	19806.05
575.155	19860.06
575.516	19897.34
575.877	19975.99
576.238	20150.22
576.599	20194.96
576.96	20246.94
577.32	20414.84
577.681	20488.74
578.042	20701.16
578.403	20795.63
578.763	20731.45
579.124	20970.08
579.485	21120.81
579.845	21221.83
580.206	21271.09
580.566	21385.44
580.927	21464.99
581.287	21712.89
581.648	21714.25
582.008	21974.35
582.368	22016.84
582.728	22307.9
583.089	22386.77
583.449	22480.78
583.809	22624.73
584.169	22867.44
584.529	22897.04
584.889	23189.46
585.249	23164.6
585.609	23350.13
585.969	23639.39
586.329	23698.37
586.688	23922.32
587.048	24026.73
587.408	24096.1
587.768	24399.6
588.127	24527.96
588.487	24640.27
588.846	24963.65
589.206	24902.41
589.565	25146.47
589.925	25500.59
590.284	25557.31
590.643	25792.78
591.003	26107.8
591.362	26272.77
591.721	26252.66
592.08	26526.77
592.44	26751.63
592.799	26880.21
593.158	26991.39
593.517	27278.84
593.876	27433.87
594.235	27562
594.593	27720.19
594.952	27943.46
595.311	28195.2
595.67	28279.72
596.029	28442.43
596.387	28914.73
596.746	29063.88
597.104	29117.89
597.463	29153.37
597.822	29545.68
598.18	29327.38
598.538	29449.41
598.897	30028.6
599.255	29842.62
599.613	30405.54
599.972	30343.4
600.33	30707.91
600.688	30538.87
601.046	30723.95
601.404	30943.38
601.762	31015.02
602.12	31401.22
602.478	31402.58
602.836	31531.39
603.194	31683.47
603.552	31772.51
603.91	31809.57
604.268	32062.22
604.625	32146.74
604.983	32409.11
605.341	32335.21
605.698	32649.78
606.056	32692.04
606.413	32786.27
606.771	32916.21
607.128	33132.48
607.485	33250.67
607.843	33342.87
608.2	33492.01
608.557	33609.3
608.914	33598.9
609.272	33851.55
609.629	33994.15
609.986	34166.35
610.343	34014.71
610.7	34467.36
611.057	34476.85
611.414	34518.88
611.771	34647.24
612.127	34926.78
612.484	34886.1
612.841	35099.2
613.198	35047
613.554	34942.15
613.911	35301.91
614.267	35381
614.624	35410.61
614.98	35531.28
615.337	35797.04
615.693	35775.12
616.05	35788
616.406	36125.17
616.762	35928.56
617.118	35977.37
617.475	36106.18
617.831	36289.68
618.187	36481.54
618.543	36487.42
618.899	36661.88
619.255	36595.21
619.611	36744.58
619.967	36818.48
620.323	36841.53
620.678	36797.01
621.034	36830.46
621.39	36795.2
621.746	36849.21
622.101	37286.49
622.457	37031.36
622.812	37225.25
623.168	37198.13
623.523	37380.27
623.879	37434.28
624.234	37216.44
624.589	37490.1
624.945	37364.68
625.3	37607.84
625.655	37549.54
626.01	37623.88
626.365	37548.41
626.72	37612.13
627.075	37720.15
627.43	37756.54
627.785	37652.81
628.14	37787.27
628.495	37671.11
628.85	37829.53
629.205	37749.98
629.559	37974.16
629.914	37887.15
630.269	37854.84
630.623	37776.87
630.978	37772.58
631.332	37930.99
631.687	37981.84
632.041	37651
632.396	37864.56
632.75	37851.45
633.104	37804.9
633.459	37767.16
633.813	37738.23
634.167	37722.41
634.521	37822.3
634.875	37759.7
635.229	37780.72
635.583	37600.61
635.937	37586.82
636.291	37665.24
636.645	37663.88
636.999	37565.13
637.352	37668.18
637.706	37479.71
638.06	37578.46
638.413	37486.94
638.767	37407.84
639.121	37440.84
639.474	37277.23
639.828	37260.73
640.181	37491.23
640.534	37399.26
640.888	37274.06
641.241	37260.05
641.594	37320.61
641.947	37350.44
642.301	37253.5
642.654	37248.75
643.007	37194.74
643.36	37223.44
643.713	37303.44
644.066	37337.34
644.419	37103.9
644.771	36859.38
645.124	36469.11
645.477	36593.85
645.83	36236.8
646.182	36141.66
646.535	35999.29
646.888	36115.22
647.24	35931.5
647.593	36179.4
647.945	36083.13
648.298	35850.6
648.65	35820.99
649.002	35903.25
649.355	36052.17
649.707	35861.44
650.059	35942.57
650.411	36359.51
650.763	36363.8
651.115	36790.01
651.467	36782.55
651.819	36747.97
652.171	36725.83
652.523	36640.86
652.875	36557.02
653.227	36460.07
653.578	36833.85
653.93	36593.85
654.282	36470.02
654.633	36297.59
654.985	36380.3
655.337	36517.02
655.688	36581.43
656.039	36578.71
656.391	36279.96
656.742	36247.42
657.094	36367.65
657.445	36394.09
657.796	36481.09
658.147	36429.56
658.498	36329.45
658.849	36445.84
659.2	36327.87
659.551	36279.06
659.902	36297.14
660.253	36264.37
660.604	36359.28
660.955	36328.78
661.306	36294.88
661.656	36174.88
662.007	36277.25
662.358	36146.86
662.708	36231.83
663.059	36118.61
663.409	35852.86
663.76	36216.24
664.11	36211.94
664.461	36169.68
664.811	36210.81
665.161	36134.21
665.511	36009.24
665.862	36127.2
666.212	36120.87
666.562	36265.95
666.912	36119.97
667.262	35981.89
667.612	36147.99
667.962	36273.41
668.312	36139.63
668.662	36241.55
669.011	36046.52
669.361	36005.62
669.711	35973.53
670.06	36119.29
670.41	35938.73
670.76	35959.97
671.109	36084.94
671.459	35961.1
671.808	35967.43
672.157	35963.14
672.507	35744.84
672.856	35694.67
673.205	35871.84
673.554	35882.69
673.904	35819.19
674.253	35947.77
674.602	35955
674.951	35390.72
675.3	35152.31
675.649	35834.1
675.998	35753.42
676.346	35666.65
676.695	35811.73
677.044	35595.46
677.393	35753.42
677.741	35658.96
678.09	35629.13
678.438	35461
678.787	35596.59
679.135	35646.99
679.484	35375.36
679.832	35482.02
680.181	35360.44
680.529	35337.39
680.877	35387.33
681.225	35319.99
681.573	35448.12
681.922	35363.83
682.27	35120.22
682.618	35062.37
682.966	35097.62
683.314	35130.39
683.661	35016.04
684.009	34955.71
684.357	34790.51
684.705	34800
685.053	34659.67
685.4	34720.23
685.748	34617.41
686.095	34491.08
686.443	34447.24
686.79	34277.08
687.138	34515.72
687.485	34395.04
687.832	34267.36
688.18	34207.25
688.527	34186.69
688.874	34191.66
689.221	34044.99
689.568	33882.29
689.915	33963.64
690.262	33918.22
690.609	33797.77
690.956	33652.01
691.303	33578.79
691.65	33476.42
691.997	33603.88
692.344	33336.31
692.69	33371.57
693.037	33266.94
693.383	33071.01
693.73	33216.09
694.077	33026.26
694.423	32957.57
694.769	32771.58
695.116	32799.6
695.462	32730.45
695.808	32602.55
696.155	32673.28
696.501	32425.83
696.847	32540.85
697.193	32184.93
697.539	32384.7
697.885	32110.81
698.231	31994.88
698.577	32091.83
698.923	32011.15
699.269	31908.55
699.614	31694.1
699.96	31633.53
700.306	31629.69
700.651	31523.25
700.997	31440.77
701.342	31377.95
701.688	31309.93
702.033	31157.84
702.379	31135.47
702.724	31122.81
703.069	31132.75
703.415	30880.78
703.76	30714.23
704.105	30818.86
704.45	30762.14
704.795	30513.56
705.14	30409.84
705.485	30577.74
705.83	30255.94
706.175	30368.71
706.52	30148.83
706.865	30212.78
707.209	30169.84
707.554	30092.78
707.899	30137.3
708.243	29974.59
708.588	29878.1
708.932	29722.4
709.277	29537.54
709.621	29712.91
709.966	29496.19
710.31	29541.16
710.654	29423.87
710.998	29436.53
711.342	29368.51
711.687	29229.53
712.031	29207.38
712.375	29069.31
712.719	29124.45
713.063	29012.36
713.407	29039.93
713.75	28955.86
714.094	28966.71
714.438	28815.08
714.782	28778.69
715.125	28700.95
715.469	28668.41
715.812	28479.49
716.156	28395.88
716.499	28524.69
716.843	28438.36
717.186	28320.17
717.53	28401.53
717.873	28356.1
718.216	28287.18
718.559	28234.07
718.902	27956.57
719.246	28084.47
719.589	28091.7
719.932	27902.33
720.275	27850.58
720.617	27916.57
720.96	27806.51
721.303	27770.81
721.646	27859.39
721.989	27622.34
722.331	27626.18
722.674	27570.14
723.016	27674.31
723.359	27463.92
723.701	27553.41
724.044	27419.63
724.386	27243.37
724.729	27348.9
725.071	27238.17
725.413	27282.69
725.755	27317.04
726.097	27159.53
726.439	26979.87
726.782	27097.61
727.124	27125.4
727.465	26935.58
727.807	26876.14
728.149	26968.34
728.491	26824.85
728.833	26845.41
729.175	26775.36
729.516	26838.63
729.858	26693.32
730.199	26643.61
730.541	26678.41
730.882	26593.44
731.224	26644.51
731.565	26373.11
731.906	26447.91
732.248	26583.72
732.589	26326.55
732.93	26246.78
733.271	26321.58
733.612	26252.66
733.953	26272.09
734.294	26218.99
734.635	26160.68
734.976	26094.02
735.317	26047.01
735.658	26022.38
735.999	25945.77
736.339	26013.57
736.68	26106.67
737.021	25883.18
737.361	25852.44
737.702	26004.75
738.042	25843.4
738.383	25837.75
738.723	25689.51
739.063	25671.66
739.404	25793.01
739.744	25614.71
740.084	25530.87
740.424	25636.18
740.764	25573.8
741.104	25392.79
741.444	25485.67
741.784	25355.96
742.124	25405
742.464	25384.43
742.804	25320.48
743.143	25153.48
743.483	25222.18
743.823	25095.17
744.162	25002.29
744.502	25029.86
744.841	25051.56
745.181	25073.25
745.52	24960.04
745.86	25014.05
746.199	24932.69
746.538	24973.14
746.877	24805.92
747.216	24836.88
747.556	24746.93
747.895	24797.78
748.234	24735.18
748.573	24667.39
748.911	24587.62
749.25	24537.45
749.589	24458.35
749.928	24442.54
750.267	24508.3
750.605	24572.93
750.944	24556.43
751.283	24338.81
751.621	24331.13
751.96	24221.3
752.298	24241.18
752.636	24215.2
752.975	24082.09
753.313	24063.34
753.651	24132.94
753.989	24079.16
754.327	23895.43
754.666	23842.78
755.004	23915.32
755.342	23906.96
755.679	23796.68
756.017	23656.57
756.355	23677.36
756.693	23545.61
757.031	23688.88
757.368	23476.23
757.706	23436.69
758.044	23345.39
758.381	23373.18
758.719	23291.83
759.056	23208.22
759.394	23189.91
759.731	22987.66
760.068	23067.88
760.405	22915.8
760.743	22822.92
761.08	22986.3
761.417	22730.26
761.754	22869.02
762.091	22743.14
762.428	22633.09
762.765	22531.4
763.102	22598.52
763.438	22394.91
763.775	22353.55
764.112	22413.89
764.449	22262.48
764.785	22255.47
765.122	22080.56
765.458	21923.73
765.795	21952.21
766.131	21933
766.467	21822.72
766.804	21750.85
767.14	21646.22
767.476	21749.05
767.812	21533.46
768.148	21614.36
768.485	21289.85
768.821	21321.94
769.157	21375.5
769.492	21245.78
769.828	21245.78
770.164	20962.85
770.5	20953.36
770.836	21002.63
771.171	20745.23
771.507	20770.99
771.842	20608.96
772.178	20592.69
772.513	20711.79
772.849	20549.53
773.184	20390.66
773.519	20468.63
773.855	20391.34
774.19	20313.6
774.525	20147.28
774.86	20133.95
775.195	19997.45
775.53	20065.02
775.865	19912.94
776.2	19786.84
776.535	19726.5
776.87	19662.32
777.205	19582.78
777.539	19491.25
777.874	19576.22
778.209	19336.23
778.543	19317.47
778.878	19169.68
779.212	19270.24
779.547	19223.46
779.881	19121.09
780.215	18948.67
780.55	18944.37
780.884	18938.05
781.218	18866.18
781.552	18872.74
781.886	18618.51
782.22	18584.38
782.554	18537.38
782.888	18436.82
783.222	18298.06
783.556	18256.03
783.889	18235.24
784.223	18110.72
784.557	18031.63
784.89	18070.5
785.224	17938.53
785.557	17908.24
785.891	17859.88
786.224	17758.64
786.558	17865.08
786.891	17606.56
787.224	17530.4
787.557	17526.33
787.891	17472.1
788.224	17456.96
788.557	17317.07
788.89	17291.76
789.223	17296.96
789.556	17133.57
789.888	17133.35
790.221	17009.51
790.554	17021.04
790.887	16914.82
791.219	16735.62
791.552	16779.23
791.884	16727.26
792.217	16625.11
792.549	16660.59
792.882	16471.67
793.214	16476.64
793.546	16442.29
793.879	16357.55
794.211	16260.83
794.543	16375.4
794.875	16216.54
795.207	16343.54
795.539	16149.65
795.871	16140.38
796.203	16086.6
796.535	15942.42
796.867	15965.47
797.198	15910.1
797.53	15920.73
797.862	15710.11
798.193	15812.03
798.525	15669.88
798.856	15720.5
799.188	15519.38
799.519	15461.75
799.85	15361.42
800.182	15420.63
800.513	15357.8
800.844	15263.57
801.175	15393.96
801.506	15341.53
801.837	15181.76
802.168	15076
802.499	15097.24
802.83	15041.43
803.161	15103.35
803.491	14983.57
803.822	14881.88
804.153	14888.89
804.483	14747.65
804.814	14762.34
805.145	14709.46
805.475	14655.22
805.805	14650.7
806.136	14660.19
806.466	14636.92
806.796	14596.24
807.126	14529.35
807.457	14440.76
807.787	14454.1
808.117	14382.01
808.447	14298.62
808.777	14319.86
809.107	14291.84
809.436	14260.43
809.766	14151.05
810.096	14246.87
810.426	14058.4
810.755	14136.14
811.085	14032.41
811.414	13983.38
811.744	13878.29
812.073	13897.95
812.403	13792.87
812.732	13787.22
813.061	13833.55
813.39	13741.8
813.719	13660.67
814.049	13754.68
814.378	13699.99
814.707	13612.09
815.036	13582.48
815.365	13492.31
815.693	13446.89
816.022	13493.67
816.351	13375.48
816.68	13292.77
817.008	13342.04
817.337	13193.34
817.665	13236.95
817.994	13230.63
818.322	13215.94
818.651	13069.73
818.979	13156.73
819.307	13177.52
819.636	13107.47
819.964	13041.03
820.292	13020.69
820.62	13125.32
820.948	12987.47
821.276	12994.47
821.604	12988.6
821.932	13050.97
822.259	12989.28
822.587	12991.31
822.915	12935.27
823.243	12990.86
823.57	12919.45
823.898	12961.71
824.225	12925.78
824.553	12884.87
824.88	12952.44
825.207	12931.2
825.535	12890.75
825.862	13020.91
826.189	12910.41
826.516	12923.74
826.843	12997.64
827.17	12983.4
827.497	12998.77
827.824	12995.83
828.151	13017.52
828.478	12902.95
828.805	12958.32
829.131	12949.28
829.458	12895.04
829.785	12745.22
830.111	12926
830.438	12916.28
830.764	12946.79
831.09	12894.14
831.417	12808.04
831.743	12860.69
832.069	12843.97
832.395	12796.74
832.722	12855.04
833.048	12779.34
833.374	12805.78
833.7	12784.99
834.026	12823.63
834.351	12750.87
834.677	12820.69
835.003	12729.85
835.329	12764.88
835.654	12676.07
835.98	12707.25
836.306	12681.49
836.631	12644.65
836.956	12669.06
837.282	12708.83
837.607	12618.67
837.932	12583.86
838.258	12534.37
838.583	12525.33
838.908	12454.38
839.233	12561.72
839.558	12450.53
839.883	12439.01
840.208	12415.73
840.533	12394.04
840.858	12328.96
841.182	12391.33
841.507	12441.27
841.832	12301.39
842.156	12296.64
842.481	12230.88
842.805	12232.23
843.13	12196.53
843.454	12258.22
843.778	12150.2
844.103	12094.16
844.427	12036.76
844.751	12069.75
845.075	12021.39
845.399	12037.44
845.723	11979.36
846.047	11973.03
846.371	11830.21
846.695	11874.5
847.019	11785.69
847.343	11605.81
847.666	11651.01
847.99	11634.51
848.313	11567.39
848.637	11556.77
848.96	11472.03
849.284	11480.84
849.607	11409.88
849.931	11345.93
850.254	11223.22
850.577	11278.36
850.9	11214.18
851.223	11131.92
851.546	11055.32
851.869	11036.33
852.192	11049.89
852.515	10914.98
852.838	10921.53
853.161	10959.05
853.483	10936.68
853.806	10789.56
854.129	10796.11
854.451	10745.04
854.774	10759.96
855.096	10699.39
855.419	10655.78
855.741	10601.32
856.063	10562.9
856.385	10502.79
856.708	10564.93
857.03	10492.17
857.352	10463.69
857.674	10451.04
857.996	10374.43
858.318	10319.52
858.64	10360.42
858.961	10280.87
859.283	10280.42
859.605	10248.78
859.926	10165.85
860.248	10253.53
860.57	10207.43
860.891	10172.63
861.212	10128.11
861.534	10159.97
861.855	10077.49
862.176	10094.89
862.498	10056.25
862.819	10077.26
863.14	10003.14
863.461	10023.71
863.782	9921.11
864.103	9971.73
864.424	9916.59
864.745	9903.26
865.065	9849.7
865.386	9845.86
865.707	9842.92
866.027	9806.08
866.348	9777.38
866.668	9776.71
866.989	9802.69
867.309	9659.87
867.63	9740.32
867.95	9644.28
868.27	9629.59
868.59	9672.75
868.91	9623.72
869.23	9639.53
869.55	9577.16
869.87	9600.21
870.19	9501.46
870.51	9571.97
870.83	9572.64
871.15	9511.18
871.469	9500.1
871.789	9488.13
872.109	9564.73
872.428	9450.61
872.748	9479.54
873.067	9523.83
873.386	9466.43
873.706	9465.98
874.025	9402.7
874.344	9420.11
874.663	9428.92
874.982	9307.79
875.301	9390.28
875.62	9320.45
875.939	9287.45
876.258	9280.45
876.577	9265.76
876.896	9336.04
877.214	9254.91
877.533	9179.43
877.852	9273.67
878.17	9245.42
878.489	9198.64
878.807	9217.62
879.125	9170.39
879.444	9140.11
879.762	9200.45
880.08	9174.91
880.398	9066.22
880.716	9116.84
881.034	9123.16
881.352	9186.67
881.67	9001.59
881.988	8982.15
882.306	8993
882.624	8958.2
882.941	8904.41
883.259	8914.36
883.577	8875.49
883.894	8938.54
884.212	8827.35
884.529	8885.88
884.846	8795.94
885.164	8823.06
885.481	8795.26
885.798	8825.77
886.115	8733.57
886.432	8726.11
886.75	8684.76
887.067	8671.2
887.383	8666.9
887.7	8666.68
888.017	8599.11
888.334	8594.59
888.651	8558.66
888.967	8574.48
889.284	8541.71
889.6	8505.33
889.917	8471.88
890.233	8415.84
890.55	8396.4
890.866	8468.49
891.182	8345.56
891.498	8366.12
891.815	8320.25
892.131	8265.11
892.447	8324.77
892.763	8277.54
893.079	8181.27
893.395	8197.54
893.71	8182.62
894.026	8193.47
894.342	8186.69
894.657	8122.06
894.973	8065.34
895.289	8049.29
895.604	8088.62
895.92	7930.65
896.235	7934.04
896.55	7995.06
896.865	7962.52
897.181	7890.88
897.496	7882.52
897.811	7879.13
898.126	7865.57
898.441	7772.24
898.756	7802.52
899.071	7702.64
899.386	7755.29
899.7	7685.24
900.015	7660.83
900.33	7649.53
900.644	7607.72
900.959	7589.65
901.273	7544
901.588	7512.81
901.902	7519.82
902.216	7460.83
902.531	7440.5
902.845	7426.03
903.159	7346.04
903.473	7388.52
903.787	7306.49
904.101	7306.94
904.415	7319.37
904.729	7267.17
905.042	7244.8
905.356	7208.64
905.67	7198.02
905.984	7224.68
906.297	7176.77
906.611	7089.09
906.924	7094.97
907.237	7045.93
907.551	7015.42
907.864	6984.69
908.177	6992.37
908.491	6975.88
908.804	6948.08
909.117	6901.75
909.43	6834.86
909.743	6773.17
910.056	6818.59
910.368	6792.38
910.681	6785.37
910.994	6697.69
911.307	6683.91
911.619	6682.55
911.932	6671.03
912.244	6580.41
912.557	6575.89
912.869	6547.19
913.181	6545.38
913.494	6521.2
913.806	6534.31
914.118	6462.22
914.43	6461.99
914.742	6396.46
915.054	6363.24
915.366	6351.94
915.678	6344.48
915.99	6261.09
916.302	6312.84
916.613	6244.14
916.925	6240.53
917.236	6246.86
917.548	6178.61
917.859	6176.12
918.171	6156.91
918.482	6073.53
918.794	6019.97
919.105	6053.87
919.416	6015.45
919.727	6033.53
920.038	5940.65
920.349	5930.93
920.66	5923.93
920.971	5889.35
921.282	5941.78
921.593	5823.82
921.903	5815.68
922.214	5838.96
922.525	5773.2
922.835	5774.1
923.146	5723.71
923.456	5723.48
923.767	5631.5
924.077	5659.75
924.387	5650.26
924.697	5608.45
925.008	5595.12
925.318	5546.99
925.628	5521.22
925.938	5520.55
926.248	5493.2
926.558	5463.15
926.867	5395.13
927.177	5464.5
927.487	5373.43
927.796	5386.54
928.106	5377.27
928.416	5350.83
928.725	5315.81
929.034	5254.11
929.344	5288.24
929.653	5258.86
929.962	5198.3
930.271	5219.99
930.581	5164.17
930.89	5214.34
931.199	5119.65
931.508	5127.34
931.817	5136.38
932.125	5121.24
932.434	5020.67
932.743	5040.11
933.051	4966.89
933.36	4988.36
933.669	4942.26
933.977	4888.93
934.286	4939.09
934.594	4916.72
934.902	4840.79
935.21	4860.68
935.519	4811.19
935.827	4824.75
936.135	4851.41
936.443	4754.01
936.751	4731.64
937.059	4731.42
937.367	4683.73
937.674	4725.77
937.982	4641.02
938.29	4662.04
938.597	4634.92
938.905	4579.78
939.213	4575.49
939.52	4542.49
939.827	4558.09
940.135	4510.63
940.442	4478.99
940.749	4512.89
941.056	4454.81
941.363	4436.96
941.67	4454.59
941.977	4415.27
942.284	4392.67
942.591	4359.22
942.898	4346.11
943.205	4376.4
943.511	4306.57
943.818	4301.37
944.125	4271.09
944.431	4265.89
944.738	4246.91
945.044	4205.33
945.35	4234.71
945.657	4185.21
945.963	4218.66
946.269	4169.85
946.575	4177.31
946.881	4140.47
947.187	4103.86
947.493	4090.08
947.799	4113.35
948.105	4079.68
948.41	4018.21
948.716	4036.52
949.022	4013.69
949.327	4006.01
949.633	3934.6
949.938	3912
950.244	3953.81
950.549	3949.51
950.854	3917.43
951.16	3907.48
951.465	3877.88
951.77	3854.38
952.075	3810.31
952.38	3800.14
952.685	3797.88
952.99	3753.14
953.294	3759.92
953.599	3760.14
953.904	3747.94
954.209	3738.9
954.513	3756.98
954.818	3695.74
955.122	3684.21
955.426	3622.74
955.731	3631.78
956.035	3632.24
956.339	3614.38
956.643	3614.61
956.948	3595.4
957.252	3586.59
957.556	3566.7
957.86	3522.63
958.163	3528.51
958.467	3550.66
958.771	3461.39
959.075	3513.82
959.378	3467.27
959.682	3460.71
959.985	3428.85
960.289	3427.72
960.592	3381.17
960.896	3369.87
961.199	3360.6
961.502	3365.8
961.805	3379.13
962.108	3320.83
962.411	3313.37
962.714	3328.51
963.017	3322.86
963.32	3299.14
963.623	3237.44
963.926	3236.99
964.228	3249.42
964.531	3210.55
964.833	3239.7
965.136	3176.43
965.438	3186.37
965.741	3170.55
966.043	3176.88
966.345	3136.65
966.648	3140.95
966.95	3125.81
967.252	3095.75
967.554	3077.9
967.856	3083.77
968.158	3055.08
968.46	3053.95
968.761	3014.85
969.063	3031.57
969.365	2984.12
969.666	3002.87
969.968	2983.44
970.269	2985.7
970.571	2957.9
970.872	2930.33
971.174	2920.16
971.475	2919.49
971.776	2920.62
972.077	2910.22
972.378	2884.23
972.679	2881.52
972.98	2854.85
973.281	2847.4
973.582	2844.01
973.883	2852.37
974.183	2812.14
974.484	2820.5
974.785	2837.68
975.085	2759.49
975.386	2754.29
975.686	2734.63
975.986	2775.08
976.287	2737.12
976.587	2711.36
976.887	2684.69
977.187	2678.81
977.487	2656.67
977.787	2670.9
978.087	2664.58
978.387	2618.25
978.687	2617.57
978.987	2614.86
979.286	2592.04
979.586	2578.03
979.885	2587.97
980.185	2589.1
980.484	2549.55
980.784	2532.6
981.083	2548.42
981.382	2517.01
981.682	2526.95
981.981	2497.12
982.28	2501.87
982.579	2483.11
982.878	2505.03
983.177	2418.48
983.475	2450.8
983.774	2408.31
984.073	2435.88
984.372	2407.18
984.67	2445.6
984.969	2433.17
985.267	2398.37
985.566	2410.12
985.864	2376.22
986.162	2366.96
986.461	2361.08
986.759	2324.47
987.057	2320.63
987.355	2284.7
987.653	2321.99
987.951	2304.36
988.249	2269.78
988.547	2279.73
988.844	2260.75
989.142	2282.67
989.44	2248.99
989.737	2221.88
990.035	2211.48
990.332	2214.42
990.63	2204.25
990.927	2217.36
991.224	2181.2
991.521	2179.17
991.819	2155.89
992.116	2169.9
992.413	2144.82
992.71	2140.97
993.006	2118.38
993.303	2121.54
993.6	2115.21
993.897	2077.47
994.193	2078.6
994.49	2080.64
994.787	2074.31
995.083	2069.11
995.379	2049.68
995.676	2011.71
995.972	2044.03
996.268	2018.72
996.565	2008.1
996.861	2018.49
997.157	1976.23
997.453	2002
997.749	1945.73
998.044	1951.15
998.34	1978.95
998.636	1954.99
998.932	1934.65
999.227	1896.69
999.523	1903.01
999.818	1916.35
1000.114	1888.55
1000.409	1881.09
1000.704	1873.64
1001	1840.42
1001.295	1853.3
1001.59	1868.67
1001.885	1863.47
1002.18	1823.24
1002.475	1833.19
1002.77	1820.08
1003.065	1777.82
1003.359	1794.32
1003.654	1817.59
1003.949	1771.27
1004.243	1767.88
1004.538	1734.21
1004.832	1738.5
1005.127	1741.89
1005.421	1717.03
1005.715	1722.68
1006.009	1729.01
1006.304	1699.86
1006.598	1675.22
1006.892	1673.64
1007.186	1649.69
1007.48	1677.71
1007.773	1662.8
1008.067	1637.71
1008.361	1644.49
1008.655	1636.58
1008.948	1606.75
1009.242	1602.91
1009.535	1589.58
1009.829	1587.99
1010.122	1585.96
1010.415	1576.47
1010.708	1563.81
1011.001	1544.38
1011.295	1511.84
1011.588	1554.32
1011.881	1529.69
1012.173	1499.86
1012.466	1507.32
1012.759	1489.47
1013.052	1509.8
1013.344	1466.64
1013.637	1484.04
1013.93	1492.4
1014.222	1459.18
1014.514	1450.82
1014.807	1422.8
1015.099	1441.11
1015.391	1439.98
1015.683	1422.58
1015.976	1426.64
1016.268	1385.29
1016.56	1375.8
1016.851	1399.98
1017.143	1397.49
1017.435	1393.2
1017.727	1363.37
1018.018	1357.94
1018.31	1359.98
1018.602	1359.07
1018.893	1324.95
1019.185	1295.12
1019.476	1315.91
1019.767	1293.77
1020.058	1293.77
1020.35	1275.91
1020.641	1275.91
1020.932	1261.9
1021.223	1277.49
1021.514	1261.68
1021.804	1231.85
1022.095	1261.45
1022.386	1239.53
1022.677	1226.87
1022.967	1210.83
1023.258	1219.64
1023.548	1226.87
1023.839	1211.73
1024.129	1200.21
1024.419	1185.07
1024.709	1195.01
1025	1140.78
1025.29	1155.92
1025.58	1159.31
1025.87	1154.79
1026.16	1149.59
1026.449	1133.32
1026.739	1105.97
1027.029	1115.92
1027.319	1113.66
1027.608	1098.29
1027.898	1108.69
1028.187	1089.25
1028.477	1060.78
1028.766	1065.52
1029.055	1075.92
1029.344	1017.16
1029.634	1054.68
1029.923	1023.49
1030.212	1042.02
1030.501	1052.87
1030.79	1010.61
1031.078	1018.07
1031.367	1032.3
1031.656	1016.94
1031.945	1009.03
1032.233	1009.48
1032.522	1005.86
1032.81	993.43
1033.099	986.88
1033.387	976.71
1033.675	962.7
1033.963	976.94
1034.251	947.56
1034.54	945.3
1034.828	961.57
1035.116	943.27
1035.403	930.16
1035.691	948.24
1035.979	915.47
1036.267	907.33
1036.554	888.35
1036.842	919.09
1037.129	915.7
1037.417	905.53
1037.704	885.87
1037.992	873.44
1038.279	882.02
1038.566	889.48
1038.853	889.48
1039.14	889.48
