Data from hue_38_FLMS001491_00028.txt Node
Date: Tue Feb 07 17:31:17 GMT 2017
User: dcchb
Spectrometer: FLMS00149
Trigger mode: 0
Integration Time (sec): 2.000000E-2
Scans to average: 10
Electric dark correction enabled: true
Nonlinearity correction enabled: false
Boxcar width: 0
XAxis mode: Wavelengths
Number of Pixels in Spectrum: 2048
>>>>>Begin Spectral Data<<<<<
341.393	-28.28
341.776	-28.28
342.16	-28.28
342.543	-59.01
342.927	-73.25
343.31	-45.45
343.693	-73.02
344.077	-60.82
344.46	-69.86
344.843	-64.43
345.226	-46.81
345.61	-42.29
345.993	-13.36
346.376	-3.87
346.759	13.53
347.142	23.02
347.525	51.27
347.908	52.63
348.291	65.05
348.674	98.5
349.057	115.9
349.44	111.61
349.823	131.49
350.206	146.63
350.588	206.07
350.971	199.51
351.354	237.71
351.737	239.51
352.119	246.97
352.502	261.66
352.884	266.41
353.267	286.29
353.65	312.51
354.032	317.93
354.414	302.56
354.797	310.7
355.179	314.99
355.562	327.65
355.944	345.05
356.326	335.33
356.709	317.93
357.091	333.52
357.473	315.67
357.855	331.49
358.238	354.09
358.62	349.57
359.002	336.01
359.384	330.81
359.766	333.52
360.148	347.76
360.53	367.19
360.912	335.1
361.294	337.14
361.676	348.66
362.057	308.21
362.439	342.34
362.821	317.03
363.203	331.94
363.584	323.58
363.966	339.85
364.348	330.13
364.729	332.39
365.111	307.76
365.493	334.43
365.874	329
366.256	309.79
366.637	322.22
367.019	315.67
367.4	326.97
367.781	323.58
368.163	336.23
368.544	322.45
368.925	310.02
369.306	310.02
369.688	320.87
370.069	354.09
370.45	299.62
370.831	319.51
371.212	312.51
371.593	307.76
371.974	334.43
372.355	336.69
372.736	316.57
373.117	297.82
373.498	303.01
373.879	348.89
374.26	319.51
374.641	322.68
375.021	314.77
375.402	323.58
375.783	337.36
376.163	332.39
376.544	337.59
376.925	334.65
377.305	312.96
377.686	320.64
378.066	333.97
378.447	342.56
378.827	333.75
379.208	333.3
379.588	330.58
379.968	339.62
380.349	335.1
380.729	328.55
381.109	340.3
381.489	337.36
381.87	338.04
382.25	342.56
382.63	343.24
383.01	356.57
383.39	335.78
383.77	340.98
384.15	349.34
384.53	345.95
384.91	369.91
385.29	345.95
385.67	341.88
386.049	373.3
386.429	358.38
386.809	342.56
387.189	379.4
387.568	369.23
387.948	350.25
388.328	354.09
388.707	361.77
389.087	366.06
389.466	352.5
389.846	371.26
390.225	365.84
390.605	376.69
390.984	378.49
391.363	382.11
391.743	378.04
392.122	363.13
392.501	362.22
392.881	395.44
393.26	370.36
393.639	379.17
394.018	368.1
394.397	386.85
394.776	382.79
395.155	393.18
395.534	372.84
395.913	382.11
396.292	390.7
396.671	397.02
397.05	408.1
397.429	373.07
397.808	404.93
398.186	417.36
398.565	390.02
398.944	396.35
399.323	405.16
399.701	395.67
400.08	407.87
400.458	405.16
400.837	420.98
401.215	410.81
401.594	394.76
401.972	404.48
402.351	400.87
402.729	417.14
403.107	416.91
403.486	400.87
403.864	425.05
404.242	413.07
404.62	411.71
404.999	404.93
405.377	434.31
405.755	444.93
406.133	427.53
406.511	427.08
406.889	411.26
407.267	455.33
407.645	449
408.023	442.45
408.401	463.24
408.779	449
409.156	458.94
409.534	446.97
409.912	453.52
410.29	458.26
410.667	474.76
411.045	455.55
411.422	449.23
411.8	472.95
412.178	460.07
412.555	477.7
412.933	506.85
413.31	502.11
413.687	504.14
414.065	490.81
414.442	496
414.819	482.9
415.197	491.26
415.574	495.33
415.951	501.2
416.328	504.14
416.705	510.69
417.082	508.21
417.46	508.88
417.837	517.7
418.214	515.89
418.591	516.12
418.967	531.94
419.344	530.13
419.721	529.45
420.098	533.97
420.475	549.79
420.852	543.91
421.228	538.49
421.605	530.35
421.982	571.26
422.358	552.27
422.735	547.75
423.111	559.28
423.488	555.21
423.864	556.79
424.241	565.83
424.617	541.88
424.994	581.43
425.37	571.71
425.746	555.89
426.123	578.49
426.499	553.86
426.875	593.18
427.251	600.18
427.627	621.42
428.003	597.92
428.379	603.8
428.756	617.81
429.132	626.62
429.507	640.18
429.883	623.01
430.259	640.86
430.635	622.78
431.011	632.72
431.387	642.67
431.763	667.52
432.138	638.83
432.514	668.88
432.89	653.06
433.265	704.13
433.641	684.93
434.016	665.94
434.392	682.44
434.767	696.45
435.143	705.49
435.518	699.84
435.894	714.53
436.269	742.1
436.644	762.21
437.02	761.31
437.395	747.97
437.77	723.57
438.145	738.94
438.52	761.53
438.895	739.39
439.271	755.66
439.646	745.94
440.021	751.36
440.395	770.12
440.77	780.29
441.145	789.78
441.52	813.96
441.895	793.62
442.27	779.61
442.645	799.27
443.019	794.53
443.394	783.23
443.769	808.09
444.143	806.5
444.518	833.17
444.892	832.72
445.267	851.02
445.641	853.96
446.016	835.66
446.39	855.99
446.764	845.37
447.139	833.62
447.513	859.38
447.887	878.59
448.262	871.81
448.636	878.37
449.01	876.56
449.384	900.06
449.758	880.17
450.132	919.27
450.506	908.87
450.88	928.31
451.254	912.72
451.628	940.74
452.002	952.26
452.376	923.79
452.75	934.64
453.123	955.88
453.497	982.09
453.871	980.51
454.244	987.97
454.618	979.16
454.992	990.45
455.365	1019.61
455.739	1035.42
456.112	1034.52
456.486	1035.42
456.859	1048.31
457.232	1069.32
457.606	1086.04
457.979	1079.04
458.352	1105.93
458.725	1133.5
459.099	1115.87
459.472	1128.53
459.845	1137.12
460.218	1178.47
460.591	1157
460.964	1190.45
461.337	1198.36
461.71	1184.8
462.083	1230.22
462.456	1216.89
462.829	1229.77
463.201	1268.86
463.574	1267.96
463.947	1286.27
464.32	1287.17
464.692	1317.23
465.065	1317.9
465.438	1353.38
465.81	1385.47
466.183	1361.52
466.555	1416.66
466.928	1428.86
467.3	1450.33
467.672	1422.08
468.045	1474.51
468.417	1492.81
468.789	1505.69
469.161	1531
469.534	1554.96
469.906	1579.59
470.278	1616.88
470.65	1609.65
471.022	1641.06
471.394	1687.61
471.766	1709.08
472.138	1719.47
472.51	1761.73
472.882	1792.24
473.253	1814.84
473.625	1826.36
473.997	1898
474.369	1949.3
474.74	1965.34
475.112	2004.66
475.484	2095.74
475.855	2113.59
476.227	2132.57
476.598	2179.58
476.97	2206.69
477.341	2287.6
477.713	2309.06
478.084	2324.88
478.455	2419.12
478.827	2485.56
479.198	2569.17
479.569	2588.83
479.94	2660.01
480.311	2708.6
480.682	2817.3
481.053	2866.56
481.424	2961.48
481.795	2979.1
482.166	3042.38
482.537	3144.3
482.908	3257.74
483.279	3300.45
483.65	3344.74
484.021	3468.13
484.391	3561.69
484.762	3593.55
485.133	3681
485.503	3755.13
485.874	3867.44
486.244	3940.66
486.615	4062.46
486.985	4168.45
487.356	4276.47
487.726	4355.11
488.097	4471.94
488.467	4569.34
488.837	4662.9
489.207	4758.94
489.578	4839.62
489.948	4927.53
490.318	5062.21
490.688	5151.93
491.058	5240.51
491.428	5389.89
491.798	5494.52
492.168	5615.64
492.538	5614.51
492.908	5774.28
493.278	5855.41
493.648	5969.76
494.017	6085.01
494.387	6111.9
494.757	6247.72
495.126	6375.62
495.496	6474.6
495.866	6540.82
496.235	6634.37
496.605	6755.73
496.974	6816.74
497.344	6930.19
497.713	7003.4
498.082	7148.71
498.452	7268.26
498.821	7284.07
499.19	7370.17
499.559	7501.02
499.928	7550.73
500.298	7627.57
500.667	7746.43
501.036	7807.45
501.405	7945.53
501.774	7956.15
502.143	8087.44
502.512	8108.23
502.88	8247.66
503.249	8290.15
503.618	8397.94
503.987	8425.06
504.356	8520.43
504.724	8594.77
505.093	8665.51
505.462	8728.33
505.83	8823.92
506.199	8940.75
506.567	9057.13
506.936	9083.8
507.304	9223.91
507.672	9243.34
508.041	9286.28
508.409	9390.46
508.777	9532.15
509.145	9571.92
509.514	9564.47
509.882	9744.12
510.25	9729.43
510.618	9768.53
510.986	9885.59
511.354	9926.49
511.722	10093.04
512.09	10189.08
512.458	10091.01
512.826	10289.87
513.193	10329.42
513.561	10399.47
513.929	10454.16
514.297	10587.49
514.664	10669.07
515.032	10720.37
515.4	10806.47
515.767	10799.01
516.135	10880.82
516.502	10817.31
516.869	11031.77
517.237	11100.02
517.604	11065.67
517.972	11213.01
518.339	11272.9
518.706	11271.54
519.073	11399.22
519.44	11392.89
519.808	11560.57
520.175	11540.01
520.542	11641.93
520.909	11709.49
521.276	11802.15
521.643	11886.66
522.009	11929.15
522.376	12024.74
522.743	12063.84
523.11	12242.59
523.477	12255.02
523.843	12361.68
524.21	12493.88
524.577	12535.01
524.943	12643.93
525.31	12675.57
525.676	12815.91
526.043	12853.19
526.409	12967.31
526.776	13061.32
527.142	13036.24
527.508	13145.84
527.874	13262
528.241	13360.07
528.607	13394.2
528.973	13563.91
529.339	13554.19
529.705	13658.82
530.071	13767.52
530.437	13838.25
530.803	13869.21
531.169	13988.3
531.535	13919.61
531.901	13968.64
532.267	14059.04
532.632	14174.06
532.998	14271.69
533.364	14339.71
533.73	14343.55
534.095	14518.69
534.461	14551
534.826	14613.15
535.192	14560.72
535.557	14765.46
535.923	14780.37
536.288	14805.91
536.653	14801.39
537.019	14980.59
537.384	14978.11
537.749	15093.81
538.114	15095.17
538.479	15068.05
538.845	15193.7
539.21	15228.05
539.575	15256.29
539.94	15351.66
540.305	15455.84
540.67	15481.82
541.034	15531.31
541.399	15579
541.764	15602.95
542.129	15672.33
542.494	15778.54
542.858	15885.66
543.223	15872.32
543.587	16007.23
543.952	15935.15
544.316	16109.38
544.681	16177.63
545.045	16135.82
545.41	16299.88
545.774	16240.22
546.138	16348.92
546.503	16452.19
546.867	16442.25
547.231	16534
547.595	16522.02
547.959	16689.7
548.324	16647.9
548.688	16740.1
549.052	16799.53
549.416	16819.42
549.779	16932.18
550.143	16969.7
550.507	17111.84
550.871	17122.69
551.235	17184.15
551.599	17217.82
551.962	17233.87
552.326	17313.87
552.689	17425.73
553.053	17340.31
553.417	17414.66
553.78	17666.85
554.143	17457.59
554.507	17678.83
554.87	17747.08
555.234	17876.11
555.597	17827.3
555.96	17870.69
556.323	17879.5
556.686	18001.76
557.05	18168.31
557.413	18187.52
557.776	18212.15
558.139	18410.79
558.502	18260.06
558.865	18421.63
559.228	18484.91
559.59	18629.54
559.953	18680.38
560.316	18811.91
560.679	18866.14
561.041	18971.22
561.404	19032.01
561.767	19095.97
562.129	19057.55
562.492	19155.63
562.854	19191.33
563.217	19223.2
563.579	19351.78
563.941	19439.01
564.304	19434.49
564.666	19640.36
565.028	19704.31
565.39	19645.56
565.753	19822.73
566.115	19896.85
566.477	19960.58
566.839	19944.31
567.201	20197.18
567.563	20081.7
567.925	20353.33
568.287	20258.87
568.648	20310.85
569.01	20506.1
569.372	20595.81
569.734	20494.35
570.095	20707.9
570.457	20780.89
570.819	20829.48
571.18	20934.56
571.542	21005.3
571.903	21098.85
572.265	21092.75
572.626	21247.32
572.987	21390.82
573.349	21379.07
573.71	21556.92
574.071	21494.32
574.432	21652.06
574.794	21824.71
575.155	21914.88
575.516	21979.28
575.877	22093.18
576.238	22210.91
576.599	22363.45
576.96	22426.27
577.32	22492.04
577.681	22610.68
578.042	22835.53
578.403	22889.77
578.763	22872.14
579.124	23113.94
579.485	23303.77
579.845	23405.68
580.206	23527.26
580.566	23687.48
580.927	23752.34
581.287	24067.14
581.648	24111.2
582.008	24391.42
582.368	24368.82
582.728	24719.77
583.089	24755.03
583.449	24927.45
583.809	25055.81
584.169	25418.29
584.529	25452.64
584.889	25730.14
585.249	25855.34
585.609	26001.77
585.969	26345.95
586.329	26394.53
586.688	26573.28
587.048	26700.96
587.408	26934.18
587.768	27128.75
588.127	27278.35
588.487	27536.65
588.846	27888.73
589.206	27867.26
589.565	28048.5
589.925	28388.6
590.284	28703.4
590.643	28808.71
591.003	29054.12
591.362	29241.01
591.721	29457.73
592.08	29695.46
592.44	29880.54
592.799	30113.3
593.158	30360.98
593.517	30469.45
593.876	30797.35
594.235	30764.59
594.593	31040.51
594.952	31273.73
595.311	31446.15
595.67	31624.68
596.029	32049.3
596.387	32223.08
596.746	32481.83
597.104	32425.56
597.463	32714.59
597.822	32995.49
598.18	33023.96
598.538	33246.33
598.897	33602.25
599.255	33367.68
599.613	34096.02
599.972	33991.17
600.33	34289.92
600.688	34388.22
601.046	34631.38
601.404	34883.35
601.762	35030.92
602.12	35220.51
602.478	35301.19
602.836	35680.16
603.194	35606.49
603.552	35718.35
603.91	35779.6
604.268	36233.82
604.625	36150.89
604.983	36435.62
605.341	36449.63
605.698	36601.04
606.056	36849.4
606.413	36939.11
606.771	37156.96
607.128	37448.93
607.485	37252.1
607.843	37332.78
608.2	37776.15
608.557	37931.18
608.914	37977.73
609.272	38212.07
609.629	38221.11
609.986	38531.39
610.343	38564.38
610.7	38764.15
611.057	38723.25
611.414	38826.3
611.771	38983.58
612.127	39288.66
612.484	39184.7
612.841	39595.31
613.198	39424.47
613.554	39661.08
613.911	39851.58
614.267	39818.81
614.624	40017.68
614.98	40293.15
615.337	40354.62
615.693	40381.51
616.05	40413.6
616.406	40655.17
616.762	40653.59
617.118	40773.14
617.475	40766.81
617.831	40989.4
618.187	41118.89
618.543	41094.03
618.899	41413.12
619.255	41260.81
619.611	41360.24
619.967	41631.65
620.323	41727.46
620.678	41530.18
621.034	41569.05
621.39	41570.18
621.746	41721.13
622.101	42272.31
622.457	41923.16
622.812	42042.48
623.168	42168.81
623.523	42183.04
623.879	42236.15
624.234	42095.36
624.589	42350.27
624.945	42378.07
625.3	42461.91
625.655	42444.73
626.01	42554.56
626.365	42469.14
626.72	42516.82
627.075	42536.48
627.43	42615.57
627.785	42428.69
628.14	42664.61
628.495	42561.79
628.85	42503.26
629.205	42552.3
629.559	42914.1
629.914	42659.87
630.269	42742.58
630.623	42602.47
630.978	42721.79
631.332	42841.56
631.687	42868.45
632.041	42729.7
632.396	42846.53
632.75	42628.23
633.104	42851.5
633.459	42783.71
633.813	42627.1
634.167	42687.89
634.521	42675.91
634.875	42835.68
635.229	42899.86
635.583	42609.25
635.937	42676.36
636.291	42543.26
636.645	42652.18
636.999	42547.1
637.352	42766.3
637.706	42282.25
638.06	42755.68
638.413	42497.84
638.767	42422.13
639.121	42546.42
639.474	42176.04
639.828	42402.47
640.181	42393.66
640.534	42472.98
640.888	42407.9
641.241	42287.9
641.594	42341.91
641.947	42512.53
642.301	42381.23
642.654	42388.46
643.007	42373.32
643.36	42191.4
643.713	42293.1
644.066	42461.91
644.419	42187.11
644.771	41973.33
645.124	41569.95
645.477	41577.64
645.83	41348.04
646.182	41125.44
646.535	41061.49
646.888	41131.77
647.24	40897.65
647.593	41102.17
647.945	41029.63
648.298	40866.02
648.65	40755.28
649.002	40603.42
649.355	40911.21
649.707	40925.45
650.059	41058.33
650.411	41550.29
650.763	41500.12
651.115	41910.06
651.467	41644.3
651.819	41915.03
652.171	41589.39
652.523	41453.35
652.875	41569.05
653.227	41553.23
653.578	41774.24
653.93	41583.96
654.282	41424.19
654.633	41513
654.985	41410.18
655.337	41459.9
655.688	41583.74
656.039	41723.85
656.391	41361.6
656.742	41431.42
657.094	41391.65
657.445	41499.45
657.796	41469.16
658.147	41361.37
658.498	41349.84
658.849	41363.4
659.2	41389.39
659.551	41308.49
659.902	41374.7
660.253	41280.24
660.604	41512.55
660.955	41216.74
661.306	41345.55
661.656	41279.56
662.007	41329.96
662.358	41325.66
662.708	41272.11
663.059	41264.65
663.409	40966.58
663.76	41351.88
664.11	41263.97
664.461	41220.36
664.811	41206.35
665.161	41144.88
665.511	41233.69
665.862	41096.52
666.212	41314.37
666.562	41434.59
666.912	41308.49
667.262	41212
667.612	41276.85
667.962	41218.77
668.312	41193.46
668.662	41530.18
669.011	41241.83
669.361	41125.22
669.711	41026.69
670.06	41014.26
670.41	41072.34
670.76	40896.98
671.109	40981.95
671.459	40905.56
671.808	40934.49
672.157	41037.54
672.507	40763.42
672.856	40944.43
673.205	40939.01
673.554	41029.18
673.904	40827.15
674.253	41234.59
674.602	40898.11
674.951	40480.72
675.3	40152.81
675.649	40866.69
675.998	40758
676.346	40895.62
676.695	40856.07
677.044	40635.97
677.393	40724.55
677.741	40642.07
678.09	40586.7
678.438	40547.83
678.787	40601.84
679.135	40664.89
679.484	40329.53
679.832	40596.19
680.181	40276.43
680.529	40354.39
680.877	40353.94
681.225	40254.05
681.573	40469.87
681.922	40134.28
682.27	40160.95
682.618	40224.45
682.966	39969.54
683.314	40132.7
683.661	39952.82
684.009	39793.28
684.357	39710.11
684.705	39684.13
685.053	39736.33
685.4	39608.87
685.748	39449.1
686.095	39519.16
686.443	39372.27
686.79	39314.42
687.138	39481.65
687.485	39303.8
687.832	39150.58
688.18	39284.59
688.527	39048.66
688.874	39090.47
689.221	39050.7
689.568	38919.85
689.915	38819.97
690.262	38767.09
690.609	38824.71
690.956	38591.95
691.303	38381.11
691.65	38418.62
691.997	38273.09
692.344	38153.54
692.69	38228.35
693.037	38094.56
693.383	37842.82
693.73	37949.71
694.077	37709.26
694.423	37704.07
694.769	37781.8
695.116	37452.55
695.462	37465.65
695.808	37353.79
696.155	37428.14
696.501	37095.27
696.847	37171.88
697.193	36796.07
697.539	37062.95
697.885	36822.51
698.231	36643.08
698.577	36733.47
698.923	36630.65
699.269	36557.65
699.614	36274.27
699.96	36187.95
700.306	36304.78
700.651	36031.34
700.997	36040.61
701.342	35909.08
701.688	35955.64
702.033	35732.14
702.379	35734.63
702.724	35615.53
703.069	35747.28
703.415	35218.25
703.76	35455.08
704.105	35470.23
704.45	35342.77
704.795	35172.83
705.14	35025.94
705.485	35031.14
705.83	34782.79
706.175	34935.78
706.52	34840.19
706.865	34795.67
707.209	34686.29
707.554	34536.92
707.899	34659.4
708.243	34374.66
708.588	34254.66
708.932	34060.55
709.277	34183.48
709.621	34198.39
709.966	33848.8
710.31	34049.7
710.654	33595.47
710.998	33769.48
711.342	33748.91
711.687	33673.89
712.031	33505.08
712.375	33395.7
712.719	33388.7
713.063	33374.91
713.407	33496.27
713.75	33237.97
714.094	33277.29
714.438	33092.89
714.782	33171.75
715.125	32887.47
715.469	33085.2
715.812	32720.02
716.156	32868.71
716.499	32737.42
716.843	32821.03
717.186	32619.23
717.53	32710.98
717.873	32741.03
718.216	32587.82
718.559	32398.22
718.902	32194.83
719.246	32395.96
719.589	32254.26
719.932	31969.3
720.275	32088.85
720.617	32114.61
720.96	31996.87
721.303	32002.29
721.646	31782.41
721.989	31726.14
722.331	31919.58
722.674	31784.45
723.016	31739.93
723.359	31646.6
723.701	31685.01
724.044	31561.63
724.386	31333.39
724.729	31575.41
725.071	31366.38
725.413	31400.05
725.755	31393.95
726.097	31289.77
726.439	31219.94
726.782	31180.17
727.124	31261.07
727.465	31045.26
727.807	30942.89
728.149	30929.1
728.491	30963.9
728.833	30952.38
729.175	30850.01
729.516	30679.62
729.858	30747.41
730.199	30702.89
730.541	30637.81
730.882	30652.05
731.224	30640.75
731.565	30547.87
731.906	30399.4
732.248	30392.39
732.589	30360.08
732.93	30311.94
733.271	30310.14
733.612	30305.62
733.953	30255
734.294	30103.36
734.635	30073.76
734.976	30087.77
735.317	29951.95
735.658	30018.17
735.999	29958.73
736.339	29917.6
736.68	29955.57
737.021	29848.9
737.361	29755.57
737.702	29975.68
738.042	29834.22
738.383	29730.94
738.723	29724.84
739.063	29642.36
739.404	29637.38
739.744	29597.39
740.084	29492.08
740.424	29469.03
740.764	29367.11
741.104	29517.84
741.444	29305.19
741.784	29282.37
742.124	29389.71
742.464	29273.1
742.804	29158.3
743.143	29179.09
743.483	29238.07
743.823	28964.86
744.162	28913.11
744.502	29063.39
744.841	28910.4
745.181	29025.2
745.52	28933.9
745.86	28945.65
746.199	28793.11
746.538	28802.38
746.877	28674.7
747.216	28777.75
747.556	28640.57
747.895	28653.23
748.234	28650.97
748.573	28488.94
748.911	28440.35
749.25	28371.66
749.589	28344.09
749.928	28383.63
750.267	28406
750.605	28262.51
750.944	28250.53
751.283	27970.54
751.621	28095.05
751.96	27926.47
752.298	27948.16
752.636	27902.74
752.975	27747.04
753.313	27826.36
753.651	27883.98
753.989	27588.62
754.327	27637.21
754.666	27449.42
755.004	27559.25
755.342	27611.9
755.679	27592.01
756.017	27295.07
756.355	27464.33
756.693	27265.47
757.031	27256.2
757.368	27168.97
757.706	27024.57
758.044	27042.42
758.381	27022.99
758.719	26978.25
759.056	26944.8
759.394	26836.1
759.731	26755.88
760.068	26622.55
760.405	26442.89
760.743	26409.67
761.08	26529.44
761.417	26407.41
761.754	26389.33
762.091	26233.86
762.428	26194.76
762.765	26079.06
763.102	26048.55
763.438	25940.53
763.775	25830.7
764.112	25843.81
764.449	25966.52
764.785	25794.55
765.122	25555.23
765.458	25436.82
765.795	25435.46
766.131	25414.44
766.467	25232.53
766.804	25090.39
767.14	25059.88
767.476	25039.99
767.812	24941.46
768.148	24985.76
768.485	24824.4
768.821	24655.59
769.157	24712.32
769.492	24572.21
769.828	24528.14
770.164	24291.31
770.5	24400.46
770.836	24336.06
771.171	24172.9
771.507	24131.09
771.842	23923.86
772.178	23913.69
772.513	23818.1
772.849	23769.97
773.184	23623.31
773.519	23644.1
773.855	23494.27
774.19	23504.89
774.525	23294.27
774.86	23360.94
775.195	23262.64
775.53	23173.37
775.865	23011.57
776.2	22846.83
776.535	22847.05
776.87	22762.09
777.205	22669.43
777.539	22613.16
777.874	22629.66
778.209	22369.33
778.543	22415.88
778.878	22308.76
779.212	22243.23
779.547	22076.68
779.881	22126.85
780.215	21971.37
780.55	21934.76
780.884	21833.75
781.218	21781.32
781.552	21729.34
781.886	21564.83
782.22	21520.54
782.554	21500.2
782.888	21324.16
783.222	21237.15
783.556	21112.86
783.889	21108.34
784.223	20977.73
784.557	20910.16
784.89	20906.99
785.224	20823.15
785.557	20647.79
785.891	20698.18
786.224	20653.21
786.558	20500.9
786.891	20500.22
787.224	20259.33
787.557	20236.73
787.891	20319.21
788.224	20180.68
788.557	20208.71
788.89	20144.07
789.223	20028.15
789.556	19890.3
789.888	19783.63
790.221	19787.93
790.554	19641.72
790.887	19674.71
791.219	19573.69
791.552	19554.03
791.884	19265.91
792.217	19416.41
792.549	19314.04
792.882	19199.47
793.214	19154.95
793.546	19187.49
793.879	19048.74
794.211	18946.59
794.543	18915.18
794.875	18819.36
795.207	18898.46
795.539	18753.15
795.871	18670.89
796.203	18625.02
796.535	18469.54
796.867	18384.57
797.198	18469.99
797.53	18402.65
797.862	18270.9
798.193	18315.65
798.525	18274.07
798.856	18243.79
799.188	18056.9
799.519	17977.13
799.85	17893.06
800.182	17847.86
800.513	17846.28
800.844	17657.13
801.175	17773.52
801.506	17733.06
801.837	17636.57
802.168	17663.24
802.499	17533.07
802.83	17444.94
803.161	17368.1
803.491	17329.91
803.822	17308.44
804.153	17241.55
804.483	17143.7
804.814	17006.76
805.145	16976.7
805.475	17029.13
805.805	16944.16
806.136	17003.14
806.466	16981.22
806.796	16913.2
807.126	16750.94
807.457	16776.93
807.787	16685.63
808.117	16695.8
808.447	16562.7
808.777	16550.95
809.107	16567.67
809.436	16493.32
809.766	16484.06
810.096	16350.05
810.426	16260.56
810.755	16302.82
811.085	16301.24
811.414	16297.17
811.744	16141.24
812.073	16095.37
812.403	16081.13
812.732	16105.31
813.061	15972.43
813.39	15857.63
813.719	15829.84
814.049	15919.1
814.378	15837.07
814.707	15748.94
815.036	15778.54
815.365	15623.29
815.693	15607.47
816.022	15507.59
816.351	15482.05
816.68	15418.32
817.008	15534.7
817.337	15314.82
817.665	15277.99
817.994	15412.67
818.322	15294.26
818.651	15236.86
818.979	15175.17
819.307	15311.66
819.636	15244.99
819.964	15053.59
820.292	15115.28
820.62	15085.68
820.948	15033.7
821.276	15113.47
821.604	15043.19
821.932	14998.22
822.259	15023.98
822.587	15000.48
822.915	14953.02
823.243	15026.02
823.57	14999.35
823.898	14959.13
824.225	14976.08
824.553	14934.04
824.88	14951.89
825.207	15016.75
825.535	14944.66
825.862	15026.7
826.189	14975.4
826.516	15012.46
826.843	14995.96
827.17	15025.34
827.497	14955.51
827.824	15063.98
828.151	15039.8
828.478	14959.8
828.805	14995.96
829.131	14917.55
829.458	14986.92
829.785	14896.3
830.111	14961.61
830.438	14946.92
830.764	14865.57
831.09	14953.25
831.417	14887.26
831.743	14940.14
832.069	14975.17
832.395	14877.55
832.722	14866.93
833.048	14905.34
833.374	14845.68
833.7	14688.63
834.026	14772.69
834.351	14797.77
834.677	14797.1
835.003	14798.68
835.329	14701.73
835.654	14792.8
835.98	14645.46
836.306	14705.57
836.631	14613.15
836.956	14707.38
837.282	14654.05
837.607	14570.89
837.932	14471.68
838.258	14567.27
838.583	14520.04
838.908	14396.66
839.233	14463.77
839.558	14468.74
839.883	14337.9
840.208	14327.73
840.533	14391.01
840.858	14367.96
841.182	14292.93
841.507	14358.69
841.832	14276.43
842.156	14185.81
842.481	14263.1
842.805	14198.92
843.13	14220.84
843.454	14111.24
843.778	14027.63
844.103	14107.85
844.427	13981.3
844.751	13987.4
845.075	13963.9
845.399	13890.45
845.723	13886.61
846.047	13859.27
846.371	13733.62
846.695	13795.77
847.019	13660.86
847.343	13618.82
847.666	13576.34
847.99	13406.17
848.313	13458.37
848.637	13393.97
848.96	13309
849.284	13278.04
849.607	13211.83
849.931	13111.94
850.254	13111.49
850.577	12997.82
850.9	12982
851.223	12904.72
851.546	12869.24
851.869	12755.12
852.192	12868.33
852.515	12757.38
852.838	12622.24
853.161	12688.9
853.483	12589.25
853.806	12567.1
854.129	12565.74
854.451	12500.21
854.774	12412.3
855.096	12316.94
855.419	12319.42
855.741	12272.64
856.063	12224.96
856.385	12240.78
856.708	12179.31
857.03	12133.21
857.352	12079.2
857.674	12064.74
857.996	12028.58
858.318	11930.96
858.64	11983.39
858.961	11906.33
859.283	11878.08
859.605	11793.56
859.926	11847.12
860.248	11862.03
860.57	11725.09
860.891	11852.09
861.212	11704.52
861.534	11624.75
861.855	11687.35
862.176	11669.72
862.498	11603.96
862.819	11622.49
863.14	11540.46
863.461	11514.02
863.782	11529.61
864.103	11578.2
864.424	11498.43
864.745	11495.71
865.065	11415.26
865.386	11313.8
865.707	11333.23
866.027	11358.77
866.348	11363.06
866.668	11377.53
866.989	11328.71
867.309	11242.16
867.63	11290.97
867.95	11245.55
868.27	11162.62
868.59	11218.89
868.91	11129.62
869.23	11140.24
869.55	11067.93
869.87	11164.42
870.19	11168.27
870.51	11037.2
870.83	11123.75
871.15	10959.68
871.469	11035.61
871.789	10995.16
872.109	11040.13
872.428	10908.61
872.748	10953.81
873.067	10971.66
873.386	10957.65
873.706	10936.41
874.025	10850.76
874.344	10940.7
874.663	10839.91
874.982	10837.43
875.301	10826.58
875.62	10831.33
875.939	10735.96
876.258	10771.21
876.577	10695.06
876.896	10763.76
877.214	10727.15
877.533	10712.23
877.852	10646.25
878.17	10671.33
878.489	10655.06
878.807	10618.9
879.125	10592.46
879.444	10600.6
879.762	10588.17
880.08	10616.19
880.398	10421.84
880.716	10509.98
881.034	10554.27
881.352	10467.49
881.67	10423.2
881.988	10495.51
882.306	10460.26
882.624	10362.41
882.941	10346.82
883.259	10246.48
883.577	10278.57
883.894	10293.49
884.212	10224.34
884.529	10272.92
884.846	10223.66
885.164	10182.3
885.481	10185.92
885.798	10151.57
886.115	10092.81
886.432	10134.39
886.75	10069.54
887.067	10066.15
887.383	10038.13
887.7	10010.78
888.017	9982.76
888.334	9957.9
888.651	9856.21
888.967	9876.1
889.284	9838.13
889.6	9805.36
889.917	9747.29
890.233	9798.81
890.55	9731.69
890.866	9751.81
891.182	9651.47
891.498	9644.01
891.815	9649.44
892.131	9651.02
892.447	9577.57
892.763	9566.73
893.079	9533.51
893.395	9528.99
893.71	9505.71
894.026	9524.47
894.342	9472.94
894.657	9347.3
894.973	9386.39
895.289	9338.48
895.604	9387.52
895.92	9350.01
896.235	9249.22
896.55	9213.29
896.865	9166.96
897.181	9153.86
897.496	9113.63
897.811	9130.81
898.126	9068.43
898.441	8987.08
898.756	8975.1
899.071	8987.08
899.386	8946.4
899.7	8916.57
900.015	8912.96
900.33	8787.09
900.644	8796.35
900.959	8806.75
901.273	8706.41
901.588	8794.32
901.902	8631.16
902.216	8679.07
902.531	8617.37
902.845	8612.63
903.159	8509.58
903.473	8515.45
903.787	8492.63
904.101	8403.59
904.415	8451.73
904.729	8378.28
905.042	8323.59
905.356	8321.33
905.67	8345.52
905.984	8283.82
906.297	8222.35
906.611	8226.2
906.924	8186.2
907.237	8186.42
907.551	8097.61
907.864	8104.39
908.177	8065.3
908.491	8044.51
908.804	7970.38
909.117	7955.92
909.43	7912.53
909.743	7895.58
910.056	7880.67
910.368	7810.84
910.681	7783.72
910.994	7753.44
911.307	7778.52
911.619	7677.28
911.932	7698.07
912.244	7590.73
912.557	7562.71
912.869	7665.08
913.181	7564.74
913.494	7518.64
913.806	7481.58
914.118	7443.39
914.43	7492.66
914.742	7401.59
915.054	7325.2
915.366	7324.98
915.678	7352.09
915.99	7276.39
916.302	7249.72
916.613	7183.06
916.925	7168.6
917.236	7158.88
917.548	7150.07
917.859	7153.68
918.171	7082.72
918.482	7047.92
918.794	7040.69
919.105	7028.49
919.416	6944.87
919.727	6924.76
920.038	6909.62
920.349	6869.4
920.66	6811.32
920.971	6854.93
921.282	6761.83
921.593	6727.25
921.903	6719.8
922.214	6713.24
922.525	6704.43
922.835	6626.01
923.146	6561.61
923.456	6557.77
923.767	6569.29
924.077	6504.89
924.387	6513.92
924.697	6466.47
925.008	6446.81
925.318	6410.88
925.628	6348.51
925.938	6326.36
926.248	6270.77
926.558	6304.44
926.867	6283.87
927.177	6224.21
927.487	6176.31
927.796	6174.05
928.106	6106.7
928.416	6110.77
928.725	6116.65
929.034	6054.5
929.344	6051.34
929.653	6033.71
929.962	5984
930.271	5971.34
930.581	5951.91
930.89	5898.57
931.199	5883.88
931.508	5852.47
931.817	5875.07
932.125	5850.44
932.434	5835.52
932.743	5735.87
933.051	5735.19
933.36	5739.48
933.669	5710.33
933.977	5663.78
934.286	5651.35
934.594	5645.7
934.902	5577
935.21	5591.01
935.519	5545.36
935.827	5512.6
936.135	5532.48
936.443	5448.87
936.751	5481.18
937.059	5457.23
937.367	5431.92
937.674	5392.6
937.982	5407.74
938.29	5355.99
938.597	5370.45
938.905	5285.93
939.213	5259.04
939.52	5237.57
939.827	5264.69
940.135	5225.6
940.442	5191.25
940.749	5117.8
941.056	5182.89
941.363	5094.75
941.67	5070.35
941.977	5105.83
942.284	5028.77
942.591	5049.78
942.898	4993.29
943.205	4998.71
943.511	4963.91
943.818	4970.24
944.125	4953.51
944.431	4924.36
944.738	4948.99
945.044	4903.57
945.35	4879.17
945.657	4828.77
945.963	4785.38
946.269	4804.59
946.575	4772.95
946.881	4747.19
947.187	4771.37
947.493	4680.75
947.799	4655.22
948.105	4660.19
948.41	4592.17
948.716	4606.4
949.022	4625.16
949.327	4603.69
949.633	4581.32
949.938	4523.24
950.244	4500.87
950.549	4465.17
950.854	4452.51
951.16	4462.68
951.465	4466.07
951.77	4410.25
952.075	4363.02
952.38	4382
952.685	4353.3
952.99	4372.06
953.294	4325.28
953.599	4340.65
953.904	4242.12
954.209	4264.49
954.513	4261.1
954.818	4201.67
955.122	4193.53
955.426	4198.05
955.731	4175.68
956.035	4158.96
956.339	4163.03
956.643	4160.31
956.948	4101.56
957.252	4108.11
957.556	4083.03
957.86	4078.96
958.163	4024.95
958.467	3997.15
958.771	3978.62
959.075	4038.96
959.378	3965.74
959.682	3963.48
959.985	3921.22
960.289	3951.73
960.592	3871.06
960.896	3915.35
961.199	3881.68
961.502	3844.84
961.805	3828.8
962.108	3789.25
962.411	3794.22
962.714	3774.79
963.017	3787.44
963.32	3773.21
963.623	3738.86
963.926	3749.48
964.228	3712.19
964.531	3721.23
964.833	3667.45
965.136	3628.12
965.438	3643.04
965.741	3643.49
966.043	3631.51
966.345	3589.03
966.648	3577.28
966.95	3573.89
967.252	3537.05
967.554	3542.25
967.856	3516.04
968.158	3496.15
968.46	3500.44
968.761	3445.76
969.063	3477.17
969.365	3431.75
969.666	3433.78
969.968	3421.8
970.269	3361.24
970.571	3361.01
970.872	3343.84
971.174	3358.3
971.475	3333.22
971.776	3320.34
972.077	3313.1
972.378	3306.78
972.679	3300.68
972.98	3272.2
973.281	3219.77
973.582	3233.33
973.883	3240.34
974.183	3236.5
974.484	3171.19
974.785	3163.73
975.085	3156.5
975.386	3205.76
975.686	3168.93
975.986	3096.16
976.287	3091.87
976.587	3096.84
976.887	3041.93
977.187	3071.76
977.487	3064.75
977.787	3024.98
978.087	3025.88
978.387	3004.41
978.687	3022.04
978.987	3007.8
979.286	2989.27
979.586	2963.96
979.885	2967.58
980.185	2948.82
980.484	2910.63
980.784	2924.41
981.083	2926.9
981.382	2849.61
981.682	2892.33
981.981	2853.68
982.28	2862.72
982.579	2837.41
982.878	2838.99
983.177	2808.49
983.475	2794.25
983.774	2779.11
984.073	2778.88
984.372	2752.44
984.67	2737.07
984.969	2724.42
985.267	2709.96
985.566	2694.82
985.864	2699.56
986.162	2712.22
986.461	2697.53
986.759	2680.13
987.057	2643.74
987.355	2625.89
987.653	2651.2
987.951	2617.98
988.249	2572.79
988.547	2619.79
988.844	2583.18
989.142	2563.97
989.44	2560.36
989.737	2536.18
990.035	2521.49
990.332	2540.47
990.63	2509.28
990.927	2498.44
991.224	2473.35
991.521	2471.77
991.819	2488.72
992.116	2450.98
992.413	2445.33
992.71	2415.95
993.006	2438.55
993.303	2365.33
993.6	2415.73
993.897	2352
994.193	2366.24
994.49	2369.85
994.787	2294.6
995.083	2339.35
995.379	2328.72
995.676	2326.69
995.972	2253.02
996.268	2300.25
996.565	2310.65
996.861	2279.46
997.157	2234.94
997.453	2225.68
997.749	2286.92
998.044	2265.9
998.34	2212.34
998.636	2210.08
998.932	2207.37
999.227	2154.72
999.523	2182.06
999.818	2140.71
1000.114	2162.17
1000.409	2117.43
1000.704	2111.78
1001	2094.83
1001.295	2114.49
1001.59	2088.96
1001.885	2109.52
1002.18	2047.15
1002.475	2065.68
1002.77	2064.32
1003.065	1998.56
1003.359	2020.71
1003.654	2001.73
1003.949	1967.6
1004.243	1952.01
1004.538	1971.9
1004.832	1976.87
1005.127	1940.49
1005.421	1962.86
1005.715	1931.67
1006.009	1943.65
1006.304	1879.7
1006.598	1890.09
1006.892	1874.5
1007.186	1889.87
1007.48	1868.62
1007.773	1862.52
1008.067	1827.72
1008.361	1808.29
1008.655	1824.78
1008.948	1811
1009.242	1788.17
1009.535	1804.22
1009.829	1774.84
1010.122	1782.52
1010.415	1786.59
1010.708	1778.23
1011.001	1756.08
1011.295	1741.39
1011.588	1734.16
1011.881	1704.56
1012.173	1716.76
1012.466	1705.46
1012.759	1687.39
1013.052	1664.33
1013.344	1659.82
1013.637	1674.96
1013.93	1666.37
1014.222	1627.5
1014.514	1655.07
1014.807	1629.31
1015.099	1586.82
1015.391	1601.96
1015.683	1577.33
1015.976	1576.88
1016.268	1573.04
1016.56	1575.07
1016.851	1555.86
1017.143	1539.37
1017.435	1556.54
1017.727	1501.63
1018.018	1524.9
1018.31	1478.58
1018.602	1514.06
1018.893	1515.86
1019.185	1488.52
1019.476	1436.54
1019.767	1451.46
1020.058	1448.52
1020.35	1438.13
1020.641	1443.1
1020.932	1417.56
1021.223	1447.39
1021.514	1435.64
1021.804	1410.1
1022.095	1382.76
1022.386	1391.8
1022.677	1358.35
1022.967	1361.52
1023.258	1327.85
1023.548	1355.42
1023.839	1345.7
1024.129	1325.81
1024.419	1319.49
1024.709	1300.28
1025	1281.75
1025.29	1285.59
1025.58	1294.63
1025.87	1232.03
1026.16	1276.77
1026.449	1274.97
1026.739	1248.3
1027.029	1249.2
1027.319	1221.18
1027.608	1223.89
1027.898	1227.06
1028.187	1230.22
1028.477	1210.11
1028.766	1203.78
1029.055	1184.57
1029.344	1171.69
1029.634	1157
1029.923	1184.12
1030.212	1146.83
1030.501	1146.61
1030.79	1122.2
1031.078	1113.16
1031.367	1096.89
1031.656	1095.76
1031.945	1128.08
1032.233	1112.03
1032.522	1105.03
1032.81	1097.8
1033.099	1085.37
1033.387	1087.17
1033.675	1057.8
1033.963	1060.96
1034.251	1062.77
1034.54	1060.06
1034.828	1032.71
1035.116	1036.33
1035.403	1021.64
1035.691	980.96
1035.979	1027.74
1036.267	1011.7
1036.554	1030.68
1036.842	1015.76
1037.129	999.49
1037.417	951.36
1037.704	952.49
1037.992	962.66
1038.279	961.08
1038.566	965.82
1038.853	965.82
1039.14	965.82
