Data from hue_170_FLMS001491_00071.txt Node
Date: Tue Feb 07 16:49:09 GMT 2017
User: dcchb
Spectrometer: FLMS00149
Trigger mode: 0
Integration Time (sec): 2.000000E-2
Scans to average: 10
Electric dark correction enabled: true
Nonlinearity correction enabled: false
Boxcar width: 0
XAxis mode: Wavelengths
Number of Pixels in Spectrum: 2048
>>>>>Begin Spectral Data<<<<<
341.393	-12.27
341.776	-12.27
342.16	-12.27
342.543	-72.61
342.927	-71.03
343.31	-79.84
343.693	-91.37
344.077	-59.28
344.46	-61.99
344.843	-56.57
345.226	-53.4
345.61	-38.04
345.993	-11.82
346.376	-16.12
346.759	-5.72
347.142	21.85
347.525	63.88
347.908	66.82
348.291	91.45
348.674	94.16
349.057	135.97
349.44	151.79
349.823	140.94
350.206	164.44
350.588	175.74
350.971	199.02
351.354	241.73
351.737	238.12
352.119	232.47
352.502	264.33
352.884	282.18
353.267	276.08
353.65	286.02
354.032	304.1
354.414	307.72
354.797	309.75
355.179	300.26
355.562	332.8
355.944	325.34
356.326	329.19
356.709	333.48
357.091	326.7
357.473	339.81
357.855	331.45
358.238	346.36
358.62	351.56
359.002	352.01
359.384	343.2
359.766	328.06
360.148	331.22
360.53	341.62
360.912	329.41
361.294	334.16
361.676	325.57
362.057	312.24
362.439	340.03
362.821	334.84
363.203	335.97
363.584	309.3
363.966	296.19
364.348	320.6
364.729	331.67
365.111	326.02
365.493	325.8
365.874	308.85
366.256	319.69
366.637	325.12
367.019	331.67
367.4	313.37
367.781	307.27
368.163	313.14
368.544	302.75
368.925	293.03
369.306	316.76
369.688	289.41
370.069	282.63
370.45	325.8
370.831	319.47
371.212	287.61
371.593	311.56
371.974	335.29
372.355	307.49
372.736	313.14
373.117	332.8
373.498	312.69
373.879	301.16
374.26	320.15
374.641	310.43
375.021	321.05
375.402	311.11
375.783	304.55
376.163	322.86
376.544	335.29
376.925	311.11
377.305	317.44
377.686	323.08
378.066	317.89
378.447	319.47
378.827	328.51
379.208	331.45
379.588	330.77
379.968	329.64
380.349	319.47
380.729	349.3
381.109	334.61
381.489	341.39
381.87	338.68
382.25	326.47
382.63	321.73
383.01	346.59
383.39	339.81
383.77	325.34
384.15	332.12
384.53	329.86
384.91	335.97
385.29	333.25
385.67	341.62
386.049	336.64
386.429	322.63
386.809	340.03
387.189	348.39
387.568	335.74
387.948	344.33
388.328	370.32
388.707	344.55
389.087	345.23
389.466	356.98
389.846	359.02
390.225	362.63
390.605	356.98
390.984	332.8
391.363	344.1
391.743	354.04
392.122	367.83
392.501	372.35
392.881	361.5
393.26	365.34
393.639	372.12
394.018	371.9
394.397	375.29
394.776	368.06
395.155	360.82
395.534	384.1
395.913	375.96
396.292	371.22
396.671	369.86
397.05	394.72
397.429	393.14
397.808	387.04
398.186	389.52
398.565	376.19
398.944	399.92
399.323	400.37
399.701	387.26
400.08	379.35
400.458	382.07
400.837	383.87
401.215	379.35
401.594	398.79
401.972	407.83
402.351	411.67
402.729	398.56
403.107	404.44
403.486	411.9
403.864	400.6
404.242	431.78
404.62	428.39
404.999	417.77
405.377	407.38
405.755	404.66
406.133	401.73
406.511	435.85
406.889	424.1
407.267	439.47
407.645	438.79
408.023	426.36
408.401	434.95
408.779	435.85
409.156	448.96
409.534	448.73
409.912	444.21
410.29	466.36
410.667	448.51
411.045	471.1
411.422	470.65
411.8	481.5
412.178	490.09
412.555	474.27
412.933	515.85
413.31	500.71
413.687	487.6
414.065	514.49
414.442	515.4
414.819	524.66
415.197	506.58
415.574	523.53
415.951	530.31
416.328	554.49
416.705	538.67
417.082	543.42
417.46	540.03
417.837	540.71
418.214	552.46
418.591	547.94
418.967	563.76
419.344	552.46
419.721	573.25
420.098	562.63
420.475	580.25
420.852	595.62
421.228	613.7
421.605	589.52
421.982	622.96
422.358	603.3
422.735	613.92
423.111	621.38
423.488	640.59
423.864	622.29
424.241	647.37
424.617	652.57
424.994	656.41
425.37	655.73
425.746	654.83
426.123	692.11
426.499	667.93
426.875	689.85
427.251	684.21
427.627	704.54
428.003	697.31
428.379	729.63
428.756	707.93
429.132	738.67
429.507	709.06
429.883	740.93
430.259	728.27
430.635	748.38
431.011	766.46
431.387	756.75
431.763	769.4
432.138	757.65
432.514	789.74
432.89	792.45
433.265	815.5
433.641	807.82
434.016	823.41
434.392	829.29
434.767	854.14
435.143	866.57
435.518	851.21
435.894	864.99
436.269	885.1
436.644	892.34
437.02	894.6
437.395	933.92
437.77	938.89
438.145	958.1
438.52	956.29
438.895	935.05
439.271	977.3
439.646	987.47
440.021	998.55
440.395	1013.91
440.77	991.99
441.145	995.61
441.52	1000.58
441.895	1046.68
442.27	1050.07
442.645	1064.53
443.019	1068.15
443.394	1091.65
443.769	1068.6
444.143	1076.06
444.518	1097.3
444.892	1080.58
445.267	1097.98
445.641	1108.15
446.016	1155.61
446.39	1144.98
446.764	1142.27
447.139	1141.37
447.513	1156.28
447.887	1156.51
448.262	1172.55
448.636	1192.21
449.01	1169.16
449.384	1192.44
449.758	1197.41
450.132	1222.95
450.506	1253.91
450.88	1242.61
451.254	1263.85
451.628	1250.97
452.002	1268.14
452.376	1272.89
452.75	1324.87
453.123	1297.3
453.497	1335.71
453.871	1315.15
454.244	1361.25
454.618	1391.98
454.992	1356.05
455.365	1404.41
455.739	1430.4
456.112	1447.8
456.486	1443.96
456.859	1466.78
457.232	1496.84
457.606	1492.32
457.979	1482.15
458.352	1520.34
458.725	1564.18
459.099	1570.96
459.472	1587.46
459.845	1598.76
460.218	1630.39
460.591	1687.57
460.964	1657.06
461.337	1676.04
461.71	1725.99
462.083	1730.73
462.456	1739.32
462.829	1787.68
463.201	1808.02
463.574	1811.63
463.947	1836.72
464.32	1875.59
464.692	1889.82
465.065	1925.08
465.438	1955.36
465.81	1961.91
466.183	1978.18
466.555	2037.84
466.928	2070.84
467.3	2038.07
467.672	2108.57
468.045	2161.91
468.417	2162.36
468.789	2225.18
469.161	2227.67
469.534	2297.27
469.906	2348.79
470.278	2359.64
470.65	2349.7
471.022	2466.53
471.394	2452.29
471.766	2551.27
472.138	2545.63
472.51	2641.44
472.882	2692.74
473.253	2718.73
473.625	2794.21
473.997	2846.18
474.369	2898.16
474.74	2947.87
475.112	2980.19
475.484	3094.76
475.855	3150.36
476.227	3211.82
476.598	3264.02
476.97	3365.26
477.341	3399.39
477.713	3479.39
478.084	3523.23
478.455	3621.53
478.827	3703.33
479.198	3865.82
479.569	3866.04
479.94	3973.16
480.311	4066.72
480.682	4161.85
481.053	4321.62
481.424	4384.9
481.795	4492.01
482.166	4541.5
482.537	4626.25
482.908	4789.86
483.279	4864.66
483.65	5018.55
484.021	5128.83
484.391	5212.22
484.762	5306.23
485.133	5333.8
485.503	5480.46
485.874	5577.41
486.244	5745.54
486.615	5848.59
486.985	5932.65
487.356	6150.28
487.726	6214
488.097	6355.02
488.467	6445.18
488.837	6639.08
489.207	6712.97
489.578	6879.75
489.948	6955
490.318	7073.42
490.688	7157.26
491.058	7348.89
491.428	7447.87
491.798	7500.3
492.168	7747.52
492.538	7821.19
492.908	7927.18
493.278	8112.03
493.648	8163.56
494.017	8261.41
494.387	8363.55
494.757	8541.85
495.126	8610.32
495.496	8653.04
495.866	8704.56
496.235	8926.47
496.605	8988.85
496.974	9055.28
497.344	9165.34
497.713	9281.27
498.082	9394.94
498.452	9477.87
498.821	9478.1
499.19	9545.67
499.559	9651.43
499.928	9765.55
500.298	9803.97
500.667	9916.05
501.036	9941.14
501.405	10003.96
501.774	10082.6
502.143	10224.97
502.512	10196.95
502.88	10356.72
503.249	10330.51
503.618	10457.28
503.987	10474.23
504.356	10519.65
504.724	10589.48
505.093	10602.14
505.462	10615.47
505.83	10701.12
506.199	10747.9
506.567	10972.52
506.936	10947.21
507.304	11007.32
507.672	11041.9
508.041	11090.71
508.409	11165.51
508.777	11216.58
509.145	11350.37
509.514	11190.82
509.882	11290.25
510.25	11340.2
510.618	11448.67
510.986	11426.75
511.354	11496.8
511.722	11492.96
512.09	11612.73
512.458	11546.07
512.826	11639.17
513.193	11673.75
513.561	11641.21
513.929	11722.11
514.297	11794.65
514.664	11896.11
515.032	11834.42
515.4	11884.81
515.767	11905.38
516.135	11924.81
516.502	11771.82
516.869	12007.07
517.237	12045.49
517.604	11959.39
517.972	12113.96
518.339	12075.77
518.706	12020.18
519.073	12098.14
519.44	12127.75
519.808	12268.08
520.175	12087.52
520.542	12269.89
520.909	12254.3
521.276	12232.38
521.643	12346.95
522.009	12323.9
522.376	12418.81
522.743	12415.87
523.11	12457.68
523.477	12498.36
523.843	12478.47
524.21	12543.33
524.577	12525.7
524.943	12587.62
525.31	12608.86
525.676	12636.89
526.043	12683.21
526.409	12663.1
526.776	12699.93
527.142	12695.19
527.508	12656.77
527.874	12691.8
528.241	12702.19
528.607	12668.75
528.973	12761.4
529.339	12661.97
529.705	12705.36
530.071	12763.44
530.437	12728.41
530.803	12765.92
531.169	12794.62
531.535	12674.4
531.901	12665.13
532.267	12652.03
532.632	12713.04
532.998	12726.6
533.364	12592.59
533.73	12560.05
534.095	12591.46
534.461	12660.84
534.826	12582.88
535.192	12537.23
535.557	12602.08
535.923	12506.72
536.288	12494.74
536.653	12498.36
537.019	12384.24
537.384	12388.3
537.749	12330.45
538.114	12291.81
538.479	12262.66
538.845	12240.51
539.21	12177.24
539.575	12185.15
539.94	12100.4
540.305	12109.67
540.67	12003
541.034	12033.06
541.399	12008.43
541.764	11990.35
542.129	11948.09
542.494	11846.4
542.858	11844.82
543.223	11813.4
543.587	11778.15
543.952	11715.55
544.316	11684.59
544.681	11672.16
545.045	11666.06
545.41	11637.36
545.774	11591.71
546.138	11554.2
546.503	11550.81
546.867	11417.93
547.231	11509.46
547.595	11448.44
547.959	11395.79
548.324	11302.46
548.688	11305.39
549.052	11263.36
549.416	11226.75
549.779	11163.48
550.143	11130.03
550.507	11131.61
550.871	11166.64
551.235	11008.91
551.599	11065.4
551.962	10982.24
552.326	10946.99
552.689	10997.83
553.053	10870.38
553.417	10895.69
553.78	10953.31
554.143	10730.72
554.507	10826.99
554.87	10781.34
555.234	10783.83
555.597	10753.32
555.96	10682.13
556.323	10788.8
556.686	10726.65
557.05	10724.17
557.413	10637.62
557.776	10592.65
558.139	10646.88
558.502	10619.99
558.865	10556.94
559.228	10572.31
559.59	10577.5
559.953	10593.55
560.316	10475.59
560.679	10478.98
561.041	10478.98
561.404	10545.87
561.767	10575.7
562.129	10471.97
562.492	10542.93
562.854	10525.08
563.217	10464.51
563.579	10460.22
563.941	10560.78
564.304	10546.09
564.666	10563.72
565.028	10497.28
565.39	10515.13
565.753	10575.7
566.115	10543.38
566.477	10604.4
566.839	10593.55
567.201	10605.3
567.563	10579.99
567.925	10670.84
568.287	10610.27
568.648	10558.3
569.01	10568.92
569.372	10652.98
569.734	10598.07
570.095	10630.84
570.457	10589.71
570.819	10616.6
571.18	10554.45
571.542	10646.43
571.903	10584.06
572.265	10665.19
572.626	10637.84
572.987	10682.36
573.349	10693.21
573.71	10685.52
574.071	10591.29
574.432	10704.51
574.794	10699.54
575.155	10673.55
575.516	10659.54
575.877	10699.76
576.238	10655.92
576.599	10662.25
576.96	10600.1
577.32	10646.66
577.681	10744.96
578.042	10755.35
578.403	10702.47
578.763	10722.81
579.124	10744.96
579.485	10723.94
579.845	10759.42
580.206	10734.56
580.566	10644.62
580.927	10708.12
581.287	10780.66
581.648	10672.87
582.008	10658.41
582.368	10673.1
582.728	10680.33
583.089	10634.68
583.449	10623.15
583.809	10648.46
584.169	10629.25
584.529	10606.2
584.889	10640.78
585.249	10593.32
585.609	10528.01
585.969	10597.84
586.329	10560.33
586.688	10499.54
587.048	10570.05
587.408	10497.51
587.768	10497.73
588.127	10504.51
588.487	10538.64
588.846	10496.6
589.206	10477.39
589.565	10539.54
589.925	10589.03
590.284	10519.88
590.643	10466.77
591.003	10496.15
591.362	10523.27
591.721	10519.65
592.08	10528.92
592.44	10403.05
592.799	10452.54
593.158	10459.09
593.517	10459.77
593.876	10458.41
594.235	10389.71
594.593	10408.7
594.952	10445.98
595.311	10354.91
595.67	10385.65
596.029	10482.37
596.387	10354.46
596.746	10429.26
597.104	10314.69
597.463	10405.98
597.822	10408.02
598.18	10365.31
598.538	10337.74
598.897	10417.06
599.255	10269.26
599.613	10446.21
599.972	10373.22
600.33	10338.19
600.688	10331.18
601.046	10395.36
601.404	10406.21
601.762	10358.08
602.12	10379.09
602.478	10340
602.836	10407.11
603.194	10269.94
603.552	10341.35
603.91	10276.5
604.268	10291.64
604.625	10296.83
604.983	10349.49
605.341	10259.55
605.698	10391.52
606.056	10316.49
606.413	10282.6
606.771	10379.77
607.128	10305.42
607.485	10299.77
607.843	10300.22
608.2	10427
608.557	10418.86
608.914	10348.58
609.272	10387.23
609.629	10412.99
609.986	10428.58
610.343	10411.18
610.7	10384.06
611.057	10425.64
611.414	10388.81
611.771	10387.9
612.127	10433.1
612.484	10401.24
612.841	10457.28
613.198	10473.33
613.554	10408.92
613.911	10467
614.267	10452.99
614.624	10451.18
614.98	10513.78
615.337	10528.47
615.693	10480.11
616.05	10485.98
616.406	10507.9
616.762	10516.26
617.118	10423.61
617.475	10497.28
617.831	10485.53
618.187	10562.36
618.543	10510.39
618.899	10571.63
619.255	10516.49
619.611	10573.44
619.967	10623.15
620.323	10621.8
620.678	10602.36
621.034	10532.08
621.39	10564.62
621.746	10532.76
622.101	10616.15
622.457	10552.65
622.812	10597.84
623.168	10562.82
623.523	10601.23
623.879	10662.93
624.234	10521.91
624.589	10615.7
624.945	10617.05
625.3	10606.88
625.655	10567.34
626.01	10557.84
626.365	10573.66
626.72	10529.14
627.075	10563.95
627.43	10553.1
627.785	10553.78
628.14	10505.42
628.495	10575.92
628.85	10530.5
629.205	10486.21
629.559	10529.37
629.914	10502.7
630.269	10509.26
630.623	10501.8
630.978	10481.91
631.332	10472.2
631.687	10544.74
632.041	10481.69
632.396	10499.54
632.75	10484.85
633.104	10377.96
633.459	10399.66
633.813	10372.54
634.167	10432.88
634.521	10316.27
634.875	10412.08
635.229	10343.39
635.583	10372.76
635.937	10368.24
636.291	10302.71
636.645	10380.9
636.999	10297.74
637.352	10363.05
637.706	10218.19
638.06	10340
638.413	10269.04
638.767	10282.14
639.121	10205.31
639.474	10109.49
639.828	10216.38
640.181	10259.77
640.534	10205.08
640.888	10191.98
641.241	10075.14
641.594	10170.74
641.947	10149.94
642.301	10137.29
642.654	10177.97
643.007	10180
643.36	10142.49
643.713	10158.31
644.066	10203.5
644.419	10128.02
644.771	10089.61
645.124	9990.4
645.477	9958.09
645.83	9908.14
646.182	9846.9
646.535	9823.17
646.888	9808.03
647.24	9788.15
647.593	9864.75
647.945	9844.42
648.298	9763.06
648.65	9765.1
649.002	9804.19
649.355	9846
649.707	9787.24
650.059	9820.01
650.411	9930.52
650.763	9969.61
651.115	10079.44
651.467	10059.1
651.819	10003.28
652.171	10099.55
652.523	9961.25
652.875	9960.57
653.227	9969.84
653.578	10101.13
653.93	10029.27
654.282	9954.7
654.633	9984.53
654.985	9949.05
655.337	9985.66
655.688	10045.09
656.039	10037.41
656.391	9984.98
656.742	9996.5
657.094	10004.86
657.445	10000.57
657.796	10009.16
658.147	10014.13
658.498	9995.37
658.849	10022.72
659.2	10032.43
659.551	10029.72
659.902	10052.32
660.253	10035.6
660.604	10088.48
660.955	9982.49
661.306	10088.03
661.656	10116.73
662.007	10082.15
662.358	10086.44
662.708	10043.73
663.059	10151.75
663.409	10021.36
663.76	10123.28
664.11	10128.7
664.461	10123.28
664.811	10192.2
665.161	10105.2
665.511	10071.98
665.862	10168.48
666.212	10205.99
666.562	10144.75
666.912	10123.73
667.262	10070.17
667.612	10083.96
667.962	10102.71
668.312	10129.83
668.662	10191.07
669.011	10107.23
669.361	10094.81
669.711	10126.44
670.06	10055.03
670.41	10109.72
670.76	10043.06
671.109	10080.57
671.459	10072.43
671.808	10074.24
672.157	10109.72
672.507	10005.77
672.856	10041.7
673.205	10001.25
673.554	10059.1
673.904	9992.89
674.253	9985.2
674.602	9984.3
674.951	9843.51
675.3	9810.97
675.649	9986.33
675.998	9946.79
676.346	9927.35
676.695	9993.79
677.044	9904.98
677.393	9817.52
677.741	9932.1
678.09	9892.55
678.438	9857.07
678.787	9843.96
679.135	9880.57
679.484	9789.05
679.832	9854.36
680.181	9771.65
680.529	9771.42
680.877	9794.47
681.225	9749.28
681.573	9833.34
681.922	9780.69
682.27	9749.96
682.618	9731.42
682.966	9676.74
683.314	9740.46
683.661	9627.02
684.009	9646
684.357	9621.15
684.705	9534.82
685.053	9581.6
685.4	9580.02
685.748	9583.63
686.095	9476.06
686.443	9481.26
686.79	9507.7
687.138	9480.58
687.485	9507.48
687.832	9417.08
688.18	9499.79
688.527	9364.43
688.874	9401.04
689.221	9336.18
689.568	9249.63
689.915	9318.33
690.262	9303.41
690.609	9267.03
690.956	9236.3
691.303	9216.86
691.65	9076.75
691.997	9124.21
692.344	9060.48
692.69	9093.7
693.037	9072.23
693.383	9003.99
693.73	8993.82
694.077	8893.93
694.423	8933.03
694.769	8877.44
695.116	8834.05
695.462	8855.06
695.808	8835.63
696.155	8833.37
696.501	8708.63
696.847	8751.79
697.193	8692.13
697.539	8726.03
697.885	8585.69
698.231	8602.42
698.577	8610.1
698.923	8533.72
699.269	8478.35
699.614	8401.06
699.96	8450.78
700.306	8453.27
700.651	8358.13
700.997	8334.63
701.342	8359.03
701.688	8322.65
702.033	8219.83
702.379	8236.32
702.724	8207.4
703.069	8275.64
703.415	8132.82
703.76	8093.5
704.105	8131.69
704.45	7997.69
704.795	8032.94
705.14	8023.45
705.485	8004.46
705.83	7992.26
706.175	7998.59
706.52	7915.65
706.865	7864.36
707.209	7830.91
707.554	7823.23
707.899	7825.94
708.243	7751.14
708.588	7748.88
708.932	7740.97
709.277	7740.52
709.621	7739.84
709.966	7674.98
710.31	7698.26
710.654	7631.59
710.998	7631.82
711.342	7609.67
711.687	7586.85
712.031	7607.86
712.375	7530.58
712.719	7519.51
713.063	7507.08
713.407	7522.44
713.75	7502.56
714.094	7463.46
714.438	7479.51
714.782	7433.86
715.125	7351.37
715.469	7409.45
715.812	7355.89
716.156	7368.55
716.499	7283.81
716.843	7348.66
717.186	7263.02
717.53	7347.08
717.873	7336.91
718.216	7259.63
718.559	7242
718.902	7200.64
719.246	7226.86
719.589	7239.51
719.932	7195.67
720.275	7225.5
720.617	7197.03
720.96	7148.22
721.303	7203.13
721.646	7129.01
721.989	7174.88
722.331	7164.49
722.674	7267.08
723.016	7155.45
723.359	7192.28
723.701	7175.33
724.044	7131.95
724.386	7097.14
724.729	7141.66
725.071	7117.93
725.413	7141.89
725.755	7092.4
726.097	7114.54
726.439	7016.92
726.782	7041.33
727.124	7118.61
727.465	7068.67
727.807	7090.82
728.149	7051.95
728.491	7075.9
728.833	7052.63
729.175	7039.97
729.516	7038.84
729.858	7053.98
730.199	7016.92
730.541	7074.55
730.882	7082.91
731.224	7034.77
731.565	7088.1
731.906	7026.86
732.248	7072.51
732.589	7004.49
732.93	7070.93
733.271	6983.25
733.612	7059.4
733.953	7096.47
734.294	7033.87
734.635	7054.21
734.976	7033.64
735.317	7040.42
735.658	7063.92
735.999	7105.28
736.339	7072.06
736.68	7107.31
737.021	7066.86
737.361	7003.59
737.702	7097.14
738.042	7128.33
738.383	7063.25
738.723	7125.39
739.063	7169.46
739.404	7205.62
739.744	7159.74
740.084	7148.67
740.424	7145.73
740.764	7130.82
741.104	7164.26
741.444	7180.53
741.784	7226.41
742.124	7200.87
742.464	7252.62
742.804	7280.42
743.143	7272.28
743.483	7243.35
743.823	7256.24
744.162	7276.57
744.502	7336.69
744.841	7360.87
745.181	7452.16
745.52	7456
745.86	7482.22
746.199	7476.57
746.538	7515.66
746.877	7615.1
747.216	7665.26
747.556	7757.47
747.895	7798.82
748.234	7769.67
748.573	7854.86
748.911	7901.19
749.25	7923.11
749.589	7980.28
749.928	8054.18
750.267	8164.91
750.605	8174.63
750.944	8293.72
751.283	8309.54
751.621	8457.33
751.96	8499.37
752.298	8569.42
752.636	8708.17
752.975	8725.12
753.313	8819.81
753.651	9022.07
753.989	9057.77
754.327	9192.46
754.666	9320.59
755.004	9397.65
755.342	9528.49
755.679	9608.26
756.017	9764.42
756.355	9920.35
756.693	9976.84
757.031	10232.2
757.368	10320.79
757.706	10428.13
758.044	10636.03
758.381	10775.24
758.719	10843.94
759.056	11106.76
759.394	11269.69
759.731	11348.33
760.068	11511.94
760.405	11652.73
760.743	11860.86
761.08	12078.93
761.417	12092.72
761.754	12299.04
762.091	12451.81
762.428	12639.6
762.765	12763.21
763.102	13061.96
763.438	13156.87
763.775	13314.38
764.112	13480.48
764.449	13708.5
764.785	13783.07
765.122	13889.51
765.458	14029.62
765.795	14140.35
766.131	14481.81
766.467	14478.42
766.804	14652.65
767.14	14666.66
767.476	14910.5
767.812	15065.07
768.148	15205.86
768.485	15276.14
768.821	15317.27
769.157	15629.57
769.492	15675.9
769.828	15827.76
770.164	15839.06
770.5	15956.57
770.836	16072.05
771.171	16212.61
771.507	16229.56
771.842	16325.6
772.178	16454.19
772.513	16506.61
772.849	16688.08
773.184	16699.38
773.519	16795.65
773.855	16810.79
774.19	16963.33
774.525	16935.08
774.86	17073.38
775.195	17181.17
775.53	17127.16
775.865	17115.41
776.2	17126.71
776.535	17144.11
776.87	17253.94
777.205	17354.73
777.539	17307.72
777.874	17433.6
778.209	17352.02
778.543	17384.11
778.878	17304.79
779.212	17552.01
779.547	17405.8
779.881	17510.88
780.215	17529.41
780.55	17615.51
780.884	17472.69
781.218	17473.59
781.552	17642.86
781.886	17588.39
782.22	17577.32
782.554	17520.37
782.888	17507.72
783.222	17548.85
783.556	17425.69
783.889	17559.92
784.223	17435.63
784.557	17518.34
784.89	17501.84
785.224	17469.07
785.557	17390.21
785.891	17432.69
786.224	17411.45
786.558	17407.61
786.891	17348.63
787.224	17308.85
787.557	17325.58
787.891	17306.59
788.224	17369.64
788.557	17398.12
788.89	17345.69
789.223	17350.43
789.556	17202.87
789.888	17163.77
790.221	17262.07
790.554	17108.63
790.887	17069.99
791.219	17099.82
791.552	17025.7
791.884	16951.35
792.217	16973.27
792.549	16891.24
792.882	16871.12
793.214	16766.04
793.546	16850.79
793.879	16766.72
794.211	16714.52
794.543	16789.54
794.875	16770.79
795.207	16727.17
795.539	16635.2
795.871	16632.49
796.203	16538.03
796.535	16471.59
796.867	16507.52
797.198	16497.8
797.53	16434.07
797.862	16341.87
798.193	16500.51
798.525	16307.3
798.856	16350.91
799.188	16127.19
799.519	16170.8
799.85	16108.66
800.182	16167.41
800.513	16193.63
800.844	15987.53
801.175	16191.59
801.506	16002.67
801.837	15910.7
802.168	16024.37
802.499	15951.15
802.83	15788.67
803.161	15850.36
803.491	15801.77
803.822	15830.47
804.153	15722.68
804.483	15573.31
804.814	15599.52
805.145	15589.35
805.475	15612.17
805.805	15529.69
806.136	15579.18
806.466	15578.73
806.796	15507.77
807.126	15484.27
807.457	15378.96
807.787	15371.05
808.117	15326.98
808.447	15206.99
808.777	15249.02
809.107	15185.07
809.436	15239.75
809.766	15116.37
810.096	15154.33
810.426	15101.45
810.755	15043.83
811.085	14972.42
811.414	15052.41
811.744	14882.02
812.073	14930.16
812.403	14910.72
812.732	14769.71
813.061	14849.48
813.39	14769.03
813.719	14798.18
814.049	14826.88
814.378	14720.9
814.707	14700.11
815.036	14660.56
815.365	14684.74
815.693	14513.67
816.022	14536.04
816.351	14461.92
816.68	14391.19
817.008	14498.76
817.337	14369.72
817.665	14303.73
817.994	14378.53
818.322	14349.16
818.651	14247.01
818.979	14209.73
819.307	14307.58
819.636	14325.2
819.964	14137.64
820.292	14313.45
820.62	14203.17
820.948	14158.2
821.276	14125.21
821.604	14114.13
821.932	14262.15
822.259	14142.83
822.587	14172.21
822.915	14092.89
823.243	14184.64
823.57	14047.92
823.898	14181.25
824.225	14068.49
824.553	14132.89
824.88	14128.6
825.207	14159.11
825.535	14113.23
825.862	14163.85
826.189	14041.82
826.516	14162.27
826.843	14183.96
827.17	14231.65
827.497	14252.66
827.824	14221.93
828.151	14164.3
828.478	14215.37
828.805	14164.08
829.131	14189.84
829.458	14197.97
829.785	14118.2
830.111	14081.14
830.438	14224.87
830.764	14245.88
831.09	14139.44
831.417	14085.89
831.743	14159.11
832.069	14187.35
832.395	14085.66
832.722	14110.52
833.048	14035.27
833.374	14103.29
833.7	14032.78
834.026	14074.36
834.351	14171.76
834.677	14103.06
835.003	14059.22
835.329	14081.82
835.654	14025.55
835.98	14041.59
836.306	14014.25
836.631	13912.56
836.956	13964.99
837.282	14003.85
837.607	13908.49
837.932	13885.44
838.258	13887.93
838.583	13889.06
838.908	13783.52
839.233	13812.9
839.558	13784.65
839.883	13765.22
840.208	13714.15
840.533	13704.88
840.858	13655.16
841.182	13740.81
841.507	13729.06
841.832	13572.23
842.156	13584.43
842.481	13534.04
842.805	13598.89
843.13	13544.88
843.454	13524.77
843.778	13370.43
844.103	13319.58
844.427	13358.67
844.751	13337.43
845.075	13359.58
845.399	13372.01
845.723	13213.59
846.047	13301.5
846.371	13064.44
846.695	13111.9
847.019	13088.17
847.343	13032.58
847.666	12866.71
847.99	12817.45
848.313	12861.06
848.637	12753.27
848.96	12743.78
849.284	12744.91
849.607	12607.28
849.931	12577.23
850.254	12548.07
850.577	12505.14
850.9	12387.63
851.223	12415.2
851.546	12329.77
851.869	12278.02
852.192	12246.61
852.515	12226.27
852.838	12082.78
853.161	12133.62
853.483	12107.86
853.806	12025.83
854.129	12017.24
854.451	11951.93
854.774	11835.78
855.096	11785.83
855.419	11838.94
855.741	11713.52
856.063	11746.51
856.385	11652.5
856.708	11569.34
857.03	11616.57
857.352	11614.31
857.674	11614.09
857.996	11556.01
858.318	11453.19
858.64	11470.36
858.961	11456.58
859.283	11369.12
859.605	11351.04
859.926	11361.89
860.248	11349.24
860.57	11231.72
860.891	11323.93
861.212	11254.55
861.534	11210.93
861.855	11213.87
862.176	11200.54
862.498	11169.81
862.819	11175.91
863.14	11069.47
863.461	11058.4
863.782	10996.7
864.103	11073.76
864.424	11023.59
864.745	11024.27
865.065	10974.1
865.386	10888.46
865.707	10989.92
866.027	10909.02
866.348	10900.89
866.668	10867.89
866.989	10827.89
867.309	10813.2
867.63	10791.51
867.95	10806.42
868.27	10806.2
868.59	10775.69
868.91	10732.53
869.23	10709.93
869.55	10638.29
869.87	10693.43
870.19	10664.06
870.51	10699.08
870.83	10686.88
871.15	10643.04
871.469	10584.96
871.789	10599.42
872.109	10572.98
872.428	10553.32
872.748	10533.44
873.067	10578.63
873.386	10488.02
873.706	10550.61
874.025	10468.13
874.344	10467.9
874.663	10450.73
874.982	10481.69
875.301	10389.94
875.62	10361.24
875.939	10352.88
876.258	10400.11
876.577	10354.91
876.896	10346.55
877.214	10326.66
877.533	10276.5
877.852	10273.33
878.17	10282.37
878.489	10274.24
878.807	10296.38
879.125	10237.4
879.444	10205.31
879.762	10160.57
880.08	10177.97
880.398	10107.46
880.716	10136.61
881.034	10100.68
881.352	10148.14
881.67	10033.56
881.988	10033.11
882.306	9973.68
882.624	9968.48
882.941	9961.25
883.259	9928.48
883.577	9930.97
883.894	9943.62
884.212	9867.92
884.529	9908.14
884.846	9864.98
885.164	9798.09
885.481	9741.14
885.798	9732.55
886.115	9696.17
886.432	9708.83
886.75	9678.09
887.067	9739.56
887.383	9643.74
887.7	9686.91
888.017	9624.99
888.334	9685.1
888.651	9563.52
888.967	9576.4
889.284	9512.9
889.6	9431.09
889.917	9425.22
890.233	9464.54
890.55	9360.14
890.866	9435.16
891.182	9264.77
891.498	9371.66
891.815	9224.09
892.131	9258.22
892.447	9255.96
892.763	9203.76
893.079	9193.13
893.395	9138.9
893.71	9235.62
894.026	9142.74
894.342	9081.27
894.657	9055.28
894.973	8969.41
895.289	8960.37
895.604	8975.51
895.92	8915.18
896.235	8935.74
896.55	8888.28
896.865	8862.75
897.181	8795.63
897.496	8806.93
897.811	8740.94
898.126	8707.95
898.441	8649.42
898.756	8658.68
899.071	8602.87
899.386	8638.35
899.7	8542.53
900.015	8526.71
900.33	8458.01
900.644	8431.57
900.959	8465.47
901.273	8430.22
901.588	8376.21
901.902	8356.55
902.216	8357.45
902.531	8257.11
902.845	8222.54
903.159	8187.51
903.473	8241.97
903.787	8193.16
904.101	8118.13
904.415	8146.61
904.729	8012.6
905.042	8040.4
905.356	8017.12
905.67	7954.97
905.984	7984.13
906.297	7879.72
906.611	7887.18
906.924	7868.88
907.237	7778.71
907.551	7808.76
907.864	7792.94
908.177	7745.49
908.491	7771.7
908.804	7637.24
909.117	7631.37
909.43	7598.15
909.743	7560.63
910.056	7531.03
910.368	7486.51
910.681	7461.88
910.994	7424.59
911.307	7443.8
911.619	7350.47
911.932	7353.86
912.244	7336.01
912.557	7340.98
912.869	7262.34
913.181	7190.7
913.494	7247.2
913.806	7118.39
914.118	7135.79
914.43	7037.26
914.742	7084.94
915.054	7110.02
915.366	7043.36
915.678	6963.59
915.99	6979.41
916.302	6887.88
916.613	6864.16
916.925	6891.5
917.236	6936.7
917.548	6792.29
917.859	6790.03
918.171	6812.63
918.482	6752.07
918.794	6718.17
919.105	6682.92
919.416	6661
919.727	6633.2
920.038	6598.4
920.349	6570.38
920.66	6500.78
920.971	6529.25
921.282	6488.12
921.593	6496.93
921.903	6423.72
922.214	6442.02
922.525	6376.94
922.835	6357.28
923.146	6281.8
923.456	6298.07
923.767	6301.01
924.077	6265.53
924.387	6240.67
924.697	6159.54
925.008	6155.93
925.318	6167.45
925.628	6134.01
925.938	6113.67
926.248	6119.32
926.558	6089.26
926.867	6052.65
927.177	6080.9
927.487	6018.75
927.796	5942.37
928.106	5960.9
928.416	5919.1
928.725	5921.81
929.034	5849.27
929.344	5893.33
929.653	5821.7
929.962	5786.22
930.271	5742.38
930.581	5786.67
930.89	5731.3
931.199	5677.52
931.508	5673
931.817	5670.06
932.125	5687.46
932.434	5617.63
932.743	5566.11
933.051	5584.19
933.36	5552.33
933.669	5534.25
933.977	5483.63
934.286	5506.68
934.594	5494.93
934.902	5435.94
935.21	5407.47
935.519	5389.84
935.827	5355.72
936.135	5312.33
936.443	5306.68
936.751	5295.84
937.059	5230.07
937.367	5255.61
937.674	5233.92
937.982	5231.66
938.29	5175.61
938.597	5174.26
938.905	5106.24
939.213	5118.66
939.52	5061.94
939.827	5100.13
940.135	5064.43
940.442	5034.6
940.749	5033.24
941.056	4994.15
941.363	4960.25
941.67	4949.18
941.977	4894.04
942.284	4857.43
942.591	4897.65
942.898	4842.51
943.205	4907.82
943.511	4849.75
943.818	4830.54
944.125	4794.83
944.431	4807.49
944.738	4785.11
945.044	4721.16
945.35	4708.05
945.657	4700.14
945.963	4639.81
946.269	4640.03
946.575	4599.36
946.881	4602.75
947.187	4579.02
947.493	4552.58
947.799	4563.2
948.105	4542.86
948.41	4533.6
948.716	4501.73
949.022	4518
949.327	4426.48
949.633	4396.2
949.938	4425.35
950.244	4404.79
950.549	4382.86
950.854	4328.86
951.16	4337.22
951.465	4290.66
951.77	4315.75
952.075	4316.2
952.38	4279.59
952.685	4248.86
952.99	4259.48
953.294	4241.17
953.599	4186.49
953.904	4135.87
954.209	4158.69
954.513	4146.49
954.818	4078.01
955.122	4077.56
955.426	4059.03
955.731	4051.8
956.035	4029.65
956.339	4034.4
956.643	4006.6
956.948	3976.32
957.252	3976.1
957.556	3965.7
957.86	3958.02
958.163	3938.36
958.467	3892.26
958.771	3887.06
959.075	3908.75
959.378	3879.6
959.682	3805.71
959.985	3829.43
960.289	3816.33
960.592	3805.25
960.896	3768.19
961.199	3765.93
961.502	3737.23
961.805	3735.65
962.108	3708.53
962.411	3702.43
962.714	3699.27
963.017	3629.44
963.32	3651.81
963.623	3626.95
963.926	3651.36
964.228	3599.16
964.531	3584.69
964.833	3578.37
965.136	3578.37
965.438	3549.21
965.741	3525.03
966.043	3461.99
966.345	3450.23
966.648	3510.12
966.95	3448.88
967.252	3432.16
967.554	3415.66
967.856	3428.31
968.158	3384.47
968.46	3405.94
968.761	3367.98
969.063	3376.56
969.365	3342.89
969.666	3329.56
969.968	3361.2
970.269	3305.15
970.571	3283.68
970.872	3299.05
971.174	3257.47
971.475	3226.29
971.776	3254.08
972.077	3238.49
972.378	3233.74
972.679	3203.23
972.98	3146.06
973.281	3156.46
973.582	3150.13
973.883	3132.5
974.183	3143.8
974.484	3176.12
974.785	3137.7
975.085	3080.75
975.386	3087.53
975.686	3078.04
975.986	3024.71
976.287	3049.79
976.587	3006.86
976.887	3014.31
977.187	2971.83
977.487	2985.84
977.787	2998.95
978.087	2927.76
978.387	2955.56
978.687	2930.93
978.987	2902.68
979.286	2890.47
979.586	2891.83
979.885	2883.02
980.185	2856.13
980.484	2851.38
980.784	2856.8
981.083	2804.15
981.382	2839.4
981.682	2816.8
981.981	2780.87
982.28	2770.93
982.579	2767.77
982.878	2731.83
983.177	2721.89
983.475	2751.04
983.774	2713.3
984.073	2697.49
984.372	2684.6
984.67	2679.41
984.969	2713.98
985.267	2672.63
985.566	2639.18
985.864	2641.67
986.162	2634.66
986.461	2601.22
986.759	2587.88
987.057	2562.8
987.355	2553.53
987.653	2570.71
987.951	2540.2
988.249	2548.79
988.547	2535.23
988.844	2522.57
989.142	2496.81
989.44	2504.95
989.737	2487.77
990.035	2471.73
990.332	2453.65
990.63	2460.88
990.927	2417.49
991.224	2427.89
991.521	2424.5
991.819	2407.78
992.116	2415.69
992.413	2394.89
992.71	2348.79
993.006	2358.74
993.303	2356.48
993.6	2327.55
993.897	2288.46
994.193	2296.37
994.49	2322.13
994.787	2267.67
995.083	2301.56
995.379	2265.63
995.676	2258.85
995.972	2239.42
996.268	2221.34
996.565	2213.43
996.861	2221.11
997.157	2198.52
997.453	2191.96
997.749	2171.17
998.044	2197.61
998.34	2142.92
998.636	2138.18
998.932	2152.42
999.227	2157.39
999.523	2101.57
999.818	2104.28
1000.114	2108.8
1000.409	2075.13
1000.704	2079.87
1001	2051.85
1001.295	2040.55
1001.59	2030.84
1001.885	2022.93
1002.18	1985.19
1002.475	2031.74
1002.77	2002.59
1003.065	1976.15
1003.359	1945.41
1003.654	1958.97
1003.949	1961.23
1004.243	1949.93
1004.538	1917.17
1004.832	1950.84
1005.127	1922.14
1005.421	1901.8
1005.715	1877.85
1006.009	1889.6
1006.304	1827.45
1006.598	1873.1
1006.892	1831.52
1007.186	1852.08
1007.48	1831.75
1007.773	1821.12
1008.067	1819.77
1008.361	1787.9
1008.655	1778.19
1008.948	1770.73
1009.242	1765.31
1009.535	1745.42
1009.829	1724.18
1010.122	1727.12
1010.415	1738.64
1010.708	1743.16
1011.001	1717.17
1011.295	1661.81
1011.588	1698.64
1011.881	1717.85
1012.173	1679.21
1012.466	1667.68
1012.759	1647.57
1013.052	1625.88
1013.344	1610.06
1013.637	1629.49
1013.93	1607.8
1014.222	1574.13
1014.514	1559.44
1014.807	1584.97
1015.099	1541.58
1015.391	1578.87
1015.683	1570.06
1015.976	1541.81
1016.268	1514.47
1016.56	1532.77
1016.851	1523.96
1017.143	1521.7
1017.435	1523.51
1017.727	1499.1
1018.018	1450.06
1018.31	1478.99
1018.602	1475.82
1018.893	1447.8
1019.185	1433.34
1019.476	1429.95
1019.767	1441.02
1020.058	1429.5
1020.35	1384.3
1020.641	1401.25
1020.932	1405.09
1021.223	1360.12
1021.514	1365.32
1021.804	1356.28
1022.095	1354.02
1022.386	1361.02
1022.677	1337.97
1022.967	1310.86
1023.258	1324.87
1023.548	1296.62
1023.839	1308.6
1024.129	1277.18
1024.419	1296.39
1024.709	1281.03
1025	1268.82
1025.29	1253.68
1025.58	1242.83
1025.87	1241.25
1026.16	1238.31
1026.449	1218.65
1026.739	1199.45
1027.029	1217.52
1027.319	1184.08
1027.608	1189.73
1027.898	1193.8
1028.187	1194.93
1028.477	1175.27
1028.766	1167.13
1029.055	1153.12
1029.344	1148.15
1029.634	1151.54
1029.923	1120.13
1030.212	1115.83
1030.501	1150.86
1030.79	1106.57
1031.078	1109.5
1031.367	1120.13
1031.656	1100.69
1031.945	1101.14
1032.233	1049.85
1032.522	1057.08
1032.81	1069.51
1033.099	1087.13
1033.387	1040.81
1033.675	1035.61
1033.963	1046
1034.251	1024.76
1034.54	1015.04
1034.828	1010.98
1035.116	991.99
1035.403	996.74
1035.691	1001.94
1035.979	1014.82
1036.267	965.33
1036.554	976.85
1036.842	990.86
1037.129	987.02
1037.417	975.27
1037.704	953.58
1037.992	941.83
1038.279	934.82
1038.566	910.87
1038.853	910.87
1039.14	910.87
