Data from hue_50_FLMS001491_46.txt Node
Date: Mon Feb 06 15:10:11 GMT 2017
User: dcchb
Spectrometer: FLMS00149
Trigger mode: 0
Integration Time (sec): 2.000000E-2
Scans to average: 10
Electric dark correction enabled: true
Nonlinearity correction enabled: false
Boxcar width: 0
XAxis mode: Wavelengths
Number of Pixels in Spectrum: 2048
>>>>>Begin Spectral Data<<<<<
341.393	-11.92
341.776	-11.92
342.16	-11.92
342.543	-32.49
342.927	-65.7
343.31	-76.78
343.693	-39.04
344.077	-53.5
344.46	-34.97
344.843	-69.77
345.226	-76.55
345.61	-22.99
345.993	-46.5
346.376	-26.38
346.759	5.48
347.142	32.37
347.525	38.93
347.908	65.59
348.291	81.64
348.674	94.07
349.057	128.41
349.44	139.94
349.823	165.48
350.206	172.93
350.588	187.17
350.971	223.55
351.354	205.93
351.737	252.25
352.119	257
352.502	262.65
352.884	276.43
353.267	290.67
353.65	307.85
354.032	313.04
354.414	317.11
354.797	317.34
355.179	330.44
355.562	324.79
355.944	331.12
356.326	326.38
356.709	348.52
357.091	358.01
357.473	346.26
357.855	346.71
358.238	330.44
358.62	343.78
359.002	329.31
359.384	346.94
359.766	323.21
360.148	338.58
360.53	331.35
360.912	349.65
361.294	327.96
361.676	349.65
362.057	335.41
362.439	347.62
362.821	334.28
363.203	338.13
363.584	331.12
363.966	328.64
364.348	335.19
364.729	321.86
365.111	318.47
365.493	323.89
365.874	316.88
366.256	334.06
366.637	325.47
367.019	310.78
367.4	306.26
367.781	314.4
368.163	318.47
368.544	302.65
368.925	310.33
369.306	323.89
369.688	330.22
370.069	317.11
370.45	314.4
370.831	310.78
371.212	315.53
371.593	334.51
371.974	309.43
372.355	312.59
372.736	318.47
373.117	318.01
373.498	311.23
373.879	305.59
374.26	310.1
374.641	324.34
375.021	315.3
375.402	335.19
375.783	308.97
376.163	322.53
376.544	327.28
376.925	330.44
377.305	334.51
377.686	338.13
378.066	328.64
378.447	347.62
378.827	320.5
379.208	309.65
379.588	339.26
379.968	328.41
380.349	334.06
380.729	328.41
381.109	333.38
381.489	332.25
381.87	340.39
382.25	330.67
382.63	331.12
383.01	354.85
383.39	345.58
383.77	326.6
384.15	330.9
384.53	351.23
384.91	360.95
385.29	341.52
385.67	365.92
386.049	340.39
386.429	341.29
386.809	350.33
387.189	351.69
387.568	359.82
387.948	344.23
388.328	371.35
388.707	361.18
389.087	366.15
389.466	364.34
389.846	374.74
390.225	357.34
390.605	360.72
390.984	368.18
391.363	348.07
391.743	357.11
392.122	371.57
392.501	367.96
392.881	371.8
393.26	376.54
393.639	351.01
394.018	360.5
394.397	388.52
394.776	367.73
395.155	379.48
395.534	386.04
395.913	384.68
396.292	369.09
396.671	376.32
397.05	381.52
397.429	364.11
397.808	373.15
398.186	395.98
398.565	388.07
398.944	372.93
399.323	372.25
399.701	378.13
400.08	382.42
400.458	364.57
400.837	392.36
401.215	414.28
401.594	399.14
401.972	386.71
402.351	387.39
402.729	397.11
403.107	391.46
403.486	388.75
403.864	386.71
404.242	421.06
404.62	392.81
404.999	404.79
405.377	393.27
405.755	397.33
406.133	416.32
406.511	424.9
406.889	397.79
407.267	412.93
407.645	411.12
408.023	424
408.401	433.94
408.779	401.85
409.156	432.36
409.534	422.42
409.912	390.33
410.29	440.04
410.667	447.28
411.045	450.44
411.422	459.93
411.8	436.2
412.178	447.95
412.555	445.92
412.933	458.35
413.31	442.08
413.687	473.94
414.065	455.19
414.442	460.84
414.819	484.56
415.197	460.16
415.574	457.67
415.951	492.92
416.328	482.76
416.705	465.81
417.082	482.53
417.46	454.51
417.837	472.59
418.214	482.53
418.591	496.77
418.967	480.5
419.344	478.24
419.721	490.44
420.098	482.98
420.475	486.6
420.852	488.63
421.228	480.95
421.605	504.45
421.982	499.03
422.358	496.77
422.735	531.34
423.111	525.47
423.488	499.03
423.864	511.68
424.241	513.72
424.617	509.87
424.994	504.45
425.37	501.74
425.746	533.6
426.123	516.65
426.499	534.73
426.875	530.89
427.251	544.9
427.627	538.57
428.003	516.2
428.379	539.93
428.756	556.65
429.132	544.67
429.507	579.25
429.883	588.74
430.259	552.36
430.635	597.1
431.011	562.98
431.387	569.76
431.763	578.57
432.138	572.47
432.514	567.73
432.89	574.96
433.265	621.06
433.641	604.56
434.016	604.56
434.392	579.02
434.767	629.19
435.143	620.61
435.518	637.55
435.894	625.8
436.269	641.62
436.644	638.23
437.02	643.2
437.395	623.32
437.77	621.06
438.145	644.56
438.52	668.06
438.895	659.7
439.271	671.68
439.646	666.93
440.021	684.78
440.395	670.77
440.77	689.53
441.145	684.78
441.52	689.98
441.895	689.53
442.27	677.78
442.645	700.6
443.019	689.98
443.394	721.62
443.769	725.69
444.143	713.48
444.518	735.18
444.892	713.94
445.267	719.36
445.641	708.51
446.016	729.08
446.39	706.03
446.764	709.19
447.139	748.74
447.513	746.25
447.887	738.79
448.262	745.12
448.636	739.92
449.01	771.11
449.384	765.69
449.758	757.32
450.132	755.29
450.506	768.62
450.88	781.28
451.254	787.83
451.628	798.23
452.002	802.52
452.376	806.36
452.75	821.28
453.123	808.17
453.497	796.42
453.871	807.27
454.244	816.98
454.618	852.24
454.992	859.02
455.365	855.85
455.739	878.23
456.112	876.64
456.486	867.83
456.859	858.79
457.232	892.91
457.606	897.89
457.979	888.39
458.352	907.15
458.725	923.65
459.099	941.95
459.472	968.17
459.845	976.98
460.218	963.65
460.591	989.86
460.964	1001.16
461.337	1002.74
461.71	1028.73
462.083	1033.25
462.456	1014.49
462.829	1013.14
463.201	1055.17
463.574	1040.48
463.947	1052.91
464.32	1094.27
464.692	1089.52
465.065	1101.04
465.438	1122.29
465.81	1146.92
466.183	1157.77
466.555	1144.21
466.928	1189.63
467.3	1160.03
467.672	1198.22
468.045	1230.31
468.417	1260.14
468.789	1269.63
469.161	1266.24
469.534	1295.62
469.906	1335.61
470.278	1341.04
470.65	1375.39
471.022	1411.32
471.394	1417.19
471.766	1448.38
472.138	1501.49
472.51	1491.32
472.882	1540.13
473.253	1558.21
473.625	1581.94
473.997	1616.74
474.369	1671.2
474.74	1687.47
475.112	1718.2
475.484	1770.86
475.855	1798.65
476.227	1835.94
476.598	1895.37
476.97	1934.47
477.341	1969.04
477.713	2082.49
478.084	2084.07
478.455	2180.56
478.827	2205.87
479.198	2268.7
479.569	2312.09
479.94	2407.45
480.311	2447.22
480.682	2508.92
481.053	2628.24
481.424	2670.04
481.795	2757.27
482.166	2802.47
482.537	2910.71
482.908	2977.83
483.279	3013.99
483.65	3164.95
484.021	3238.84
484.391	3360.19
484.762	3362.91
485.133	3493.98
485.503	3569.91
485.874	3725.16
486.244	3770.8
486.615	3906.85
486.985	4043.34
487.356	4114.52
487.726	4208.76
488.097	4348.42
488.467	4422.99
488.837	4547.06
489.207	4693.04
489.578	4862.75
489.948	4878.8
490.318	5098.91
490.688	5127.83
491.058	5300.71
491.428	5439.01
491.798	5483.08
492.168	5698.66
492.538	5764.88
492.908	5894.59
493.278	6094.59
493.648	6119.22
494.017	6301.59
494.387	6406.89
494.757	6502.71
495.126	6663.38
495.496	6749.94
495.866	6937.73
496.235	7058.4
496.605	7207.78
496.974	7256.14
497.344	7440.54
497.713	7473.76
498.082	7631.49
498.452	7795.56
498.821	7928.21
499.19	8004.59
499.559	8093.18
499.928	8228.99
500.298	8331.36
500.667	8475.77
501.036	8509.44
501.405	8702.65
501.774	8802.99
502.143	8876.89
502.512	9030.78
502.88	9215.86
503.249	9226.71
503.618	9309.19
503.987	9426.93
504.356	9583.08
504.724	9693.36
505.093	9698.11
505.462	9845
505.83	9912.34
506.199	10072.33
506.567	10251.31
506.936	10264.42
507.304	10454.7
507.672	10466.9
508.041	10572.66
508.409	10761.81
508.777	10823.05
509.145	10906.21
509.514	10980.78
509.882	11118.86
510.25	11193.89
510.618	11282.02
510.986	11399.3
511.354	11593.42
511.722	11670.71
512.09	11760.65
512.458	11817.82
512.826	11967.65
513.193	12030.93
513.561	12037.03
513.929	12281.99
514.297	12303.46
514.664	12385.72
515.032	12462.1
515.4	12643.34
515.767	12723.34
516.135	12848.53
516.502	12732.15
516.869	13045.14
517.237	13085.81
517.604	13117.23
517.972	13195.42
518.339	13404.68
518.706	13389.76
519.073	13508.18
519.44	13631.79
519.808	13761.05
520.175	13783.87
520.542	13970.99
520.909	14015.06
521.276	14033.59
521.643	14273.58
522.009	14353.8
522.376	14518.54
522.743	14486.68
523.11	14668.82
523.477	14835.82
523.843	14886.9
524.21	15055.48
524.577	15196.72
524.943	15241.24
525.31	15270.62
525.676	15571.17
526.043	15524.85
526.409	15662.24
526.776	15818.4
527.142	15857.72
527.508	15963.7
527.874	16131.38
528.241	16169.57
528.607	16290.93
528.973	16433.97
529.339	16411.15
529.705	16571.6
530.071	16673.29
530.437	16790.58
530.803	16920.97
531.169	17049.1
531.535	17022.89
531.901	17081.87
532.267	17164.12
532.632	17292.94
532.998	17373.16
533.364	17507.84
533.73	17522.53
534.095	17680.72
534.461	17763.43
534.826	17844.56
535.192	17979.02
535.557	17976.08
535.923	18047.27
536.288	18060.15
536.653	18259.01
537.019	18194.61
537.384	18231.67
537.749	18417.2
538.114	18366.81
538.479	18480.7
538.845	18479.12
539.21	18539.46
539.575	18654.03
539.94	18784.2
540.305	18901.03
540.67	18804.76
541.034	18917.3
541.399	18995.94
541.764	19049.05
542.129	19158.2
542.494	19146.45
542.858	19201.59
543.223	19280.91
543.587	19403.16
543.952	19388.7
544.316	19485.42
544.681	19517.74
545.045	19603.61
545.41	19744.4
545.774	19658.75
546.138	19805.64
546.503	19836.82
546.867	19945.29
547.231	20113.88
547.595	20133.09
547.959	20178.96
548.324	20225.06
548.688	20362.23
549.052	20366.75
549.416	20425.28
549.779	20468.9
550.143	20484.04
550.507	20664.37
550.871	20760.41
551.235	20666.86
551.599	20837.02
551.962	20865.5
552.326	20906.4
552.689	21033.4
553.053	21103.91
553.417	21052.61
553.78	21443.56
554.143	21409.21
554.507	21381.42
554.87	21530.79
555.234	21784.34
555.597	21479.94
555.96	21799.26
556.323	21728.75
556.686	21710.22
557.05	22032.25
557.413	22061.85
557.776	22031.57
558.139	22255.97
558.502	22351.56
558.865	22445.57
559.228	22589.07
559.59	22623.19
559.953	22614.38
560.316	22922.39
560.679	22824.09
561.041	22936.18
561.404	23196.06
561.767	23175.27
562.129	23087.13
562.492	23427.01
562.854	23402.38
563.217	23428.14
563.579	23629.72
563.941	23648.25
564.304	23772.99
564.666	24043.94
565.028	24014.57
565.39	24078.07
565.753	24117.84
566.115	24170.27
566.477	24366.87
566.839	24449.13
567.201	24523.71
567.563	24617.26
567.925	24607.09
568.287	24827.2
568.648	24792.4
569.01	25002.34
569.372	25130.02
569.734	25142.9
570.095	25240.52
570.457	25466.96
570.819	25470.8
571.18	25483.45
571.542	25656.56
571.903	25734.07
572.265	25896.78
572.626	25856.33
572.987	26022.2
573.349	26016.1
573.71	26349.42
574.071	26401.85
574.432	26342.41
574.794	26550.32
575.155	26638.9
575.516	26481.62
575.877	26749.41
576.238	26814.04
576.599	26952.34
576.96	26955.51
577.32	27037.54
577.681	27148.95
578.042	27205.22
578.403	27312.56
578.763	27383.52
579.124	27452.22
579.485	27640.69
579.845	27713.9
580.206	27754.58
580.566	27810.85
580.927	27896.5
581.287	28087
581.648	28017.85
582.008	28251.52
582.368	28281.35
582.728	28394.56
583.089	28418.52
583.449	28468.91
583.809	28629.13
584.169	28804.5
584.529	28675.23
584.889	28980.99
585.249	28960.42
585.609	29017.6
585.969	29221.66
586.329	29232.96
586.688	29421.2
587.048	29439.06
587.408	29471.37
587.768	29599.28
588.127	29638.6
588.487	29738.26
588.846	29988.42
589.206	29855.32
589.565	29936.9
589.925	30185.25
590.284	30177.34
590.643	30382.31
591.003	30370.11
591.362	30641.06
591.721	30655.52
592.08	30732.81
592.44	30818
592.799	30973.48
593.158	30885.12
593.517	31083.76
593.876	31228.39
594.235	31100.71
594.593	31413.92
594.952	31422.51
595.311	31443.52
595.67	31617.3
596.029	31870.63
596.387	31846.68
596.746	31978.88
597.104	32039.21
597.463	31892.78
597.822	32159.89
598.18	32148.14
598.538	32249.83
598.897	32500.9
599.255	32179.55
599.613	32706.77
599.972	32651.18
600.33	32814.33
600.688	32730.27
601.046	32945.63
601.404	32950.6
601.762	33086.64
602.12	33334.77
602.478	33199.86
602.836	33392.4
603.194	33283.93
603.552	33331.16
603.91	33335.45
604.268	33502
604.625	33491.61
604.983	33655.22
605.341	33540.42
605.698	33803.24
606.056	33967.98
606.413	33911.03
606.771	34038.26
607.128	34132.72
607.485	33891.14
607.843	34091.59
608.2	34383.56
608.557	34399.15
608.914	34401.19
609.272	34530.9
609.629	34568.87
609.986	34780.16
610.343	34619.49
610.7	34954.84
611.057	34987.84
611.414	34859.93
611.771	35110.55
612.127	35217.44
612.484	35317.55
612.841	35429.86
613.198	35355.51
613.554	35428.5
613.911	35603.19
614.267	35649.74
614.624	35537.2
614.98	35782.84
615.337	35868.49
615.693	35808.83
616.05	35944.42
616.406	36144.19
616.762	35945.78
617.118	36027.58
617.475	36042.72
617.831	36220.8
618.187	36322.27
618.543	36205.21
618.899	36535.82
619.255	36384.64
619.611	36412.88
619.967	36415.82
620.323	36694.46
620.678	36529.94
621.034	36579.21
621.39	36479.78
621.746	36592.31
622.101	37096.93
622.457	36720.67
622.812	36783.95
623.168	36822.59
623.523	37044.96
623.879	37004.06
624.234	36882.7
624.589	37087.89
624.945	37110.95
625.3	37175.8
625.655	37197.95
626.01	37147.1
626.365	37318.17
626.72	37083.38
627.075	37105.07
627.43	37151.85
627.785	37177.61
628.14	37214.22
628.495	37132.64
628.85	37158.18
629.205	37157.5
629.559	37296.7
629.914	37189.81
630.269	37140.32
630.623	37226.2
630.978	37263.26
631.332	37186.2
631.687	37333.31
632.041	37237.95
632.396	37343.26
632.75	37125.63
633.104	37286.99
633.459	37050.16
633.813	37055.35
634.167	37046.31
634.521	37099.42
634.875	37152.07
635.229	37039.53
635.583	37058.29
635.937	36966.54
636.291	36911.85
636.645	37091.51
636.999	36969.25
637.352	37026.43
637.706	36847
638.06	37027.33
638.413	36948.69
638.767	36946.2
639.121	36821.01
639.474	36702.37
639.828	36685.65
640.181	36722.03
640.534	36835.47
640.888	36731.97
641.241	36518.64
641.594	36612.2
641.947	36765.87
642.301	36659.88
642.654	36564.52
643.007	36579.89
643.36	36619.66
643.713	36579.66
644.066	36675.93
644.419	36282.27
644.771	36211.08
645.124	35870.07
645.477	35826.01
645.83	35590.76
646.182	35474.38
646.535	35451.1
646.888	35494.94
647.24	35176.53
647.593	35455.17
647.945	35367.71
648.298	35288.85
648.65	35275.74
649.002	35103.31
649.355	35278.22
649.707	35259.69
650.059	35512.57
650.411	35654.94
650.763	35784.65
651.115	36183.96
651.467	35968.15
651.819	35964.08
652.171	35893.12
652.523	35918.89
652.875	35932.22
653.227	35844.76
653.578	35979
653.93	35772.9
654.282	35746.69
654.633	35809.74
654.985	35697.65
655.337	35667.82
655.688	35791.88
656.039	35873.69
656.391	35512.34
656.742	35644.32
657.094	35756.63
657.445	35746.24
657.796	35681.15
658.147	35652.68
658.498	35380.6
658.849	35754.37
659.2	35494.26
659.551	35592.34
659.902	35704.65
660.253	35569.74
660.604	35569.97
660.955	35357.32
661.306	35604.54
661.656	35466.02
662.007	35485.68
662.358	35411.33
662.708	35398.22
663.059	35480.03
663.409	35212.92
663.76	35477.77
664.11	35449.07
664.461	35414.94
664.811	35449.52
665.161	35467.37
665.511	35332.23
665.862	35321.16
666.212	35464.89
666.562	35519.57
666.912	35340.37
667.262	35446.13
667.612	35398.45
667.962	35387.6
668.312	35291.56
668.662	35452.46
669.011	35363.65
669.361	35332.46
669.711	35274.61
670.06	35102.18
670.41	35068.51
670.76	35150.54
671.109	35379.92
671.459	35185.12
671.808	35256.76
672.157	35247.49
672.507	35022.19
672.856	35060.6
673.205	35066.25
673.554	35142.64
673.904	35032.58
674.253	35194.39
674.602	35127.04
674.951	34461.3
675.3	34370.23
675.649	34946.71
675.998	34867.84
676.346	35011.79
676.695	35114.16
677.044	34740.61
677.393	34922.3
677.741	34884.34
678.09	34927.5
678.438	34754.17
678.787	34798.01
679.135	34842.98
679.484	34573.61
679.832	34756.2
680.181	34534.06
680.529	34693.38
680.877	34529.77
681.225	34643.89
681.573	34722.31
681.922	34407.51
682.27	34350.57
682.618	34402.32
682.966	34160.29
683.314	34131.14
683.661	34162.1
684.009	33987.64
684.357	33924.81
684.705	33937.92
685.053	34000.97
685.4	33868.32
685.748	33694.76
686.095	33781.32
686.443	33677.36
686.79	33665.16
687.138	33652.73
687.485	33708.77
687.832	33574.99
688.18	33544.94
688.527	33366.86
688.874	33420.19
689.221	33266.98
689.568	33283.48
689.915	33332.97
690.262	33320.31
690.609	33084.84
690.956	32997.83
691.303	33017.27
691.65	32895.91
691.997	32796.26
692.344	32621.57
692.69	32647.56
693.037	32591.74
693.383	32257.74
693.73	32511.29
694.077	32342.03
694.423	32236.72
694.769	32095.71
695.116	32052.77
695.462	32008.48
695.808	31955.15
696.155	32003.06
696.501	31788.83
696.847	31785.89
697.193	31447.59
697.539	31564.42
697.885	31402.62
698.231	31375.28
698.577	31447.59
698.923	31373.92
699.269	31110.65
699.614	31009.41
699.96	31075.17
700.306	31044.89
700.651	30851
700.997	30769.42
701.342	30618.69
701.688	30690.1
702.033	30422.53
702.379	30569.42
702.724	30318.36
703.069	30530.33
703.415	30103.67
703.76	30147.51
704.105	30207.17
704.45	30107.06
704.795	29864.58
705.14	29844.02
705.485	29770.12
705.83	29704.59
706.175	29766.73
706.52	29677.69
706.865	29633.85
707.209	29555.21
707.554	29337.59
707.899	29450.36
708.243	29290.36
708.588	29260.53
708.932	29046.52
709.277	29040.2
709.621	29030.03
709.966	28868
710.31	28893.08
710.654	28710.04
710.998	28783.71
711.342	28725.63
711.687	28562.92
712.031	28593.43
712.375	28485.64
712.719	28443.38
713.063	28437.95
713.407	28487.9
713.75	28327
714.094	28255.36
714.438	28202.48
714.782	28170.16
715.125	28039.77
715.469	28150.73
715.812	27869.15
716.156	27734.69
716.499	27801.13
716.843	27866.67
717.186	27804.98
717.53	27910.28
717.873	27736.05
718.216	27784.64
718.559	27517.3
718.902	27433.23
719.246	27471.2
719.589	27373.8
719.932	27306.91
720.275	27317.98
720.617	27224.65
720.96	27153.24
721.303	27197.76
721.646	27202.05
721.989	26949.63
722.331	27137.87
722.674	26973.81
723.016	26981.72
723.359	26954.38
723.701	27014.94
724.044	26861.05
724.386	26657.66
724.729	26810.42
725.071	26725
725.413	26683.2
725.755	26723.87
726.097	26573.14
726.439	26475.74
726.782	26457.44
727.124	26471.9
727.465	26391
727.807	26375.41
728.149	26216.32
728.491	26268.29
728.833	26266.48
729.175	26215.41
729.516	26223.77
729.858	26064.23
730.199	26040.05
730.541	26054.06
730.882	26082.99
731.224	26243.43
731.565	25975.42
731.906	25867.62
732.248	25856.78
732.589	25815.42
732.93	25749.66
733.271	25815.65
733.612	25718.25
733.953	25736.33
734.294	25582.89
734.635	25501.31
734.976	25764.12
735.317	25561.64
735.658	25511.48
735.999	25529.55
736.339	25494.53
736.68	25471.93
737.021	25299.05
737.361	25293.63
737.702	25364.81
738.042	25372.72
738.383	25327.07
738.723	25359.84
739.063	25131.15
739.404	25229.45
739.744	25099.74
740.084	24873.98
740.424	25031.26
740.764	24908.78
741.104	24970.25
741.444	24894.54
741.784	24814.32
742.124	24848.22
742.464	24836.69
742.804	24842.34
743.143	24666.3
743.483	24760.08
743.823	24621.56
744.162	24728.67
744.502	24671.5
744.841	24519.86
745.181	24586.08
745.52	24546.3
745.86	24507.89
746.199	24437.83
746.538	24429.47
746.877	24490.26
747.216	24369.36
747.556	24313.54
747.895	24382.92
748.234	24300.21
748.573	24139.08
748.911	24111.74
749.25	24090.72
749.589	23989.93
749.928	24050.05
750.267	24023.38
750.605	23978.86
750.944	23916.94
751.283	23908.81
751.621	23850.73
751.96	23688.02
752.298	23680.79
752.636	23702.71
752.975	23695.25
753.313	23565.76
753.651	23700.68
753.989	23544.97
754.327	23582.26
754.666	23328.03
755.004	23391.31
755.342	23331.19
755.679	23356.73
756.017	23358.99
756.355	23278.99
756.693	23204.19
757.031	23162.84
757.368	23049.17
757.706	23042.61
758.044	22899.12
758.381	22938.89
758.719	22854.37
759.056	22812.34
759.394	22686.24
759.731	22718.33
760.068	22528.96
760.405	22525.11
760.743	22411.9
761.08	22482.86
761.417	22295.74
761.754	22185.01
762.091	22228.85
762.428	22188.85
762.765	21986.15
763.102	22079.7
763.438	22072.92
763.775	21883.55
764.112	22006.03
764.449	21868.41
764.785	21808.97
765.122	21597.45
765.458	21603.78
765.795	21639.71
766.131	21517
766.467	21455.76
766.804	21338.7
767.14	21195.43
767.476	21224.36
767.812	21039.73
768.148	21217.58
768.485	21105.49
768.821	20902.78
769.157	20847.42
769.492	20695.11
769.828	20773.07
770.164	20562.68
770.5	20572.17
770.836	20445.39
771.171	20418.05
771.507	20399.07
771.842	20243.37
772.178	20173.54
772.513	20201.56
772.849	20093.77
773.184	20038.63
773.519	20014.9
773.855	19851.96
774.19	19770.38
774.525	19687.9
774.86	19714.79
775.195	19738.07
775.53	19587.79
775.865	19573.33
776.2	19363.16
776.535	19193.22
776.87	19213.11
777.205	19132.66
777.539	19074.36
777.874	19174.24
778.209	18881.82
778.543	18910.29
778.878	18801.37
779.212	18855.61
779.547	18662.16
779.881	18741.26
780.215	18551.89
780.55	18558.89
780.884	18472.34
781.218	18438.89
781.552	18473.02
781.886	18402.06
782.22	18261.05
782.554	18086.13
782.888	18066.7
783.222	17971.56
783.556	17882.3
783.889	17834.62
784.223	17716.65
784.557	17710.78
784.89	17736.54
785.224	17589.2
785.557	17461.74
785.891	17529.09
786.224	17441.41
786.558	17403.89
786.891	17233.5
787.224	17212.71
787.557	17233.5
787.891	17074.18
788.224	17142.2
788.557	17098.36
788.89	16958.71
789.223	16936.33
789.556	16791.71
789.888	16786.06
790.221	16701.99
790.554	16596
790.887	16624.25
791.219	16493.41
791.552	16550.13
791.884	16313.07
792.217	16297.93
792.549	16308.33
792.882	16136.13
793.214	16114.44
793.546	16202.12
793.879	16041.22
794.211	15909.24
794.543	16015.91
794.875	15980.2
795.207	16073.08
795.539	15865.4
795.871	15816.14
796.203	15682.58
796.535	15615.69
796.867	15565.07
797.198	15524.17
797.53	15534.79
797.862	15400.33
798.193	15419.31
798.525	15329.14
798.856	15226.1
799.188	15241.92
799.519	15160.56
799.85	15109.72
800.182	15072.88
800.513	15074.91
800.844	14919.44
801.175	14957.4
801.506	15023.84
801.837	14849.84
802.168	14894.13
802.499	14712.66
802.83	14718.77
803.161	14681.7
803.491	14641.03
803.822	14678.31
804.153	14549.05
804.483	14509.28
804.814	14384.31
805.145	14408.94
805.475	14400.13
805.805	14347.7
806.136	14375.05
806.466	14327.14
806.796	14318.32
807.126	14203.3
807.457	14066.58
807.787	14159.01
808.117	14105
808.447	14007.15
808.777	14067.48
809.107	14065.68
809.436	13990.65
809.766	13935.28
810.096	13869.52
810.426	13760.6
810.755	13744.55
811.085	13738.68
811.414	13677.66
811.744	13719.24
812.073	13588.17
812.403	13608.29
812.732	13526.71
813.061	13519.7
813.39	13449.65
813.719	13439.03
814.049	13480.38
814.378	13457.78
814.707	13415.97
815.036	13387.5
815.365	13238.35
815.693	13189.54
816.022	13086.49
816.351	13176.66
816.68	13046.72
817.008	13062.99
817.337	12997.68
817.665	12992.26
817.994	12994.52
818.322	12993.39
818.651	13009.66
818.979	12905.03
819.307	12928.53
819.636	12916.55
819.964	12773.51
820.292	12889.89
820.62	12753.62
820.948	12718.82
821.276	12856.22
821.604	12788.42
821.932	12794.3
822.259	12713.17
822.587	12708.65
822.915	12693.06
823.243	12778.03
823.57	12673.4
823.898	12713.85
824.225	12642.44
824.553	12649.22
824.88	12611.48
825.207	12746.61
825.535	12588.88
825.862	12671.59
826.189	12613.06
826.516	12650.8
826.843	12709.78
827.17	12676.79
827.497	12744.35
827.824	12681.98
828.151	12693.06
828.478	12594.3
828.805	12669.55
829.131	12568.77
829.458	12568.99
829.785	12538.71
830.111	12642.89
830.438	12622.32
830.764	12655.54
831.09	12541.65
831.417	12509.56
831.743	12583
832.069	12590.69
832.395	12520.18
832.722	12566.73
833.048	12596.79
833.374	12596.11
833.7	12416.91
834.026	12469.11
834.351	12515.43
834.677	12445.83
835.003	12491.71
835.329	12566.05
835.654	12427.3
835.98	12409
836.306	12424.14
836.631	12409.22
836.956	12389.11
837.282	12337.36
837.607	12310.24
837.932	12285.61
838.258	12332.39
838.583	12286.97
838.908	12181.66
839.233	12229.57
839.558	12201.54
839.883	12189.57
840.208	12131.04
840.533	12097.82
840.858	12136.46
841.182	12111.6
841.507	12127.87
841.832	11972.62
842.156	12014.66
842.481	11997.48
842.805	11989.8
843.13	11892.63
843.454	11915.22
843.778	11845.17
844.103	11823.47
844.427	11852.4
844.751	11841.55
845.075	11790.03
845.399	11751.61
845.723	11669.13
846.047	11706.87
846.371	11545.29
846.695	11582.58
847.019	11415.12
847.343	11418.51
847.666	11441.34
847.99	11316.6
848.313	11377.84
848.637	11209.48
848.96	11273.66
849.284	11264.17
849.607	11125.87
849.931	11142.81
850.254	11051.52
850.577	11030.73
850.9	10891.52
851.223	10954.8
851.546	10874.35
851.869	10739.21
852.192	10808.81
852.515	10693.56
852.838	10714.13
853.161	10631.19
853.483	10672.54
853.806	10647.69
854.129	10579.44
854.451	10599.78
854.774	10527.46
855.096	10450.4
855.419	10419.67
855.741	10423.74
856.063	10379.44
856.385	10353.91
856.708	10267.36
857.03	10200.69
857.352	10254.93
857.674	10222.84
857.996	10162.5
858.318	10158.89
858.64	10101.03
858.961	10136.29
859.283	10087.47
859.605	10053.58
859.926	10091.77
860.248	9975.39
860.57	9943.07
860.891	9954.6
861.212	9903.75
861.534	9889.97
861.855	9864.2
862.176	9852.68
862.498	9867.14
862.819	9822.85
863.14	9769.74
863.461	9761.38
863.782	9777.43
864.103	9724.32
864.424	9683.42
864.745	9774.04
865.065	9670.54
865.386	9655.62
865.707	9559.35
866.027	9606.13
866.348	9529.75
866.668	9587.15
866.989	9546.7
867.309	9547.83
867.63	9550.31
867.95	9516.42
868.27	9466.7
868.59	9475.74
868.91	9429.87
869.23	9456.53
869.55	9408.4
869.87	9493.37
870.19	9410.2
870.51	9449.75
870.83	9385.35
871.15	9359.58
871.469	9331.56
871.789	9374.95
872.109	9316.42
872.428	9271.45
872.748	9265.35
873.067	9266.03
873.386	9300.38
873.706	9236.2
874.025	9184.67
874.344	9254.05
874.663	9211.34
874.982	9169.53
875.301	9176.54
875.62	9132.47
875.939	9127.73
876.258	9080.27
876.577	9057.45
876.896	9096.54
877.214	9033.27
877.533	9088.86
877.852	9047.5
878.17	9023.1
878.489	9018.35
878.807	8990.1
879.125	8985.81
879.444	9001.4
879.762	8939.26
880.08	8916.21
880.398	8928.18
880.716	8932.48
881.034	8897.9
881.352	8847.96
881.67	8864.46
881.988	8851.12
882.306	8844.8
882.624	8708.75
882.941	8767.51
883.259	8770
883.577	8707.17
883.894	8721.18
884.212	8700.84
884.529	8649.09
884.846	8647.74
885.164	8644.12
885.481	8591.47
885.798	8666.5
886.115	8549.21
886.432	8594.86
886.75	8540.62
887.067	8602.32
887.383	8425.15
887.7	8452.72
888.017	8443.9
888.334	8463.34
888.651	8396.9
888.967	8428.54
889.284	8314.87
889.6	8295.66
889.917	8237.13
890.233	8295.66
890.55	8266.28
890.866	8289.78
891.182	8166.62
891.498	8166.4
891.815	8170.92
892.131	8146.51
892.447	8149.22
892.763	8090.01
893.079	8079.39
893.395	8067.41
893.71	8004.59
894.026	8040.75
894.342	7984.71
894.657	8011.82
894.973	7915.55
895.289	7899.28
895.604	7845.05
895.92	7857.93
896.235	7848.21
896.55	7801.89
896.865	7840.08
897.181	7751.49
897.496	7713.3
897.811	7689.12
898.126	7699.06
898.441	7621.1
898.756	7653.64
899.071	7574.77
899.386	7608.44
899.7	7481.89
900.015	7475.34
900.33	7444.38
900.644	7421.78
900.959	7412.52
901.273	7327.77
901.588	7392.4
901.902	7340.88
902.216	7342.69
902.531	7289.81
902.845	7255.68
903.159	7155.12
903.473	7168
903.787	7205.06
904.101	7109.47
904.415	7145.18
904.729	7108.12
905.042	7052.07
905.356	7012.3
905.67	7006.2
905.984	7048.91
906.297	6959.87
906.611	6955.35
906.924	6902.02
907.237	6907.9
907.551	6844.17
907.864	6858.63
908.177	6787.67
908.491	6828.8
908.804	6792.42
909.117	6763.72
909.43	6684.63
909.743	6674.01
910.056	6674.23
910.368	6631.07
910.681	6620.45
910.994	6600.56
911.307	6538.42
911.619	6485.08
911.932	6571.18
912.244	6476.72
912.557	6465.65
912.869	6468.59
913.181	6400.79
913.494	6417.74
913.806	6370.96
914.118	6339.78
914.43	6290.96
914.742	6309.04
915.054	6257.52
915.366	6219.1
915.678	6182.72
915.99	6159.44
916.302	6126.45
916.613	6096.62
916.925	6088.94
917.236	6054.81
917.548	6063.4
917.859	6075.83
918.171	5938.88
918.482	5987.02
918.794	5953.8
919.105	5906.57
919.416	5861.15
919.727	5905.44
920.038	5858.89
920.349	5837.19
920.66	5819.56
920.971	5727.36
921.282	5752
921.593	5670.42
921.903	5688.49
922.214	5682.62
922.525	5711.77
922.835	5632.9
923.146	5559.23
923.456	5617.31
923.767	5555.16
924.077	5549.06
924.387	5558.1
924.697	5502.28
925.008	5476.75
925.318	5477.43
925.628	5505
925.938	5409.86
926.248	5374.15
926.558	5386.58
926.867	5380.03
927.177	5303.42
927.487	5341.84
927.796	5274.49
928.106	5267.94
928.416	5213.48
928.725	5222.52
929.034	5170.32
929.344	5200.6
929.653	5105.46
929.962	5132.12
930.271	5081.05
930.581	5063.88
930.89	5046.03
931.199	5032.24
931.508	4996.99
931.817	5033.14
932.125	4977.78
932.434	4941.85
932.743	4902.53
933.051	4870.21
933.36	4884
933.669	4792.25
933.977	4816.88
934.286	4855.07
934.594	4803.77
934.902	4761.29
935.21	4767.39
935.519	4767.39
935.827	4767.39
936.135	4718.35
936.443	4686.94
936.751	4667.28
937.059	4648.75
937.367	4596.09
937.674	4607.62
937.982	4568.52
938.29	4557.22
938.597	4562.87
938.905	4481.52
939.213	4503.89
939.52	4454.18
939.827	4460.05
940.135	4441.97
940.442	4451.92
940.749	4448.3
941.056	4408.08
941.363	4411.92
941.67	4374.18
941.977	4327.17
942.284	4347.74
942.591	4276.33
942.898	4269.1
943.205	4305.93
943.511	4274.52
943.818	4257.57
944.125	4193.39
944.431	4201.98
944.738	4146.16
945.044	4128.76
945.35	4174.86
945.657	4084.24
945.963	4109.78
946.269	4077.92
946.575	4085.6
946.881	4032.94
947.187	4043.79
947.493	3965.15
947.799	4007.63
948.105	4026.84
948.41	3928.99
948.716	3983.68
949.022	3937.58
949.327	3910.24
949.633	3853.74
949.938	3885.38
950.244	3861.65
950.549	3862.33
950.854	3802.44
951.16	3846.51
951.465	3780.07
951.77	3792.5
952.075	3787.98
952.38	3748.66
952.685	3723.8
952.99	3699.17
953.294	3717.47
953.599	3671.37
953.904	3708.21
954.209	3653.07
954.513	3624.82
954.818	3591.6
955.122	3603.13
955.426	3610.36
955.731	3584.37
956.035	3556.35
956.339	3533.75
956.643	3571.26
956.948	3499.85
957.252	3505.95
957.556	3505.73
957.86	3482.22
958.163	3462.11
958.467	3460.3
958.771	3427.54
959.075	3449.68
959.378	3392.96
959.682	3413.98
959.985	3361.32
960.289	3328.33
960.592	3324.71
960.896	3339.86
961.199	3324.26
961.502	3282.68
961.805	3331.27
962.108	3250.59
962.411	3243.81
962.714	3245.85
963.017	3258.05
963.32	3250.14
963.623	3173.31
963.926	3197.49
964.228	3203.14
964.531	3155.23
964.833	3162.01
965.136	3132.4
965.438	3151.61
965.741	3085.4
966.043	3084.72
966.345	3106.87
966.648	3082.24
966.95	3063.48
967.252	3065.51
967.554	3027.55
967.856	3008.34
968.158	2964.5
968.46	2988.9
968.761	2939.64
969.063	2951.84
969.365	2939.19
969.666	2952.52
969.968	2906.19
970.269	2911.39
970.571	2893.99
970.872	2889.92
971.174	2870.94
971.475	2863.94
971.776	2832.75
972.077	2862.35
972.378	2854.44
972.679	2811.51
972.98	2799.98
973.281	2754.33
973.582	2832.52
973.883	2785.75
974.183	2783.71
974.484	2728.12
974.785	2741.45
975.085	2747.33
975.386	2709.14
975.686	2693.77
975.986	2690.61
976.287	2704.39
976.587	2662.59
976.887	2642.02
977.187	2655.58
977.487	2630.04
977.787	2649.25
978.087	2627.11
978.387	2599.99
978.687	2571.74
978.987	2558.63
979.286	2547.33
979.586	2566.77
979.885	2543.04
980.185	2545.3
980.484	2553.44
980.784	2493.55
981.083	2550.5
981.382	2462.82
981.682	2476.6
981.981	2462.82
982.28	2462.14
982.579	2443.16
982.878	2405.64
983.177	2444.29
983.475	2423.72
983.774	2380.11
984.073	2392.31
984.372	2397.28
984.67	2368.81
984.969	2403.38
985.267	2361.8
985.566	2347.79
985.864	2327.9
986.162	2349.37
986.461	2282.26
986.759	2286.78
987.057	2279.09
987.355	2280.9
987.653	2278.19
987.951	2251.07
988.249	2244.74
988.547	2253.1
988.844	2250.17
989.142	2193.45
989.44	2217.63
989.737	2181.02
990.035	2181.69
990.332	2172.88
990.63	2177.63
990.927	2155.25
991.224	2132.43
991.521	2115.03
991.819	2149.38
992.116	2115.03
992.413	2134.24
992.71	2117.29
993.006	2103.5
993.303	2097.63
993.6	2055.82
993.897	2079.1
994.193	2064.63
994.49	2047.46
994.787	2013.11
995.083	2017.4
995.379	2054.69
995.676	1998.87
995.972	2001.59
996.268	1984.19
996.565	1987.8
996.861	1976.5
997.157	1978.99
997.453	1969.04
997.749	1955.49
998.044	1906.67
998.34	1890.18
998.636	1915.26
998.932	1894.02
999.227	1866.22
999.523	1853.79
999.818	1881.59
1000.114	1861.7
1000.409	1847.69
1000.704	1842.72
1001	1828.03
1001.295	1838.65
1001.59	1805.43
1001.885	1832.78
1002.18	1788.71
1002.475	1767.24
1002.77	1751.42
1003.065	1791.87
1003.359	1770.18
1003.654	1771.08
1003.949	1720.46
1004.243	1742.61
1004.538	1711.65
1004.832	1696.96
1005.127	1730.63
1005.421	1677.3
1005.715	1699.9
1006.009	1658.32
1006.304	1679.33
1006.598	1630.3
1006.892	1677.53
1007.186	1630.3
1007.48	1645.89
1007.773	1624.87
1008.067	1610.64
1008.361	1602.5
1008.655	1595.72
1008.948	1625.55
1009.242	1612.67
1009.535	1563.41
1009.829	1551.88
1010.122	1531.99
1010.415	1533.12
1010.708	1529.96
1011.001	1531.09
1011.295	1555.72
1011.588	1519.34
1011.881	1527.7
1012.173	1491.32
1012.466	1489.28
1012.759	1514.37
1013.052	1466.68
1013.344	1463.29
1013.637	1462.39
1013.93	1438.89
1014.222	1431.21
1014.514	1430.75
1014.807	1427.82
1015.099	1419.45
1015.391	1404.31
1015.683	1404.99
1015.976	1371.55
1016.268	1395.73
1016.56	1350.76
1016.851	1352.34
1017.143	1376.07
1017.435	1346.46
1017.727	1346.01
1018.018	1340.36
1018.31	1320.02
1018.602	1313.24
1018.893	1309.17
1019.185	1291.1
1019.476	1299.68
1019.767	1298.33
1020.058	1273.24
1020.35	1252.23
1020.641	1234.83
1020.932	1247.48
1021.223	1243.19
1021.514	1252.9
1021.804	1225.11
1022.095	1236.86
1022.386	1217.2
1022.677	1221.27
1022.967	1213.58
1023.258	1213.36
1023.548	1202.51
1023.839	1193.47
1024.129	1165.22
1024.419	1158.9
1024.709	1164.55
1025	1146.47
1025.29	1155.28
1025.58	1143.98
1025.87	1143.08
1026.16	1121.83
1026.449	1117.99
1026.739	1108.28
1027.029	1087.71
1027.319	1113.7
1027.608	1091.1
1027.898	1078.9
1028.187	1079.58
1028.477	1067.6
1028.766	1087.94
1029.055	1059.24
1029.344	1057.88
1029.634	1045.68
1029.923	1038
1030.212	1014.95
1030.501	1009.97
1030.79	1014.95
1031.078	1020.14
1031.367	985.57
1031.656	978.11
1031.945	1008.62
1032.233	983.76
1032.522	989.41
1032.81	968.39
1033.099	960.03
1033.387	965.68
1033.675	971.56
1033.963	978.56
1034.251	943.53
1034.54	971.1
1034.828	930.2
1035.116	925.68
1035.403	931.56
1035.691	915.06
1035.979	923.2
1036.267	908.96
1036.554	876.87
1036.842	914.38
1037.129	893.59
1037.417	880.71
1037.704	892.69
1037.992	891.11
1038.279	839.58
1038.566	858.79
1038.853	858.79
1039.14	858.79
