Data from hue_320_FLMS001491_81.txt Node
Date: Mon Feb 06 15:47:49 GMT 2017
User: dcchb
Spectrometer: FLMS00149
Trigger mode: 0
Integration Time (sec): 2.000000E-2
Scans to average: 10
Electric dark correction enabled: true
Nonlinearity correction enabled: false
Boxcar width: 0
XAxis mode: Wavelengths
Number of Pixels in Spectrum: 2048
>>>>>Begin Spectral Data<<<<<
341.393	5.99
341.776	5.99
342.16	5.99
342.543	-44.86
342.927	-44.41
343.31	-73.33
343.693	-66.33
344.077	-66.78
344.46	-60
344.843	-40.56
345.226	-48.25
345.61	-18.42
345.993	-30.17
346.376	-12.99
346.759	-2.82
347.142	25.2
347.525	37.4
347.908	78.75
348.291	85.53
348.674	93.44
349.057	99.32
349.44	121.92
349.823	161.92
350.206	169.6
350.588	217.96
350.971	216.6
351.354	237.17
351.737	228.36
352.119	230.16
352.502	254.12
352.884	259.09
353.267	270.16
353.65	304.96
354.032	326.66
354.414	323.04
354.797	305.42
355.179	311.52
355.562	314.68
355.944	324.62
356.326	330.05
356.709	357.17
357.091	316.26
357.473	341.8
357.855	322.36
358.238	333.21
358.62	340.44
359.002	332.31
359.384	337.96
359.766	356.71
360.148	337.05
360.53	339.31
360.912	344.06
361.294	336.6
361.676	315.58
362.057	323.72
362.439	331.86
362.821	324.4
363.203	336.15
363.584	315.13
363.966	312.42
364.348	311.97
364.729	359.2
365.111	332.08
365.493	325.53
365.874	332.99
366.256	312.65
366.637	317.84
367.019	311.74
367.4	301.8
367.781	311.97
368.163	328.47
368.544	315.13
368.925	339.77
369.306	305.87
369.688	303.61
370.069	310.16
370.45	314.46
370.831	339.99
371.212	322.36
371.593	305.64
371.974	303.61
372.355	310.61
372.736	319.2
373.117	330.95
373.498	323.27
373.879	319.88
374.26	304.96
374.641	313.1
375.021	320.78
375.402	315.36
375.783	332.08
376.163	332.53
376.544	310.84
376.925	325.08
377.305	305.64
377.686	316.26
378.066	317.39
378.447	323.72
378.827	340.67
379.208	327.79
379.588	326.66
379.968	338.18
380.349	333.21
380.729	325.3
381.109	333.44
381.489	328.24
381.87	328.92
382.25	360.33
382.63	333.66
383.01	330.95
383.39	344.74
383.77	339.77
384.15	346.09
384.53	359.65
384.91	347.45
385.29	340.44
385.67	362.14
386.049	353.78
386.429	360.56
386.809	336.15
387.189	369.59
387.568	349.71
387.948	350.39
388.328	355.36
388.707	379.09
389.087	366.88
389.466	372.08
389.846	368.69
390.225	372.31
390.605	372.53
390.984	367.79
391.363	359.43
391.743	384.28
392.122	362.59
392.501	374.79
392.881	381.8
393.26	368.24
393.639	393.77
394.018	382.48
394.397	366.88
394.776	378.86
395.155	376.6
395.534	383.15
395.913	396.71
396.292	370.27
396.671	382.02
397.05	399.88
397.429	388.35
397.808	386.77
398.186	394
398.565	400.33
398.944	398.07
399.323	391.74
399.701	387
400.08	401.68
400.458	410.5
400.837	411.63
401.215	405.07
401.594	416.37
401.972	406.2
402.351	428.12
402.729	420.67
403.107	427.45
403.486	426.99
403.864	418.86
404.242	433.55
404.62	421.57
404.999	424.96
405.377	441.46
405.755	411.18
406.133	425.86
406.511	455.47
406.889	461.57
407.267	444.62
407.645	467.22
408.023	477.39
408.401	461.34
408.779	449.37
409.156	469.25
409.534	478.74
409.912	470.84
410.29	498.86
410.667	478.07
411.045	488.24
411.422	504.73
411.8	506.31
412.178	493.89
412.555	509.03
412.933	502.02
413.31	532.53
413.687	549.25
414.065	530.95
414.442	535.92
414.819	530.04
415.197	561.45
415.574	543.83
415.951	554.9
416.328	573.88
416.705	570.72
417.082	589.02
417.46	595.13
417.837	601.23
418.214	578.63
418.591	606.65
418.967	623.37
419.344	627.44
419.721	633.09
420.098	633.32
420.475	659.08
420.852	653.2
421.228	655.46
421.605	681.68
421.982	682.35
422.358	681
422.735	698.85
423.111	680.32
423.488	675.35
423.864	701.56
424.241	720.77
424.617	739.08
424.994	726.87
425.37	715.57
425.746	731.62
426.123	753.54
426.499	748.79
426.875	745.4
427.251	780.43
427.627	769.13
428.003	764.39
428.379	807.1
428.756	776.82
429.132	781.56
429.507	826.53
429.883	845.51
430.259	860.2
430.635	840.32
431.011	831.5
431.387	866.08
431.763	886.42
432.138	865.85
432.514	885.51
432.89	882.58
433.265	880.77
433.641	926.19
434.016	938.39
434.392	929.13
434.767	944.72
435.143	960.99
435.518	946.53
435.894	943.14
436.269	972.97
436.644	968.45
437.02	1014.55
437.395	996.47
437.77	1014.55
438.145	1002.8
438.52	1037.6
438.895	1049.58
439.271	1033.08
439.646	1036.24
440.021	1061.55
440.395	1073.76
440.77	1064.72
441.145	1077.15
441.52	1100.88
441.895	1090.03
442.27	1076.69
442.645	1070.59
443.019	1121.67
443.394	1132.96
443.769	1120.54
444.143	1108.33
444.518	1167.54
444.892	1149.01
445.267	1151.04
445.641	1152.4
446.016	1144.26
446.39	1141.55
446.764	1173.19
447.139	1164.38
447.513	1177.26
447.887	1205.28
448.262	1181.55
448.636	1176.35
449.01	1186.3
449.384	1185.17
449.758	1205.28
450.132	1224.26
450.506	1193.53
450.88	1232.85
451.254	1218.84
451.628	1251.15
452.002	1241.21
452.376	1223.58
452.75	1270.14
453.123	1259.97
453.497	1266.97
453.871	1273.3
454.244	1295.45
454.618	1290.25
454.992	1293.41
455.365	1301.77
455.739	1367.53
456.112	1316.91
456.486	1330.02
456.859	1338.61
457.232	1371.6
457.606	1374.77
457.979	1363.02
458.352	1390.13
458.725	1425.16
459.099	1402.79
459.472	1438.95
459.845	1415.67
460.218	1450.92
460.591	1468.1
460.964	1485.95
461.337	1474.88
461.71	1501.77
462.083	1536.57
462.456	1527.3
462.829	1533.63
463.201	1518.27
463.574	1564.14
463.947	1565.5
464.32	1566.4
464.692	1613.18
465.065	1614.76
465.438	1631.03
465.81	1647.3
466.183	1660.86
466.555	1662.67
466.928	1685.94
467.3	1687.98
467.672	1710.58
468.045	1734.53
468.417	1747.41
468.789	1731.59
469.161	1764.13
469.534	1768.88
469.906	1790.8
470.278	1832.61
470.65	1869.22
471.022	1862.21
471.394	1893.85
471.766	1900.63
472.138	1927.29
472.51	1945.37
472.882	1972.49
473.253	1984.92
473.625	1979.95
473.997	2041.19
474.369	2045.93
474.74	2048.65
475.112	2102.2
475.484	2075.76
475.855	2139.49
476.227	2127.51
476.598	2182.65
476.97	2215.2
477.341	2237.34
477.713	2286.15
478.084	2275.53
478.455	2347.17
478.827	2323.89
479.198	2367.73
479.569	2382.42
479.94	2428.07
480.311	2444.12
480.682	2502.42
481.053	2565.7
481.424	2582.19
481.795	2599.37
482.166	2600.04
482.537	2664.68
482.908	2689.08
483.279	2677.33
483.65	2748.74
484.021	2775.41
484.391	2800.27
484.762	2806.37
485.133	2837.1
485.503	2880.26
485.874	2904.67
486.244	2890.43
486.615	2977.89
486.985	2999.36
487.356	3008.62
487.726	3032.12
488.097	3112.8
488.467	3117.09
488.837	3164.32
489.207	3214.94
489.578	3251.1
489.948	3282.74
490.318	3289.74
490.688	3299.01
491.058	3348.27
491.428	3355.28
491.798	3424.88
492.168	3463.3
492.538	3460.59
492.908	3479.34
493.278	3523.64
493.648	3535.16
494.017	3590.98
494.387	3584.43
494.757	3632.79
495.126	3702.61
495.496	3652.9
495.866	3688.83
496.235	3710.52
496.605	3743.97
496.974	3759.11
497.344	3754.36
497.713	3767.7
498.082	3823.06
498.452	3830.52
498.821	3847.02
499.19	3873.68
499.559	3931.99
499.928	3872.55
500.298	3900.58
500.667	3981.25
501.036	3957.98
501.405	4009.05
501.774	4007.47
502.143	4054.47
502.512	4014.47
502.88	4094.69
503.249	4067.58
503.618	4064.19
503.987	4126.33
504.356	4138.76
504.724	4147.35
505.093	4191.19
505.462	4173.34
505.83	4207.01
506.199	4172.21
506.567	4229.15
506.936	4217.4
507.304	4288.14
507.672	4335.37
508.041	4292.88
508.409	4349.38
508.777	4374.46
509.145	4378.08
509.514	4330.62
509.882	4414.23
510.25	4416.72
510.618	4395.7
510.986	4411.07
511.354	4461.69
511.722	4473.89
512.09	4503.27
512.458	4514.34
512.826	4477.51
513.193	4529.71
513.561	4496.27
513.929	4549.82
514.297	4614.45
514.664	4619.65
515.032	4669.14
515.4	4652.19
515.767	4651.97
516.135	4699.42
516.502	4622.36
516.869	4707.33
517.237	4716.83
517.604	4714.11
517.972	4741.01
518.339	4752.98
518.706	4755.02
519.073	4813.77
519.44	4776.03
519.808	4858.52
520.175	4833.66
520.542	4882.7
520.909	4841.79
521.276	4832.53
521.643	4936.71
522.009	4924.96
522.376	4910.72
522.743	4967.89
523.11	4983.26
523.477	5063.48
523.843	5061.67
524.21	5111.62
524.577	5130.6
524.943	5180.09
525.31	5207.21
525.676	5229.13
526.043	5189.58
526.409	5241.33
526.776	5285.85
527.142	5284.27
527.508	5352.97
527.874	5378.73
528.241	5384.6
528.607	5393.64
528.973	5454.21
529.339	5463.92
529.705	5464.83
530.071	5569.01
530.437	5562.23
530.803	5599.74
531.169	5616.01
531.535	5590.25
531.901	5665.05
532.267	5688.33
532.632	5676.8
532.998	5700.53
533.364	5742.33
533.73	5762.9
534.095	5810.36
534.461	5775.78
534.826	5877.92
535.192	5880.18
535.557	5894.87
535.923	5892.39
536.288	5926.06
536.653	5987.53
537.019	5950.01
537.384	6022.55
537.749	6005.38
538.114	6022.33
538.479	6035.66
538.845	6092.61
539.21	6094.64
539.575	6108.2
539.94	6185.71
540.305	6177.35
540.67	6163.11
541.034	6224.58
541.399	6220.51
541.764	6279.27
542.129	6311.59
542.494	6298.03
542.858	6292.83
543.223	6366.5
543.587	6401.3
543.952	6422.77
544.316	6450.56
544.681	6498.7
545.045	6493.95
545.41	6521.07
545.774	6526.04
546.138	6507.74
546.503	6597.68
546.867	6604.01
547.231	6651.46
547.595	6652.59
547.959	6719.26
548.324	6625.25
548.688	6705.02
549.052	6711.12
549.416	6776.88
549.779	6805.13
550.143	6771.01
550.507	6836.09
550.871	6883.32
551.235	6891.68
551.599	6933.26
551.962	6923.32
552.326	6907.73
552.689	6999.7
553.053	6952.7
553.417	7009.87
553.78	7100.04
554.143	7010.55
554.507	7050.32
554.87	7101.4
555.234	7187.49
555.597	7159.7
555.96	7183.43
556.323	7168.51
556.686	7239.02
557.05	7238.11
557.413	7278.11
557.776	7245.12
558.139	7305.23
558.502	7309.98
558.865	7354.27
559.228	7371.44
559.59	7444.21
559.953	7472.46
560.316	7489.18
560.679	7510.65
561.041	7475.85
561.404	7552.68
561.767	7565.79
562.129	7559.91
562.492	7639.69
562.854	7640.36
563.217	7665
563.579	7705.45
563.941	7703.41
564.304	7761.49
564.666	7810.98
565.028	7784.09
565.39	7829.96
565.753	7807.82
566.115	7841.26
566.477	7984.54
566.839	7971.43
567.201	8034.7
567.563	7960.81
567.925	8057.75
568.287	8026.57
568.648	8034.03
569.01	8101.14
569.372	8151.31
569.734	8159.22
570.095	8246.9
570.457	8206.45
570.819	8276.28
571.18	8255.72
571.542	8381.81
571.903	8404.86
572.265	8426.11
572.626	8440.57
572.987	8509.27
573.349	8558.08
573.71	8577.29
574.071	8645.76
574.432	8730.05
574.794	8758.07
575.155	8777.96
575.516	8831.07
575.877	8911.29
576.238	8946.54
576.599	9042.36
576.96	9068.58
577.32	9176.59
577.681	9200.55
578.042	9307.44
578.403	9344.73
578.763	9492.97
579.124	9583.59
579.485	9741.55
579.845	9786.97
580.206	9816.13
580.566	9986.07
580.927	10105.84
581.287	10171.82
581.648	10245.72
582.008	10427.18
582.368	10517.35
582.728	10734.97
583.089	10730.23
583.449	10986.94
583.809	11128.18
584.169	11317.56
584.529	11433.03
584.889	11620.82
585.249	11850.42
585.609	11879.35
585.969	12228.04
586.329	12300.58
586.688	12522.5
587.048	12713.68
587.408	12931.98
587.768	13117.96
588.127	13352.53
588.487	13572.86
588.846	13833.42
589.206	14026.18
589.565	14359.06
589.925	14520.18
590.284	14788.42
590.643	15028.87
591.003	15347.51
591.362	15625.69
591.721	15898.23
592.08	16117.66
592.44	16428.83
592.799	16668.83
593.158	16919.67
593.517	17243.5
593.876	17528.24
594.235	17793.77
594.593	18133.2
594.952	18616.12
595.311	18732.05
595.67	18905.83
596.029	19366.38
596.387	19644.12
596.746	19945.58
597.104	20212.91
597.463	20304.21
597.822	20803.18
598.18	21042.72
598.538	21169.95
598.897	21715.25
599.255	21701.24
599.613	22353.88
599.972	22429.58
600.33	22793.86
600.688	22911.83
601.046	23360.85
601.404	23703.44
601.762	23867.96
602.12	24270.44
602.478	24592.46
602.836	24810.08
603.194	24847.14
603.552	25274.48
603.91	25441.48
604.268	25664.3
604.625	25980.9
604.983	26315.13
605.341	26523.71
605.698	26825.17
606.056	27058.61
606.413	27300.19
606.771	27649.33
607.128	27819.27
607.485	27966.38
607.843	28226.72
608.2	28540.38
608.557	28799.36
608.914	28960.26
609.272	29420.81
609.629	29526.57
609.986	29769.73
610.343	29816.5
610.7	30327.9
611.057	30338.98
611.414	30628.23
611.771	30653.54
612.127	31063.48
612.484	31284.94
612.841	31434.99
613.198	31462.34
613.554	31712.95
613.911	31957.01
614.267	32176.67
614.624	32312.94
614.98	32386.38
615.337	32877.67
615.693	32871.57
616.05	32998.57
616.406	33339.12
616.762	33475.62
617.118	33470.19
617.475	33644.2
617.831	33956.51
618.187	34026.79
618.543	34200.57
618.899	34414.58
619.255	34499.77
619.611	34405.08
619.967	34829.25
620.323	35065.63
620.678	35004.62
621.034	34993.54
621.39	35166.87
621.746	35183.14
622.101	35635.33
622.457	35513.76
622.812	35722.79
623.168	35857.93
623.523	35985.38
623.879	36060.18
624.234	35970.92
624.589	36176.34
624.945	36137.92
625.3	36377.24
625.655	36405.26
626.01	36471.92
626.365	36427.86
626.72	36510.79
627.075	36672.6
627.43	36688.87
627.785	36689.77
628.14	36867.62
628.495	36999.82
628.85	36918.92
629.205	36914.62
629.559	37093.6
629.914	37068.29
630.269	37084.34
630.623	37159.59
630.978	36933.83
631.332	37360.03
631.687	37203.65
632.041	37229.19
632.396	37310.77
632.75	37329.07
633.104	37381.05
633.459	37175.63
633.813	37177.21
634.167	37248.63
634.521	37372.69
634.875	37427.6
635.229	37405.68
635.583	37290.21
635.937	37350.09
636.291	37343.09
636.645	37190.77
636.999	37270.32
637.352	37453.59
637.706	37200.49
638.06	37342.86
638.413	37420.37
638.767	37277.32
639.121	37250.43
639.474	37205.01
639.828	37196.88
640.181	37375.18
640.534	37333.37
640.888	37262.64
641.241	37228.29
641.594	37335.4
641.947	37295.63
642.301	37205.69
642.654	37340.83
643.007	37310.77
643.36	37220.38
643.713	37252.47
644.066	37311.67
644.419	37156.42
644.771	36873.72
645.124	36704.23
645.477	36662.2
645.83	36418.14
646.182	36259.5
646.535	36239.84
646.888	36204.36
647.24	35995.55
647.593	36440.06
647.945	36345.6
648.298	36020.18
648.65	36015.44
649.002	35937.02
649.355	36085.94
649.707	36039.17
650.059	36184.25
650.411	36564.35
650.763	36528.87
651.115	36927.96
651.467	36865.58
651.819	36883.89
652.171	36737.68
652.523	36701.75
652.875	36812.48
653.227	36473.73
653.578	36834.17
653.93	36837.34
654.282	36569.55
654.633	36659.71
654.985	36590.11
655.337	36713.05
655.688	36627.85
656.039	36753.95
656.391	36402.77
656.742	36478.02
657.094	36577.23
657.445	36657.23
657.796	36645.25
658.147	36540.62
658.498	36569.55
658.849	36613.84
659.2	36476.89
659.551	36517.12
659.902	36636.21
660.253	36583.56
660.604	36556.67
660.955	36440.96
661.306	36609.55
661.656	36374.52
662.007	36553.5
662.358	36524.12
662.708	36368.65
663.059	36495.42
663.409	36306.95
663.76	36476.89
664.11	36557.34
664.461	36486.39
664.811	36445.48
665.161	36393.51
665.511	36494.29
665.862	36411.13
666.212	36536.78
666.562	36535.65
666.912	36347.41
667.262	36293.62
667.612	36500.4
667.962	36365.03
668.312	36246.39
668.662	36607.74
669.011	36435.31
669.361	36242.55
669.711	36244.81
670.06	36303.57
670.41	36257.92
670.76	36221.99
671.109	36283
671.459	36255.43
671.808	36157.58
672.157	36365.94
672.507	36066.96
672.856	36119.84
673.205	36208.43
673.554	36179.73
673.904	36029.67
674.253	36361.19
674.602	36150.35
674.951	35670.81
675.3	35480.99
675.649	36086.62
675.998	36107.64
676.346	36010.01
676.695	36151.48
677.044	35904.71
677.393	35963.69
677.741	36071.93
678.09	35908.1
678.438	35851.83
678.787	35902.45
679.135	36021.76
679.484	35656.12
679.832	35892.5
680.181	35500.42
680.529	35860.86
680.877	35592.85
681.225	35643.92
681.573	35833.3
681.922	35549.69
682.27	35443.02
682.618	35447.99
682.966	35311.73
683.314	35383.82
683.661	35338.84
684.009	35197.83
684.357	35008.91
684.705	35029.02
685.053	35181.11
685.4	35058.4
685.748	34791.06
686.095	34838.52
686.443	34767.33
686.79	34803.27
687.138	34815.69
687.485	34690.05
687.832	34547.91
688.18	34736.15
688.527	34386.78
688.874	34374.8
689.221	34301.81
689.568	34377.06
689.915	34156.5
690.262	34137.52
690.609	34018.65
690.956	34060.46
691.303	34019.11
691.65	33795.61
691.997	33775.04
692.344	33620.47
692.69	33591.32
693.037	33656.63
693.383	33369.18
693.73	33559.23
694.077	33406.47
694.423	33345
694.769	33129.64
695.116	33142.07
695.462	33134.83
695.808	32987.49
696.155	33058
696.501	32795.86
696.847	32888.51
697.193	32481.52
697.539	32684.23
697.885	32519.03
698.231	32287.85
698.577	32298.47
698.923	32338.92
699.269	32143.45
699.614	31974.87
699.96	31960.18
700.306	31907.75
700.651	31850.8
700.997	31750.01
701.342	31562.9
701.688	31631.82
702.033	31587.08
702.379	31597.93
702.724	31387.08
703.069	31488.32
703.415	31155.9
703.76	31169.69
704.105	31062.57
704.45	31190.03
704.795	30924.05
705.14	30810.38
705.485	30840.43
705.83	30732.86
706.175	30697.16
706.52	30580.55
706.865	30433.21
707.209	30414.45
707.554	30384.62
707.899	30374.46
708.243	30275.93
708.588	30219.21
708.932	30028.48
709.277	30060.79
709.621	29997.52
709.966	29886.33
710.31	29856.96
710.654	29555.49
710.998	29560.69
711.342	29648.37
711.687	29624.87
712.031	29411.32
712.375	29470.52
712.719	29496.51
713.063	29421.26
713.407	29239.34
713.75	29186.69
714.094	29203.64
714.438	29106.01
714.782	29089.07
715.125	28995.06
715.469	28827.6
715.812	28813.37
716.156	28786.47
716.499	28783.54
716.843	28685.69
717.186	28556.65
717.53	28778.57
717.873	28694.27
718.216	28578.57
718.559	28543.54
718.902	28331.57
719.246	28436.43
719.589	28320.72
719.932	28178.36
720.275	28301.06
720.617	28137.45
720.96	28110.56
721.303	28111.01
721.646	28125.02
721.989	27808.87
722.331	28033.5
722.674	27882.77
723.016	27853.62
723.359	27902.88
723.701	27859.27
724.044	27708.31
724.386	27486.4
724.729	27737.24
725.071	27654.3
725.413	27645.71
725.755	27456.11
726.097	27403.91
726.439	27225.16
726.782	27255.89
727.124	27460.86
727.465	27199.62
727.807	27255.89
728.149	27264.03
728.491	27127.31
728.833	27256.35
729.175	27008.22
729.516	27104.94
729.858	27059.29
730.199	26977.26
730.541	26956.47
730.882	26949.69
731.224	26956.47
731.565	26756.02
731.906	26815.68
732.248	26822.68
732.589	26617.27
732.93	26511.05
733.271	26638.73
733.612	26709.24
733.953	26598.74
734.294	26603.48
734.635	26438.06
734.976	26455.91
735.317	26401.9
735.658	26389.48
735.999	26421.79
736.339	26233.32
736.68	26414.11
737.021	26261.57
737.361	26101.35
737.702	26224.06
738.042	26153.55
738.383	26106.09
738.723	26126.21
739.063	25949.71
739.404	26059.99
739.744	25874.01
740.084	25773.22
740.424	25869.04
740.764	25740.23
741.104	25866.1
741.444	25685.99
741.784	25615.48
742.124	25747.46
742.464	25620
742.804	25555.83
743.143	25544.3
743.483	25514.47
743.823	25361.93
744.162	25423.17
744.502	25433.57
744.841	25340.69
745.181	25480.57
745.52	25475.83
745.86	25357.19
746.199	25311.54
746.538	25309.05
746.877	25271.99
747.216	25315.38
747.556	25194.03
747.895	25133.46
748.234	25144.08
748.573	24924.66
748.911	25041.49
749.25	25025.67
749.589	24794.49
749.928	24884.2
750.267	24862.51
750.605	24753.81
750.944	24778.22
751.283	24657.77
751.621	24803.3
751.96	24513.14
752.298	24673.59
752.636	24453.03
752.975	24468.17
753.313	24379.13
753.651	24440.37
753.989	24320.6
754.327	24318.12
754.666	24254.39
755.004	24152.25
755.342	24117.9
755.679	24071.12
756.017	23962.19
756.355	24108.41
756.693	23932.82
757.031	23941.86
757.368	23805.81
757.706	23738.47
758.044	23702.31
758.381	23629.32
758.719	23691.47
759.056	23597.23
759.394	23502.32
759.731	23380.06
760.068	23315.43
760.405	23354.53
760.743	23264.13
761.08	23144.59
761.417	23168.77
761.754	23159.5
762.091	23020.52
762.428	23010.13
762.765	22837.7
763.102	22976.68
763.438	22609.24
763.775	22606.75
764.112	22699.4
764.449	22706.18
764.785	22621.89
765.122	22357.27
765.458	22419.18
765.795	22286.53
766.131	22223.48
766.467	22235.91
766.804	22108.68
767.14	21917.5
767.476	22000.44
767.812	21921.12
768.148	21929.93
768.485	21789.14
768.821	21654.01
769.157	21684.06
769.492	21543.05
769.828	21612.88
770.164	21425.31
770.5	21396.39
770.836	21308.71
771.171	21237.29
771.507	21163.85
771.842	20995.72
772.178	21030.07
772.513	20918.21
772.849	20722.96
773.184	20727.93
773.519	20722.96
773.855	20690.19
774.19	20444.77
774.525	20455.39
774.86	20407.49
775.195	20333.36
775.53	20261.28
775.865	20116.19
776.2	20004.78
776.535	19888.18
776.87	19990.1
777.205	19806.82
777.539	19793.49
777.874	19782.64
778.209	19599.37
778.543	19496.78
778.878	19488.87
779.212	19459.49
779.547	19313.05
779.881	19346.5
780.215	19257.91
780.55	19224.47
780.884	19139.27
781.218	19040.06
781.552	19045.04
781.886	18940.86
782.22	18942.44
782.554	18725.95
782.888	18623.8
783.222	18495.9
783.556	18502.45
783.889	18415.9
784.223	18397.6
784.557	18417.03
784.89	18351.72
785.224	18200.99
785.557	18183.82
785.891	18157.83
786.224	18040.09
786.558	18062.91
786.891	17927.78
787.224	17717.84
787.557	17748.12
787.891	17726.88
788.224	17729.36
788.557	17674
788.89	17646.88
789.223	17567.33
789.556	17465.19
789.888	17421.8
790.221	17372.31
790.554	17121.7
790.887	17157.18
791.219	17076.95
791.552	17060.46
791.884	17062.94
792.217	17053
792.549	16945.88
792.882	16779.11
793.214	16708.15
793.546	16760.58
793.879	16626.12
794.211	16541.37
794.543	16567.14
794.875	16475.16
795.207	16455.27
795.539	16370.76
795.871	16441.04
796.203	16299.57
796.535	16186.35
796.867	16191.55
797.198	16083.98
797.53	16207.6
797.862	16040.6
798.193	16041.73
798.525	15909.3
798.856	15929.19
799.188	15725.8
799.519	15767.16
799.85	15644.45
800.182	15771.22
800.513	15683.54
800.844	15530.78
801.175	15606.93
801.506	15622.08
801.837	15462.98
802.168	15353.61
802.499	15320.39
802.83	15291.01
803.161	15228.64
803.491	15242.2
803.822	15295.76
804.153	15150.22
804.483	15030.9
804.814	14895.31
805.145	14950.91
805.475	14930.79
805.805	14892.15
806.136	14871.59
806.466	14874.98
806.796	14766.73
807.126	14747.52
807.457	14707.97
807.787	14661.2
808.117	14632.04
808.447	14566.96
808.777	14474.08
809.107	14531.48
809.436	14500.52
809.766	14364.93
810.096	14350.92
810.426	14308.89
810.755	14371.94
811.085	14259.17
811.414	14232.06
811.744	14189.12
812.073	14138.72
812.403	14071.38
812.732	14030.93
813.061	14006.3
813.39	13862.8
813.719	13855.12
814.049	13983.47
814.378	13890.82
814.707	13812.63
815.036	13799.07
815.365	13762.46
815.693	13590.94
816.022	13612.64
816.351	13625.97
816.68	13480.21
817.008	13591.17
817.337	13428.91
817.665	13402.02
817.994	13461
818.322	13353.21
818.651	13345.07
818.979	13275.24
819.307	13396.37
819.636	13325.86
819.964	13256.94
820.292	13264.62
820.62	13224.62
820.948	13208.58
821.276	13252.19
821.604	13234.79
821.932	13215.81
822.259	13234.79
822.587	13103.27
822.915	13094.91
823.243	13156.83
823.57	13033.67
823.898	13163.38
824.225	13105.31
824.553	13067.11
824.88	13145.76
825.207	13126.77
825.535	13117.96
825.862	13177.85
826.189	13110.05
826.516	13162.7
826.843	13104.4
827.17	13130.62
827.497	13128.81
827.824	13141.69
828.151	13159.77
828.478	13135.13
828.805	13180.33
829.131	13096.94
829.458	13024.86
829.785	13076.61
830.111	13039.77
830.438	13122.93
830.764	13143.5
831.09	13095.81
831.417	13054.46
831.743	13044.06
832.069	13078.87
832.395	12983.27
832.722	12996.83
833.048	12959.09
833.374	12967.68
833.7	12926.1
834.026	12948.47
834.351	13029.37
834.677	12978.53
835.003	12968.36
835.329	13000.45
835.654	12977.62
835.98	12817.4
836.306	12863.73
836.631	12749.38
836.956	12869.38
837.282	12871.19
837.607	12785.54
837.932	12800
838.258	12758.42
838.583	12737.41
838.908	12606.56
839.233	12724.75
839.558	12724.75
839.883	12564.3
840.208	12531.53
840.533	12610.4
840.858	12607.69
841.182	12612.66
841.507	12538.99
841.832	12505.77
842.156	12445.66
842.481	12417.19
842.805	12355.27
843.13	12374.7
843.454	12313.01
843.778	12270.75
844.103	12285.21
844.427	12254.71
844.751	12268.94
845.075	12243.41
845.399	12212.67
845.723	12127.7
846.047	12197.98
846.371	12040.47
846.695	12023.98
847.019	11979.46
847.343	11857.88
847.666	11884.77
847.99	11774.49
848.313	11726.36
848.637	11713.48
848.96	11688.85
849.284	11671.22
849.607	11604.33
849.931	11614.04
850.254	11525.91
850.577	11361.17
850.9	11335.63
851.223	11309.87
851.546	11194.17
851.869	11207.73
852.192	11292.47
852.515	11199.59
852.838	11094.51
853.161	11061.97
853.483	10982.2
853.806	10998.69
854.129	10948.53
854.451	10894.52
854.774	10872.82
855.096	10878.02
855.419	10871.92
855.741	10753.5
856.063	10728.87
856.385	10672.15
856.708	10686.39
857.03	10619.04
857.352	10609.55
857.674	10591.25
857.996	10592.6
858.318	10439.39
858.64	10468.99
858.961	10503.57
859.283	10367.3
859.605	10388.31
859.926	10286.85
860.248	10394.64
860.57	10292.05
860.891	10278.94
861.212	10226.51
861.534	10234.19
861.855	10192.84
862.176	10251.37
862.498	10157.81
862.819	10156
863.14	10218.83
863.461	10142.45
863.782	10044.59
864.103	10115.78
864.424	10059.51
864.745	10087.08
865.065	10016.12
865.386	9967.76
865.707	10052.28
866.027	9988.32
866.348	9949.23
866.668	9923.92
866.989	9920.76
867.309	9861.55
867.63	9897.48
867.95	9824.04
868.27	9733.87
868.59	9854.54
868.91	9820.42
869.23	9781.78
869.55	9802.12
869.87	9721.89
870.19	9727.54
870.51	9780.87
870.83	9784.71
871.15	9762.79
871.469	9749.91
871.789	9706.3
872.109	9700.65
872.428	9633.08
872.748	9693.19
873.067	9648.22
873.386	9642.12
873.706	9614.55
874.025	9575.91
874.344	9554.89
874.663	9575.91
874.982	9550.82
875.301	9507.66
875.62	9479.86
875.939	9441.45
876.258	9389.47
876.577	9391.28
876.896	9411.62
877.214	9379.08
877.533	9463.59
877.852	9346.53
878.17	9371.39
878.489	9356.25
878.807	9392.86
879.125	9330.94
879.444	9311.51
879.762	9211.85
880.08	9257.04
880.398	9173.88
880.716	9206.88
881.034	9167.56
881.352	9253.43
881.67	9179.08
881.988	9221.57
882.306	9195.8
882.624	9143.38
882.941	9083.49
883.259	9087.33
883.577	9107.9
883.894	8992.19
884.212	8952.42
884.529	8970.95
884.846	8934.79
885.164	8979.09
885.481	8969.37
885.798	8932.76
886.115	8815.25
886.432	8844.85
886.75	8780.45
887.067	8860.44
887.383	8753.33
887.7	8822.25
888.017	8764.85
888.334	8816.38
888.651	8725.31
888.967	8717.17
889.284	8596.95
889.6	8640.56
889.917	8567.57
890.233	8618.87
890.55	8530.96
890.866	8621.58
891.182	8514.69
891.498	8443.05
891.815	8476.05
892.131	8504.52
892.447	8410.29
892.763	8381.81
893.079	8361.93
893.395	8360.57
893.71	8293.91
894.026	8349.05
894.342	8354.24
894.657	8268.37
894.973	8191.99
895.289	8183.85
895.604	8222.27
895.92	8074.93
896.235	8063.18
896.55	8136.4
896.865	8068.38
897.181	8003.97
897.496	7985.44
897.811	7993.58
898.126	7951.54
898.441	7923.07
898.756	7936.85
899.071	7817.76
899.386	7819.57
899.7	7775.28
900.015	7765.78
900.33	7701.38
900.644	7682.62
900.959	7719.68
901.273	7670.65
901.588	7646.47
901.902	7598.11
902.216	7568.5
902.531	7570.76
902.845	7525.56
903.159	7531.44
903.473	7458.67
903.787	7438.11
904.101	7393.14
904.415	7386.36
904.729	7376.19
905.042	7323.08
905.356	7272.92
905.67	7233.82
905.984	7280.6
906.297	7250.32
906.611	7188.62
906.924	7162.18
907.237	7183.65
907.551	7130.55
907.864	7090.77
908.177	7088.97
908.491	7088.97
908.804	7003.54
909.117	7013.49
909.43	6949.08
909.743	6925.13
910.056	6942.08
910.368	6908.18
910.681	6811.23
910.994	6819.14
911.307	6818.69
911.619	6768.07
911.932	6710.67
912.244	6676.32
912.557	6703.44
912.869	6694.85
913.181	6622.99
913.494	6638.81
913.806	6572.82
914.118	6547.29
914.43	6510.22
914.742	6557.91
915.054	6483.56
915.366	6414.63
915.678	6358.59
915.99	6400.62
916.302	6330.34
916.613	6340.29
916.925	6310.23
917.236	6268.42
917.548	6224.81
917.859	6255.99
918.171	6236.56
918.482	6166.73
918.794	6157.01
919.105	6143
919.416	6107.3
919.727	6103.23
920.038	6014.64
920.349	5985.72
920.66	6017.81
920.971	6018.03
921.282	5966.06
921.593	5944.14
921.903	5888.55
922.214	5901.43
922.525	5856
922.835	5810.13
923.146	5818.27
923.456	5851.26
923.767	5752.5
924.077	5753.41
924.387	5757.7
924.697	5660.3
925.008	5645.61
925.318	5640.19
925.628	5639.06
925.938	5629.57
926.248	5529.91
926.558	5546.86
926.867	5543.7
927.177	5489.01
927.487	5515.67
927.796	5434.09
928.106	5437.26
928.416	5393.19
928.725	5425.51
929.034	5364.27
929.344	5379.18
929.653	5331.05
929.962	5279.75
930.271	5320.65
930.581	5260.54
930.89	5247.88
931.199	5266.64
931.508	5196.59
931.817	5185.06
932.125	5155.46
932.434	5140.54
932.743	5101.45
933.051	5097.61
933.36	5038.85
933.669	4990.94
933.977	5011.96
934.286	4983.71
934.594	4973.09
934.902	4925.63
935.21	4908.23
935.519	4968.34
935.827	4895.8
936.135	4863.04
936.443	4863.04
936.751	4821.91
937.059	4809.93
937.367	4770.38
937.674	4707.33
937.982	4767.45
938.29	4715.47
938.597	4794.79
938.905	4634.34
939.213	4623.04
939.52	4624.85
939.827	4655.13
940.135	4611.29
940.442	4564.06
940.749	4596.15
941.056	4557.06
941.363	4525.64
941.67	4532.65
941.977	4527.23
942.284	4435.25
942.591	4488.81
942.898	4443.16
943.205	4436.83
943.511	4381.47
943.818	4390.51
944.125	4372.2
944.431	4353.9
944.738	4338.3
945.044	4319.55
945.35	4289.27
945.657	4255.37
945.963	4275.25
946.269	4247.91
946.575	4253.33
946.881	4195.03
947.187	4190.29
947.493	4206.1
947.799	4117.29
948.105	4168.82
948.41	4155.48
948.716	4065.77
949.022	4048.14
949.327	4037.29
949.633	4050.85
949.938	4061.93
950.244	4073.23
950.549	3981.93
950.854	3958.65
951.16	3946.45
951.465	3951.65
951.77	3898.32
952.075	3870.97
952.38	3920.01
952.685	3876.4
952.99	3840.46
953.294	3891.08
953.599	3840.92
953.904	3796.17
954.209	3791.65
954.513	3795.04
954.818	3760.47
955.122	3769.28
955.426	3751.2
955.731	3711.88
956.035	3668.72
956.339	3681.6
956.643	3656.06
956.948	3609.51
957.252	3656.06
957.556	3581.04
957.86	3582.84
958.163	3578.1
958.467	3600.47
958.771	3556.4
959.075	3507.14
959.378	3529.96
959.682	3516.86
959.985	3502.17
960.289	3496.97
960.592	3488.16
960.896	3453.81
961.199	3461.72
961.502	3419.01
961.805	3385.33
962.108	3376.97
962.411	3378.56
962.714	3351.44
963.017	3345.34
963.32	3352.34
963.623	3325
963.926	3279.57
964.228	3320.48
964.531	3279.8
964.833	3233.02
965.136	3272.12
965.438	3212.68
965.741	3254.94
966.043	3228.28
966.345	3198.67
966.648	3144.21
966.95	3141.95
967.252	3142.63
967.554	3121.61
967.856	3109.41
968.158	3074.61
968.46	3079.81
968.761	3043.2
969.063	3074.83
969.365	3059.69
969.666	3032.12
969.968	3014.5
970.269	2980.37
970.571	2986.7
970.872	3013.82
971.174	2961.17
971.475	2914.61
971.776	2959.36
972.077	2941.5
972.378	2934.27
972.679	2941.28
972.98	2930.88
973.281	2895.63
973.582	2873.03
973.883	2879.36
974.183	2859.92
974.484	2831.45
974.785	2805.91
975.085	2816.76
975.386	2828.06
975.686	2786.03
975.986	2773.37
976.287	2774.73
976.587	2741.74
976.887	2737.22
977.187	2749.42
977.487	2713.71
977.787	2699.25
978.087	2714.62
978.387	2678.91
978.687	2700.61
978.987	2644.11
979.286	2642.98
979.586	2650.89
979.885	2675.75
980.185	2634.39
980.484	2591.46
980.784	2597.33
981.083	2605.02
981.382	2542.42
981.682	2552.36
981.981	2544.23
982.28	2522.76
982.579	2509.2
982.878	2493.83
983.177	2525.92
983.475	2519.14
983.774	2495.19
984.073	2458.58
984.372	2475.75
984.67	2435.53
984.969	2443.66
985.267	2431.46
985.566	2404.8
985.864	2388.75
986.162	2403.44
986.461	2390.33
986.759	2372.71
987.057	2346.72
987.355	2338.13
987.653	2374.06
987.951	2324.12
988.249	2335.42
988.547	2339.03
988.844	2335.42
989.142	2296.1
989.44	2285.25
989.737	2279.15
990.035	2262.43
990.332	2271.92
990.63	2224.91
990.927	2238.02
991.224	2226.72
991.521	2187.4
991.819	2204.12
992.116	2163.45
992.413	2185.82
992.71	2153.05
993.006	2158.47
993.303	2116.67
993.6	2139.27
993.897	2104.01
994.193	2117.8
994.49	2090.68
994.787	2087.52
995.083	2094.07
995.379	2056.33
995.676	2106.5
995.972	2059.95
996.268	2028.99
996.565	2027.63
996.861	2022.66
997.157	2028.76
997.453	2011.13
997.749	1979.5
998.044	1996.67
998.34	1983.11
998.636	1998.93
998.932	1953.06
999.227	1941.98
999.523	1937.92
999.818	1945.15
1000.114	1930.01
1000.409	1920.51
1000.704	1920.06
1001	1948.08
1001.295	1882.1
1001.59	1898.37
1001.885	1901.31
1002.18	1861.08
1002.475	1847.75
1002.77	1835.09
1003.065	1826.05
1003.359	1826.96
1003.654	1816.11
1003.949	1788.54
1004.243	1796.22
1004.538	1780.63
1004.832	1781.08
1005.127	1772.04
1005.421	1784.02
1005.715	1758.94
1006.009	1741.31
1006.304	1732.04
1006.598	1732.5
1006.892	1720.29
1007.186	1690.46
1007.48	1679.39
1007.773	1702.44
1008.067	1665.38
1008.361	1633.06
1008.655	1637.13
1008.948	1660.41
1009.242	1635.78
1009.535	1634.42
1009.829	1626.96
1010.122	1625.16
1010.415	1601.2
1010.708	1592.61
1011.001	1559.39
1011.295	1572.95
1011.588	1540.86
1011.881	1542.67
1012.173	1527.08
1012.466	1531.6
1012.759	1513.52
1013.052	1513.75
1013.344	1507.42
1013.637	1520.3
1013.93	1481.2
1014.222	1485.72
1014.514	1452.73
1014.807	1476.68
1015.099	1454.54
1015.391	1462
1015.683	1460.64
1015.976	1457.93
1016.268	1406.86
1016.56	1458.15
1016.851	1407.08
1017.143	1401.88
1017.435	1417.02
1017.727	1390.81
1018.018	1373.18
1018.31	1380.19
1018.602	1402.56
1018.893	1360.08
1019.185	1329.34
1019.476	1332.51
1019.767	1327.08
1020.058	1331.38
1020.35	1321.43
1020.641	1314.65
1020.932	1288.21
1021.223	1284.37
1021.514	1264.03
1021.804	1298.16
1022.095	1242.11
1022.386	1282.34
1022.677	1262.23
1022.967	1241.21
1023.258	1219.52
1023.548	1220.19
1023.839	1232.85
1024.129	1212.96
1024.419	1215.45
1024.709	1203.25
1025	1179.52
1025.29	1182.23
1025.58	1207.31
1025.87	1157.82
1026.16	1155.56
1026.449	1163.92
1026.739	1164.83
1027.029	1134.09
1027.319	1146.75
1027.608	1149.24
1027.898	1109.01
1028.187	1112.63
1028.477	1116.47
1028.766	1107.88
1029.055	1081.67
1029.344	1071.95
1029.634	1066.07
1029.923	1077.37
1030.212	1068.56
1030.501	1081.67
1030.79	1069.92
1031.078	1051.38
1031.367	1035.34
1031.656	1018.84
1031.945	1049.8
1032.233	1022.23
1032.522	1008.67
1032.81	1008.67
1033.099	990.37
1033.387	1003.93
1033.675	961.67
1033.963	998.05
1034.251	973.65
1034.54	987.66
1034.828	956.02
1035.116	962.35
1035.403	943.82
1035.691	940.2
1035.979	940.2
1036.267	937.94
1036.554	934.78
1036.842	932.07
1037.129	924.83
1037.417	934.1
1037.704	913.99
1037.992	906.53
1038.279	892.74
1038.566	879.41
1038.853	879.41
1039.14	879.41
