Data from hue_26_FLMS001491_00025.txt Node
Date: Tue Feb 07 17:13:46 GMT 2017
User: dcchb
Spectrometer: FLMS00149
Trigger mode: 0
Integration Time (sec): 2.000000E-2
Scans to average: 10
Electric dark correction enabled: true
Nonlinearity correction enabled: false
Boxcar width: 0
XAxis mode: Wavelengths
Number of Pixels in Spectrum: 2048
>>>>>Begin Spectral Data<<<<<
341.393	10.37
341.776	10.37
342.16	10.37
342.543	-54.72
342.927	-63.3
343.31	-63.3
343.693	-71.89
344.077	-70.31
344.46	-52.91
344.843	-66.69
345.226	-42.06
345.61	-12.01
345.993	2.01
346.376	-5.68
346.759	1.78
347.142	25.06
347.525	29.58
347.908	59.41
348.291	61.89
348.674	96.69
349.057	108.44
349.44	129.69
349.823	139.4
350.206	164.94
350.588	199.51
350.971	198.84
351.354	231.15
351.737	231.6
352.119	253.07
352.502	260.08
352.884	265.28
353.267	273.18
353.65	290.81
354.032	297.59
354.414	332.62
354.797	320.64
355.179	312.51
355.562	329.45
355.944	323.13
356.326	312.05
356.709	347.76
357.091	339.17
357.473	332.39
357.855	336.23
358.238	326.97
358.62	359.28
359.002	324.26
359.384	349.57
359.766	342.79
360.148	345.73
360.53	329.91
360.912	354.31
361.294	339.62
361.676	350.92
362.057	315.44
362.439	328.32
362.821	329.23
363.203	324.93
363.584	319.51
363.966	305.05
364.348	337.36
364.729	321.32
365.111	312.05
365.493	326.97
365.874	322.22
366.256	322.45
366.637	338.95
367.019	316.57
367.4	310.7
367.781	301.43
368.163	317.93
368.544	329.23
368.925	309.34
369.306	307.53
369.688	330.13
370.069	327.42
370.45	316.35
370.831	301.88
371.212	306.4
371.593	287.42
371.974	325.61
372.355	296.69
372.736	319.29
373.117	333.97
373.498	333.75
373.879	305.95
374.26	316.8
374.641	336.23
375.021	309.79
375.402	336.91
375.783	333.07
376.163	323.58
376.544	314.09
376.925	295.56
377.305	332.39
377.686	338.95
378.066	318.16
378.447	314.99
378.827	328.32
379.208	323.81
379.588	328.78
379.968	333.07
380.349	335.1
380.729	341.88
381.109	317.03
381.489	324.71
381.87	348.89
382.25	327.42
382.63	347.08
383.01	352.73
383.39	327.42
383.77	341.88
384.15	352.96
384.53	337.82
384.91	346.86
385.29	347.99
385.67	344.6
386.049	360.19
386.429	353.86
386.809	360.87
387.189	345.05
387.568	353.63
387.948	366.29
388.328	356.35
388.707	385.5
389.087	361.09
389.466	340.08
389.846	347.53
390.225	367.65
390.605	373.75
390.984	378.49
391.363	376.69
391.743	371.04
392.122	360.87
392.501	355.44
392.881	376.91
393.26	352.05
393.639	374.2
394.018	373.75
394.397	390.24
394.776	376.46
395.155	363.35
395.534	381.2
395.913	369
396.292	386.85
396.671	382.33
397.05	390.24
397.429	384.37
397.808	380.07
398.186	375.56
398.565	381.66
398.944	379.4
399.323	390.7
399.701	373.75
400.08	386.4
400.458	388.21
400.837	385.05
401.215	398.61
401.594	381.2
401.972	405.61
402.351	387.31
402.729	416.91
403.107	432.5
403.486	419.85
403.864	408.55
404.242	407.87
404.62	437.47
404.999	417.81
405.377	413.07
405.755	432.28
406.133	411.71
406.511	427.31
406.889	403.58
407.267	434.08
407.645	426.85
408.023	447.64
408.401	425.5
408.779	452.16
409.156	439.28
409.534	439.28
409.912	434.08
410.29	443.58
410.667	445.61
411.045	451.94
411.422	463.46
411.8	451.03
412.178	453.07
412.555	477.47
412.933	456
413.31	463.46
413.687	459.39
414.065	487.87
414.442	459.39
414.819	483.8
415.197	475.67
415.574	476.12
415.951	501.2
416.328	487.42
416.705	495.78
417.082	481.32
417.46	490.13
417.837	503.24
418.214	498.04
418.591	498.72
418.967	490.81
419.344	516.34
419.721	511.6
420.098	513.4
420.475	518.6
420.852	519.73
421.228	525.61
421.605	551.82
421.982	512.05
422.358	540.75
422.735	531.48
423.111	538.26
423.488	529.22
423.864	537.81
424.241	560.18
424.617	554.53
424.994	556.12
425.37	555.44
425.746	539.62
426.123	556.12
426.499	542.33
426.875	549.11
427.251	557.47
427.627	560.63
428.003	583.69
428.379	563.12
428.756	597.47
429.132	580.75
429.507	591.14
429.883	583.23
430.259	608.77
430.635	608.54
431.011	621.88
431.387	651.71
431.763	634.76
432.138	636.79
432.514	660.97
432.89	620.52
433.265	632.05
433.641	675.43
434.016	626.4
434.392	654.87
434.767	658.94
435.143	653.06
435.518	651.71
435.894	673.63
436.269	688.54
436.644	646.06
437.02	666.39
437.395	671.82
437.77	705.94
438.145	739.16
438.52	711.37
438.895	696.22
439.271	712.5
439.646	710.01
440.021	715.43
440.395	722.21
440.77	715.21
441.145	735.09
441.52	770.35
441.895	740.29
442.27	740.29
442.645	742.78
443.019	753.17
443.394	769.67
443.769	751.14
444.143	784.81
444.518	785.26
444.892	772.61
445.267	769.22
445.641	794.98
446.016	798.37
446.39	788.2
446.764	774.41
447.139	806.05
447.513	835.2
447.887	791.82
448.262	796.56
448.636	821.42
449.01	824.13
449.384	797.46
449.758	843.57
450.132	836.33
450.506	828.2
450.88	853.73
451.254	834.53
451.628	868.2
452.002	854.41
452.376	892.15
452.75	868.88
453.123	857.58
453.497	873.85
453.871	903.68
454.244	922.43
454.618	911.59
454.992	933.96
455.365	909.33
455.739	956.33
456.112	938.48
456.486	937.35
456.859	955.2
457.232	950.23
457.606	978.93
457.979	992.94
458.352	1001.98
458.725	1005.14
459.099	1008.08
459.472	1014.18
459.845	1038.81
460.218	1038.81
460.591	1032.94
460.964	1066.84
461.337	1078.81
461.71	1099.38
462.083	1098.7
462.456	1083.11
462.829	1123.33
463.201	1147.51
463.574	1139.38
463.947	1131.24
464.32	1166.04
464.692	1191.35
465.065	1208.3
465.438	1218.47
465.81	1227.96
466.183	1211.92
466.555	1232.26
466.928	1240.17
467.3	1265.25
467.672	1293.05
468.045	1287.4
468.417	1288.98
468.789	1309.99
469.161	1324.23
469.534	1346.15
469.906	1380.73
470.278	1382.31
470.65	1425.7
471.022	1431.35
471.394	1434.96
471.766	1494.4
472.138	1494.4
472.51	1501.85
472.882	1552.47
473.253	1578.46
473.625	1583.21
473.997	1621.17
474.369	1624.34
474.74	1674.73
475.112	1694.39
475.484	1712.92
475.855	1752.92
476.227	1756.54
476.598	1815.74
476.97	1822.52
477.341	1876.76
477.713	1915.63
478.084	1931.45
478.455	1995.63
478.827	2007.6
479.198	2041.95
479.569	2058.45
479.94	2127.37
480.311	2123.98
480.682	2173.47
481.053	2284.88
481.424	2281.49
481.795	2323.98
482.166	2386.35
482.537	2401.94
482.908	2457.99
483.279	2477.65
483.65	2529.17
484.021	2611.88
484.391	2662.27
484.762	2685.32
485.133	2728.49
485.503	2753.8
485.874	2815.72
486.244	2836.96
486.615	2911.53
486.985	2933.45
487.356	2975.94
487.726	3053.9
488.097	3095.94
488.467	3152.21
488.837	3206.44
489.207	3226.33
489.578	3292.77
489.948	3317.85
490.318	3388.13
490.688	3455.47
491.058	3477.17
491.428	3542.93
491.798	3576.6
492.168	3613.21
492.538	3664.73
492.908	3715.35
493.278	3732.75
493.648	3767.78
494.017	3859.98
494.387	3889.59
494.757	3921.22
495.126	3974.33
495.496	3996.93
495.866	4061.33
496.235	4103.14
496.605	4153.08
496.974	4159.64
497.344	4181.78
497.713	4236.7
498.082	4253.65
498.452	4339.74
498.821	4290.03
499.19	4342.68
499.559	4424.04
499.928	4460.87
500.298	4477.14
500.667	4508.55
501.036	4514.2
501.405	4584.03
501.774	4587.87
502.143	4577.03
502.512	4629
502.88	4649.57
503.249	4677.81
503.618	4721.43
503.987	4725.27
504.356	4759.17
504.724	4841.65
505.093	4819.96
505.462	4875.32
505.83	4882.1
506.199	4966.62
506.567	4987.64
506.936	4948.99
507.304	5031.25
507.672	5041.87
508.041	5071.93
508.409	5072.15
508.777	5171.36
509.145	5137.92
509.514	5153.06
509.882	5174.3
510.25	5227.86
510.618	5213.62
510.986	5271.92
511.354	5311.47
511.722	5319.38
512.09	5359.15
512.458	5353.96
512.826	5385.14
513.193	5449.55
513.561	5418.59
513.929	5484.8
514.297	5496.55
514.664	5558.02
515.032	5567.28
515.4	5568.19
515.767	5647.28
516.135	5637.34
516.502	5596.43
516.869	5712.59
517.237	5746.71
517.604	5651.8
517.972	5786.26
518.339	5759.82
518.706	5766.15
519.073	5769.31
519.44	5815.86
519.808	5876.88
520.175	5887.73
520.542	5960.04
520.909	5933.15
521.276	5919.36
521.643	6007.5
522.009	6042.07
522.376	6023.77
522.743	6092.69
523.11	6150.54
523.477	6214.27
523.843	6184.44
524.21	6228.96
524.577	6270.77
524.943	6276.64
525.31	6345.57
525.676	6377.88
526.043	6392.12
526.409	6425.11
526.776	6479.35
527.142	6500.82
527.508	6498.33
527.874	6613.13
528.241	6614.04
528.607	6646.12
528.973	6672.56
529.339	6641.61
529.705	6762.28
530.071	6771.77
530.437	6840.92
530.803	6851.99
531.169	6868.94
531.535	6931.09
531.901	6886.12
532.267	6950.52
532.632	6992.78
532.998	7009.5
533.364	7024.42
533.73	7033.46
534.095	7146.68
534.461	7128.82
534.826	7188.26
535.192	7197.3
535.557	7248.14
535.923	7287.92
536.288	7263.28
536.653	7321.36
537.019	7263.74
537.384	7358.42
537.749	7417.18
538.114	7421.47
538.479	7401.36
538.845	7397.97
539.21	7457.85
539.575	7407.91
539.94	7493.33
540.305	7551.19
540.67	7546.67
541.034	7613.33
541.399	7649.26
541.764	7699.2
542.129	7781.24
542.494	7696.94
542.858	7847.22
543.223	7807.68
543.587	7856.04
543.952	7863.04
544.316	7907.11
544.681	7930.61
545.045	7944.85
545.41	7979.2
545.774	7996.6
546.138	8099.19
546.503	8068.91
546.867	8054.22
547.231	8159.53
547.595	8150.94
547.959	8258.29
548.324	8173.54
548.688	8248.79
549.052	8286.53
549.416	8347.32
549.779	8310.04
550.143	8271.62
550.507	8403.59
550.871	8423.03
551.235	8402.69
551.599	8461.67
551.962	8527.66
552.326	8520.43
552.689	8578.28
553.053	8491.95
553.417	8555.9
553.78	8699.4
554.143	8632.29
554.507	8672.96
554.87	8706.41
555.234	8775.56
555.597	8717.71
555.96	8820.3
556.323	8787.54
556.686	8876.8
557.05	8913.41
557.413	8837.03
557.776	8933.75
558.139	8943.01
558.502	8956.35
558.865	8990.02
559.228	9050.58
559.59	9074.31
559.953	9155.66
560.316	9159.73
560.679	9180.3
561.041	9267.52
561.404	9264.59
561.767	9374.19
562.129	9232.95
562.492	9399.05
562.854	9368.99
563.217	9407.18
563.579	9441.08
563.941	9481.3
564.304	9520.4
564.666	9588.42
565.028	9572.15
565.39	9606.72
565.753	9658.93
566.115	9656.89
566.477	9714.52
566.839	9740.51
567.201	9827.06
567.563	9801.75
567.925	9829.09
568.287	9935.3
568.648	9845.81
569.01	9947.05
569.372	10052.14
569.734	10029.54
570.095	10047.84
570.457	10100.72
570.819	10107.05
571.18	10236.76
571.542	10240.61
571.903	10275.18
572.265	10335.29
572.626	10329.64
572.987	10407.83
573.349	10467.95
573.71	10540.71
574.071	10623.65
574.432	10698.67
574.794	10772.8
575.155	10849.63
575.516	10773.93
575.877	10911.32
576.238	10953.58
576.599	11018.21
576.96	11083.52
577.32	11141.6
577.681	11241.03
578.042	11457.75
578.403	11422.27
578.763	11489.61
579.124	11631.3
579.485	11791.98
579.845	11845.99
580.206	11902.03
580.566	12042.59
580.927	12163.49
581.287	12274.68
581.648	12401.91
582.008	12572.07
582.368	12757.38
582.728	12897.94
583.089	13057.26
583.449	13244.14
583.809	13339.51
584.169	13556.68
584.529	13628.77
584.889	13995.08
585.249	14040.28
585.609	14192.14
585.969	14474.62
586.329	14659.47
586.688	14912.57
587.048	15002.52
587.408	15209.97
587.768	15560.92
588.127	15726.56
588.487	15954.13
588.846	16269.6
589.206	16413.78
589.565	16753.88
589.925	16994.78
590.284	17237.03
590.643	17433.86
591.003	17805.83
591.362	18145.03
591.721	18399.94
592.08	18544.12
592.44	18975.29
592.799	19250.77
593.158	19401.95
593.517	19733.92
593.876	20007.13
594.235	20297.74
594.593	20488.47
594.952	20947.67
595.311	21148.79
595.67	21478.96
596.029	21940.19
596.387	22186.73
596.746	22488.87
597.104	22703.78
597.463	22955.53
597.822	23415.18
598.18	23653.81
598.538	23911.89
598.897	24327.24
599.255	24395.71
599.613	24997.05
599.972	25143.49
600.33	25385.52
600.688	25675.45
601.046	26010.14
601.404	26479.5
601.762	26540.97
602.12	27044.23
602.478	27277.67
602.836	27559.47
603.194	27673.37
603.552	27963.3
603.91	28115.84
604.268	28657.07
604.625	28710.4
604.983	29212.09
605.341	29344.74
605.698	29679.42
606.056	29946.3
606.413	30120.31
606.771	30330.02
607.128	30660.63
607.485	30772.95
607.843	31096.1
608.2	31459.03
608.557	31689.53
608.914	31814.95
609.272	32123.65
609.629	32343.98
609.986	32730.86
610.343	32562.28
610.7	33154.58
611.057	33317.06
611.414	33456.27
611.771	33827.78
612.127	34006.99
612.484	34062.35
612.841	34379.41
613.198	34477.03
613.554	34738.04
613.911	35026.17
614.267	35096.45
614.624	35282.43
614.98	35507.96
615.337	35866.15
615.693	35782.53
616.05	36020.04
616.406	36312.69
616.762	36358.56
617.118	36440.82
617.475	36695.05
617.831	36819.12
618.187	36807.82
618.543	37060.92
618.899	37363.96
619.255	37485.09
619.611	37550.85
619.967	37789.49
620.323	37951.06
620.678	37879.88
621.034	37998.52
621.39	38059.99
621.746	38076.26
622.101	38623.36
622.457	38486.87
622.812	38530.48
623.168	38760.08
623.523	38909.46
623.879	39074.65
624.234	38867.65
624.589	39108.77
624.945	39051.15
625.3	39264.93
625.655	39288.43
626.01	39379.73
626.365	39533.17
626.72	39614.07
627.075	39620.85
627.43	39686.16
627.785	39695.43
628.14	39905.82
628.495	40064.91
628.85	39909.2
629.205	39877.34
629.559	40113.49
629.914	39874.86
630.269	40156.43
630.623	40025.13
630.978	39980.62
631.332	40274.62
631.687	40341.96
632.041	40197.33
632.396	40421.96
632.75	40147.16
633.104	40343.77
633.459	40068.3
633.813	40301.74
634.167	40311.45
634.521	40398.68
634.875	40435.29
635.229	40234.17
635.583	40206.37
635.937	40252.7
636.291	40248.86
636.645	40361.4
636.999	40249.31
637.352	40359.36
637.706	40134.06
638.06	40446.59
638.413	40210.67
638.767	40175.19
639.121	40284.79
639.474	40122.31
639.828	40071.91
640.181	40242.08
640.534	40331.57
640.888	40067.17
641.241	39976.55
641.594	40176.54
641.947	40226.94
642.301	40157.11
642.654	40196.65
643.007	40176.99
643.36	40200.72
643.713	40125.02
644.066	40450.21
644.419	40117.33
644.771	39808.42
645.124	39504.7
645.477	39407.75
645.83	39191.48
646.182	39148.32
646.535	39000.98
646.888	39088.21
647.24	38962.34
647.593	39095.67
647.945	39013.86
648.298	38894.32
648.65	38836.69
649.002	38780.65
649.355	39013.18
649.707	38794.21
650.059	39072.16
650.411	39561.64
650.763	39685.93
651.115	39884.35
651.467	39749.21
651.819	39897.45
652.171	39732.49
652.523	39630.34
652.875	39726.38
653.227	39563.23
653.578	39782.43
653.93	39882.54
654.282	39546.05
654.633	39450.46
654.985	39639.38
655.337	39674.63
655.688	39631.7
656.039	39671.02
656.391	39521.64
656.742	39526.16
657.094	39528.88
657.445	39602.09
657.796	39480.06
658.147	39517.35
658.498	39424.02
658.849	39593.96
659.2	39510.35
659.551	39471.48
659.902	39531.59
660.253	39367.98
660.604	39661.08
660.955	39279.16
661.306	39400.74
661.656	39368.2
662.007	39388.77
662.358	39520.06
662.708	39399.61
663.059	39394.42
663.409	39214.31
663.76	39545.6
664.11	39432.38
664.461	39474.41
664.811	39363.68
665.161	39439.84
665.511	39405.94
665.862	39328.88
666.212	39400.07
666.562	39415.43
666.912	39353.74
667.262	39453.4
667.612	39337.69
667.962	39462.44
668.312	39336.56
668.662	39470.35
669.011	39250.24
669.361	39249.11
669.711	39334.3
670.06	39198.49
670.41	39078.94
670.76	39024.26
671.109	39266.06
671.459	39284.36
671.808	39169.11
672.157	39251.6
672.507	38784.71
672.856	39020.64
673.205	38961.43
673.554	39236
673.904	39055.22
674.253	39177.25
674.602	39203.46
674.951	38543.59
675.3	38428.34
675.649	38916.69
675.998	38925.28
676.346	38916.69
676.695	38904.94
677.044	38706.98
677.393	38906.52
677.741	38973.18
678.09	38811.38
678.438	38709.46
678.787	38825.39
679.135	38920.3
679.484	38645.96
679.832	38675.56
680.181	38575.45
680.529	38632.4
680.877	38549.92
681.225	38477.38
681.573	38659.52
681.922	38406.42
682.27	38379.98
682.618	38300.43
682.966	38278.74
683.314	38325.97
683.661	38097.73
684.009	37925.53
684.357	38088.01
684.705	37881.91
685.053	38078.29
685.4	37880.56
685.748	37827.68
686.095	37718.3
686.443	37576.84
686.79	37683.95
687.138	37664.74
687.485	37573.9
687.832	37495.03
688.18	37468.82
688.527	37405.54
688.874	37198.09
689.221	37161.93
689.568	37151.31
689.915	37004.42
690.262	36993.12
690.609	36880.13
690.956	36749.06
691.303	36771.21
691.65	36536.19
691.997	36633.36
692.344	36263.65
692.69	36434.72
693.037	36433.36
693.383	36075.86
693.73	36124.45
694.077	36018.46
694.423	35956.54
694.769	35904.34
695.116	35865.92
695.462	35882.42
695.808	35673.38
696.155	35934.62
696.501	35484.24
696.847	35500.06
697.193	35215.09
697.539	35360.17
697.885	35185.26
698.231	35069.78
698.577	35159.73
698.923	35015.1
699.269	34786.4
699.614	34626.86
699.96	34515.22
700.306	34647.42
700.651	34509.57
700.997	34524.94
701.342	34400.2
701.688	34324.94
702.033	34142.8
702.379	34152.29
702.724	34056.7
703.069	34023.03
703.415	33760.89
703.76	33719.76
704.105	33652.42
704.45	33644.51
704.795	33517.73
705.14	33366.55
705.485	33440.67
705.83	33324.97
706.175	33306.44
706.52	33140.57
706.865	33037.75
707.209	33013.34
707.554	32973.57
707.899	33077.75
708.243	32749.17
708.588	32745.1
708.932	32652.22
709.277	32456.75
709.621	32497.42
709.966	32313.47
710.31	32388.95
710.654	32032.58
710.998	32113.03
711.342	32096.98
711.687	32160.93
712.031	31954.61
712.375	31905.57
712.719	31955.52
713.063	31917.32
713.407	31972.24
713.75	31713.04
714.094	31627.61
714.438	31494.51
714.782	31611.12
715.125	31425.81
715.469	31552.81
715.812	31294.29
716.156	31217.46
716.499	31149.21
716.843	31192.82
717.186	31031.47
717.53	31172.71
717.873	31257.91
718.216	31136.1
718.559	30946.28
718.902	30815.88
719.246	30835.77
719.589	30752.84
719.932	30654.31
720.275	30542.22
720.617	30631.71
720.96	30575.21
721.303	30528.21
721.646	30446.18
721.989	30213.87
722.331	30495.67
722.674	30301.32
723.016	30338.61
723.359	30233.3
723.701	30265.39
724.044	30056.13
724.386	29890.03
724.729	30080.31
725.071	29987.88
725.413	30057.03
725.755	29989.92
726.097	29776.82
726.439	29665.63
726.782	29589.02
727.124	29769.13
727.465	29612.98
727.807	29617.5
728.149	29486.65
728.491	29361.01
728.833	29530.04
729.175	29269.03
729.516	29387
729.858	29291.4
730.199	29316.49
730.541	29177.51
730.882	29071.07
731.224	29303.83
731.565	29000.79
731.906	29011.86
732.248	29106.78
732.589	28943.84
732.93	28897.97
733.271	28851.19
733.612	28802.83
733.953	28852.09
734.294	28664.98
734.635	28833.56
734.976	28748.82
735.317	28581.37
735.658	28505.44
735.999	28567.58
736.339	28409.85
736.68	28591.54
737.021	28418.43
737.361	28436.29
737.702	28531.2
738.042	28364.2
738.383	28347.93
738.723	28340.47
739.063	28312.45
739.404	28416.85
739.744	28243.75
740.084	28137.54
740.424	28126.24
740.764	28097.99
741.104	28169.17
741.444	28112.45
741.784	28026.35
742.124	28020.48
742.464	27866.13
742.804	27855.96
743.143	27792.69
743.483	27853.7
743.823	27623.43
744.162	27613.48
744.502	27732.58
744.841	27553.37
745.181	27584.11
745.52	27658
745.86	27588.62
746.199	27431.11
746.538	27410.55
746.877	27570.55
747.216	27397.67
747.556	27460.04
747.895	27345.69
748.234	27215.75
748.573	27322.19
748.911	27281.74
749.25	27242.87
749.589	27097.11
749.928	27112.48
750.267	27173.95
750.605	27121.07
750.944	26971.24
751.283	26927.85
751.621	26971.69
751.96	26834.52
752.298	26852.6
752.636	26763.56
752.975	26633.4
753.313	26614.41
753.651	26715.88
753.989	26545.04
754.327	26507.3
754.666	26426.4
755.004	26608.31
755.342	26491.25
755.679	26357.02
756.017	26181.43
756.355	26293.29
756.693	26162
757.031	26238.38
757.368	26120.64
757.706	25983.7
758.044	25949.57
758.381	25949.35
758.719	25869.35
759.056	25838.16
759.394	25849.46
759.731	25613.54
760.068	25587.77
760.405	25525.63
760.743	25381.9
761.08	25490.15
761.417	25408.34
761.754	25382.36
762.091	25194.56
762.428	25198.41
762.765	24984.4
763.102	25151.63
763.438	24977.17
763.775	24797.51
764.112	24876.83
764.449	24755.93
764.785	24831.86
765.122	24633.67
765.458	24490.63
765.795	24563.85
766.131	24392.1
766.467	24380.57
766.804	24205.44
767.14	24086.57
767.476	24149.85
767.812	23957.53
768.148	23968.38
768.485	23819.01
768.821	23764.54
769.157	23696.52
769.492	23649.07
769.828	23512.35
770.164	23390.77
770.5	23331.34
770.836	23341.05
771.171	23242.98
771.507	23232.81
771.842	23080.27
772.178	22996.43
772.513	22928.63
772.849	22859.48
773.184	22745.59
773.519	22732.71
773.855	22742.2
774.19	22568.42
774.525	22539.94
774.86	22499.95
775.195	22485.03
775.53	22341.76
775.865	22159.39
776.2	22010.69
776.535	21893.86
776.87	21871.94
777.205	21903.12
777.539	21640.31
777.874	21817.7
778.209	21565.51
778.543	21671.27
778.878	21413.19
779.212	21457.49
779.547	21402.57
779.881	21370.71
780.215	21161.22
780.55	21089.59
780.884	21089.36
781.218	21031.51
781.552	20964.39
781.886	20739.54
782.22	20746.09
782.554	20715.13
782.888	20494.57
783.222	20531.18
783.556	20448.93
783.889	20254.35
784.223	20133.68
784.557	20215.03
784.89	20222.26
785.224	20108.37
785.557	19996.73
785.891	19909.28
786.224	19920.8
786.558	19784.31
786.891	19617.76
787.224	19542.51
787.557	19492.11
787.891	19541.38
788.224	19433.81
788.557	19430.42
788.89	19269.97
789.223	19344.55
789.556	19101.16
789.888	19137.32
790.221	19004.67
790.554	18865.69
790.887	18903.88
791.219	18824.11
791.552	18828.18
791.884	18712.02
792.217	18756.09
792.549	18634.96
792.882	18500.73
793.214	18388.41
793.546	18459.6
793.879	18322.2
794.211	18183.9
794.543	18263.45
794.875	18192.71
795.207	18162.66
795.539	18094.64
795.871	18111.81
796.203	17840.63
796.535	17843.8
796.867	17749.79
797.198	17668.43
797.53	17760.86
797.862	17586.4
798.193	17620.98
798.525	17480.42
798.856	17562.9
799.188	17295.56
799.519	17305.51
799.85	17188.45
800.182	17211.5
800.513	17244.94
800.844	16990.26
801.175	17086.08
801.506	17165.85
801.837	17045.85
802.168	16908.23
802.499	16970.37
802.83	16779.42
803.161	16771.96
803.491	16803.37
803.822	16687.89
804.153	16579.42
804.483	16525.64
804.814	16474.34
805.145	16435.47
805.475	16536.94
805.805	16442.25
806.136	16397.28
806.466	16264.4
806.796	16361.12
807.126	16229.38
807.457	16178.98
807.787	16148.7
808.117	16040.91
808.447	15910.74
808.777	15977.86
809.107	15991.42
809.436	15879.55
809.766	15920.68
810.096	15774.7
810.426	15803.17
810.755	15728.15
811.085	15738.09
811.414	15571.09
811.744	15498.55
812.073	15536.06
812.403	15440.24
812.732	15391.21
813.061	15440.02
813.39	15316.86
813.719	15403.86
814.049	15296.07
814.378	15277.08
814.707	15217.65
815.036	15157.09
815.365	15090.65
815.693	14965.68
816.022	14957.32
816.351	14988.73
816.68	14920.26
817.008	14973.36
817.337	14804.33
817.665	14761.17
817.994	14756.65
818.322	14774.72
818.651	14726.59
818.979	14584.45
819.307	14774.72
819.636	14674.61
819.964	14524.11
820.292	14622.64
820.62	14626.03
820.948	14609.31
821.276	14604.11
821.604	14567.72
821.932	14612.02
822.259	14567.5
822.587	14500.16
822.915	14594.62
823.243	14520.27
823.57	14537.67
823.898	14520.49
824.225	14505.58
824.553	14389.2
824.88	14438.91
825.207	14552.13
825.535	14477.11
825.862	14517.78
826.189	14362.53
826.516	14503.09
826.843	14485.01
827.17	14489.76
827.497	14503.32
827.824	14538.12
828.151	14514.17
828.478	14535.63
828.805	14523.88
829.131	14420.38
829.458	14356.2
829.785	14271.91
830.111	14439.14
830.438	14540.38
830.764	14464.68
831.09	14484.56
831.417	14357.33
831.743	14351.91
832.069	14377.22
832.395	14344.45
832.722	14346.04
833.048	14249.31
833.374	14290.44
833.7	14271.01
834.026	14351.01
834.351	14337.9
834.677	14289.09
835.003	14228.98
835.329	14219.26
835.654	14273.27
835.98	14189.2
836.306	14126.83
836.631	14247.28
836.956	14182.88
837.282	14121.41
837.607	14102.88
837.932	14081.64
838.258	14052.71
838.583	14027.63
838.908	13977.68
839.233	13966.84
839.558	13942.43
839.883	13899.72
840.208	13816.11
840.533	13824.02
840.858	13897.46
841.182	13820.63
841.507	13895.2
841.832	13756.45
842.156	13697.24
842.481	13757.12
842.805	13729.33
843.13	13678.71
843.454	13594.42
843.778	13582.21
844.103	13476.23
844.427	13442.78
844.751	13525.27
845.075	13509.67
845.399	13505.61
845.723	13351.26
846.047	13299.51
846.371	13285.95
846.695	13252.73
847.019	13143.81
847.343	13054.32
847.666	13010.25
847.99	13051.38
848.313	13040.08
848.637	12751.5
848.96	12902.23
849.284	12896.81
849.607	12746.98
849.931	12745.4
850.254	12624.72
850.577	12548.79
850.9	12472.19
851.223	12523.48
851.546	12508.34
851.869	12381.12
852.192	12401.91
852.515	12284.39
852.838	12232.87
853.161	12252.76
853.483	12180.89
853.806	12055.25
854.129	12109.26
854.451	12038.3
854.774	11991.75
855.096	11890.96
855.419	11842.15
855.741	11852.54
856.063	11830.17
856.385	11808.93
856.708	11733.9
857.03	11735.26
857.352	11742.94
857.674	11719.21
857.996	11611.19
858.318	11550.85
858.64	11525.32
858.961	11536.17
859.283	11488.94
859.605	11471.08
859.926	11415.26
860.248	11403.06
860.57	11383.18
860.891	11324.42
861.212	11263.18
861.534	11259.11
861.855	11261.37
862.176	11243.07
862.498	11278.77
862.819	11216.85
863.14	11222.95
863.461	11149.74
863.782	11128.94
864.103	11114.71
864.424	11070.87
864.745	11096.4
865.065	10962.62
865.386	10975.95
865.707	10971.43
866.027	10965.56
866.348	10983.19
866.668	10980.47
866.989	11009.17
867.309	10914.04
867.63	10803.08
867.95	10858.44
868.27	10770.08
868.59	10872.23
868.91	10738.45
869.23	10774.6
869.55	10731.22
869.87	10717.2
870.19	10732.57
870.51	10766.02
870.83	10750.2
871.15	10658
871.469	10773.25
871.789	10720.14
872.109	10574.38
872.428	10561.5
872.748	10507.94
873.067	10649.41
873.386	10591.33
873.706	10583.65
874.025	10465.91
874.344	10487.83
874.663	10479.92
874.982	10392.69
875.301	10439.25
875.62	10410.09
875.939	10366.93
876.258	10392.92
876.577	10406.03
876.896	10359.47
877.214	10367.16
877.533	10368.06
877.852	10279.02
878.17	10274.96
878.489	10331
878.807	10284.67
879.125	10208.97
879.444	10175.3
879.762	10217.33
880.08	10125.36
880.398	10124
880.716	10114.28
881.034	10155.64
881.352	10100.05
881.67	10076.32
881.988	10069.31
882.306	9999.03
882.624	10010.78
882.941	9909.77
883.259	9953.38
883.577	9954.06
883.894	9905.93
884.212	9898.47
884.529	9914.29
884.846	9893.04
885.164	9863.67
885.481	9855.08
885.798	9830.45
886.115	9738.47
886.432	9692.15
886.75	9695.08
887.067	9671.13
887.383	9648.31
887.7	9717.23
888.017	9630
888.334	9666.16
888.651	9613.28
888.967	9594.3
889.284	9541.64
889.6	9471.36
889.917	9477.24
890.233	9453.28
890.55	9455.77
890.866	9417.8
891.182	9430.91
891.498	9309.11
891.815	9251.03
892.131	9253.06
892.447	9278.82
892.763	9246.51
893.079	9217.81
893.395	9199.5
893.71	9217.58
894.026	9188.43
894.342	9074.08
894.657	9075.89
894.973	9038.38
895.289	9052.62
895.604	8976.91
895.92	9025.27
896.235	8859.17
896.55	8958.83
896.865	8880.19
897.181	8855.11
897.496	8855.11
897.811	8745.28
898.126	8703.25
898.441	8674.32
898.756	8645.62
899.071	8625.06
899.386	8679.07
899.7	8631.16
900.015	8590.03
900.33	8485.4
900.644	8496.02
900.959	8440.88
901.273	8443.82
901.588	8431.61
901.902	8355.01
902.216	8314.1
902.531	8363.14
902.845	8332.41
903.159	8280.43
903.473	8236.59
903.787	8242.47
904.101	8158.4
904.415	8157.72
904.729	8143.26
905.042	8168.34
905.356	8137.61
905.67	8109.82
905.984	8035.47
906.297	8007.22
906.611	7938.29
906.924	7914.57
907.237	7877.5
907.551	7857.39
907.864	7865.08
908.177	7773.78
908.491	7708.02
908.804	7734.46
909.117	7641.35
909.43	7605.87
909.743	7643.16
910.056	7596.83
910.368	7514.8
910.681	7502.6
910.994	7524.29
911.307	7511.41
911.619	7437.29
911.932	7376.95
912.244	7391.64
912.557	7353.9
912.869	7294.24
913.181	7261.93
913.494	7250.63
913.806	7215.83
914.118	7178.09
914.43	7197.07
914.742	7116.39
915.054	7085.21
915.366	7108.71
915.678	7068.26
915.99	6990.97
916.302	6941.71
916.613	6957.98
916.925	6994.82
917.236	6910.3
917.548	6888.83
917.859	6857.87
918.171	6823.07
918.482	6807.7
918.794	6763.18
919.105	6760.92
919.416	6720.02
919.727	6706.24
920.038	6651.1
920.349	6665.33
920.66	6569.52
920.971	6583.08
921.282	6563.19
921.593	6507.82
921.903	6472.34
922.214	6454.72
922.525	6460.14
922.835	6450.65
923.146	6382.85
923.456	6357.77
923.767	6322.29
924.077	6353.03
924.387	6250.65
924.697	6239.81
925.008	6169.3
925.318	6160.04
925.628	6201.62
925.938	6119.36
926.248	6089.3
926.558	6041.39
926.867	6054.95
927.177	5993.94
927.487	5982.41
927.796	5958.91
928.106	5934.28
928.416	5958.01
928.725	5920.27
929.034	5927.05
929.344	5854.51
929.653	5885.01
929.962	5851.57
930.271	5770.89
930.581	5753.04
930.89	5724.12
931.199	5721.86
931.508	5695.87
931.817	5640.73
932.125	5692.7
932.434	5617.23
932.743	5592.37
933.051	5560.28
933.36	5541.29
933.669	5453.16
933.977	5494.52
934.286	5471.69
934.594	5450.9
934.902	5392.82
935.21	5399.15
935.519	5421.52
935.827	5357.57
936.135	5348.08
936.443	5300.62
936.751	5249.55
937.059	5293.39
937.367	5240.96
937.674	5223.79
937.982	5230.34
938.29	5152.15
938.597	5156.22
938.905	5151.25
939.213	5101.76
939.52	5049.78
939.827	5110.8
940.135	5047.07
940.442	5037.58
940.749	4974.98
941.056	5040.29
941.363	4904.25
941.67	4943.12
941.977	4903.12
942.284	4888.43
942.591	4864.02
942.898	4869.45
943.205	4870.58
943.511	4833.29
943.818	4794.87
944.125	4784.03
944.431	4776.34
944.738	4720.98
945.044	4730.92
945.35	4650.92
945.657	4671.04
945.963	4659.06
946.269	4611.6
946.575	4609.34
946.881	4583.35
947.187	4592.85
947.493	4549.68
947.799	4572.05
948.105	4538.61
948.41	4486.86
948.716	4470.59
949.022	4486.18
949.327	4412.96
949.633	4412.74
949.938	4413.64
950.244	4407.09
950.549	4328.45
950.854	4310.14
951.16	4330.71
951.465	4329.58
951.77	4300.2
952.075	4293.42
952.38	4271.27
952.685	4234.44
952.99	4209.13
953.294	4160.09
953.599	4173.65
953.904	4175.91
954.209	4129.13
954.513	4096.59
954.818	4128.68
955.122	4085.29
955.426	4017.72
955.731	4030.6
956.035	4041.22
956.339	4022.01
956.643	4014.56
956.948	3983.6
957.252	3954.9
957.556	3978.62
957.86	3933.88
958.163	3895.24
958.467	3913.99
958.771	3909.7
959.075	3897.27
959.378	3864.05
959.682	3857.72
959.985	3813.66
960.289	3772.75
960.592	3754.68
960.896	3752.87
961.199	3781.79
961.502	3737.5
961.805	3731.4
962.108	3736.6
962.411	3669.48
962.714	3657.05
963.017	3657.05
963.32	3634.9
963.623	3637.62
963.926	3604.17
964.228	3557.62
964.531	3595.36
964.833	3561.91
965.136	3530.73
965.438	3553.1
965.741	3539.09
966.043	3495.25
966.345	3471.97
966.648	3509.48
966.95	3467.9
967.252	3432.2
967.554	3422.48
967.856	3433.1
968.158	3358.08
968.46	3408.92
968.761	3340.45
969.063	3386.78
969.365	3337.06
969.666	3360.79
969.968	3281.47
970.269	3264.97
970.571	3279.43
970.872	3254.58
971.174	3201.02
971.475	3236.27
971.776	3218.64
972.077	3195.59
972.378	3189.72
972.679	3169.38
972.98	3144.97
973.281	3158.08
973.582	3116.05
973.883	3135.71
974.183	3084.41
974.484	3125.31
974.785	3094.13
975.085	3063.39
975.386	3085.99
975.686	3031.53
975.986	3043.96
976.287	3027.69
976.587	2964.41
976.887	2961.02
977.187	2973.9
977.487	2939.33
977.787	2995.37
978.087	2946.56
978.387	2937.07
978.687	2919.67
978.987	2883.06
979.286	2848.26
979.586	2854.59
979.885	2850.07
980.185	2808.94
980.484	2830.86
980.784	2824.3
981.083	2828.15
981.382	2796.28
981.682	2778.43
981.981	2778.66
982.28	2750.86
982.579	2751.54
982.878	2714.93
983.177	2706.12
983.475	2720.58
983.774	2672.44
984.073	2696.62
984.372	2659.34
984.67	2662.27
984.969	2654.82
985.267	2645.1
985.566	2639.68
985.864	2611.2
986.162	2590.64
986.461	2602.84
986.759	2558.1
987.057	2579.11
987.355	2564.42
987.653	2525.33
987.951	2507.7
988.249	2512.67
988.547	2542.05
988.844	2517.65
989.142	2500.92
989.44	2483.52
989.737	2431.09
990.035	2469.29
990.332	2451.88
990.63	2453.24
990.927	2452.56
991.224	2435.84
991.521	2418.21
991.819	2379.8
992.116	2381.38
992.413	2370.76
992.71	2364.88
993.006	2340.02
993.303	2350.87
993.6	2333.7
993.897	2314.04
994.193	2296.63
994.49	2288.73
994.787	2281.27
995.083	2250.76
995.379	2284.66
995.676	2220.48
995.972	2228.39
996.268	2204.89
996.565	2236.3
996.861	2223.19
997.157	2176.19
997.453	2205.56
997.749	2211.67
998.044	2170.54
998.34	2162.17
998.636	2109.52
998.932	2116.53
999.227	2104.32
999.523	2096.41
999.818	2095.28
1000.114	2075.85
1000.409	2083.31
1000.704	2041.05
1001	2028.17
1001.295	2014.61
1001.59	2068.39
1001.885	2023.87
1002.18	1982.07
1002.475	1982.97
1002.77	2006.47
1003.065	2009.41
1003.359	1982.97
1003.654	1946.36
1003.949	1966.47
1004.243	1926.93
1004.538	1922.86
1004.832	1905.46
1005.127	1909.07
1005.421	1888.51
1005.715	1903.65
1006.009	1872.01
1006.304	1866.59
1006.598	1854.39
1006.892	1876.53
1007.186	1822.3
1007.48	1822.07
1007.773	1836.31
1008.067	1855.52
1008.361	1778.68
1008.655	1809.64
1008.948	1787.95
1009.242	1757.89
1009.535	1766.03
1009.829	1726.93
1010.122	1754.05
1010.415	1744.56
1010.708	1731.9
1011.001	1707.95
1011.295	1707.5
1011.588	1692.36
1011.881	1653.71
1012.173	1675.41
1012.466	1666.82
1012.759	1646.26
1013.052	1595.41
1013.344	1665.46
1013.637	1636.54
1013.93	1627.73
1014.222	1634.28
1014.514	1591.12
1014.807	1586.82
1015.099	1589.08
1015.391	1569.42
1015.683	1575.52
1015.976	1571.68
1016.268	1533.94
1016.56	1502.53
1016.851	1551.8
1017.143	1503.66
1017.435	1509.08
1017.727	1498.24
1018.018	1460.95
1018.31	1472.02
1018.602	1462.98
1018.893	1435.19
1019.185	1443.78
1019.476	1432.25
1019.767	1413.27
1020.058	1420.27
1020.35	1414.4
1020.641	1381.63
1020.932	1381.4
1021.223	1397.68
1021.514	1385.7
1021.804	1355.42
1022.095	1339.15
1022.386	1343.89
1022.677	1341.18
1022.967	1335.3
1023.258	1318.81
1023.548	1302.54
1023.839	1317.68
1024.129	1297.79
1024.419	1276.55
1024.709	1281.29
1025	1253.72
1025.29	1253.27
1025.58	1254.85
1025.87	1233.39
1026.16	1242.2
1026.449	1237
1026.739	1233.61
1027.029	1219.37
1027.319	1196.32
1027.608	1194.52
1027.898	1206.27
1028.187	1172.6
1028.477	1184.8
1028.766	1177.57
1029.055	1145.03
1029.344	1172.6
1029.634	1132.82
1029.923	1113.39
1030.212	1138.92
1030.501	1160.39
1030.79	1101.64
1031.078	1099.83
1031.367	1078.59
1031.656	1104.8
1031.945	1080.85
1032.233	1087.4
1032.522	1061.86
1032.81	1084.46
1033.099	1043.33
1033.387	1054.18
1033.675	1033.16
1033.963	1046.5
1034.251	1058.47
1034.54	1026.61
1034.828	1001.75
1035.116	1022.09
1035.403	1022.32
1035.691	1013.28
1035.979	1025.48
1036.267	1001.53
1036.554	978.7
1036.842	973.96
1037.129	978.48
1037.417	975.09
1037.704	973.51
1037.992	913.39
1038.279	937.8
1038.566	928.99
1038.853	928.99
1039.14	928.99
