Data from hue_230_FLMS001491_00026.txt Node
Date: Tue Feb 07 16:37:00 GMT 2017
User: dcchb
Spectrometer: FLMS00149
Trigger mode: 0
Integration Time (sec): 2.000000E-2
Scans to average: 10
Electric dark correction enabled: true
Nonlinearity correction enabled: false
Boxcar width: 0
XAxis mode: Wavelengths
Number of Pixels in Spectrum: 2048
>>>>>Begin Spectral Data<<<<<
341.393	8.47
341.776	8.47
342.16	8.47
342.543	-61.35
342.927	-69.49
343.31	-63.39
343.693	-93.67
344.077	-64.97
344.46	-73.11
344.843	-39.21
345.226	-21.58
345.61	-32.65
345.993	-24.07
346.376	0.11
346.759	-1.47
347.142	39.89
347.525	36.95
347.908	62.94
348.291	75.59
348.674	88.92
349.057	109.71
349.44	130.96
349.823	144.97
350.206	174.12
350.588	200.11
350.971	211.86
351.354	229.03
351.737	232.65
352.119	231.29
352.502	258.64
352.884	255.7
353.267	276.49
353.65	293.89
354.032	288.69
354.414	288.69
354.797	290.73
355.179	303.83
355.562	315.81
355.944	312.65
356.326	336.15
356.709	335.47
357.091	314.68
357.473	333.44
357.855	347
358.238	343.61
358.62	334.79
359.002	348.58
359.384	330.05
359.766	327.11
360.148	343.61
360.53	330.5
360.912	339.77
361.294	338.64
361.676	316.94
362.057	327.79
362.439	336.38
362.821	319.65
363.203	325.08
363.584	323.95
363.966	331.86
364.348	323.95
364.729	316.71
365.111	328.01
365.493	325.3
365.874	315.58
366.256	304.06
366.637	326.88
367.019	301.12
367.4	306.32
367.781	316.94
368.163	340.89
368.544	307.45
368.925	321.46
369.306	334.12
369.688	292.08
370.069	297.51
370.45	318.97
370.831	322.36
371.212	293.89
371.593	294.34
371.974	284.17
372.355	328.69
372.736	316.26
373.117	310.61
373.498	285.08
373.879	321.46
374.26	311.74
374.641	327.79
375.021	321.23
375.402	301.57
375.783	335.02
376.163	324.17
376.544	324.62
376.925	312.65
377.305	318.75
377.686	335.92
378.066	295.25
378.447	319.65
378.827	318.52
379.208	310.61
379.588	342.25
379.968	329.37
380.349	328.01
380.729	333.66
381.109	331.63
381.489	339.31
381.87	341.12
382.25	344.74
382.63	324.85
383.01	328.47
383.39	338.86
383.77	344.28
384.15	326.88
384.53	341.12
384.91	329.14
385.29	360.56
385.67	351.29
386.049	362.14
386.429	343.83
386.809	365.3
387.189	329.82
387.568	359.43
387.948	325.98
388.328	350.84
388.707	344.28
389.087	353.1
389.466	373.44
389.846	346.32
390.225	369.59
390.605	348.13
390.984	368.01
391.363	356.26
391.743	363.04
392.122	365.3
392.501	365.53
392.881	369.37
393.26	381.8
393.639	370.05
394.018	348.8
394.397	370.27
394.776	364.4
395.155	381.12
395.534	366.88
395.913	390.39
396.292	388.35
396.671	385.87
397.05	388.13
397.429	413.66
397.808	390.61
398.186	395.81
398.565	400.78
398.944	376.15
399.323	387.9
399.701	408.01
400.08	394.68
400.458	406.43
400.837	418.86
401.215	399.65
401.594	401.68
401.972	406.43
402.351	424.73
402.729	405.75
403.107	425.64
403.486	408.01
403.864	419.76
404.242	418.86
404.62	440.78
404.999	448.01
405.377	434.45
405.755	437.62
406.133	440.55
406.511	449.82
406.889	459.54
407.267	474.68
407.645	461.34
408.023	450.27
408.401	470.61
408.779	451.63
409.156	476.94
409.534	477.84
409.912	497.5
410.29	491.17
410.667	507.9
411.045	498.18
411.422	489.82
411.8	520.33
412.178	534.34
412.555	542.92
412.933	524.17
413.31	526.43
413.687	531.4
414.065	550.61
414.442	572.98
414.819	579.08
415.197	576.14
415.574	598.29
415.951	614.11
416.328	597.84
416.705	594.9
417.082	595.58
417.46	596.71
417.837	606.65
418.214	616.37
418.591	628.12
418.967	623.6
419.344	643.94
419.721	649.59
420.098	666.08
420.475	658.17
420.852	687.78
421.228	686.87
421.605	681
421.982	710.38
422.358	714.44
422.735	709.25
423.111	711.73
423.488	756.03
423.864	748.57
424.241	780.88
424.617	783.82
424.994	778.17
425.37	782.92
425.746	779.53
426.123	825.85
426.499	825.85
426.875	819.3
427.251	829.24
427.627	848
428.003	886.19
428.379	861.11
428.756	860.88
429.132	867.21
429.507	904.95
429.883	892.07
430.259	903.59
430.635	913.08
431.011	949.01
431.387	908.56
431.763	941.56
432.138	979.97
432.514	991.27
432.89	983.36
433.265	1018.62
433.641	1034.89
434.016	1030.82
434.392	1075.56
434.767	1100.65
435.143	1086.64
435.518	1078.73
435.894	1102
436.269	1133.19
436.644	1148.33
437.02	1173.19
437.395	1155.79
437.77	1211.38
438.145	1201.44
438.52	1250.02
438.895	1255.67
439.271	1258.38
439.646	1295.9
440.021	1286.41
440.395	1325.05
440.77	1304.49
441.145	1317.37
441.52	1348.1
441.895	1362.11
442.27	1332.96
442.645	1402.56
443.019	1401.88
443.394	1407.76
443.769	1422
444.143	1405.27
444.518	1449.11
444.892	1437.82
445.267	1457.48
445.641	1470.81
446.016	1445.27
446.39	1488.66
446.764	1517.14
447.139	1495.67
447.513	1534.08
447.887	1532.5
448.262	1514.2
448.636	1554.2
449.01	1600.97
449.384	1609.79
449.758	1574.76
450.132	1609.79
450.506	1615.66
450.88	1621.09
451.254	1637.13
451.628	1651.37
452.002	1690.01
452.376	1690.24
452.75	1708.32
453.123	1700.86
453.497	1735.43
453.871	1750.12
454.244	1785.6
454.618	1788.54
454.992	1786.51
455.365	1795.55
455.739	1826.28
456.112	1843.23
456.486	1871.7
456.859	1900.4
457.232	1915.32
457.606	1938.37
457.979	1942.43
458.352	1979.04
458.725	1964.36
459.099	2004.81
459.472	2038.7
459.845	2060.62
460.218	2066.27
460.591	2125.03
460.964	2105.82
461.337	2114.86
461.71	2154.18
462.083	2186.95
462.456	2206.83
462.829	2191.92
463.201	2227.17
463.574	2241.86
463.947	2268.3
464.32	2299.49
464.692	2321.18
465.065	2342.65
465.438	2363.67
465.81	2409.32
466.183	2431.69
466.555	2469.2
466.928	2470.33
467.3	2471.46
467.672	2528.41
468.045	2585.36
468.417	2568.18
468.789	2591.23
469.161	2640.5
469.534	2714.84
469.906	2711.68
470.278	2683.66
470.65	2775.86
471.022	2801.62
471.394	2830.77
471.766	2887.04
472.138	2882.75
472.51	2958.68
472.882	3012.69
473.253	2995.06
473.625	2995.74
473.997	3101.05
474.369	3127.26
474.74	3139.69
475.112	3220.82
475.484	3200.93
475.855	3267.37
476.227	3318.22
476.598	3378.56
476.97	3398.44
477.341	3529.96
477.713	3530.19
478.084	3541.94
478.455	3639.11
478.827	3654.71
479.198	3750.07
479.569	3765.21
479.94	3845.89
480.311	3850.18
480.682	3890.63
481.053	3999.56
481.424	4002.95
481.795	4110.74
482.166	4122.26
482.537	4152.55
482.908	4200.45
483.279	4306.89
483.65	4338.08
484.021	4418.75
484.391	4421.47
484.762	4482.71
485.133	4505.76
485.503	4610.39
485.874	4651.06
486.244	4700.78
486.615	4784.39
486.985	4835.92
487.356	4867.56
487.726	4885.86
488.097	4973.99
488.467	5013.09
488.837	5075.91
489.207	5119.53
489.578	5190.03
489.948	5188.68
490.318	5343.02
490.688	5316.13
491.058	5362.46
491.428	5406.3
491.798	5503.92
492.168	5595.45
492.538	5554.09
492.908	5647.87
493.278	5701.88
493.648	5699.4
494.017	5837.93
494.387	5842.9
494.757	5859.39
495.126	5881.54
495.496	5902.33
495.866	5914.31
496.235	5973.97
496.605	6030.69
496.974	6035.89
497.344	6074.98
497.713	6116.79
498.082	6094.19
498.452	6159.73
498.821	6193.85
499.19	6210.35
499.559	6302.32
499.928	6295.77
500.298	6295.77
500.667	6394.97
501.036	6385.26
501.405	6392.49
501.774	6418.25
502.143	6447.63
502.512	6419.38
502.88	6530.11
503.249	6503.22
503.618	6510
503.987	6569.66
504.356	6585.02
504.724	6595.19
505.093	6585.25
505.462	6611.24
505.83	6618.47
506.199	6708.19
506.567	6763.55
506.936	6773.04
507.304	6788.64
507.672	6881.97
508.041	6844.45
508.409	6806.71
508.777	6902.08
509.145	6932.81
509.514	6941.4
509.882	6970.1
510.25	6978.01
510.618	7012.58
510.986	6913.15
511.354	6991.57
511.722	7073.6
512.09	7050.55
512.458	7045.8
512.826	7088.06
513.193	7106.59
513.561	7066.14
513.929	7142.3
514.297	7218
514.664	7178.68
515.032	7235.63
515.4	7217.1
515.767	7247.83
516.135	7293.48
516.502	7236.53
516.869	7307.72
517.237	7283.31
517.604	7275.4
517.972	7301.84
518.339	7339.13
518.706	7322.18
519.073	7314.27
519.44	7349.98
519.808	7416.87
520.175	7341.39
520.542	7439.92
520.909	7413.25
521.276	7416.87
521.643	7460.26
522.009	7515.85
522.376	7451.44
522.743	7514.04
523.11	7589.29
523.477	7549.29
523.843	7616.18
524.21	7618.9
524.577	7693.02
524.943	7674.26
525.31	7651.21
525.676	7678.56
526.043	7688.95
526.409	7725.33
526.776	7776.86
527.142	7793.13
527.508	7791.09
527.874	7730.31
528.241	7838.1
528.607	7768.04
528.973	7829.51
529.339	7791.55
529.705	7821.83
530.071	7877.87
530.437	7876.74
530.803	7919
531.169	7914.71
531.535	7825.67
531.901	7869.28
532.267	7887.59
532.632	7900.92
532.998	7874.93
533.364	7905.67
533.73	7868.38
534.095	7819.79
534.461	7914.48
534.826	7906.57
535.192	7910.19
535.557	7855.05
535.923	7809.63
536.288	7836.07
536.653	7915.39
537.019	7850.53
537.384	7841.26
537.749	7850.75
538.114	7804.65
538.479	7781.38
538.845	7775.73
539.21	7756.97
539.575	7831.77
539.94	7780.7
540.305	7853.01
540.67	7804.88
541.034	7796.29
541.399	7805.11
541.764	7812.79
542.129	7815.5
542.494	7771.89
542.858	7729.85
543.223	7702.51
543.587	7804.88
543.952	7730.31
544.316	7753.58
544.681	7709.06
545.045	7760.59
545.41	7744.32
545.774	7749.97
546.138	7659.8
546.503	7664.77
546.867	7631.55
547.231	7667.03
547.595	7631.78
547.959	7660.93
548.324	7593.36
548.688	7612.79
549.052	7688.27
549.416	7579.12
549.779	7626.81
550.143	7576.64
550.507	7580.25
550.871	7609.18
551.235	7500.48
551.599	7584.09
551.962	7598.11
552.326	7575.51
552.689	7600.82
553.053	7471.55
553.417	7493.93
553.78	7571.21
554.143	7523.98
554.507	7627.94
554.87	7512.68
555.234	7619.8
555.597	7593.59
555.96	7582.74
556.323	7569.63
556.686	7540.71
557.05	7550.42
557.413	7592
557.776	7570.99
558.139	7627.48
558.502	7598.33
558.865	7600.37
559.228	7590.2
559.59	7566.24
559.953	7645.79
560.316	7677.65
560.679	7642.4
561.041	7660.48
561.404	7643.53
561.767	7731.21
562.129	7698.89
562.492	7729.4
562.854	7731.21
563.217	7660.02
563.579	7718.33
563.941	7789.74
564.304	7795.61
564.666	7864.76
565.028	7826.12
565.39	7778.67
565.753	7760.81
566.115	7860.47
566.477	7879.68
566.839	7910.87
567.201	7885.78
567.563	7878.78
567.925	7939.57
568.287	7935.95
568.648	7925.1
569.01	7987.47
569.372	8063.4
569.734	7934.59
570.095	8058.21
570.457	8028.38
570.819	8040.58
571.18	8049.17
571.542	8107.7
571.903	8161.48
572.265	8112.89
572.626	8147.7
572.987	8148.83
573.349	8203.51
573.71	8177.98
574.071	8210.07
574.432	8231.08
574.794	8271.08
575.155	8254.81
575.516	8237.64
575.877	8236.51
576.238	8359.22
576.599	8312.44
576.96	8333.45
577.32	8358.76
577.681	8371.87
578.042	8453
578.403	8417.29
578.763	8419.1
579.124	8413.45
579.485	8453
579.845	8499.55
580.206	8505.65
580.566	8489.61
580.927	8508.82
581.287	8535.71
581.648	8567.12
582.008	8552.43
582.368	8552.66
582.728	8640.79
583.089	8586.1
583.449	8624.29
583.809	8663.16
584.169	8662.03
584.529	8671.75
584.889	8699.77
585.249	8645.31
585.609	8668.13
585.969	8672.65
586.329	8718.75
586.688	8730.96
587.048	8749.94
587.408	8680.11
587.768	8785.87
588.127	8734.35
588.487	8739.77
588.846	8798.75
589.206	8779.77
589.565	8771.18
589.925	8815.93
590.284	8841.69
590.643	8824.74
591.003	8844.4
591.362	8887.79
591.721	8913.1
592.08	8902.48
592.44	8849.6
592.799	8864.06
593.158	8939.99
593.517	8892.99
593.876	8950.84
594.235	8920.78
594.593	8930.5
594.952	9015.47
595.311	8934.34
595.67	8975.02
596.029	9034.68
596.387	9013.66
596.746	9000.78
597.104	8970.95
597.463	9005.75
597.822	9004.17
598.18	9034.9
598.538	8966.43
598.897	8981.12
599.255	8970.27
599.613	9094.79
599.972	9058.63
600.33	9041.46
600.688	8999.42
601.046	9146.54
601.404	9102.25
601.762	9144.73
602.12	9093.43
602.478	9139.31
602.836	9119.42
603.194	9040.78
603.552	9110.16
603.91	9094.79
604.268	9156.71
604.625	9099.99
604.983	9193.09
605.341	9106.09
605.698	9139.08
606.056	9193.77
606.413	9171.4
606.771	9126.2
607.128	9235.58
607.485	9221.57
607.843	9238.97
608.2	9186.54
608.557	9216.59
608.914	9305.86
609.272	9297.27
609.629	9217.27
609.986	9310.83
610.343	9327.33
610.7	9342.69
611.057	9269.25
611.414	9245.29
611.771	9291.85
612.127	9253.88
612.484	9330.72
612.841	9346.99
613.198	9321
613.554	9332.52
613.911	9392.18
614.267	9346.99
614.624	9327.55
614.98	9364.61
615.337	9416.36
615.693	9397.61
616.05	9419.75
616.406	9343.6
616.762	9367.55
617.118	9412.75
617.475	9403.93
617.831	9418.17
618.187	9420.66
618.543	9440.99
618.899	9511.73
619.255	9483.93
619.611	9481.22
619.967	9513.54
620.323	9507.66
620.678	9407.32
621.034	9443.71
621.39	9421.79
621.746	9459.3
622.101	9525.51
622.457	9398.28
622.812	9454.33
623.168	9484.84
623.523	9509.92
623.879	9521.67
624.234	9430.37
624.589	9517.38
624.945	9560.31
625.3	9515.57
625.655	9519.86
626.01	9522.8
626.365	9551.05
626.72	9533.87
627.075	9499.52
627.43	9458.4
627.785	9486.87
628.14	9448.68
628.495	9452.75
628.85	9498.39
629.205	9443.03
629.559	9488.68
629.914	9373.43
630.269	9495.46
630.623	9431.73
630.978	9420.43
631.332	9419.98
631.687	9384.27
632.041	9389.92
632.396	9443.25
632.75	9399.87
633.104	9391.28
633.459	9358.74
633.813	9317.38
634.167	9354.22
634.521	9302.02
634.875	9299.98
635.229	9321
635.583	9309.7
635.937	9281
636.291	9265.63
636.645	9284.61
636.999	9255.69
637.352	9224.05
637.706	9202.81
638.06	9156.03
638.413	9179.98
638.767	9173.21
639.121	9204.39
639.474	9093.21
639.828	9088.46
640.181	9182.02
640.534	9092.53
640.888	9085.07
641.241	9093.21
641.594	9137.73
641.947	9082.81
642.301	9097.5
642.654	9125.97
643.007	9120.55
643.36	9121.23
643.713	9063.38
644.066	9074
644.419	9005.75
644.771	8982.48
645.124	8888.92
645.477	8860.9
645.83	8885.98
646.182	8822.25
646.535	8772.99
646.888	8771.41
647.24	8735.25
647.593	8836.72
647.945	8779.32
648.298	8742.26
648.65	8697.96
649.002	8646.89
649.355	8726.21
649.707	8709.49
650.059	8794.68
650.411	8956.71
650.763	8835.81
651.115	8951.52
651.467	8970.95
651.819	8908.81
652.171	8936.6
652.523	8902.48
652.875	8909.94
653.227	8904.96
653.578	8900.9
653.93	8954.23
654.282	8871.97
654.633	8792.88
654.985	8878.3
655.337	8864.51
655.688	8932.08
656.039	8875.59
656.391	8888.92
656.742	8869.48
657.094	8858.41
657.445	8883.27
657.796	8937.28
658.147	8944.06
658.498	8900.9
658.849	8935.02
659.2	8855.25
659.551	8836.26
659.902	8902.93
660.253	8916.26
660.604	8926.21
660.955	8845.08
661.306	8898.18
661.656	8857.73
662.007	8876.72
662.358	8874
662.708	8920.56
663.059	8875.59
663.409	8885.76
663.76	8932.31
664.11	8825.64
664.461	8925.75
664.811	8935.02
665.161	8859.32
665.511	8888.01
665.862	8958.75
666.212	8958.97
666.562	8868.13
666.912	8951.06
667.262	8896.6
667.612	8921.01
667.962	8872.2
668.312	8861.8
668.662	8915.58
669.011	8880.78
669.361	8848.47
669.711	8908.35
670.06	8834.91
670.41	8830.62
670.76	8794.68
671.109	8850.95
671.459	8829.26
671.808	8842.14
672.157	8854.34
672.507	8781.35
672.856	8829.03
673.205	8791.07
673.554	8775.25
673.904	8818.64
674.253	8846.89
674.602	8819.32
674.951	8643.5
675.3	8660.68
675.649	8758.53
675.998	8757.4
676.346	8755.59
676.695	8741.13
677.044	8735.48
677.393	8703.61
677.741	8767.11
678.09	8706.55
678.438	8667.68
678.787	8695.7
679.135	8692.31
679.484	8667.46
679.832	8605.31
680.181	8642.6
680.529	8639.89
680.877	8628.13
681.225	8647.8
681.573	8674.24
681.922	8594.92
682.27	8555.14
682.618	8532.09
682.966	8536.39
683.314	8564.18
683.661	8531.87
684.009	8476.73
684.357	8483.73
684.705	8450.74
685.053	8399.44
685.4	8439.89
685.748	8398.99
686.095	8375.71
686.443	8372.77
686.79	8296.17
687.138	8407.35
687.485	8279.67
687.832	8222.72
688.18	8287.8
688.527	8248.26
688.874	8266.79
689.221	8241.25
689.568	8217.07
689.915	8168.94
690.262	8176.4
690.609	8104.08
690.956	8047.36
691.303	8071.54
691.65	8076.28
691.997	8053.69
692.344	8008.72
692.69	7995.38
693.037	8004.42
693.383	7941.37
693.73	7924.65
694.077	7896.63
694.423	7922.84
694.769	7820.02
695.116	7886.91
695.462	7882.17
695.808	7748.38
696.155	7763.3
696.501	7700.93
696.847	7716.97
697.193	7683.98
697.539	7694.15
697.885	7612.79
698.231	7623.42
698.577	7576.41
698.923	7551.55
699.269	7479.01
699.614	7448.5
699.96	7446.24
700.306	7457.54
700.651	7410.99
700.997	7392.01
701.342	7379.58
701.688	7355.63
702.033	7287.15
702.379	7301.39
702.724	7266.59
703.069	7277.66
703.415	7179.81
703.76	7233.6
704.105	7215.29
704.45	7195.18
704.795	7133.71
705.14	7131.22
705.485	7116.54
705.83	7108.63
706.175	7085.8
706.52	7059.14
706.865	7030.66
707.209	6995.18
707.554	7013.26
707.899	7002.64
708.243	6931
708.588	6967.61
708.932	6884.68
709.277	6876.09
709.621	6899.37
709.966	6815.75
710.31	6880.38
710.654	6762.87
710.998	6787.28
711.342	6773.72
711.687	6756.55
712.031	6765.13
712.375	6704.57
712.719	6744.34
713.063	6676.55
713.407	6759.03
713.75	6713.38
714.094	6622.31
714.438	6637.45
714.782	6616.21
715.125	6632.03
715.469	6643.1
715.812	6606.04
716.156	6571.69
716.499	6598.36
716.843	6577.34
717.186	6546.38
717.53	6606.72
717.873	6565.59
718.216	6539.15
718.559	6476.78
718.902	6501.18
719.246	6455.99
719.589	6479.04
719.932	6394.97
720.275	6503.44
720.617	6489.89
720.96	6439.94
721.303	6455.76
721.646	6474.97
721.989	6422.09
722.331	6403.56
722.674	6394.75
723.016	6428.19
723.359	6417.8
723.701	6449.89
724.044	6370.11
724.386	6276.33
724.729	6351.58
725.071	6387.06
725.413	6382.77
725.755	6382.32
726.097	6371.24
726.439	6360.85
726.782	6297.35
727.124	6353.84
727.465	6357.91
727.807	6338.93
728.149	6298.7
728.491	6336.44
728.833	6359.49
729.175	6286.95
729.516	6285.37
729.858	6297.12
730.199	6326.05
730.541	6259.61
730.882	6268.2
731.224	6279.27
731.565	6280.4
731.906	6309.55
732.248	6291.25
732.589	6205.37
732.93	6269.1
733.271	6357.91
733.612	6252.6
733.953	6277.69
734.294	6233.62
734.635	6256.45
734.976	6305.26
735.317	6223.23
735.658	6272.94
735.999	6250.57
736.339	6284.47
736.68	6256.22
737.021	6278.37
737.361	6190.23
737.702	6330.12
738.042	6270.68
738.383	6258.48
738.723	6304.35
739.063	6265.71
739.404	6348.19
739.744	6273.17
740.084	6333.05
740.424	6316.11
740.764	6291.25
741.104	6355.88
741.444	6283.34
741.784	6350.23
742.124	6342.77
742.464	6304.58
742.804	6387.29
743.143	6350.45
743.483	6356.56
743.823	6385.26
744.162	6418.93
744.502	6461.19
744.841	6405.14
745.181	6454.41
745.52	6455.54
745.86	6502.54
746.199	6558.58
746.538	6556.78
746.877	6612.59
747.216	6634.97
747.556	6599.71
747.895	6657.11
748.234	6722.2
748.573	6732.37
748.911	6768.07
749.25	6806.04
749.589	6831.57
749.928	6888.97
750.267	6890.33
750.605	6924.22
750.944	6991.57
751.283	7056.88
751.621	7143.65
751.96	7119.7
752.298	7213.93
752.636	7300.94
752.975	7342.52
753.313	7411.67
753.651	7469.52
753.989	7524.89
754.327	7630.42
754.666	7691.21
755.004	7822.28
755.342	7909.28
755.679	8002.16
756.017	8013.24
756.355	8098.21
756.693	8175.04
757.031	8341.81
757.368	8431.76
757.706	8482.38
758.044	8596.95
758.381	8744.74
758.719	8773.89
759.056	8932.99
759.394	9012.53
759.731	9035.13
760.068	9247.78
760.405	9309.7
760.743	9341.56
761.08	9544.27
761.417	9679.18
761.754	9850.7
762.091	9890.7
762.428	10037.82
762.765	10121.88
763.102	10268.77
763.438	10377.02
763.775	10450.46
764.112	10540.63
764.449	10786.27
764.785	10892.03
765.122	10862.65
765.458	10979.94
765.795	11105.13
766.131	11238.69
766.467	11346.48
766.804	11345.13
767.14	11492.24
767.476	11676.87
767.812	11686.81
768.148	11800.93
768.485	11846.58
768.821	11885.22
769.157	12044.77
769.492	12130.19
769.828	12226.46
770.164	12219.9
770.5	12383.74
770.836	12420.8
771.171	12435.04
771.507	12531.99
771.842	12525.66
772.178	12530.4
772.513	12700.57
772.849	12789.16
773.184	12808.59
773.519	12899.66
773.855	12860.79
774.19	13026.21
774.525	12962.48
774.86	13028.47
775.195	13029.83
775.53	13084.51
775.865	13099.66
776.2	13085.87
776.535	13043.61
776.87	13149.37
777.205	13134.68
777.539	13132.2
777.874	13199.77
778.209	13174.46
778.543	13239.54
778.878	13114.34
779.212	13258.07
779.547	13281.57
779.881	13288.8
780.215	13190.73
780.55	13267.79
780.884	13252.87
781.218	13294.45
781.552	13326.09
781.886	13242.7
782.22	13179.88
782.554	13200.67
782.888	13228.24
783.222	13155.7
783.556	13216.04
783.889	13164.29
784.223	13136.04
784.557	13158.19
784.89	13209.26
785.224	13178.75
785.557	13111.18
785.891	13171.97
786.224	13124.29
786.558	13135.59
786.891	13093.1
787.224	13058.75
787.557	13050.62
787.891	13002.48
788.224	13110.5
788.557	13018.3
788.89	13093.1
789.223	13123.16
789.556	12921.13
789.888	12877.29
790.221	12878.87
790.554	12850.17
790.887	12884.29
791.219	12814.01
791.552	12765.2
791.884	12768.59
792.217	12741.25
792.549	12683.4
792.882	12737.86
793.214	12591.19
793.546	12626.45
793.879	12612.21
794.211	12488.6
794.543	12524.08
794.875	12536.73
795.207	12597.52
795.539	12465.1
795.871	12461.48
796.203	12424.42
796.535	12345.1
796.867	12365.44
797.198	12342.16
797.53	12368.38
797.862	12313.01
798.193	12291.99
798.525	12271.65
798.856	12290.41
799.188	12162.51
799.519	12128.16
799.85	11972.23
800.182	12127.7
800.513	12138.55
800.844	11993.02
801.175	12051.32
801.506	12034.15
801.837	11915.96
802.168	11978.1
802.499	11916.18
802.83	11866.24
803.161	11864.43
803.491	11734.49
803.822	11832.8
804.153	11756.87
804.483	11688.39
804.814	11684.55
805.145	11686.13
805.475	11678
805.805	11602.52
806.136	11618.34
806.466	11577.44
806.796	11538.57
807.126	11508.96
807.457	11475.97
807.787	11489.53
808.117	11431.68
808.447	11440.26
808.777	11446.14
809.107	11399.81
809.436	11386.93
809.766	11296.54
810.096	11292.02
810.426	11300.38
810.755	11281.62
811.085	11267.61
811.414	11257.22
811.744	11080.95
812.073	11141.97
812.403	11136.32
812.732	11054.74
813.061	11066.71
813.39	11046.15
813.719	10970.45
814.049	11057.68
814.378	11075.98
814.707	10974.97
815.036	10953.27
815.365	10986.49
815.693	10844.57
816.022	10902.43
816.351	10836.21
816.68	10806.16
817.008	10835.53
817.337	10689.32
817.665	10670.79
817.994	10752.37
818.322	10785.37
818.651	10721.86
818.979	10635.31
819.307	10705.37
819.636	10670.34
819.964	10614.98
820.292	10645.93
820.62	10606.61
820.948	10597.57
821.276	10628.99
821.604	10628.99
821.932	10624.92
822.259	10634.41
822.587	10619.95
822.915	10539.72
823.243	10625.14
823.57	10648.65
823.898	10576.11
824.225	10553.51
824.553	10571.13
824.88	10575.43
825.207	10530.01
825.535	10579.5
825.862	10597.8
826.189	10563.9
826.516	10622.66
826.843	10646.16
827.17	10626.27
827.497	10571.81
827.824	10607.29
828.151	10570.91
828.478	10627.86
828.805	10600.29
829.131	10504.92
829.458	10592.83
829.785	10558.03
830.111	10537.46
830.438	10575.43
830.764	10600.29
831.09	10630.57
831.417	10587.63
831.743	10617.46
832.069	10643.67
832.395	10581.98
832.722	10656.78
833.048	10592.15
833.374	10613.62
833.7	10552.83
834.026	10479.84
834.351	10510.12
834.677	10508.99
835.003	10497.92
835.329	10449.78
835.654	10511.02
835.98	10527.52
836.306	10460.4
836.631	10381.08
836.956	10462.89
837.282	10504.7
837.607	10375.21
837.932	10370.69
838.258	10402.1
838.583	10403.91
838.908	10313.51
839.233	10418.82
839.558	10298.83
839.883	10316.68
840.208	10228.09
840.533	10212.27
840.858	10217.25
841.182	10281.2
841.507	10178.83
841.832	10159.85
842.156	10161.2
842.481	10160.52
842.805	10148.77
843.13	10049.34
843.454	10096.34
843.778	10047.08
844.103	10012.51
844.427	10022.45
844.751	9993.97
845.075	9936.57
845.399	9915.33
845.723	9930.93
846.047	9897.93
846.371	9853.41
846.695	9850.02
847.019	9793.75
847.343	9733.64
847.666	9668.79
847.99	9584.49
848.313	9656.13
848.637	9499.52
848.96	9581.33
849.284	9500.2
849.607	9481.67
849.931	9445.06
850.254	9393.54
850.577	9306.08
850.9	9283.48
851.223	9335.23
851.546	9203.71
851.869	9177.05
852.192	9203.03
852.515	9126.2
852.838	9135.92
853.161	9052.3
853.483	8984.74
853.806	9009.14
854.129	8938.41
854.451	8927.34
854.774	8941.35
855.096	8911.07
855.419	8853.44
855.741	8854.8
856.063	8816.15
856.385	8792.65
856.708	8763.05
857.03	8723.27
857.352	8702.26
857.674	8730.5
857.996	8699.32
858.318	8619.55
858.64	8595.82
858.961	8509.49
859.283	8528.48
859.605	8579.55
859.926	8507.01
860.248	8509.95
860.57	8495.26
860.891	8481.47
861.212	8457.29
861.534	8477.63
861.855	8363.28
862.176	8365.77
862.498	8423.62
862.819	8311.08
863.14	8361.48
863.461	8338.2
863.782	8281.03
864.103	8264.98
864.424	8359.22
864.745	8316.73
865.065	8241.7
865.386	8226.79
865.707	8253
866.027	8209.61
866.348	8146.11
866.668	8197.86
866.989	8159.67
867.309	8136.85
867.63	8152.44
867.95	8183.63
868.27	8126.68
868.59	8110.18
868.91	8116.74
869.23	8010.98
869.55	8024.53
869.87	8099.11
870.19	8038.55
870.51	8054.59
870.83	8062.5
871.15	7990.19
871.469	7973.46
871.789	8002.16
872.109	8004.65
872.428	7937.98
872.748	7967.36
873.067	7984.08
873.386	7955.84
873.706	7945.67
874.025	7876.74
874.344	7884.43
874.663	7907.48
874.982	7826.35
875.301	7817.53
875.62	7835.16
875.939	7825.9
876.258	7808.27
876.577	7766.46
876.896	7823.64
877.214	7759.01
877.533	7735.28
877.852	7767.14
878.17	7685.79
878.489	7720.81
878.807	7698.67
879.125	7691.66
879.444	7700.93
879.762	7707.03
880.08	7676.52
880.398	7690.53
880.716	7649.63
881.034	7608.27
881.352	7597.2
881.67	7601.95
881.988	7606.47
882.306	7516.75
882.624	7531.67
882.941	7482.4
883.259	7455.51
883.577	7450.76
883.894	7460.26
884.212	7343.2
884.529	7386.13
884.846	7366.25
885.164	7371.22
885.481	7416.42
885.798	7312.69
886.115	7362.18
886.432	7343.65
886.75	7256.65
887.067	7285.12
887.383	7305.68
887.7	7272.69
888.017	7284.89
888.334	7224.1
888.651	7212.35
888.967	7214.39
889.284	7147.04
889.6	7163.99
889.917	7130.55
890.233	7114.28
890.55	7076.09
890.866	7103.2
891.182	7051.9
891.498	7025.01
891.815	7006.93
892.131	6971.68
892.447	6988.86
892.763	7005.8
893.079	6916.09
893.395	6889.88
893.71	6900.72
894.026	6905.02
894.342	6818.92
894.657	6782.99
894.973	6846.26
895.289	6760.39
895.604	6786.15
895.92	6701.86
896.235	6701.18
896.55	6691.91
896.865	6695.3
897.181	6632.93
897.496	6647.4
897.811	6661.41
898.126	6614.18
898.441	6553.16
898.756	6558.58
899.071	6480.17
899.386	6513.84
899.7	6451.24
900.015	6398.59
900.33	6352.49
900.644	6432.26
900.959	6422.77
901.273	6362.88
901.588	6285.82
901.902	6307.74
902.216	6248.76
902.531	6303.22
902.845	6254.19
903.159	6183
903.473	6163.79
903.787	6194.53
904.101	6140.06
904.415	6124.02
904.729	6107.07
905.042	6081.08
905.356	6085.6
905.67	6038.15
905.984	6049.9
906.297	5963.35
906.611	5945.49
906.924	5980.75
907.237	5948.43
907.551	5893.29
907.864	5912.05
908.177	5869.79
908.491	5890.58
908.804	5830.24
909.117	5802.22
909.43	5739.85
909.743	5705.5
910.056	5727.19
910.368	5696.91
910.681	5649.23
910.994	5673.64
911.307	5700.3
911.619	5648.55
911.932	5593.86
912.244	5606.29
912.557	5534.66
912.869	5483.36
913.181	5512.51
913.494	5496.01
913.806	5454.88
914.118	5451.27
914.43	5385.96
914.742	5438.61
915.054	5357.71
915.366	5351.84
915.678	5316.13
915.99	5303.7
916.302	5273.42
916.613	5237.94
916.925	5239.75
917.236	5207.66
917.548	5212.41
917.859	5230.03
918.171	5139.19
918.482	5130.15
918.794	5103.03
919.105	5163.82
919.416	5074.33
919.727	5088.57
920.038	5062.35
920.349	5023.03
920.66	5001.56
920.971	5041.56
921.282	4944.39
921.593	4953.66
921.903	4947.33
922.214	4896.03
922.525	4906.2
922.835	4889.25
923.146	4860.78
923.456	4817.61
923.767	4804.73
924.077	4824.62
924.387	4739.65
924.697	4717.05
925.008	4716.6
925.318	4719.54
925.628	4734.45
925.938	4675.47
926.248	4652.87
926.558	4636.83
926.867	4606.77
927.177	4612.2
927.487	4563.38
927.796	4535.13
928.106	4528.36
928.416	4563.61
928.725	4481.58
929.034	4470.5
929.344	4516.6
929.653	4496.04
929.962	4417.62
930.271	4421.69
930.581	4395.48
930.89	4392.77
931.199	4351.41
931.508	4350.73
931.817	4368.36
932.125	4336.5
932.434	4289.49
932.743	4303.28
933.051	4249.72
933.36	4261.7
933.669	4201.13
933.977	4240
934.286	4223.5
934.594	4238.42
934.902	4136.28
935.21	4204.97
935.519	4137.18
935.827	4131.08
936.135	4103.51
936.443	4025.77
936.751	4065.54
937.059	4037.07
937.367	4029.61
937.674	4050.63
937.982	3991.19
938.29	3977.41
938.597	3985.09
938.905	3928.6
939.213	3944.19
939.52	3896.96
939.827	3912.33
940.135	3875.94
940.442	3873.46
940.749	3847.02
941.056	3863.29
941.363	3862.84
941.67	3828.03
941.977	3771.31
942.284	3738.32
942.591	3752.56
942.898	3753.01
943.205	3729.51
943.511	3707.13
943.818	3727.92
944.125	3692.9
944.431	3702.16
944.738	3662.62
945.044	3630.53
945.35	3607.7
945.657	3619.68
945.963	3621.94
946.269	3570.64
946.575	3585.56
946.881	3543.97
947.187	3539.91
947.493	3534.26
947.799	3526.8
948.105	3486.35
948.41	3456.75
948.716	3480.93
949.022	3437.08
949.327	3481.15
949.633	3419.46
949.938	3444.77
950.244	3411.77
950.549	3384.2
950.854	3354.15
951.16	3378.56
951.465	3335.39
951.77	3360.93
952.075	3265.11
952.38	3314.83
952.685	3293.13
952.99	3256.52
953.294	3247.26
953.599	3197.54
953.904	3235.73
954.209	3243.64
954.513	3203.64
954.818	3179.01
955.122	3185.34
955.426	3180.37
955.731	3148.05
956.035	3134.95
956.339	3101.5
956.643	3137.66
956.948	3063.76
957.252	3087.49
957.556	3071.9
957.86	3093.59
958.163	3071.22
958.467	3049.52
958.771	3039.58
959.075	3017.21
959.378	2992.12
959.682	2989.86
959.985	2957.55
960.289	2991.9
960.592	2955.52
960.896	2950.09
961.199	2929.53
961.502	2875.29
961.805	2880.04
962.108	2881.17
962.411	2877.55
962.714	2858.57
963.017	2843.2
963.32	2890.43
963.623	2819.7
963.926	2807.27
964.228	2811.56
964.531	2766.59
964.833	2767.05
965.136	2745.58
965.438	2768.63
965.741	2722.98
966.043	2729.08
966.345	2695.18
966.648	2723.21
966.95	2722.98
967.252	2675.75
967.554	2673.72
967.856	2685.69
968.158	2629.42
968.46	2625.58
968.761	2640.95
969.063	2643.66
969.365	2610.89
969.666	2591.23
969.968	2572.93
970.269	2563.21
970.571	2557.56
970.872	2558.01
971.174	2541.29
971.475	2547.39
971.776	2523.89
972.077	2504.68
972.378	2499.71
972.679	2468.07
972.98	2492.48
973.281	2488.86
973.582	2445.92
973.883	2460.16
974.183	2407.51
974.484	2420.61
974.785	2419.71
975.085	2411.58
975.386	2429.43
975.686	2395.76
975.986	2366.38
976.287	2414.96
976.587	2351.01
976.887	2368.19
977.187	2337
977.487	2327.28
977.787	2318.92
978.087	2346.04
978.387	2267.4
978.687	2278.92
978.987	2269.21
979.286	2299.94
979.586	2267.17
979.885	2252.26
980.185	2244.12
980.484	2200.06
980.784	2252.26
981.083	2209.32
981.382	2214.52
981.682	2203.9
981.981	2176.1
982.28	2141.07
982.579	2179.49
982.878	2172.71
983.177	2149.66
983.475	2150.11
983.774	2165.25
984.073	2095.65
984.372	2112.15
984.67	2103.11
984.969	2083.9
985.267	2120.51
985.566	2089.55
985.864	2080.96
986.162	2089.55
986.461	2072.6
986.759	2040.96
987.057	2062.66
987.355	2048.42
987.653	2000.51
987.951	2019.49
988.249	2019.49
988.547	1986.73
988.844	2010.68
989.142	2001.87
989.44	1978.14
989.737	1922.77
990.035	1945.82
990.332	1956.45
990.63	1912.61
990.927	1922.77
991.224	1944.69
991.521	1924.58
991.819	1896.79
992.116	1898.82
992.413	1913.96
992.71	1859.73
993.006	1881.42
993.303	1847.07
993.6	1865.15
993.897	1854.75
994.193	1826.73
994.49	1795.55
994.787	1840.97
995.083	1802.78
995.379	1817.24
995.676	1807.07
995.972	1770.91
996.268	1768.88
996.565	1758.26
996.861	1725.27
997.157	1754.42
997.453	1729.33
997.749	1744.25
998.044	1714.19
998.34	1700.63
998.636	1718.71
998.932	1686.62
999.227	1677.81
999.523	1693.85
999.818	1681.42
1000.114	1678.26
1000.409	1659.28
1000.704	1629
1001	1601.88
1001.295	1629.22
1001.59	1632.16
1001.885	1635.32
1002.18	1613.63
1002.475	1619.73
1002.77	1600.52
1003.065	1559.39
1003.359	1595.1
1003.654	1596
1003.949	1574.76
1004.243	1519.17
1004.538	1566.17
1004.832	1560.52
1005.127	1523.01
1005.421	1533.63
1005.715	1493.18
1006.009	1511.49
1006.304	1492.28
1006.598	1475.33
1006.892	1487.31
1007.186	1454.99
1007.48	1445.5
1007.773	1471.94
1008.067	1452.28
1008.361	1446.85
1008.655	1466.52
1008.948	1444.37
1009.242	1449.57
1009.535	1429.68
1009.829	1401.43
1010.122	1384.94
1010.415	1400.75
1010.708	1386.74
1011.001	1392.17
1011.295	1381.09
1011.588	1351.26
1011.881	1353.75
1012.173	1346.97
1012.466	1350.81
1012.759	1315.11
1013.052	1326.86
1013.344	1316.46
1013.637	1330.47
1013.93	1290.02
1014.222	1283.7
1014.514	1305.84
1014.807	1289.57
1015.099	1247.09
1015.391	1293.41
1015.683	1236.69
1015.976	1223.36
1016.268	1247.09
1016.56	1229.46
1016.851	1237.14
1017.143	1220.19
1017.435	1187.88
1017.727	1196.69
1018.018	1209.35
1018.31	1190.59
1018.602	1195.34
1018.893	1162.57
1019.185	1175.45
1019.476	1149.24
1019.767	1172.51
1020.058	1150.37
1020.35	1149.69
1020.641	1147.88
1020.932	1116.24
1021.223	1134.55
1021.514	1109.24
1021.804	1108.11
1022.095	1099.75
1022.386	1069.69
1022.677	1112.63
1022.967	1073.53
1023.258	1062.01
1023.548	1071.95
1023.839	1069.92
1024.129	1063.36
1024.419	1053.64
1024.709	1044.61
1025	1046.87
1025.29	1011.39
1025.58	1038.96
1025.87	1029.24
1026.16	1011.16
1026.449	1002.35
1026.739	979.97
1027.029	988.79
1027.319	1008.67
1027.608	1005.51
1027.898	986.53
1028.187	962.35
1028.477	988.11
1028.766	960.31
1029.055	950.14
1029.344	954.21
1029.634	972.74
1029.923	956.47
1030.212	951.95
1030.501	940.2
1030.79	946.75
1031.078	947.43
1031.367	917.83
1031.656	931.39
1031.945	911.95
1032.233	895
1032.522	891.16
1032.81	878.73
1033.099	857.04
1033.387	851.39
1033.675	869.24
1033.963	869.02
1034.251	861.56
1034.54	885.29
1034.828	864.95
1035.116	844.38
1035.403	844.84
1035.691	834.89
1035.979	863.59
1036.267	810.04
1036.554	825.85
1036.842	815.91
1037.129	828.34
1037.417	818.17
1037.704	802.58
1037.992	790.6
1038.279	792.18
1038.566	797.15
1038.853	797.15
1039.14	797.15
