Data from hue_250_FLMS001491_00098.txt Node
Date: Tue Feb 07 16:01:46 GMT 2017
User: dcchb
Spectrometer: FLMS00149
Trigger mode: 0
Integration Time (sec): 2.000000E-2
Scans to average: 10
Electric dark correction enabled: true
Nonlinearity correction enabled: false
Boxcar width: 0
XAxis mode: Wavelengths
Number of Pixels in Spectrum: 2048
>>>>>Begin Spectral Data<<<<<
341.393	-6.77
341.776	-6.77
342.16	-6.77
342.543	-46.76
342.927	-63.26
343.31	-75.01
343.693	-44.5
344.077	-71.17
344.46	-71.4
344.843	-58.52
345.226	-47.22
345.61	-23.71
345.993	-10.16
346.376	-8.57
346.759	5.21
347.142	23.29
347.525	47.92
347.908	62.84
348.291	69.16
348.674	100.58
349.057	101.25
349.44	116.17
349.823	143.97
350.206	160.69
350.588	190.97
350.971	198.2
351.354	228.48
351.737	234.58
352.119	232.32
352.502	253.79
352.884	271.65
353.267	268.48
353.65	294.7
354.032	291.76
354.414	285.2
354.797	285.43
355.179	312.77
355.562	330.85
355.944	319.1
356.326	336.05
356.709	333.79
357.091	340.12
357.473	356.61
357.855	334.92
358.238	339.44
358.62	354.13
359.002	331.08
359.384	321.36
359.766	330.4
360.148	334.24
360.53	330.17
360.912	331.76
361.294	332.21
361.676	349.38
362.057	329.72
362.439	329.72
362.821	327.69
363.203	329.27
363.584	308.48
363.966	316.39
364.348	321.14
364.729	318.42
365.111	307.58
365.493	296.28
365.874	319.33
366.256	302.15
366.637	303.96
367.019	317.52
367.4	310.29
367.781	309.16
368.163	312.55
368.544	301.48
368.925	315.26
369.306	310.06
369.688	305.32
370.069	306.22
370.45	304.86
370.831	317.97
371.212	296.5
371.593	321.81
371.974	288.82
372.355	324.53
372.736	314.58
373.117	307.8
373.498	301.25
373.879	319.1
374.26	299.67
374.641	310.06
375.021	296.96
375.402	323.17
375.783	311.42
376.163	313.9
376.544	330.4
376.925	324.75
377.305	314.81
377.686	323.4
378.066	331.53
378.447	313.68
378.827	325.2
379.208	290.63
379.588	326.56
379.968	303.51
380.349	322.49
380.729	340.34
381.109	324.07
381.489	340.8
381.87	326.11
382.25	325.88
382.63	335.37
383.01	328.82
383.39	348.03
383.77	342.6
384.15	340.8
384.53	343.28
384.91	341.7
385.29	346.9
385.67	347.58
386.049	355.03
386.429	357.52
386.809	350.97
387.189	350.29
387.568	357.74
387.948	362.26
388.328	371.08
388.707	349.16
389.087	355.49
389.466	359.55
389.846	347.35
390.225	380.34
390.605	358.87
390.984	342.15
391.363	358.42
391.743	349.84
392.122	368.82
392.501	367.24
392.881	380.8
393.26	365.2
393.639	374.47
394.018	375.37
394.397	388.03
394.776	368.14
395.155	383.96
395.534	360.91
395.913	340.12
396.292	385.54
396.671	371.08
397.05	371.53
397.429	373.34
397.808	374.02
398.186	387.35
398.565	389.16
398.944	397.07
399.323	387.57
399.701	390.74
400.08	394.13
400.458	402.72
400.837	413.79
401.215	420.12
401.594	391.42
401.972	409.04
402.351	410.4
402.729	413.34
403.107	411.75
403.486	428.93
403.864	416.73
404.242	427.57
404.62	420.57
404.999	414.24
405.377	411.08
405.755	440.23
406.133	420.12
406.511	445.65
406.889	438.87
407.267	460.57
407.645	454.47
408.023	447.23
408.401	447.69
408.779	462.15
409.156	464.63
409.534	451.3
409.912	479.55
410.29	499.66
410.667	479.78
411.045	478.42
411.422	479.1
411.8	498.53
412.178	506.44
412.555	545.99
412.933	534.01
413.31	527.68
413.687	524.52
414.065	551.19
414.442	573.11
414.819	561.58
415.197	575.37
415.574	596.38
415.951	573.78
416.328	572.88
416.705	592.77
417.082	595.7
417.46	591.86
417.837	608.36
418.214	600
418.591	624.4
418.967	600.68
419.344	613.11
419.721	657.85
420.098	623.95
420.475	640.45
420.852	676.15
421.228	657.4
421.605	687.45
421.982	684.52
422.358	675.25
422.735	694.01
423.111	714.57
423.488	719.77
423.864	725.19
424.241	718.19
424.617	768.13
424.994	743.05
425.37	769.49
425.746	762.48
426.123	795.7
426.499	810.16
426.875	808.58
427.251	811.74
427.627	831.63
428.003	823.95
428.379	824.63
428.756	845.87
429.132	854.91
429.507	874.57
429.883	854.23
430.259	888.8
430.635	869.37
431.011	900.56
431.387	907.33
431.763	931.74
432.138	937.84
432.514	960.44
432.89	970.84
433.265	969.71
433.641	985.52
434.016	981.91
434.392	1030.27
434.767	1020.55
435.143	1063.04
435.518	1067.33
435.894	1086.77
436.269	1103.26
436.644	1090.83
437.02	1145.97
437.395	1136.93
437.77	1141
438.145	1162.24
438.52	1203.6
438.895	1182.13
439.271	1204.73
439.646	1245.18
440.021	1237.5
440.395	1239.98
440.77	1260.32
441.145	1277.04
441.52	1285.18
441.895	1324.5
442.27	1317.72
442.645	1313.88
443.019	1351.62
443.394	1354.33
443.769	1343.26
444.143	1338.06
444.518	1387.1
444.892	1369.47
445.267	1380.32
445.641	1398.17
446.016	1428.23
446.39	1419.19
446.764	1447.89
447.139	1421.45
447.513	1456.25
447.887	1470.26
448.262	1465.06
448.636	1478.85
449.01	1513.87
449.384	1544.15
449.758	1518.62
450.132	1525.85
450.506	1533.08
450.88	1563.14
451.254	1557.94
451.628	1556.58
452.002	1608.56
452.376	1617.15
452.75	1600.2
453.123	1654.66
453.497	1656.69
453.871	1670.25
454.244	1679.52
454.618	1717.48
454.992	1724.26
455.365	1716.13
455.739	1739.63
456.112	1780.53
456.486	1758.39
456.859	1816.46
457.232	1853.3
457.606	1851.26
457.979	1833.64
458.352	1885.39
458.725	1909.34
459.099	1894.43
459.472	1941.66
459.845	1972.84
460.218	1972.17
460.591	1962.45
460.964	1977.14
461.337	2010.36
461.71	2044.48
462.083	2098.94
462.456	2074.99
462.829	2122.22
463.201	2142.1
463.574	2157.25
463.947	2170.8
464.32	2210.35
464.692	2230.69
465.065	2227.75
465.438	2282.44
465.81	2304.36
466.183	2311.82
466.555	2336.68
466.928	2336.9
467.3	2368.09
467.672	2410.12
468.045	2445.37
468.417	2520.17
468.789	2488.08
469.161	2501.42
469.534	2553.85
469.906	2583.22
470.278	2611.24
470.65	2604.69
471.022	2651.7
471.394	2727.85
471.766	2762.43
472.138	2768.08
472.51	2884.01
472.882	2847.17
473.253	2871.35
473.625	2946.6
473.997	2978.47
474.369	2978.47
474.74	3035.41
475.112	3055.3
475.484	3117.9
475.855	3167.16
476.227	3165.58
476.598	3197.44
476.97	3260.72
477.341	3330.55
477.713	3355.63
478.084	3378.23
478.455	3448.06
478.827	3500.71
479.198	3564.89
479.569	3570.99
479.94	3664.55
480.311	3670.2
480.682	3789.07
481.053	3819.35
481.424	3889.86
481.795	3904.32
482.166	3918.78
482.537	3981.38
482.908	4075.61
483.279	4095.27
483.65	4152.45
484.021	4253.24
484.391	4241.71
484.762	4243.52
485.133	4308.6
485.503	4389.96
485.874	4434.25
486.244	4441.93
486.615	4582.49
486.985	4596.96
487.356	4698.2
487.726	4694.58
488.097	4781.13
488.467	4825.2
488.837	4890.96
489.207	4952.43
489.578	4970.73
489.948	5044.85
490.318	5091.86
490.688	5133.21
491.058	5158.3
491.428	5235.81
491.798	5276.03
492.168	5360.78
492.538	5396.48
492.908	5360.55
493.278	5514.67
493.648	5431.74
494.017	5514.45
494.387	5528.91
494.757	5610.71
495.126	5643.71
495.496	5677.15
495.866	5697.49
496.235	5723.03
496.605	5809.58
496.974	5796.25
497.344	5852.06
497.713	5874.66
498.082	5920.99
498.452	6000.99
498.821	5966.18
499.19	5969.57
499.559	6030.36
499.928	6091.61
500.298	6113.3
500.667	6111.72
501.036	6080.31
501.405	6151.49
501.774	6167.08
502.143	6205.73
502.512	6219.74
502.88	6252.51
503.249	6259.74
503.618	6294.09
503.987	6342.9
504.356	6381.09
504.724	6341.09
505.093	6425.38
505.462	6415.44
505.83	6399.85
506.199	6450.47
506.567	6496.34
506.936	6478.71
507.304	6538.37
507.672	6573.85
508.041	6639.61
508.409	6670.12
508.777	6677.35
509.145	6677.8
509.514	6664.92
509.882	6730.01
510.25	6683.91
510.618	6789.89
510.986	6736.56
511.354	6809.1
511.722	6875.09
512.09	6816.56
512.458	6837.57
512.826	6863.11
513.193	6918.93
513.561	6900.62
513.929	6970.23
514.297	6965.03
514.664	6998.25
515.032	7034.63
515.4	7037.34
515.767	6994.41
516.135	7057
516.502	7020.17
516.869	7071.47
517.237	7021.98
517.604	7081.18
517.972	7138.58
518.339	7150.33
518.706	7121.41
519.073	7103.33
519.44	7114.4
519.808	7204.12
520.175	7165.48
520.542	7275.76
520.909	7276.88
521.276	7250.67
521.643	7298.13
522.009	7246.83
522.376	7278.01
522.743	7338.13
523.11	7348.3
523.477	7383.77
523.843	7408.41
524.21	7447.28
524.577	7424.45
524.943	7530.44
525.31	7517.33
525.676	7493.6
526.043	7541.74
526.409	7544.67
526.776	7546.93
527.142	7556.43
527.508	7571.57
527.874	7644.56
528.241	7621.73
528.607	7593.03
528.973	7643.2
529.339	7677.33
529.705	7665.12
530.071	7754.61
530.437	7727.04
530.803	7668.74
531.169	7702.64
531.535	7732.24
531.901	7720.26
532.267	7703.31
532.632	7737.66
532.998	7775.63
533.364	7674.84
533.73	7710.55
534.095	7773.82
534.461	7736.53
534.826	7721.39
535.192	7737.44
535.557	7810.66
535.923	7726.36
536.288	7742.86
536.653	7729.75
537.019	7668.51
537.384	7778.79
537.749	7759.58
538.114	7703.09
538.479	7743.54
538.845	7765.23
539.21	7692.02
539.575	7726.14
539.94	7670.77
540.305	7722.97
540.67	7689.76
541.034	7644.78
541.399	7722.75
541.764	7670.77
542.129	7656.76
542.494	7662.41
542.858	7749.87
543.223	7650.21
543.587	7712.35
543.952	7642.75
544.316	7627.84
544.681	7659.93
545.045	7650.43
545.41	7652.02
545.774	7591.68
546.138	7551.68
546.503	7672.58
546.867	7582.87
547.231	7658.8
547.595	7602.75
547.959	7563.66
548.324	7588.74
548.688	7622.19
549.052	7578.35
549.416	7556.65
549.779	7588.97
550.143	7553.04
550.507	7556.2
550.871	7548.29
551.235	7558.01
551.599	7533.15
551.962	7542.41
552.326	7564.79
552.689	7563.21
553.053	7502.19
553.417	7459.03
553.78	7617.89
554.143	7472.59
554.507	7572.02
554.87	7524.56
555.234	7587.16
555.597	7539.02
555.96	7500.16
556.323	7560.95
556.686	7517.1
557.05	7552.13
557.413	7537.9
557.776	7562.98
558.139	7590.77
558.502	7531.57
558.865	7525.24
559.228	7574.5
559.59	7618.34
559.953	7628.29
560.316	7686.14
560.679	7623.99
561.041	7630.55
561.404	7626.93
561.767	7635.52
562.129	7553.49
562.492	7661.28
562.854	7666.48
563.217	7665.58
563.579	7704.67
563.941	7780.15
564.304	7683.43
564.666	7751.45
565.028	7755.29
565.39	7856.53
565.753	7820.6
566.115	7876.64
566.477	7859.69
566.839	7785.35
567.201	7944.21
567.563	7890.43
567.925	7948.28
568.287	7887.72
568.648	7934.49
569.01	7944.66
569.372	7930.2
569.734	7985.57
570.095	8006.36
570.457	8082.51
570.819	8018.11
571.18	8079.8
571.542	8125.9
571.903	8139.69
572.265	8103.98
572.626	8148.27
572.987	8148.05
573.349	8118.22
573.71	8186.92
574.071	8224.2
574.432	8206.8
574.794	8288.16
575.155	8228.72
575.516	8191.89
575.877	8322.28
576.238	8279.57
576.599	8295.62
576.96	8315.28
577.32	8307.59
577.681	8312.11
578.042	8414.93
578.403	8405.67
578.763	8341.49
579.124	8433.92
579.485	8484.76
579.845	8458.1
580.206	8443.41
580.566	8472.33
580.927	8400.47
581.287	8522.5
581.648	8501.71
582.008	8488.15
582.368	8503.75
582.728	8570.64
583.089	8539.45
583.449	8603.63
583.809	8622.39
584.169	8626.91
584.529	8535.61
584.889	8715.49
585.249	8631.2
585.609	8545.55
585.969	8659.45
586.329	8643.4
586.688	8648.37
587.048	8690.41
587.408	8648.83
587.768	8680.46
588.127	8713.91
588.487	8629.62
588.846	8749.39
589.206	8758.2
589.565	8770.86
589.925	8810.63
590.284	8803.62
590.643	8868.26
591.003	8831.19
591.362	8851.76
591.721	8870.52
592.08	8899.89
592.44	8907.12
592.799	8910.06
593.158	8821.7
593.517	8874.36
593.876	8877.97
594.235	8828.71
594.593	8931.53
594.952	8822.16
595.311	8877.07
595.67	8854.92
596.029	8882.49
596.387	8883.62
596.746	8960
597.104	8895.6
597.463	8892.66
597.822	8974.47
598.18	8880.01
598.538	8918.88
598.897	8936.95
599.255	8910.29
599.613	9065.99
599.972	8913.68
600.33	8995.71
600.688	8972.21
601.046	8931.76
601.404	9017.86
601.762	8987.8
602.12	9080.68
602.478	9057.18
602.836	9055.37
603.194	9042.04
603.552	9032.77
603.91	8996.61
604.268	8986.22
604.625	9025.09
604.983	9039.32
605.341	9001.81
605.698	9060.11
606.056	9127.68
606.413	9034.35
606.771	9100.34
607.128	9085.88
607.485	9077.06
607.843	8969.5
608.2	9110.74
608.557	9148.93
608.914	9158.64
609.272	9123.39
609.629	9173.33
609.986	9210.39
610.343	9133.33
610.7	9235.25
611.057	9182.37
611.414	9243.16
611.771	9240.45
612.127	9264.63
612.484	9222.82
612.841	9294.91
613.198	9207.68
613.554	9246.55
613.911	9375.36
614.267	9221.47
614.624	9295.14
614.98	9286.32
615.337	9268.25
615.693	9310.73
616.05	9343.95
616.406	9324.97
616.762	9225.31
617.118	9325.87
617.475	9319.54
617.831	9294.46
618.187	9301.01
618.543	9392.76
618.899	9419.43
619.255	9309.15
619.611	9363.16
619.967	9409.94
620.323	9377.85
620.678	9437.73
621.034	9382.37
621.39	9339.66
621.746	9287
622.101	9432.76
622.457	9339.2
622.812	9357.06
623.168	9371.29
623.523	9404.29
623.879	9480.67
624.234	9367.68
624.589	9454.68
624.945	9446.09
625.3	9448.35
625.655	9409.48
626.01	9372.42
626.365	9404.96
626.72	9458.52
627.075	9432.99
627.43	9266.44
627.785	9349.37
628.14	9380.11
628.495	9433.89
628.85	9317.28
629.205	9303.95
629.559	9370.39
629.914	9320.67
630.269	9371.07
630.623	9284.74
630.978	9315.48
631.332	9327.23
631.687	9327.45
632.041	9327.68
632.396	9292.65
632.75	9273.22
633.104	9197.29
633.459	9233.22
633.813	9220.56
634.167	9205.65
634.521	9263.73
634.875	9259.88
635.229	9247
635.583	9118.19
635.937	9154.58
636.291	9140.34
636.645	9154.58
636.999	9190.05
637.352	9179.21
637.706	9135.37
638.06	9096.05
638.413	9097.85
638.767	9069.38
639.121	9086.33
639.474	8988.48
639.828	9094.01
640.181	9063.5
640.534	9035.26
640.888	8943.73
641.241	9025.54
641.594	8957.74
641.947	8965.88
642.301	8978.08
642.654	8948.48
643.007	8957.29
643.36	8954.81
643.713	8982.83
644.066	8982.38
644.419	8985.77
644.771	8831.65
645.124	8797.52
645.477	8768.82
645.83	8695.38
646.182	8725.21
646.535	8674.14
646.888	8701.93
647.24	8624.87
647.593	8683.4
647.945	8627.36
648.298	8603.86
648.65	8663.52
649.002	8565.21
649.355	8633.23
649.707	8707.58
650.059	8682.72
650.411	8771.99
650.763	8760.46
651.115	8831.65
651.467	8849.95
651.819	8861.48
652.171	8717.75
652.523	8748.94
652.875	8763.63
653.227	8725.66
653.578	8809.05
653.93	8760.91
654.282	8778.31
654.633	8691.99
654.985	8770.4
655.337	8761.14
655.688	8755.94
656.039	8804.53
656.391	8834.58
656.742	8767.47
657.094	8743.29
657.445	8773.79
657.796	8764.98
658.147	8767.24
658.498	8771.76
658.849	8757.98
659.2	8691.54
659.551	8771.08
659.902	8774.02
660.253	8754.36
660.604	8780.57
660.955	8764.3
661.306	8727.02
661.656	8791.65
662.007	8850.63
662.358	8816.96
662.708	8778.54
663.059	8745.55
663.409	8731.31
663.76	8789.61
664.11	8805.88
664.461	8787.81
664.811	8808.6
665.161	8809.5
665.511	8781.03
665.862	8830.06
666.212	8861.93
666.562	8804.53
666.912	8786.45
667.262	8835.71
667.612	8822.16
667.962	8830.52
668.312	8799.33
668.662	8797.75
669.011	8785.55
669.361	8851.08
669.711	8767.24
670.06	8755.49
670.41	8763.17
670.76	8725.89
671.109	8684.76
671.459	8732.21
671.808	8691.54
672.157	8741.03
672.507	8733.34
672.856	8710.75
673.205	8689.5
673.554	8708.71
673.904	8682.72
674.253	8738.77
674.602	8639.11
674.951	8613.57
675.3	8555.27
675.649	8625.55
675.998	8629.62
676.346	8641.59
676.695	8656.74
677.044	8631.88
677.393	8577.19
677.741	8669.84
678.09	8550.98
678.438	8565.44
678.787	8596.17
679.135	8631.88
679.484	8558.43
679.832	8575.83
680.181	8529.73
680.529	8558.66
680.877	8513.69
681.225	8545.1
681.573	8537.64
681.922	8472.56
682.27	8450.87
682.618	8396.18
682.966	8441.37
683.314	8361.83
683.661	8390.98
684.009	8366.35
684.357	8366.35
684.705	8311.21
685.053	8371.55
685.4	8315.73
685.748	8258.78
686.095	8304.43
686.443	8276.41
686.79	8218.56
687.138	8221.04
687.485	8242.96
687.832	8197.76
688.18	8192.12
688.527	8184.43
688.874	8154.83
689.221	8133.36
689.568	8107.82
689.915	7989.18
690.262	8045
690.609	8004.78
690.956	7979.92
691.303	7962.52
691.65	7951.44
691.997	7902.63
692.344	7845.91
692.69	7857.21
693.037	7867.83
693.383	7866.02
693.73	7834.16
694.077	7806.36
694.423	7762.52
694.769	7798
695.116	7679.81
695.462	7660.83
695.808	7648.63
696.155	7712.13
696.501	7616.99
696.847	7626.03
697.193	7522.75
697.539	7514.62
697.885	7560.72
698.231	7398.24
698.577	7451.8
698.923	7412.02
699.269	7433.49
699.614	7320.5
699.96	7306.49
700.306	7351.46
700.651	7238.69
700.997	7275.08
701.342	7252.25
701.688	7254.96
702.033	7262.2
702.379	7239.6
702.724	7161.86
703.069	7231.91
703.415	7082.54
703.76	7148.07
704.105	7145.14
704.45	7104.46
704.795	7095.42
705.14	7038.25
705.485	7048.64
705.83	6981.3
706.175	6975.65
706.52	6979.27
706.865	6893.84
707.209	6913.5
707.554	6910.34
707.899	6866.05
708.243	6839.61
708.588	6831.25
708.932	6802.77
709.277	6805.26
709.621	6783.79
709.966	6741.53
710.31	6740.18
710.654	6614.53
710.998	6777.46
711.342	6649.56
711.687	6675.09
712.031	6677.58
712.375	6661.76
712.719	6671.7
713.063	6607.52
713.407	6651.82
713.75	6584.93
714.094	6582.21
714.438	6533.4
714.782	6600.74
715.125	6528.43
715.469	6574.08
715.812	6450.69
716.156	6450.47
716.499	6463.57
716.843	6496.11
717.186	6395.78
717.53	6480.52
717.873	6474.42
718.216	6454.76
718.559	6395.1
718.902	6372.95
719.246	6394.87
719.589	6419.73
719.932	6297.7
720.275	6373.86
720.617	6357.36
720.96	6352.39
721.303	6355.1
721.646	6372.73
721.989	6278.72
722.331	6288.21
722.674	6338.38
723.016	6325.72
723.359	6274.2
723.701	6305.16
724.044	6258.61
724.386	6231.49
724.729	6252.96
725.071	6226.07
725.413	6216.8
725.755	6259.96
726.097	6179.29
726.439	6230.58
726.782	6182.68
727.124	6259.06
727.465	6222.45
727.807	6222.9
728.149	6205.05
728.491	6192.85
728.833	6190.81
729.175	6176.57
729.516	6143.58
729.858	6163.47
730.199	6250.7
730.541	6207.31
730.882	6132.28
731.224	6211.15
731.565	6118.05
731.906	6135.67
732.248	6111.27
732.589	6099.74
732.93	6099.51
733.271	6137.03
733.612	6159.17
733.953	6145.62
734.294	6127.76
734.635	6142
734.976	6153.52
735.317	6088.89
735.658	6093.19
735.999	6117.14
736.339	6150.81
736.68	6153.07
737.021	6137.25
737.361	6115.79
737.702	6170.25
738.042	6063.13
738.383	6069.01
738.723	6103.58
739.063	6109.46
739.404	6169.12
739.744	6227.2
740.084	6122.57
740.424	6152.17
740.764	6179.74
741.104	6181.32
741.444	6192.85
741.784	6215.22
742.124	6215.44
742.464	6229.23
742.804	6231.26
743.143	6184.71
743.483	6190.36
743.823	6226.29
744.162	6247.76
744.502	6274.88
744.841	6234.65
745.181	6284.59
745.52	6292.73
745.86	6327.76
746.199	6319.17
746.538	6422.22
746.877	6381.54
747.216	6485.49
747.556	6446.4
747.895	6486.85
748.234	6516
748.573	6481.2
748.911	6556.23
749.25	6594.42
749.589	6594.87
749.928	6670.35
750.267	6691.59
750.605	6733.4
750.944	6831.47
751.283	6856.33
751.621	6923.45
751.96	6961.64
752.298	6981.3
752.636	7118.25
752.975	7143.1
753.313	7130.67
753.651	7246.6
753.989	7342.42
754.327	7388.75
754.666	7428.52
755.004	7567.5
755.342	7688.85
755.679	7740.6
756.017	7712.81
756.355	7900.15
756.693	7943.99
757.031	8026.7
757.368	8124.32
757.706	8223.98
758.044	8248.61
758.381	8405.44
758.719	8451.54
759.056	8573.57
759.394	8642.05
759.731	8752.1
760.068	8793.91
760.405	8982.6
760.743	8989.83
761.08	9190.73
761.417	9210.17
761.754	9365.64
762.091	9397.51
762.428	9520.67
762.765	9631.4
763.102	9737.39
763.438	9801.11
763.775	9869.36
764.112	9992.07
764.449	10175.79
764.785	10226.64
765.122	10210.59
765.458	10335.11
765.795	10450.36
766.131	10547.76
766.467	10626.18
766.804	10725.83
767.14	10734.65
767.476	10981.19
767.812	11030.91
768.148	11028.88
768.485	11026.16
768.821	11103.68
769.157	11195.88
769.492	11204.92
769.828	11402.65
770.164	11344.8
770.5	11454.18
770.836	11566.94
771.171	11545.7
771.507	11497.34
771.842	11559.03
772.178	11722.42
772.513	11753.15
772.849	11797.44
773.184	11731.68
773.519	11823.88
773.855	11916.54
774.19	12026.14
774.525	11901.4
774.86	11978.68
775.195	12049.41
775.53	12015.07
775.865	12066.36
776.2	12026.82
776.535	12031.11
776.87	12086.25
777.205	12053.26
777.539	12091.22
777.874	12154.95
778.209	12070.88
778.543	12155.4
778.878	12032.01
779.212	12058.23
779.547	12152.46
779.881	12118.57
780.215	12093.03
780.55	12204.66
780.884	12156.76
781.218	12172.12
781.552	12122.86
781.886	12114.72
782.22	12068.17
782.554	12112.46
782.888	12047.83
783.222	11993.37
783.556	12010.55
783.889	11948.4
784.223	11945.46
784.557	11960.6
784.89	12053.93
785.224	11945.01
785.557	11948.17
785.891	11951.79
786.224	11923.77
786.558	11920.15
786.891	11809.65
787.224	11833.6
787.557	11806.71
787.891	11798.8
788.224	11844.45
788.557	11878.57
788.89	11802.64
789.223	11803.09
789.556	11773.26
789.888	11708.18
790.221	11754.73
790.554	11603.55
790.887	11627.05
791.219	11625.47
791.552	11639.48
791.884	11659.14
792.217	11593.61
792.549	11587.51
792.882	11489.2
793.214	11436.1
793.546	11506.15
793.879	11375.99
794.211	11382.54
794.543	11409.21
794.875	11404.46
795.207	11416.66
795.539	11302.77
795.871	11394.06
796.203	11221.64
796.535	11231.13
796.867	11219.15
797.198	11196.1
797.53	11183
797.862	11120.4
798.193	11162.43
798.525	11038.37
798.856	11165.6
799.188	10997.24
799.519	10974.41
799.85	10860.29
800.182	10998.59
800.513	10954.08
800.844	10848.99
801.175	10884.93
801.506	10865.04
801.837	10846.51
802.168	10840.41
802.499	10800.41
802.83	10790.92
803.161	10679.96
803.491	10719.96
803.822	10684.7
804.153	10738.71
804.483	10607.87
804.814	10593.41
805.145	10550.92
805.475	10498.5
805.805	10460.76
806.136	10517.7
806.466	10503.92
806.796	10457.37
807.126	10431.6
807.457	10406.52
807.787	10426.41
808.117	10389.35
808.447	10294.66
808.777	10360.87
809.107	10338.05
809.436	10238.16
809.766	10272.74
810.096	10218.95
810.426	10195
810.755	10204.49
811.085	10147.54
811.414	10139.41
811.744	10074.78
812.073	10093.31
812.403	10159.07
812.732	10055.79
813.061	10073.65
813.39	10035.23
813.719	9932.41
814.049	9987.32
814.378	9959.3
814.707	9961.56
815.036	9949.36
815.365	9910.94
815.693	9782.58
816.022	9865.52
816.351	9764.5
816.68	9711.85
817.008	9856.03
817.337	9698.06
817.665	9687.67
817.994	9712.75
818.322	9737.61
818.651	9682.92
818.979	9562.25
819.307	9626.88
819.636	9672.75
819.964	9562.7
820.292	9605.41
820.62	9596.15
820.948	9601.12
821.276	9595.69
821.604	9623.72
821.932	9571.97
822.259	9623.26
822.587	9500.33
822.915	9525.19
823.243	9524.96
823.57	9549.14
823.898	9570.16
824.225	9523.83
824.553	9496.26
824.88	9553.89
825.207	9591.17
825.535	9599.99
825.862	9509.59
826.189	9516.15
826.516	9556.82
826.843	9610.83
827.17	9628.24
827.497	9564.73
827.824	9560.21
828.151	9619.65
828.478	9571.97
828.805	9623.26
829.131	9569.71
829.458	9571.29
829.785	9468.69
830.111	9504.17
830.438	9618.97
830.764	9626.88
831.09	9599.99
831.417	9542.14
831.743	9573.1
832.069	9530.61
832.395	9542.36
832.722	9595.47
833.048	9541.46
833.374	9531.97
833.7	9480.67
834.026	9522.48
834.351	9519.76
834.677	9495.13
835.003	9512.53
835.329	9554.57
835.654	9474.57
835.98	9409.71
836.306	9425.53
836.631	9472.99
836.956	9422.59
837.282	9382.37
837.607	9399.32
837.932	9384.17
838.258	9377.85
838.583	9360.67
838.908	9313.22
839.233	9324.74
839.558	9329.71
839.883	9306.66
840.208	9258.53
840.533	9241.81
840.858	9278.41
841.182	9271.18
841.507	9217.4
841.832	9207.91
842.156	9187.57
842.481	9153.22
842.805	9151.64
843.13	9163.84
843.454	9118.64
843.778	9058.08
844.103	9047.69
844.427	9030.96
844.751	9028.03
845.075	8989.61
845.399	9020.34
845.723	8979.44
846.047	8993.68
846.371	8950.51
846.695	8923.4
847.019	8848.82
847.343	8798.2
847.666	8742.16
847.99	8703.74
848.313	8703.51
848.637	8620.35
848.96	8635.27
849.284	8569.28
849.607	8551.2
849.931	8538.77
850.254	8483.18
850.577	8480.47
850.9	8403.86
851.223	8390.3
851.546	8383.97
851.869	8283.41
852.192	8311.89
852.515	8219.69
852.838	8214.26
853.161	8212.68
853.483	8164.55
853.806	8174.71
854.129	8159.57
854.451	8099.69
854.774	8052.68
855.096	7971.33
855.419	8070.08
855.741	8033.93
856.063	7983.76
856.385	7980.82
856.708	7997.54
857.03	7939.47
857.352	7945.79
857.674	7891.56
857.996	7858.11
858.318	7738.79
858.64	7816.08
858.961	7768.17
859.283	7752.35
859.605	7759.58
859.926	7721.39
860.248	7689.53
860.57	7701.96
860.891	7654.28
861.212	7623.54
861.534	7626.71
861.855	7585.35
862.176	7538.57
862.498	7601.85
862.819	7588.74
863.14	7555.75
863.461	7607.72
863.782	7525.01
864.103	7532.02
864.424	7529.08
864.745	7474.39
865.065	7459.7
865.386	7422.64
865.707	7445.24
866.027	7424.9
866.348	7403.21
866.668	7339.03
866.989	7344.68
867.309	7388.29
867.63	7332.93
867.95	7351.91
868.27	7342.19
868.59	7333.83
868.91	7304
869.23	7338.13
869.55	7294.74
869.87	7278.69
870.19	7354.85
870.51	7274.4
870.83	7238.24
871.15	7201.41
871.469	7257.22
871.789	7227.39
872.109	7236.89
872.428	7194.63
872.748	7244.34
873.067	7183.1
873.386	7193.05
873.706	7232.82
874.025	7118.7
874.344	7115.31
874.663	7115.99
874.982	7096.78
875.301	7099.94
875.62	7104.91
875.939	7101.3
876.258	7075.99
876.577	7035.99
876.896	7079.6
877.214	7035.76
877.533	6998.25
877.852	6985.82
878.17	6983.56
878.489	7013.62
878.807	6979.72
879.125	7010.23
879.444	6973.62
879.762	6943.33
880.08	6916.44
880.398	6919.83
880.716	6925.71
881.034	6885.03
881.352	6892.49
881.67	6916.67
881.988	6914.41
882.306	6877.57
882.624	6796.9
882.941	6774.07
883.259	6742.44
883.577	6737.69
883.894	6737.46
884.212	6736.11
884.529	6760.29
884.846	6714.64
885.164	6718.71
885.481	6671.03
885.798	6701.08
886.115	6598.26
886.432	6644.59
886.75	6638.26
887.067	6606.17
887.383	6567.07
887.7	6596.9
888.017	6560.07
888.334	6530.69
888.651	6511.03
888.967	6543.12
889.284	6492.05
889.6	6479.84
889.917	6382.45
890.233	6445.04
890.55	6425.16
890.866	6407.08
891.182	6440.07
891.498	6322.56
891.815	6359.85
892.131	6358.49
892.447	6291.6
892.763	6280.07
893.079	6273.07
893.395	6249.57
893.71	6211.83
894.026	6244.14
894.342	6229.68
894.657	6166.86
894.973	6197.37
895.289	6177.25
895.604	6134.09
895.92	6092.28
896.235	6118.5
896.55	6036.47
896.865	6089.57
897.181	6020.19
897.496	6026.52
897.811	6013.64
898.126	5953.3
898.441	5953.3
898.756	5944.94
899.071	5962.12
899.386	5924.15
899.7	5872.63
900.015	5819.07
900.33	5754.89
900.644	5850.26
900.959	5781.56
901.273	5781.11
901.588	5757.38
901.902	5725.29
902.216	5736.36
902.531	5705.85
902.845	5702.24
903.159	5623.37
903.473	5604.84
903.787	5586.31
904.101	5590.15
904.415	5564.16
904.729	5555.57
905.042	5486.88
905.356	5528
905.67	5527.55
905.984	5458.63
906.297	5433.77
906.611	5452.98
906.924	5378.63
907.237	5408.01
907.551	5389.02
907.864	5388.35
908.177	5373.88
908.491	5341.12
908.804	5296.82
909.117	5287.56
909.43	5222.48
909.743	5184.06
910.056	5254.57
910.368	5186.09
910.681	5127.79
910.994	5158.52
911.307	5127.11
911.619	5083.27
911.932	5106.55
912.244	5073.78
912.557	5045.31
912.869	4971.41
913.181	5016.15
913.494	4993.33
913.806	4962.14
914.118	4908.36
914.43	4927.12
914.742	4903.61
915.054	4866.55
915.366	4862.26
915.678	4862.49
915.99	4829.27
916.302	4776.16
916.613	4826.33
916.925	4798.08
917.236	4720.57
917.548	4700.23
917.859	4744.52
918.171	4756.27
918.482	4661.36
918.794	4642.6
919.105	4630.85
919.416	4619.55
919.727	4595.6
920.038	4566
920.349	4563.06
920.66	4562.38
920.971	4542.49
921.282	4528.93
921.593	4494.59
921.903	4474.25
922.214	4470.63
922.525	4423.4
922.835	4395.15
923.146	4430.86
923.456	4410.75
923.767	4387.24
924.077	4389.96
924.387	4379.11
924.697	4347.7
925.008	4352.89
925.318	4283.74
925.628	4315.15
925.938	4222.5
926.248	4248.26
926.558	4215.5
926.867	4203.07
927.177	4184.76
927.487	4139.34
927.796	4135.95
928.106	4137.53
928.416	4149.51
928.725	4121.94
929.034	4085.78
929.344	4086.91
929.653	4107.48
929.962	4071.77
930.271	4045.56
930.581	4038.55
930.89	3965.79
931.199	3995.84
931.508	3946.35
931.817	3968.72
932.125	3922.17
932.434	3930.76
932.743	3920.59
933.051	3865.9
933.36	3830.2
933.669	3851.21
933.977	3860.03
934.286	3815.28
934.594	3793.13
934.902	3766.92
935.21	3728.05
935.519	3771.21
935.827	3793.13
936.135	3761.95
936.443	3710.65
936.751	3685.34
937.059	3654.83
937.367	3676.53
937.674	3652.12
937.982	3679.47
938.29	3634.27
938.597	3643.53
938.905	3599.02
939.213	3556.76
939.52	3596.08
939.827	3525.12
940.135	3529.19
940.442	3519.7
940.749	3512.69
941.056	3543.88
941.363	3458.68
941.67	3479.24
941.977	3479.7
942.284	3455.06
942.591	3422.75
942.898	3454.39
943.205	3401.51
943.511	3403.99
943.818	3377.55
944.125	3361.51
944.431	3336.2
944.738	3328.51
945.044	3342.07
945.35	3310.66
945.657	3294.39
945.963	3264.79
946.269	3229.76
946.575	3260.27
946.881	3236.99
947.187	3235.18
947.493	3216.88
947.799	3196.99
948.105	3192.7
948.41	3185.47
948.716	3172.36
949.022	3149.76
949.327	3121.74
949.633	3109.54
949.938	3143.21
950.244	3136.88
950.549	3084.23
950.854	3069.54
951.16	3071.57
951.465	3041.06
951.77	3041.29
952.075	3026.15
952.38	3007.62
952.685	3014.17
952.99	2958.58
953.294	2961.97
953.599	3003.1
953.904	2909.77
954.209	2910.22
954.513	2919.94
954.818	2879.49
955.122	2881.52
955.426	2907.28
955.731	2893.05
956.035	2850.11
956.339	2873.16
956.643	2846.72
956.948	2833.16
957.252	2818.92
957.556	2833.84
957.86	2784.8
958.163	2758.59
958.467	2752.26
958.771	2720.62
959.075	2771.47
959.378	2737.12
959.682	2754.52
959.985	2706.84
960.289	2660.51
960.592	2690.11
960.896	2664.12
961.199	2655.31
961.502	2662.09
961.805	2600.85
962.108	2633.17
962.411	2648.98
962.714	2592.26
963.017	2583.22
963.32	2604.92
963.623	2569.21
963.926	2596.56
964.228	2557.01
964.531	2580.74
964.833	2563.79
965.136	2542.09
965.438	2506.61
965.741	2526.28
966.043	2514.07
966.345	2506.16
966.648	2471.81
966.95	2474.3
967.252	2452.61
967.554	2470.23
967.856	2469.78
968.158	2422.1
968.46	2418.03
968.761	2386.84
969.063	2432.04
969.365	2371.48
969.666	2383
969.968	2359.05
970.269	2360.63
970.571	2349.1
970.872	2361.53
971.174	2311.59
971.475	2334.64
971.776	2336.68
972.077	2328.09
972.378	2311.37
972.679	2291.03
972.98	2301.42
973.281	2256
973.582	2258.49
973.883	2227.53
974.183	2257.36
974.484	2221.88
974.785	2244.25
975.085	2215.78
975.386	2197.7
975.686	2202.44
975.986	2177.13
976.287	2174.65
976.587	2170.58
976.887	2152.73
977.187	2151.82
977.487	2171.93
977.787	2123.57
978.087	2101.65
978.387	2097.59
978.687	2070.24
978.987	2100.98
979.286	2094.87
979.586	2084.93
979.885	2044.48
980.185	2050.13
980.484	2035.89
980.784	2037.02
981.083	2020.3
981.382	2019.4
981.682	2010.81
981.981	2015.1
982.28	2004.71
982.579	1994.76
982.878	2032.5
983.177	1962.67
983.475	1976.46
983.774	1938.72
984.073	1971.04
984.372	1939.62
984.67	1953.86
984.969	1928.33
985.267	1918.61
985.566	1922.9
985.864	1889.68
986.162	1924.26
986.461	1889.68
986.759	1883.35
987.057	1875.9
987.355	1841.1
987.653	1868.44
987.951	1846.52
988.249	1844.03
988.547	1825.28
988.844	1808.55
989.142	1804.03
989.44	1797.71
989.737	1783.47
990.035	1779.63
990.332	1762.91
990.63	1773.75
990.927	1795.9
991.224	1776.46
991.521	1748.89
991.819	1742.12
992.116	1733.08
992.413	1715.9
992.71	1724.04
993.006	1728.1
993.303	1711.61
993.6	1687.65
993.897	1690.59
994.193	1699.86
994.49	1729.69
994.787	1661.21
995.083	1646.3
995.379	1617.6
995.676	1651.72
995.972	1631.16
996.268	1630.48
996.565	1590.93
996.861	1613.98
997.157	1625.96
997.453	1611.27
997.749	1596.36
998.044	1576.02
998.34	1603.59
998.636	1575.11
998.932	1578.28
999.227	1545.28
999.523	1569.69
999.818	1554.1
1000.114	1537.37
1000.409	1553.42
1000.704	1524.49
1001	1526.75
1001.295	1505.96
1001.59	1514.78
1001.885	1493.76
1002.18	1477.04
1002.475	1513.42
1002.77	1475.91
1003.065	1456.92
1003.359	1434.1
1003.654	1434.1
1003.949	1468.45
1004.243	1478.85
1004.538	1411.73
1004.832	1430.48
1005.127	1455.8
1005.421	1404.72
1005.715	1431.84
1006.009	1416.02
1006.304	1386.87
1006.598	1367.44
1006.892	1358.62
1007.186	1361.11
1007.48	1358.85
1007.773	1336.93
1008.067	1366.08
1008.361	1322.92
1008.655	1336.02
1008.948	1326.08
1009.242	1319.53
1009.535	1280.66
1009.829	1297.83
1010.122	1322.69
1010.415	1270.26
1010.708	1267.78
1011.001	1272.52
1011.295	1270.04
1011.588	1256.03
1011.881	1252.18
1012.173	1243.37
1012.466	1211.28
1012.759	1239.53
1013.052	1226.87
1013.344	1237.04
1013.637	1217.61
1013.93	1227.55
1014.222	1221.22
1014.514	1192.75
1014.807	1193.88
1015.099	1184.62
1015.391	1164.05
1015.683	1163.6
1015.976	1168.12
1016.268	1139.65
1016.56	1143.03
1016.851	1119.08
1017.143	1152.3
1017.435	1121.79
1017.727	1115.24
1018.018	1102.36
1018.31	1107.78
1018.602	1100.55
1018.893	1092.87
1019.185	1077.95
1019.476	1087.22
1019.767	1077.5
1020.058	1084.05
1020.35	1049.25
1020.641	1058.52
1020.932	1081.57
1021.223	1026.2
1021.514	1022.81
1021.804	1043.38
1022.095	1037.27
1022.386	1005.41
1022.677	1017.84
1022.967	1031.63
1023.258	991.4
1023.548	1025.07
1023.839	1004.28
1024.129	988.24
1024.419	968.8
1024.709	970.84
1025	979.2
1025.29	975.81
1025.58	956.83
1025.87	965.64
1026.16	955.47
1026.449	981.01
1026.739	941.01
1027.029	927
1027.319	922.7
1027.608	938.75
1027.898	906.66
1028.187	909.14
1028.477	915.92
1028.766	902.36
1029.055	899.2
1029.344	889.71
1029.634	879.54
1029.923	894
1030.212	875.7
1030.501	860.1
1030.79	860.78
1031.078	841.57
1031.367	873.66
1031.656	863.49
1031.945	847
1032.233	851.07
1032.522	844.74
1032.81	823.72
1033.099	837.28
1033.387	822.59
1033.675	812.2
1033.963	824.4
1034.251	820.78
1034.54	780.56
1034.828	791.18
1035.116	801.12
1035.403	800.45
1035.691	775.59
1035.979	798.86
1036.267	795.7
1036.554	771.52
1036.842	790.05
1037.129	766.32
1037.417	756.38
1037.704	738.53
1037.992	748.92
1038.279	726.32
1038.566	769.71
1038.853	769.71
1039.14	769.71
