Data from hue_110_FLMS001491_00041.txt Node
Date: Tue Feb 07 17:01:21 GMT 2017
User: dcchb
Spectrometer: FLMS00149
Trigger mode: 0
Integration Time (sec): 2.000000E-2
Scans to average: 10
Electric dark correction enabled: true
Nonlinearity correction enabled: false
Boxcar width: 0
XAxis mode: Wavelengths
Number of Pixels in Spectrum: 2048
>>>>>Begin Spectral Data<<<<<
341.393	3.05
341.776	3.05
342.16	3.05
342.543	-69.04
342.927	-57.51
343.31	-67.23
343.693	-79.21
344.077	-74.01
344.46	-51.64
344.843	-52.99
345.226	-40.34
345.61	-23.16
345.993	-35.14
346.376	-21.36
346.759	4.18
347.142	14.35
347.525	37.17
347.908	76.04
348.291	80.11
348.674	104.29
349.057	128.92
349.44	114.91
349.823	146.1
350.206	168.47
350.588	193.78
350.971	241.01
351.354	222.25
351.737	240.56
352.119	255.93
352.502	245.08
352.884	292.53
353.267	297.73
353.65	290.27
354.032	326.21
354.414	311.52
354.797	328.01
355.179	310.16
355.562	330.5
355.944	343.61
356.326	337.96
356.709	342.25
357.091	322.36
357.473	333.44
357.855	343.38
358.238	340.89
358.62	341.8
359.002	338.64
359.384	353.78
359.766	341.57
360.148	337.28
360.53	333.44
360.912	338.18
361.294	346.54
361.676	339.54
362.057	342.93
362.439	341.35
362.821	333.21
363.203	329.14
363.584	346.32
363.966	313.55
364.348	324.62
364.729	324.17
365.111	328.47
365.493	354.68
365.874	328.47
366.256	332.31
366.637	344.28
367.019	322.36
367.4	338.18
367.781	321.91
368.163	316.49
368.544	316.26
368.925	326.66
369.306	341.8
369.688	325.98
370.069	315.58
370.45	292.53
370.831	323.27
371.212	332.53
371.593	331.4
371.974	325.3
372.355	326.43
372.736	318.52
373.117	310.84
373.498	324.85
373.879	316.94
374.26	328.24
374.641	323.27
375.021	295.02
375.402	330.95
375.783	333.89
376.163	329.6
376.544	328.92
376.925	347.22
377.305	350.39
377.686	329.37
378.066	337.73
378.447	339.09
378.827	343.83
379.208	331.63
379.588	315.58
379.968	346.54
380.349	326.43
380.729	348.58
381.109	342.25
381.489	343.38
381.87	334.57
382.25	339.09
382.63	344.06
383.01	357.17
383.39	361.23
383.77	368.69
384.15	363.49
384.53	344.96
384.91	355.36
385.29	375.7
385.67	363.27
386.049	358.75
386.429	366.43
386.809	366.88
387.189	361.46
387.568	374.79
387.948	369.59
388.328	370.05
388.707	375.24
389.087	369.59
389.466	388.35
389.846	366.66
390.225	389.03
390.605	374.57
390.984	381.57
391.363	377.28
391.743	395.36
392.122	377.5
392.501	403.49
392.881	361.01
393.26	398.29
393.639	368.24
394.018	392.87
394.397	389.71
394.776	400.1
395.155	406.66
395.534	391.29
395.913	390.16
396.292	401.23
396.671	391.74
397.05	401.68
397.429	421.12
397.808	431.74
398.186	406.2
398.565	418.86
398.944	427.22
399.323	442.81
399.701	426.54
400.08	428.35
400.458	407.56
400.837	408.46
401.215	422.47
401.594	425.64
401.972	411.63
402.351	425.41
402.729	438.29
403.107	437.62
403.486	433.55
403.864	429.93
404.242	437.84
404.62	455.02
404.999	456.82
405.377	432.19
405.755	438.75
406.133	455.69
406.511	450.04
406.889	463.15
407.267	450.95
407.645	456.37
408.023	450.04
408.401	469.71
408.779	479.87
409.156	469.48
409.534	458.63
409.912	488.46
410.29	481.68
410.667	477.84
411.045	500.21
411.422	488.24
411.8	505.64
412.178	485.98
412.555	505.41
412.933	517.16
413.31	523.04
413.687	522.59
414.065	511.06
414.442	527.1
414.819	540.21
415.197	544.05
415.574	538.4
415.951	551.28
416.328	534.11
416.705	565.07
417.082	557.16
417.46	547.22
417.837	554.67
418.214	561.23
418.591	578.4
418.967	551.96
419.344	582.47
419.721	582.7
420.098	581.79
420.475	569.14
420.852	598.74
421.228	625.63
421.605	581.11
421.982	606.88
422.358	604.84
422.735	598.74
423.111	593.32
423.488	619.08
423.864	608.23
424.241	626.09
424.617	623.6
424.994	626.76
425.37	629.02
425.746	641.23
426.123	637.61
426.499	638.97
426.875	625.41
427.251	652.98
427.627	657.5
428.003	665.41
428.379	662.92
428.756	689.36
429.132	697.95
429.507	714.9
429.883	724.16
430.259	712.64
430.635	719.42
431.011	711.28
431.387	724.39
431.763	733.2
432.138	742.01
432.514	753.54
432.89	744.27
433.265	733.43
433.641	769.36
434.016	776.82
434.392	776.82
434.767	785.4
435.143	811.17
435.518	826.08
435.894	810.26
436.269	842.58
436.644	812.97
437.02	824.5
437.395	846.87
437.77	845.97
438.145	877.6
438.52	854.78
438.895	885.29
439.271	858.85
439.646	873.08
440.021	880.54
440.395	883.03
440.77	897.72
441.145	880.09
441.52	907.89
441.895	912.41
442.27	931.39
442.645	941.33
443.019	930.26
443.394	930.94
443.769	931.39
444.143	943.59
444.518	972.74
444.892	949.47
445.267	989.92
445.641	989.01
446.016	957.6
446.39	975
446.764	990.37
447.139	997.83
447.513	1017.49
447.887	1027.43
448.262	1014.32
448.636	1000.31
449.01	1008.45
449.384	1033.53
449.758	1066.07
450.132	1055.9
450.506	1059.97
450.88	1083.7
451.254	1065.4
451.628	1076.92
452.002	1098.16
452.376	1100.65
452.75	1108.33
453.123	1130.25
453.497	1144.04
453.871	1170.93
454.244	1196.69
454.618	1200.76
454.992	1205.28
455.365	1172.74
455.739	1221.1
456.112	1242.79
456.486	1229.46
456.859	1260.42
457.232	1310.59
457.606	1294.99
457.979	1300.87
458.352	1310.14
458.725	1323.47
459.099	1342.22
459.472	1367.99
459.845	1377.7
460.218	1431.26
460.591	1411.38
460.964	1432.84
461.337	1456.12
461.71	1470.58
462.083	1518.27
462.456	1507.19
462.829	1488.44
463.201	1559.17
463.574	1560.07
463.947	1588.09
464.32	1607.53
464.692	1632.16
465.065	1652.72
465.438	1664.93
465.81	1711.48
466.183	1723.46
466.555	1760.29
466.928	1765.72
467.3	1810.23
467.672	1804.59
468.045	1866.05
468.417	1880.06
468.789	1910.8
469.161	1957.8
469.534	1988.99
469.906	2032.38
470.278	2030.57
470.65	2081.64
471.022	2132.94
471.394	2188.98
471.766	2241.64
472.138	2274.4
472.51	2316.66
472.882	2375.64
473.253	2390.78
473.625	2440.05
473.997	2548.75
474.369	2549.65
474.74	2620.84
475.112	2685.92
475.484	2734.28
475.855	2809.76
476.227	2827.38
476.598	2939.24
476.97	3026.7
477.341	3086.36
477.713	3181.27
478.084	3269.41
478.455	3390.98
478.827	3430.76
479.198	3591.43
479.569	3586.01
479.94	3714.59
480.311	3804.98
480.682	3953.46
481.053	4046.11
481.424	4158.65
481.795	4237.06
482.166	4337.4
482.537	4474.57
482.908	4621.69
483.279	4719.99
483.65	4830.27
484.021	4998.63
484.391	5105.29
484.762	5195.91
485.133	5327.2
485.503	5481.32
485.874	5683.58
486.244	5814.88
486.615	5927.41
486.985	6077.92
487.356	6292.38
487.726	6380.06
488.097	6566.04
488.467	6670.22
488.837	6896.88
489.207	7075.18
489.578	7196.31
489.948	7373.93
490.318	7520.82
490.688	7630.87
491.058	7814.82
491.428	8101.59
491.798	8260.46
492.168	8373.45
492.538	8542.26
492.908	8704.29
493.278	8976.83
493.648	9007.56
494.017	9231.28
494.387	9359.19
494.757	9539.98
495.126	9621.55
495.496	9770.7
495.866	9991.26
496.235	10156
496.605	10228.32
496.974	10391.25
497.344	10513.73
497.713	10660.85
498.082	10878.92
498.452	11008.41
498.821	11143.77
499.19	11285.69
499.559	11330.66
499.928	11520.94
500.298	11624.89
500.667	11760.03
501.036	11860.82
501.405	12023.07
501.774	12049.97
502.143	12226.46
502.512	12296.06
502.88	12492.67
503.249	12576.96
503.618	12630.74
503.987	12746.44
504.356	12928.59
504.724	13004.06
505.093	13028.25
505.462	13167.22
505.83	13220.33
506.199	13369.93
506.567	13626.42
506.936	13536.48
507.304	13707.55
507.672	13783.48
508.041	13921.1
508.409	13987.99
508.777	13999.97
509.145	14200.64
509.514	14215.56
509.882	14341.43
510.25	14415.78
510.618	14447.42
510.986	14451.71
511.354	14661.87
511.722	14731.03
512.09	14830.01
512.458	14855.99
512.826	14949.55
513.193	15037.91
513.561	15048.98
513.929	15148.19
514.297	15232.93
514.664	15366.26
515.032	15375.98
515.4	15364
515.767	15497.11
516.135	15475.19
516.502	15370.1
516.869	15697.1
517.237	15712.69
517.604	15651.68
517.972	15782.75
518.339	15806.48
518.706	15820.04
519.073	15910.43
519.44	15987.94
519.808	16075.62
520.175	16000.37
520.542	16166.02
520.909	16143.87
521.276	16140.48
521.643	16358.78
522.009	16296.18
522.376	16428.16
522.743	16441.94
523.11	16621.82
523.477	16648.04
523.843	16737.75
524.21	16823.17
524.577	16790.63
524.943	16889.16
525.31	16942.94
525.676	16990.63
526.043	16965.54
526.409	17055.94
526.776	17186.1
527.142	17117.85
527.508	17189.27
527.874	17192.88
528.241	17214.8
528.607	17221.13
528.973	17347.23
529.339	17268.59
529.705	17440.11
530.071	17417.73
530.437	17389.49
530.803	17376.61
531.169	17486.21
531.535	17415.25
531.901	17368.7
532.267	17402.59
532.632	17478.98
532.998	17415.02
533.364	17467.45
533.73	17471.74
534.095	17500.44
534.461	17447.56
534.826	17531.4
535.192	17477.39
535.557	17562.82
535.923	17523.95
536.288	17528.24
536.653	17366.44
537.019	17387.23
537.384	17355.81
537.749	17378.19
538.114	17344.97
538.479	17262.03
538.845	17360.56
539.21	17190.62
539.575	17173.22
539.94	17248.47
540.305	17134.35
540.67	17133
541.034	17157.18
541.399	17082.6
541.764	17096.39
542.129	17020.46
542.494	16971.64
542.858	17034.02
543.223	16940.46
543.587	17072.43
543.952	16897.75
544.316	16860.23
544.681	16859.78
545.045	16810.52
545.41	16834.02
545.774	16847.81
546.138	16779.78
546.503	16693.01
546.867	16606.46
547.231	16774.81
547.595	16635.61
547.959	16568.94
548.324	16542.05
548.688	16521.49
549.052	16485.33
549.416	16495.5
549.779	16405.33
550.143	16422.73
550.507	16482.84
550.871	16441.94
551.235	16313.58
551.599	16413.92
551.962	16291.66
552.326	16255.5
552.689	16274.49
553.053	16121.5
553.417	16196.07
553.78	16309.74
554.143	16155.85
554.507	16083.53
554.87	16130.99
555.234	16199.69
555.597	16099.35
555.96	16107.49
556.323	16125.56
556.686	16076.07
557.05	16076.3
557.413	16065.45
557.776	16107.03
558.139	16056.64
558.502	16045.11
558.865	16006.25
559.228	16050.31
559.59	16076.98
559.953	15986.13
560.316	16146.58
560.679	16104.1
561.041	16229.29
561.404	16095.96
561.767	16195.62
562.129	16084.89
562.492	16135.51
562.854	16094.61
563.217	16172.57
563.579	16231.32
563.941	16130.54
564.304	16217.77
564.666	16272.68
565.028	16204.66
565.39	16250.31
565.753	16270.42
566.115	16318.33
566.477	16232.23
566.839	16301.83
567.201	16398.55
567.563	16344.54
567.925	16432.22
568.287	16351.1
568.648	16309.51
569.01	16424.77
569.372	16464.54
569.734	16440.36
570.095	16394.26
570.457	16507.7
570.819	16575.5
571.18	16498.89
571.542	16472.22
571.903	16500.92
572.265	16599.68
572.626	16567.36
572.987	16598.32
573.349	16594.25
573.71	16586.57
574.071	16646
574.432	16710.41
574.794	16726.9
575.155	16651.88
575.516	16585.89
575.877	16705.21
576.238	16740.24
576.599	16733.23
576.96	16646.91
577.32	16686.91
577.681	16749.5
578.042	16827.24
578.403	16759.9
578.763	16720.8
579.124	16721.48
579.485	16769.84
579.845	16782.27
580.206	16773.68
580.566	16725.1
580.927	16721.03
581.287	16830.18
581.648	16792.44
582.008	16798.77
582.368	16721.71
582.728	16729.62
583.089	16704.08
583.449	16734.59
583.809	16691.43
584.169	16712.44
584.529	16629.05
584.889	16787.69
585.249	16636.74
585.609	16576.63
585.969	16623.18
586.329	16595.83
586.688	16692.1
587.048	16641.71
587.408	16598.32
587.768	16597.87
588.127	16562.39
588.487	16566.23
588.846	16639.68
589.206	16505.67
589.565	16501.15
589.925	16566.68
590.284	16448.27
590.643	16573.91
591.003	16542.05
591.362	16429.06
591.721	16504.99
592.08	16448.95
592.44	16578.66
592.799	16502.05
593.158	16398.33
593.517	16359.23
593.876	16416.18
594.235	16343.19
594.593	16516.74
594.952	16466.35
595.311	16392
595.67	16372.56
596.029	16495.95
596.387	16495.72
596.746	16443.97
597.104	16416.86
597.463	16385.44
597.822	16344.09
598.18	16347.48
598.538	16308.61
598.897	16388.83
599.255	16260.93
599.613	16487.82
599.972	16297.76
600.33	16312.68
600.688	16315.16
601.046	16378.21
601.404	16382.96
601.762	16346.58
602.12	16456.86
602.478	16384.77
602.836	16479.45
603.194	16342.51
603.552	16370.08
603.91	16221.16
604.268	16322.85
604.625	16197.88
604.983	16375.5
605.341	16285.56
605.698	16337.99
606.056	16372.11
606.413	16389.06
606.771	16363.75
607.128	16487.82
607.485	16351.77
607.843	16314.71
608.2	16453.92
608.557	16513.8
608.914	16276.52
609.272	16389.74
609.629	16490.07
609.986	16574.82
610.343	16448.27
610.7	16531.88
611.057	16547.7
611.414	16459.79
611.771	16485.1
612.127	16603.52
612.484	16616.85
612.841	16575.04
613.198	16513.13
613.554	16619.11
613.911	16594.03
614.267	16554.48
614.624	16591.09
614.98	16577.53
615.337	16645.1
615.693	16727.81
616.05	16681.93
616.406	16746.79
616.762	16673.12
617.118	16637.19
617.475	16660.92
617.831	16593.8
618.187	16732.33
618.543	16693.46
618.899	16876.28
619.255	16710.63
619.611	16690.75
619.967	16844.42
620.323	16833.57
620.678	16759.67
621.034	16690.97
621.39	16757.41
621.746	16771.88
622.101	16955.6
622.457	16856.84
622.812	16826.79
623.168	16808.26
623.523	16816.85
623.879	16851.42
624.234	16823.85
624.589	16884.41
624.945	16902.49
625.3	16789.95
625.655	16786.11
626.01	16789.73
626.365	16883.06
626.72	16852.78
627.075	16729.84
627.43	16797.64
627.785	16791.99
628.14	16838.31
628.495	16798.32
628.85	16764.87
629.205	16665.89
629.559	16855.49
629.914	16785.66
630.269	16777.3
630.623	16669.05
630.978	16786.34
631.332	16634.7
631.687	16783.4
632.041	16641.03
632.396	16663.63
632.75	16523.29
633.104	16655.27
633.459	16530.3
633.813	16591.77
634.167	16591.09
634.521	16507.7
634.875	16565.55
635.229	16474.03
635.583	16467.02
635.937	16425.67
636.291	16510.41
636.645	16528.72
636.999	16426.35
637.352	16452.56
637.706	16281.49
638.06	16397.42
638.413	16282.17
638.767	16274.94
639.121	16377.99
639.474	16196.98
639.828	16215.28
640.181	16235.84
640.534	16297.99
640.888	16162.4
641.241	16099.35
641.594	16170.54
641.947	16231.78
642.301	16145
642.654	16307.25
643.007	16259.8
643.36	16143.64
643.713	16140.71
644.066	16186.35
644.419	16068.84
644.771	15941.39
645.124	15840.83
645.477	15834.05
645.83	15712.92
646.182	15600.83
646.535	15619.59
646.888	15706.14
647.24	15559.93
647.593	15559.7
647.945	15520.16
648.298	15550.89
648.65	15465.7
649.002	15520.83
649.355	15665.92
649.707	15548.18
650.059	15635.63
650.411	15880.37
650.763	15862.52
651.115	15950.65
651.467	15960.37
651.819	15928.28
652.171	15861.39
652.523	15946.59
652.875	15832.01
653.227	15754.73
653.578	15921.5
653.93	15889.19
654.282	15917.43
654.633	15815.97
654.985	15905.68
655.337	15854.61
655.688	15837.44
656.039	15926.25
656.391	15830.43
656.742	15883.99
657.094	15886.7
657.445	15874.05
657.796	15933.93
658.147	15884.44
658.498	15920.15
658.849	15918.11
659.2	15938
659.551	15839.24
659.902	16014.61
660.253	15862.29
660.604	15947.04
660.955	15896.42
661.306	15931.45
661.656	16023.19
662.007	15917.66
662.358	15968.96
662.708	15954.04
663.059	16027.94
663.409	15859.58
663.76	16008.28
664.11	15913.37
664.461	15988.17
664.811	15951.78
665.161	15995.62
665.511	15940.48
665.862	15935.29
666.212	15965.12
666.562	16039.69
666.912	16024.55
667.262	15943.42
667.612	16060.71
667.962	16053.93
668.312	16017.32
668.662	16063.87
669.011	15927.6
669.361	15992.91
669.711	15981.84
670.06	15976.87
670.41	15810.54
670.76	15987.72
671.109	16018.9
671.459	15946.13
671.808	15834.72
672.157	15913.37
672.507	15763.09
672.856	15858.91
673.205	15856.42
673.554	15865.91
673.904	15872.24
674.253	15869.07
674.602	15812.58
674.951	15614.84
675.3	15513.38
675.649	15728.29
675.998	15752.02
676.346	15767.16
676.695	15815.29
677.044	15642.87
677.393	15639.48
677.741	15669.53
678.09	15666.14
678.438	15591.79
678.787	15522.19
679.135	15597.22
679.484	15518.35
679.832	15560.38
680.181	15461.63
680.529	15479.03
680.877	15414.17
681.225	15408.07
681.573	15470.89
681.922	15422.31
682.27	15384.34
682.618	15371.46
682.966	15323.33
683.314	15302.76
683.661	15274.74
684.009	15223.67
684.357	15215.08
684.705	15126.04
685.053	15245.81
685.4	15132.37
685.748	15058.25
686.095	14961.53
686.443	15001.07
686.79	14971.02
687.138	14996.33
687.485	15032.49
687.832	14964.47
688.18	14929.21
688.527	14838.59
688.874	14876.11
689.221	14776.9
689.568	14699.16
689.915	14648.32
690.262	14583.01
690.609	14596.57
690.956	14580.52
691.303	14468.66
691.65	14341.43
691.997	14423.91
692.344	14373.29
692.69	14343.46
693.037	14265.27
693.383	14118.39
693.73	14169.46
694.077	14108.67
694.423	14070.03
694.769	14079.52
695.116	14014.21
695.462	13907.54
695.808	13891.73
696.155	13956.13
696.501	13797.26
696.847	13781.22
697.193	13603.37
697.539	13771.28
697.885	13666.42
698.231	13569.7
698.577	13558.4
698.923	13474.79
699.269	13408.12
699.614	13324.96
699.96	13246.54
700.306	13268.01
700.651	13217.17
700.997	13170.16
701.342	13129.94
701.688	13032.09
702.033	13045.42
702.379	13065.31
702.724	12964.97
703.069	12972.43
703.415	12836.84
703.76	12789.38
704.105	12843.39
704.45	12783.05
704.795	12681.36
705.14	12704.86
705.485	12705.99
705.83	12587.35
706.175	12635.94
706.52	12502.16
706.865	12412.44
707.209	12435.94
707.554	12417.64
707.899	12388.26
708.243	12297.64
708.588	12365.66
708.932	12244.31
709.277	12249.28
709.621	12206.12
709.966	12202.96
710.31	12149.4
710.654	12117.76
710.998	12080.25
711.342	12036.86
711.687	11997.09
712.031	11940.36
712.375	11939.01
712.719	11916.18
713.063	11888.61
713.407	11901.95
713.75	11808.62
714.094	11853.13
714.438	11787.15
714.782	11796.86
715.125	11782.18
715.469	11753.93
715.812	11714.38
716.156	11694.04
716.499	11631.9
716.843	11642.52
717.186	11532.24
717.53	11645.91
717.873	11623.54
718.216	11600.26
718.559	11612.91
718.902	11501.51
719.246	11517.32
719.589	11510.32
719.932	11414.05
720.275	11459.92
720.617	11442.52
720.96	11400.27
721.303	11431
721.646	11390.55
721.989	11292.25
722.331	11376.76
722.674	11351
723.016	11370.66
723.359	11342.64
723.701	11310.32
724.044	11322.98
724.386	11219.93
724.729	11268.74
725.071	11229.42
725.413	11262.87
725.755	11188.52
726.097	11160.72
726.439	11080.73
726.782	11118.92
727.124	11190.55
727.465	11218.8
727.807	11076.66
728.149	11073.04
728.491	11064.23
728.833	11140.84
729.175	11076.66
729.516	11085.7
729.858	11070.78
730.199	11079.6
730.541	11108.07
730.882	11026.72
731.224	11109.65
731.565	11101.29
731.906	11049.77
732.248	11066.71
732.589	11038.69
732.93	11057.68
733.271	11025.81
733.612	11039.14
733.953	11162.53
734.294	11032.37
734.635	11017
734.976	11089.09
735.317	11011.8
735.658	11112.82
735.999	11018.35
736.339	11079.82
736.68	11079.82
737.021	11125.24
737.361	11040.5
737.702	11095.87
738.042	11131.12
738.383	11076.88
738.723	11042.08
739.063	11082.53
739.404	11146.26
739.744	11191.46
740.084	11140.61
740.424	11171.8
740.764	11164.11
741.104	11166.6
741.444	11178.35
741.784	11175.41
742.124	11249.76
742.464	11300.61
742.804	11236.88
743.143	11245.69
743.483	11353.49
743.823	11314.62
744.162	11317.1
744.502	11375.18
744.841	11377.67
745.181	11502.64
745.52	11437.78
745.86	11604.33
746.199	11527.72
746.538	11694.27
746.877	11737.66
747.216	11722.74
747.556	11795.51
747.895	11856.07
748.234	11823.53
748.573	12009.74
748.911	11978.56
749.25	12093.13
749.589	12134.26
749.928	12300.81
750.267	12334.48
750.605	12401.37
750.944	12524.76
751.283	12622.83
751.621	12740.79
751.96	12736.28
752.298	12904.63
752.636	13089.94
752.975	13084.97
753.313	13239.99
753.651	13351.17
753.989	13458.74
754.327	13605.4
754.666	13722.24
755.004	13878.39
755.342	14022.57
755.679	14206.07
756.017	14322.67
756.355	14503.91
756.693	14562.89
757.031	14883.79
757.368	14896.67
757.706	15110.45
758.044	15283.1
758.381	15489.42
758.719	15581.4
759.056	15841.28
759.394	16022.52
759.731	16127.15
760.068	16303.41
760.405	16434.48
760.743	16514.71
761.08	16824.76
761.417	16899.78
761.754	17151.3
762.091	17349.49
762.428	17498.86
762.765	17712.87
763.102	17883.48
763.438	17963.26
763.775	18099.3
764.112	18339.97
764.449	18534.77
764.785	18665.61
765.122	18780.18
765.458	18885.49
765.795	19112.38
766.131	19323.67
766.467	19347.17
766.804	19586.49
767.14	19657.9
767.476	19716.2
767.812	19927.72
768.148	20134.27
768.485	20113.93
768.821	20135.18
769.157	20504.43
769.492	20552.57
769.828	20670.76
770.164	20648.16
770.5	20842.05
770.836	20876.85
771.171	20885.67
771.507	21046.11
771.842	21026.9
772.178	21238.65
772.513	21346.22
772.849	21346.67
773.184	21353.68
773.519	21533.56
773.855	21428.25
774.19	21688.36
774.525	21597.74
774.86	21822.82
775.195	21739.43
775.53	21942.36
775.865	21757.06
776.2	21875.47
776.535	21672.09
776.87	21872.53
777.205	21816.71
777.539	21898.52
777.874	22045.18
778.209	21914.79
778.543	21955.69
778.878	21920.89
779.212	22070.72
779.547	22001.12
779.881	22152.52
780.215	21909.14
780.55	22097.16
780.884	22109.81
781.218	21976.48
781.552	22097.61
781.886	21988.91
782.22	21901.23
782.554	21876.37
782.888	21862.14
783.222	21828.24
783.556	21769.71
783.889	21761.12
784.223	21835.47
784.557	21724.97
784.89	21801.35
785.224	21701.01
785.557	21626.44
785.891	21698.07
786.224	21563.61
786.558	21713.21
786.891	21590.96
787.224	21504.63
787.557	21502.37
787.891	21555.7
788.224	21451.75
788.557	21468.7
788.89	21428.02
789.223	21462.6
789.556	21275.49
789.888	21336.95
790.221	21247.01
790.554	21073.01
790.887	21063.29
791.219	20963.63
791.552	21050.63
791.884	20957.53
792.217	20875.72
792.549	20915.72
792.882	20773.58
793.214	20808.15
793.546	20844.54
793.879	20709.4
794.211	20596.41
794.543	20638.67
794.875	20575.39
795.207	20618.55
795.539	20590.53
795.871	20573.58
796.203	20408.16
796.535	20322.52
796.867	20223.31
797.198	20219.69
797.53	20210.88
797.862	20087.04
798.193	20081.39
798.525	20052.24
798.856	20006.37
799.188	19890.44
799.519	19889.76
799.85	19684.57
800.182	19809.08
800.513	19725.7
800.844	19589.65
801.175	19748.97
801.506	19715.3
801.837	19530.9
802.168	19591.01
802.499	19388.3
802.83	19384.01
803.161	19356.67
803.491	19373.61
803.822	19287.97
804.153	19254.97
804.483	19126.16
804.814	19036.22
805.145	19040.52
805.475	19006.84
805.805	18978.82
806.136	18942.44
806.466	18999.39
806.796	18804.59
807.126	18793.52
807.457	18805.72
807.787	18800.3
808.117	18633.07
808.447	18702.22
808.777	18682.79
809.107	18593.75
809.436	18567.76
809.766	18478.72
810.096	18441.44
810.426	18370.25
810.755	18320.08
811.085	18282.12
811.414	18338.84
811.744	18174.1
812.073	18242.57
812.403	18119.86
812.732	18077.15
813.061	17942.47
813.39	17997.61
813.719	17835.58
814.049	18063.82
814.378	17906.08
814.707	17961.22
815.036	17855.91
815.365	17698.86
815.693	17605.3
816.022	17688.46
816.351	17578.18
816.68	17587
817.008	17676.48
817.337	17360.79
817.665	17397.85
817.994	17411.86
818.322	17353.78
818.651	17288.25
818.979	17286.21
819.307	17443.72
819.636	17300.9
819.964	17228.13
820.292	17231.07
820.62	17178.87
820.948	17199.66
821.276	17217.74
821.604	17122.37
821.932	17263.16
822.259	17180.9
822.587	17120.57
822.915	17181.58
823.243	17163.5
823.57	17155.59
823.898	17088.03
824.225	16934.36
824.553	17011.42
824.88	17176.61
825.207	17107.01
825.535	17154.92
825.862	17111.98
826.189	17020.46
826.516	17185.42
826.843	17165.09
827.17	17224.52
827.497	17139.55
827.824	17196.72
828.151	17174.58
828.478	17235.82
828.805	17247.34
829.131	17108.36
829.458	17132.77
829.785	16991.53
830.111	17126.89
830.438	17266.55
830.764	17177.06
831.09	17190.4
831.417	17137.97
831.743	17242.37
832.069	17189.94
832.395	16978.88
832.722	17084.86
833.048	17049.83
833.374	17065.43
833.7	17069.49
834.026	17033.79
834.351	17064.98
834.677	16970.06
835.003	16970.74
835.329	17035.15
835.654	17018.65
835.98	16973
836.306	16900.46
836.631	16871.76
836.956	16907.01
837.282	16901.59
837.607	16805.32
837.932	16740.46
838.258	16750.41
838.583	16794.25
838.908	16613.91
839.233	16646.23
839.558	16661.14
839.883	16634.25
840.208	16527.81
840.533	16509.96
840.858	16587.02
841.182	16497.76
841.507	16472.67
841.832	16379.12
842.156	16356.75
842.481	16392.22
842.805	16397.87
843.13	16279.23
843.454	16235.84
843.778	16174.38
844.103	16285.56
844.427	16158.78
844.751	16130.54
845.075	16100.03
845.399	15946.36
845.723	15973.48
846.047	15916.76
846.371	15897.1
846.695	15826.59
847.019	15717.44
847.343	15688.51
847.666	15591.12
847.99	15522.87
848.313	15469.99
848.637	15395.87
848.96	15402.42
849.284	15369.88
849.607	15233.84
849.931	15145.03
850.254	15117.46
850.577	15028.19
850.9	14867.07
851.223	14941.42
851.546	14793.4
851.869	14730.8
852.192	14839.95
852.515	14632.27
852.838	14599.05
853.161	14608.99
853.483	14604.7
853.806	14512.05
854.129	14461.43
854.451	14395.67
854.774	14340.75
855.096	14272.73
855.419	14217.59
855.741	14153.64
856.063	14177.82
856.385	14103.7
856.708	14062.12
857.03	13983.47
857.352	14051.72
857.674	13986.86
857.996	13935.34
858.318	13842.91
858.64	13809.47
858.961	13740.77
859.283	13731.28
859.605	13685.63
859.926	13716.81
860.248	13701.22
860.57	13529.02
860.891	13597.5
861.212	13523.83
861.534	13451.06
861.855	13415.58
862.176	13481.34
862.498	13469.82
862.819	13436.37
863.14	13399.76
863.461	13312.98
863.782	13339.88
864.103	13301.23
864.424	13307.11
864.745	13290.61
865.065	13180.33
865.386	13148.92
865.707	13163.61
866.027	13142.82
866.348	13110.5
866.668	13123.61
866.989	13015.14
867.309	12970.62
867.63	13043.39
867.95	13002.48
868.27	12968.81
868.59	12944.41
868.91	13000
869.23	12952.77
869.55	12919.55
869.87	12925.2
870.19	12882.03
870.51	12903.95
870.83	12898.3
871.15	12798.65
871.469	12860.11
871.789	12810.4
872.109	12757.74
872.428	12685.66
872.748	12691.08
873.067	12646.33
873.386	12654.92
873.706	12708.48
874.025	12557.97
874.344	12545.32
874.663	12507.81
874.982	12538.77
875.301	12561.82
875.62	12517.98
875.939	12521.37
876.258	12434.59
876.577	12386.45
876.896	12381.71
877.214	12358.66
877.533	12387.13
877.852	12348.71
878.17	12363.63
878.489	12321.37
878.807	12337.87
879.125	12284.54
879.444	12309.17
879.762	12235.95
880.08	12247.47
880.398	12094.94
880.716	12106.46
881.034	12216.74
881.352	12131.32
881.67	12108.04
881.988	12078.44
882.306	12025.11
882.624	12013.81
882.941	11974.94
883.259	11861.5
883.577	11934.49
883.894	12003.64
884.212	11887.48
884.529	11899.91
884.846	11840.93
885.164	11765
885.481	11753.48
885.798	11783.53
886.115	11679.13
886.432	11676.87
886.75	11663.99
887.067	11694.95
887.383	11556.19
887.7	11628.73
888.017	11481.62
888.334	11588.96
888.651	11549.64
888.967	11485.23
889.284	11394.84
889.6	11404.56
889.917	11278.23
890.233	11338.35
890.55	11305.58
890.866	11309.19
891.182	11234.62
891.498	11172.25
891.815	11204.56
892.131	11067.62
892.447	11152.59
892.763	11069.88
893.079	11029.2
893.395	11024
893.71	10928.64
894.026	10907.62
894.342	10885.93
894.657	10824.01
894.973	10812.26
895.289	10751.02
895.604	10757.57
895.92	10673.05
896.235	10640.74
896.55	10662.66
896.865	10648.65
897.181	10574.52
897.496	10614.3
897.811	10495.66
898.126	10504.7
898.441	10384.25
898.756	10367.75
899.071	10323.01
899.386	10323.91
899.7	10259.05
900.015	10278.03
900.33	10149
900.644	10102.9
900.959	10134.31
901.273	10135.89
901.588	9981.77
901.902	10015.89
902.216	9945.61
902.531	10002.34
902.845	9952.17
903.159	9831.49
903.473	9793.08
903.787	9756.01
904.101	9709.24
904.415	9680.99
904.729	9624.72
905.042	9598.05
905.356	9618.17
905.67	9567.55
905.984	9646.64
906.297	9529.35
906.611	9493.2
906.924	9398.74
907.237	9383.6
907.551	9349.47
907.864	9276.48
908.177	9307.21
908.491	9270.15
908.804	9235.35
909.117	9154.9
909.43	9105.41
909.743	9081.23
910.056	9071.96
910.368	8993.1
910.681	8939.76
910.994	8938.18
911.307	8890.95
911.619	8860.44
911.932	8813.21
912.244	8814.57
912.557	8753.33
912.869	8707.68
913.181	8683.27
913.494	8636.27
913.806	8628.59
914.118	8508.36
914.43	8539.32
914.742	8498.42
915.054	8460.23
915.366	8512.43
915.678	8449.38
915.99	8373.45
916.302	8307.69
916.613	8291.65
916.925	8262.95
917.236	8255.72
917.548	8205.77
917.859	8187.69
918.171	8156.51
918.482	8034.25
918.794	8068.15
919.105	8017.76
919.416	7930.53
919.727	7956.51
920.038	7928.04
920.349	7899.34
920.66	7865.44
920.971	7774.6
921.282	7802.85
921.593	7792.22
921.903	7731.89
922.214	7702.51
922.525	7650.08
922.835	7644.43
923.146	7581.61
923.456	7530.08
923.767	7536.64
924.077	7478.56
924.387	7485.79
924.697	7371.67
925.008	7354.5
925.318	7380.26
925.628	7371.22
925.938	7311.33
926.248	7240.6
926.558	7223.2
926.867	7194.95
927.177	7192.92
927.487	7194.05
927.796	7094.62
928.106	7095.52
928.416	7048.29
928.725	7015.97
929.034	7031.11
929.344	6944.11
929.653	6965.35
929.962	6918.8
930.271	6891.23
930.581	6834.28
930.89	6804.68
931.199	6782.08
931.508	6772.14
931.817	6777.79
932.125	6783.66
932.434	6699.82
932.743	6604.23
933.051	6657.34
933.36	6647.62
933.669	6563.56
933.977	6549.55
934.286	6509.77
934.594	6446.27
934.902	6454.63
935.21	6416.22
935.519	6401.98
935.827	6367.86
936.135	6338.03
936.443	6356.33
936.751	6293.28
937.059	6286.28
937.367	6270
937.674	6277.91
937.982	6225.49
938.29	6171.25
938.597	6143.68
938.905	6113.4
939.213	6063.46
939.52	6044.47
939.827	6085.38
940.135	5979.62
940.442	5974.87
940.749	5964.25
941.056	5974.87
941.363	5881.09
941.67	5893.52
941.977	5837.02
942.284	5786.4
942.591	5761.09
942.898	5776.46
943.205	5736.69
943.511	5746.18
943.818	5717.48
944.125	5625.5
944.431	5629.12
944.738	5698.49
945.044	5617.14
945.35	5562.23
945.657	5573.98
945.963	5477.94
946.269	5500.99
946.575	5512.96
946.881	5459.4
947.187	5433.42
947.493	5411.27
947.799	5313.87
948.105	5333.31
948.41	5308.45
948.716	5352.06
949.022	5260.54
949.327	5274.32
949.633	5215.12
949.938	5233.65
950.244	5262.57
950.549	5195.91
950.854	5174.89
951.16	5155.91
951.465	5089.92
951.77	5085.63
952.075	5065.06
952.38	5056.7
952.685	5092.18
952.99	4992.52
953.294	4997.27
953.599	4990.49
953.904	4890.38
954.209	4913.2
954.513	4906.88
954.818	4893.54
955.122	4849.7
955.426	4871.4
955.731	4817.84
956.035	4775.58
956.339	4749.14
956.643	4792.76
956.948	4744.62
957.252	4706.88
957.556	4679.99
957.86	4684.51
958.163	4674.34
958.467	4597.51
958.771	4675.02
959.075	4603.83
959.378	4572.2
959.682	4571.74
959.985	4529.26
960.289	4472.54
960.592	4510.95
960.896	4463.95
961.199	4448.58
961.502	4411.07
961.805	4415.36
962.108	4407.23
962.411	4360.22
962.714	4344.18
963.017	4309.15
963.32	4304.18
963.623	4287.46
963.926	4268.48
964.228	4274.8
964.531	4253.79
964.833	4258.31
965.136	4172.21
965.438	4197.74
965.741	4185.54
966.043	4164.75
966.345	4127.46
966.648	4085.2
966.95	4117.52
967.252	4072.77
967.554	4058.76
967.856	4030.52
968.158	4021.02
968.46	4034.81
968.761	3952.1
969.063	3949.39
969.365	3960.23
969.666	3947.35
969.968	3913
970.269	3929.5
970.571	3897.64
970.872	3866
971.174	3846.79
971.475	3822.84
971.776	3847.92
972.077	3760.69
972.378	3781.93
972.679	3764.99
972.98	3743.74
973.281	3702.84
973.582	3740.13
973.883	3730.41
974.183	3655.16
974.484	3683.63
974.785	3660.13
975.085	3636.85
975.386	3687.7
975.686	3624.88
975.986	3583.97
976.287	3566.12
976.587	3584.2
976.887	3527.93
977.187	3553.69
977.487	3523.41
977.787	3497.2
978.087	3424.2
978.387	3494.03
978.687	3486.57
978.987	3418.78
979.286	3412.9
979.586	3410.19
979.885	3375.17
980.185	3386.46
980.484	3378.56
980.784	3343.3
981.083	3355.73
981.382	3325.22
981.682	3293.59
981.981	3283.87
982.28	3272.12
982.579	3247.26
982.878	3228.73
983.177	3221.05
983.475	3216.98
983.774	3123.65
984.073	3198.22
984.372	3113.48
984.67	3143.08
984.969	3141.5
985.267	3111.44
985.566	3057.89
985.864	3102.4
986.162	3106.7
986.461	3059.47
986.759	3040.03
987.057	3006.36
987.355	3009.75
987.653	3023.08
987.951	3008.17
988.249	2969.75
988.547	2997.32
988.844	2969.53
989.142	2953.26
989.44	2945.35
989.737	2938.11
990.035	2898.79
990.332	2911.67
990.63	2865.57
990.927	2861.28
991.224	2833.71
991.521	2797.78
991.819	2819.02
992.116	2776.99
992.413	2802.3
992.71	2803.2
993.006	2753.03
993.303	2738.8
993.6	2704.45
993.897	2709.87
994.193	2743.54
994.49	2664.68
994.787	2661.29
995.083	2648.86
995.379	2635.07
995.676	2641.85
995.972	2605.02
996.268	2597.56
996.565	2588.07
996.861	2593.94
997.157	2544.68
997.453	2544.45
997.749	2540.61
998.044	2564.79
998.34	2537
998.636	2513.95
998.932	2499.71
999.227	2487.51
999.523	2502.87
999.818	2465.58
1000.114	2453.83
1000.409	2453.38
1000.704	2424
1001	2374.06
1001.295	2420.39
1001.59	2388.3
1001.885	2364.8
1002.18	2334.29
1002.475	2346.04
1002.77	2327.96
1003.065	2327.51
1003.359	2310.11
1003.654	2278.25
1003.949	2293.39
1004.243	2297.68
1004.538	2249.55
1004.832	2248.64
1005.127	2250.68
1005.421	2228.08
1005.715	2201.19
1006.009	2199.38
1006.304	2201.64
1006.598	2156.89
1006.892	2161.41
1007.186	2113.73
1007.48	2139.27
1007.773	2102.43
1008.067	2083.9
1008.361	2092.71
1008.655	2075.99
1008.948	2045.26
1009.242	2035.31
1009.535	2050.45
1009.829	2011.81
1010.122	2014.75
1010.415	2017.24
1010.708	2012.26
1011.001	2003.22
1011.295	1970
1011.588	1949.67
1011.881	1951.7
1012.173	1931.59
1012.466	1933.17
1012.759	1908.76
1013.052	1925.71
1013.344	1889.1
1013.637	1876.67
1013.93	1861.98
1014.222	1844.58
1014.514	1858.82
1014.807	1818.14
1015.099	1850.46
1015.391	1806.62
1015.683	1811.82
1015.976	1792.16
1016.268	1776.56
1016.56	1796.68
1016.851	1754.64
1017.143	1734.53
1017.435	1728.88
1017.727	1733.4
1018.018	1688.66
1018.31	1735.43
1018.602	1655.44
1018.893	1709.9
1019.185	1687.98
1019.476	1679.39
1019.767	1652.5
1020.058	1648.21
1020.35	1647.3
1020.641	1585.61
1020.932	1601.43
1021.223	1591.71
1021.514	1576.79
1021.804	1555.33
1022.095	1537.47
1022.386	1552.84
1022.677	1533.18
1022.967	1548.55
1023.258	1510.36
1023.548	1495.44
1023.839	1497.25
1024.129	1498.6
1024.419	1501.09
1024.709	1458.15
1025	1466.29
1025.29	1421.32
1025.58	1422.22
1025.87	1448.44
1026.16	1434.43
1026.449	1423.58
1026.739	1394.65
1027.029	1393.75
1027.319	1372.73
1027.608	1385.61
1027.898	1384.48
1028.187	1355.33
1028.477	1350.81
1028.766	1325.05
1029.055	1306.07
1029.344	1323.02
1029.634	1300.64
1029.923	1303.58
1030.212	1282.34
1030.501	1271.27
1030.79	1272.4
1031.078	1238.05
1031.367	1231.72
1031.656	1250.7
1031.945	1263.81
1032.233	1248.44
1032.522	1231.04
1032.81	1204.38
1033.099	1211.15
1033.387	1175
1033.675	1196.47
1033.963	1193.53
1034.251	1177.48
1034.54	1152.17
1034.828	1171.38
1035.116	1145.39
1035.403	1146.52
1035.691	1148.11
1035.979	1137.48
1036.267	1137.71
1036.554	1125.28
1036.842	1108.11
1037.129	1102.68
1037.417	1113.98
1037.704	1090.71
1037.992	1080.99
1038.279	1089.12
1038.566	1084.6
1038.853	1084.6
1039.14	1084.6
