Data from hue_24_FLMS001491_00041.txt Node
Date: Tue Feb 07 17:12:18 GMT 2017
User: dcchb
Spectrometer: FLMS00149
Trigger mode: 0
Integration Time (sec): 2.000000E-2
Scans to average: 10
Electric dark correction enabled: true
Nonlinearity correction enabled: false
Boxcar width: 0
XAxis mode: Wavelengths
Number of Pixels in Spectrum: 2048
>>>>>Begin Spectral Data<<<<<
341.393	-25.97
341.776	-25.97
342.16	-25.97
342.543	-56.03
342.927	-82.47
343.31	-74.11
343.693	-59.87
344.077	-67.33
344.46	-53.09
344.843	-50.83
345.226	-58.29
345.61	-11.96
345.993	-17.84
346.376	-10.61
346.759	-3.15
347.142	29.17
347.525	35.04
347.908	51.99
348.291	77.75
348.674	113.91
349.057	99.22
349.44	121.59
349.823	142.84
350.206	165.43
350.588	195.49
350.971	205.88
351.354	232.78
351.737	244.53
352.119	256.5
352.502	280.91
352.884	274.58
353.267	271.19
353.65	267.13
354.032	300.12
354.414	302.38
354.797	308.93
355.179	299.89
355.562	329.95
355.944	313.68
356.326	327.24
356.709	340.12
357.091	343.28
357.473	353.23
357.855	344.86
358.238	335.37
358.62	336.95
359.002	353.23
359.384	329.72
359.766	329.95
360.148	333.79
360.53	347.12
360.912	333.79
361.294	334.24
361.676	328.82
362.057	324.75
362.439	319.78
362.821	337.63
363.203	334.24
363.584	350.51
363.966	333.56
364.348	320.23
364.729	326.11
365.111	328.37
365.493	333.79
365.874	315.26
366.256	306.67
366.637	322.49
367.019	333.56
367.4	322.94
367.781	316.62
368.163	311.64
368.544	319.1
368.925	313.9
369.306	334.69
369.688	324.07
370.069	307.58
370.45	304.64
370.831	325.88
371.212	301.25
371.593	306.45
371.974	332.21
372.355	312.77
372.736	303.73
373.117	305.99
373.498	311.64
373.879	324.07
374.26	324.98
374.641	317.75
375.021	301.48
375.402	314.36
375.783	335.82
376.163	318.2
376.544	336.95
376.925	322.04
377.305	297.86
377.686	336.73
378.066	334.02
378.447	316.39
378.827	334.24
379.208	330.85
379.588	323.62
379.968	323.62
380.349	356.61
380.729	341.47
381.109	332.66
381.489	340.8
381.87	340.57
382.25	331.3
382.63	346.67
383.01	348.71
383.39	329.95
383.77	346.45
384.15	362.94
384.53	364.75
384.91	361.13
385.29	337.86
385.67	347.12
386.049	344.64
386.429	356.84
386.809	357.07
387.189	377.18
387.568	367.46
387.948	342.15
388.328	362.72
388.707	359.33
389.087	363.17
389.466	353.45
389.846	357.52
390.225	367.46
390.605	356.16
390.984	366.11
391.363	376.95
391.743	353
392.122	370.85
392.501	356.84
392.881	385.99
393.26	364.52
393.639	386.67
394.018	370.17
394.397	395.71
394.776	395.03
395.155	407.24
395.534	375.15
395.913	366.78
396.292	394.13
396.671	378.31
397.05	388.25
397.429	403.39
397.808	390.29
398.186	408.14
398.565	397.97
398.944	405.88
399.323	400.46
399.701	390.51
400.08	392.32
400.458	416.5
400.837	414.24
401.215	411.3
401.594	409.49
401.972	416.73
402.351	404.07
402.729	424.41
403.107	419.21
403.486	414.47
403.864	418.76
404.242	434.13
404.62	431.19
404.999	410.85
405.377	421.47
405.755	433.22
406.133	431.42
406.511	423.96
406.889	428.93
407.267	441.81
407.645	433.45
408.023	432.77
408.401	433.45
408.779	450.4
409.156	448.59
409.534	471.41
409.912	468.02
410.29	476.16
410.667	460.57
411.045	438.87
411.422	464.86
411.8	469.15
412.178	488.81
412.555	491.3
412.933	474.58
413.31	463.05
413.687	495.82
414.065	500.57
414.442	490.62
414.819	481.58
415.197	488.81
415.574	508.93
415.951	489.94
416.328	488.36
416.705	498.31
417.082	497.85
417.46	510.28
417.837	512.54
418.214	510.28
418.591	517.51
418.967	513.45
419.344	505.09
419.721	520.68
420.098	530.17
420.475	545.76
420.852	520.9
421.228	531.07
421.605	551.41
421.982	557.29
422.358	552.54
422.735	544.63
423.111	563.39
423.488	576.27
423.864	583.73
424.241	568.81
424.617	581.69
424.994	579.21
425.37	571.98
425.746	564.75
426.123	562.49
426.499	582.37
426.875	576.27
427.251	586.21
427.627	587.8
428.003	591.19
428.379	589.83
428.756	609.72
429.132	632.54
429.507	614.69
429.883	642.48
430.259	632.09
430.635	631.18
431.011	643.61
431.387	668.25
431.763	681.35
432.138	658.75
432.514	649.49
432.89	685.19
433.265	674.8
433.641	659.43
434.016	682.71
434.392	728.13
434.767	729.94
435.143	694.91
435.518	736.94
435.894	726.77
436.269	729.94
436.644	721.8
437.02	736.04
437.395	726.1
437.77	764.74
438.145	755.47
438.52	741.24
438.895	757.28
439.271	759.99
439.646	759.77
440.021	775.59
440.395	782.14
440.77	766.77
441.145	786.21
441.52	799.32
441.895	795.93
442.27	788.02
442.645	797.73
443.019	810.39
443.394	817.62
443.769	823.72
444.143	815.81
444.518	820.56
444.892	839.99
445.267	849.03
445.641	834.57
446.016	800.9
446.39	838.86
446.764	840.44
447.139	843.16
447.513	866.88
447.887	863.27
448.262	862.59
448.636	892.65
449.01	872.99
449.384	899.2
449.758	874.57
450.132	891.52
450.506	898.52
450.88	885.64
451.254	898.07
451.628	908.24
452.002	925.87
452.376	940.55
452.75	929.48
453.123	945.53
453.497	950.72
453.871	962.25
454.244	969.25
454.618	990.04
454.992	992.53
455.365	985.07
455.739	1025.07
456.112	1018.97
456.486	1034.11
456.859	1037.27
457.232	1063.26
457.606	1076.6
457.979	1068.91
458.352	1070.72
458.725	1071.85
459.099	1089.48
459.472	1110.72
459.845	1141.91
460.218	1155.69
460.591	1119.98
460.964	1165.63
461.337	1169.93
461.71	1174.45
462.083	1218.29
462.456	1196.14
462.829	1192.75
463.201	1234.78
463.574	1262.81
463.947	1281.56
464.32	1277.04
464.692	1278.85
465.065	1280.88
465.438	1309.81
465.81	1320.66
466.183	1354.1
466.555	1376.48
466.928	1410.82
467.3	1362.92
467.672	1402.24
468.045	1436.81
468.417	1450.6
468.789	1434.33
469.161	1461.44
469.534	1498.51
469.906	1500.31
470.278	1530.6
470.65	1575.11
471.022	1611.5
471.394	1601.55
471.766	1597.94
472.138	1653.08
472.51	1671.61
472.882	1681.1
473.253	1723.13
473.625	1740.31
473.997	1779.18
474.369	1804.71
474.74	1842
475.112	1818.05
475.484	1853.3
475.855	1952.96
476.227	1949.12
476.598	1991.83
476.97	2005.84
477.341	2069.34
477.713	2093.07
478.084	2098.49
478.455	2172.61
478.827	2183.69
479.198	2257.13
479.569	2278.82
479.94	2314.76
480.311	2348.43
480.682	2407.18
481.053	2471.36
481.424	2530.57
481.795	2529.67
482.166	2548.2
482.537	2612.6
482.908	2691.02
483.279	2749.77
483.65	2801.97
484.021	2823.67
484.391	2862.76
484.762	2934.85
485.133	2984.34
485.503	3005.58
485.874	3052.59
486.244	3111.8
486.615	3206.03
486.985	3258.91
487.356	3287.61
487.726	3263.21
488.097	3383.88
488.467	3414.61
488.837	3507.72
489.207	3581.61
489.578	3605.8
489.948	3645.12
490.318	3691.67
490.688	3725.34
491.058	3762.63
491.428	3866.58
491.798	3876.52
492.168	3954.94
492.538	4000.36
492.908	4018.44
493.278	4077.87
493.648	4105.22
494.017	4203.52
494.387	4188.38
494.757	4255.04
495.126	4308.38
495.496	4366.9
495.866	4369.84
496.235	4467.92
496.605	4505.21
496.974	4493
497.344	4546.56
497.713	4567.13
498.082	4677.86
498.452	4666.78
498.821	4657.74
499.19	4699.1
499.559	4713.11
499.928	4809.15
500.298	4799.21
500.667	4858.19
501.036	4884.86
501.405	4924.63
501.774	4908.36
502.143	4957.85
502.512	4999.43
502.88	5037.85
503.249	5053.89
503.618	5075.13
503.987	5066.1
504.356	5174.57
504.724	5179.09
505.093	5179.31
505.462	5185.41
505.83	5255.92
506.199	5257.28
506.567	5308.35
506.936	5307.22
507.304	5419.98
507.672	5439.19
508.041	5435.8
508.409	5463.6
508.777	5483.71
509.145	5542.24
509.514	5567.55
509.882	5579.53
510.25	5594.22
510.618	5690.49
510.986	5624.05
511.354	5669.24
511.722	5771.84
512.09	5795.34
512.458	5756.25
512.826	5845.28
513.193	5839.63
513.561	5844.38
513.929	5904.49
514.297	5902.46
514.664	5944.72
515.032	5982.46
515.4	6049.12
515.767	6049.35
516.135	6035.34
516.502	6062.91
516.869	6124.82
517.237	6098.61
517.604	6128.67
517.972	6179.29
518.339	6186.52
518.706	6201.88
519.073	6316.91
519.44	6249.79
519.808	6285.5
520.175	6312.62
520.542	6332.73
520.909	6451.6
521.276	6415.66
521.643	6473.06
522.009	6488.88
522.376	6524.14
522.743	6482.56
523.11	6603.46
523.477	6609.33
523.843	6693.85
524.21	6744.24
524.577	6759.38
524.943	6775.43
525.31	6781.3
525.676	6876.9
526.043	6905.82
526.409	6947.85
526.776	7005.03
527.142	6983.56
527.508	7088.64
527.874	7061.07
528.241	7078.47
528.607	7125.02
528.973	7200.95
529.339	7190.33
529.705	7233.95
530.071	7281.4
530.437	7385.13
530.803	7400.05
531.169	7425.58
531.535	7449.54
531.901	7382.64
532.267	7529.53
532.632	7590.32
532.998	7603.66
533.364	7615.18
533.73	7651.34
534.095	7689.08
534.461	7718.46
534.826	7789.41
535.192	7758
535.557	7882.97
535.923	7830.32
536.288	7902.63
536.653	7967.04
537.019	7982.86
537.384	8027.6
537.749	8030.54
538.114	8061.72
538.479	8051.33
538.845	8165.9
539.21	8088.84
539.575	8176.75
539.94	8109.41
540.305	8218.56
540.67	8220.59
541.034	8249.29
541.399	8270.31
541.764	8317.08
542.129	8388.95
542.494	8370.19
542.858	8393.24
543.223	8438.89
543.587	8486.12
543.952	8515.72
544.316	8561.14
544.681	8553.46
545.045	8598.43
545.41	8640.01
545.774	8707.36
546.138	8685.21
546.503	8715.94
546.867	8734.47
547.231	8882.94
547.595	8831.19
547.959	8787.58
548.324	8887.01
548.688	8874.81
549.052	9021.92
549.416	8988.93
549.779	9034.13
550.143	9030.29
550.507	9089.49
550.871	9130.85
551.235	9115.93
551.599	9161.58
551.962	9174.01
552.326	9219.88
552.689	9235.48
553.053	9258.98
553.417	9303.95
553.78	9368.58
554.143	9356.15
554.507	9419.43
554.87	9380.56
555.234	9525.87
555.597	9486.32
555.96	9469.37
556.323	9567.22
556.686	9593.66
557.05	9652.42
557.413	9595.92
557.776	9714.33
558.139	9757.72
558.502	9752.75
558.865	9734
559.228	9856.25
559.59	9819.64
559.953	9847.21
560.316	9982.12
560.679	9951.62
561.041	10040.88
561.404	10066.19
561.767	10084.49
562.129	10102.35
562.492	10216.47
562.854	10177.15
563.217	10195.68
563.579	10272.29
563.941	10230.03
564.304	10287.43
564.666	10304.15
565.028	10337.82
565.39	10423.47
565.753	10541.66
566.115	10446.75
566.477	10533.97
566.839	10552.73
567.201	10576.91
567.563	10659.17
567.925	10739.84
568.287	10732.61
568.648	10772.16
569.01	10907.07
569.372	10872.95
569.734	10905.94
570.095	10927.18
570.457	11058.93
570.819	11090.8
571.18	11096.9
571.542	11104.13
571.903	11145.94
572.265	11215.54
572.626	11330.56
572.987	11323.78
573.349	11335.76
573.71	11347.74
574.071	11465.02
574.432	11546.6
574.794	11590.44
575.155	11634.06
575.516	11625.47
575.877	11771.46
576.238	11828.63
576.599	11928.29
576.96	12034.05
577.32	12002.18
577.681	12149.3
578.042	12268.84
578.403	12343.87
578.763	12373.93
579.124	12530.53
579.485	12630.64
579.845	12710.19
580.206	12839.22
580.566	12937.98
580.927	13071.08
581.287	13265.65
581.648	13294.13
582.008	13522.14
582.368	13637.85
582.728	13826.09
583.089	13912.42
583.449	14113.32
583.809	14252.07
584.169	14464.49
584.529	14619.29
584.889	14862
585.249	14960.07
585.609	15142.21
585.969	15344.02
586.329	15577.46
586.688	15797.56
587.048	16008.63
587.408	16149.42
587.768	16423.99
588.127	16599.8
588.487	16884.54
588.846	17211.54
589.206	17384.64
589.565	17566.11
589.925	17990.05
590.284	18102.36
590.643	18400.43
591.003	18780.76
591.362	19132.17
591.721	19241.32
592.08	19566.28
592.44	19944.12
592.799	20115.87
593.158	20462.98
593.517	20700.49
593.876	21073.58
594.235	21354.93
594.593	21658.2
594.952	22016.84
595.311	22104.52
595.67	22483.94
596.029	22936.36
596.387	23198.27
596.746	23611.82
597.104	23760.52
597.463	24052.26
597.822	24369.77
598.18	24547.17
598.538	24984.67
598.897	25321.16
599.255	25496.52
599.613	26158.65
599.972	26189.61
600.33	26637.73
600.688	26873.43
601.046	27199.75
601.404	27599.97
601.762	27839.28
602.12	28219.61
602.478	28490.56
602.836	28787.96
603.194	28921.97
603.552	29233.14
603.91	29435.4
604.268	29770.98
604.625	30010.3
604.983	30380.01
605.341	30513.79
605.698	30911.29
606.056	31232.41
606.413	31522.8
606.771	31793.08
607.128	31926.18
607.485	32094.31
607.843	32472.15
608.2	32763.9
608.557	33137
608.914	33197.79
609.272	33536.31
609.629	33835.96
609.986	34090.64
610.343	34212.67
610.7	34593
611.057	34782.38
611.414	34941.02
611.771	35106.66
612.127	35402.7
612.484	35606.08
612.841	35757.72
613.198	35970.82
613.554	36241.1
613.911	36417.14
614.267	36768.54
614.624	36676.11
614.98	36949.1
615.337	37271.12
615.693	37359.71
616.05	37548.63
616.406	37717.89
616.762	37949.52
617.118	38032.46
617.475	38181.38
617.831	38455.73
618.187	38637.42
618.543	38830.18
618.899	39092.09
619.255	39140
619.611	39124.18
619.967	39436.49
620.323	39544.51
620.678	39623.61
621.034	39596.71
621.39	39753.55
621.746	39834.9
622.101	40278.28
622.457	40048
622.812	40216.36
623.168	40534.54
623.523	40556.91
623.879	40802.33
624.234	40682.11
624.589	40931.82
624.945	40899.5
625.3	41011.14
625.655	41122.1
626.01	41149.44
626.365	41294.52
626.72	41176.78
627.075	41245.94
627.43	41380.85
627.785	41333.16
628.14	41536.1
628.495	41569.54
628.85	41685.92
629.205	41581.52
629.559	41886.6
629.914	41564.57
630.269	41793.04
630.623	41728.63
630.978	41731.35
631.332	41920.72
631.687	42072.35
632.041	41911
632.396	42052.02
632.75	42008.4
633.104	41971.79
633.459	41989.87
633.813	42056.31
634.167	42121.39
634.521	41948.29
634.875	42165.46
635.229	42063.09
635.583	41831.23
635.937	42158
636.291	42062.86
636.645	42102.18
636.999	41988.74
637.352	42035.29
637.706	41953.04
638.06	42148.96
638.413	42150.54
638.767	42092.47
639.121	42094.95
639.474	41884.79
639.828	42036.65
640.181	42080.94
640.534	42056.54
640.888	41969.76
641.241	41878.01
641.594	41925.69
641.947	42239.81
642.301	42059.02
642.654	41900.61
643.007	41959.59
643.36	41955.97
643.713	41964.33
644.066	42061.96
644.419	41881.17
644.771	41574.74
645.124	41296.56
645.477	41295.2
645.83	41054.98
646.182	40794.87
646.535	40832.61
646.888	40934.31
647.24	40643.92
647.593	40960.52
647.945	40897.02
648.298	40766.85
648.65	40690.02
649.002	40621.32
649.355	40821.77
649.707	40792.84
650.059	40834.87
650.411	41331.58
650.763	41371.58
651.115	41805.47
651.467	41619.71
651.819	41757.79
652.171	41538.13
652.523	41487.28
652.875	41376.33
653.227	41312.6
653.578	41513.05
653.93	41566.38
654.282	41377.23
654.633	41383.33
654.985	41397.8
655.337	41411.81
655.688	41381.3
656.039	41748.07
656.391	41197.8
656.742	41380.17
657.094	41329.77
657.445	41494.29
657.796	41381.3
658.147	41423.11
658.498	41242.09
658.849	41416.55
659.2	41433.73
659.551	41202.77
659.902	41372.26
660.253	41351.24
660.604	41418.13
660.955	41231.02
661.306	41465.14
661.656	41239.83
662.007	41399.15
662.358	41302.88
662.708	41328.64
663.059	41371.36
663.409	41190.12
663.76	41424.91
664.11	41352.37
664.461	41388.98
664.811	41254.75
665.161	41158.71
665.511	41075.32
665.862	41234.41
666.212	41204.35
666.562	41289.32
666.912	41089.78
667.262	41060.18
667.612	41233.28
667.962	41212.26
668.312	41172.49
668.662	41261.53
669.011	41012.72
669.361	41097.46
669.711	41071.02
670.06	41130.68
670.41	41028.77
670.76	40891.37
671.109	41052.72
671.459	41034.42
671.808	40941.76
672.157	41078.71
672.507	40741.32
672.856	40798.26
673.205	40994.64
673.554	41020.4
673.904	40854.99
674.253	40985.83
674.602	40948.54
674.951	40334.32
675.3	40255.23
675.649	40765.5
675.998	40808.21
676.346	40813.63
676.695	40997.13
677.044	40643.47
677.393	40676.68
677.741	40747.42
678.09	40624.48
678.438	40503.58
678.787	40558.27
679.135	40640.53
679.484	40465.16
679.832	40610.25
680.181	40387.43
680.529	40304.72
680.877	40253.87
681.225	40248.22
681.573	40471.04
681.922	40148.79
682.27	40094.78
682.618	40138.17
682.966	40033.99
683.314	40132.74
683.661	39938.63
684.009	39818.85
684.357	39845.97
684.705	39809.36
685.053	39778.4
685.4	39643.04
685.748	39387.91
686.095	39587.67
686.443	39386.78
686.79	39389.94
687.138	39441.24
687.485	39328.25
687.832	39251.41
688.18	39376.15
688.527	39169.38
688.874	39164.63
689.221	39049.83
689.568	39014.81
689.915	38829.95
690.262	38862.5
690.609	38668.38
690.956	38637.19
691.303	38479.68
691.65	38438.33
691.997	38428.16
692.344	38174.83
692.69	38255.05
693.037	38213.25
693.383	37929.19
693.73	38093.02
694.077	37844.89
694.423	37936.42
694.769	37667.72
695.116	37757.89
695.462	37514.28
695.808	37391.57
696.155	37636.76
696.501	37322.87
696.847	37194.06
697.193	37094.63
697.539	37178.92
697.885	36893.73
698.231	36860.29
698.577	36815.54
698.923	36705.94
699.269	36644.93
699.614	36545.72
699.96	36380.3
700.306	36411.03
700.651	36274.09
700.997	36183.7
701.342	36058.05
701.688	35908.67
702.033	35883.36
702.379	35901.44
702.724	35685.63
703.069	35805.63
703.415	35326.09
703.76	35562.02
704.105	35510.27
704.45	35227.11
704.795	35192.99
705.14	35061.01
705.485	35087.68
705.83	34897.85
706.175	35087
706.52	34973.78
706.865	34882.49
707.209	34686.11
707.554	34583.74
707.899	34632.55
708.243	34471.88
708.588	34473.68
708.932	34265.33
709.277	34177.87
709.621	34134.94
709.966	33982.17
710.31	34086.58
710.654	33824.21
710.998	33817.43
711.342	33876.86
711.687	33662.63
712.031	33553.03
712.375	33553.26
712.719	33606.36
713.063	33513.48
713.407	33553.93
713.75	33279.37
714.094	33360.94
714.438	33186.49
714.782	33221.74
715.125	33057.68
715.469	33068.98
715.812	32909.43
716.156	32745.59
716.499	32709.89
716.843	32863.1
717.186	32713.5
717.53	32784.46
717.873	32783.78
718.216	32698.59
718.559	32634.86
718.902	32317.81
719.246	32442.32
719.589	32341.76
719.932	32236.91
720.275	32280.07
720.617	32021.09
720.96	32132.28
721.303	32181.99
721.646	32049.11
721.989	32040.75
722.331	31974.54
722.674	31955.33
723.016	31943.58
723.359	31768.67
723.701	31865.16
724.044	31665.85
724.386	31598.05
724.729	31547.21
725.071	31511.5
725.413	31471.95
725.755	31593.31
726.097	31316.25
726.439	31218.18
726.782	31158.97
727.124	31257.72
727.465	31102.47
727.807	31168.46
728.149	31034.45
728.491	31114.9
728.833	31075.36
729.175	30904.06
729.516	30807.57
729.858	30915.36
730.199	30851.86
730.541	30719.21
730.882	30655.71
731.224	30775.93
731.565	30464.07
731.906	30679.66
732.248	30590.62
732.589	30443.28
732.93	30343.62
733.271	30330.97
733.612	30462.49
733.953	30368.26
734.294	30213.46
734.635	30227.69
734.976	30333.68
735.317	30114.48
735.658	30139.79
735.999	30106.57
736.339	30025.44
736.68	30122.84
737.021	29976.63
737.361	29864.09
737.702	29970.53
738.042	29870.64
738.383	29857.08
738.723	29798.1
739.063	29783.41
739.404	29926.46
739.744	29788.16
740.084	29614.15
740.424	29716.07
740.764	29599.01
741.104	29586.81
741.444	29517.66
741.784	29468.62
742.124	29553.36
742.464	29419.13
742.804	29347.49
743.143	29297.1
743.483	29305.23
743.823	29069.08
744.162	29168.74
744.502	29249.64
744.841	29057.78
745.181	29219.13
745.52	29096.42
745.86	29055.75
746.199	29057.56
746.538	28948.86
746.877	28995.64
747.216	29041.96
747.556	28884.9
747.895	28961.29
748.234	28740.28
748.573	28732.59
748.911	28697.11
749.25	28752.48
749.589	28613.05
749.928	28620.73
750.267	28685.36
750.605	28538.47
750.944	28439.49
751.283	28367.63
751.621	28391.58
751.96	28286.28
752.298	28289.44
752.636	28348.42
752.975	28156.11
753.313	28183.45
753.651	28207.86
753.989	28079.5
754.327	27984.82
754.666	27896.91
755.004	27866.63
755.342	27917.47
755.679	27886.96
756.017	27776.91
756.355	27814.65
756.693	27557.71
757.031	27608.55
757.368	27468.67
757.706	27494.21
758.044	27514.32
758.381	27549.57
758.719	27384.6
759.056	27368.33
759.394	27154.1
759.731	27116.59
760.068	27052.64
760.405	26990.94
760.743	26860.1
761.08	26877.95
761.417	26737.16
761.754	26739.42
762.091	26642.48
762.428	26596.38
762.765	26463.95
763.102	26600.44
763.438	26414.46
763.775	26234.13
764.112	26193.45
764.449	26302.83
764.785	26178.99
765.122	25947.58
765.458	25784.87
765.795	25934.25
766.131	25769.51
766.467	25616.06
766.804	25593.47
767.14	25524.31
767.476	25492.9
767.812	25371.1
768.148	25353.25
768.485	25210.42
768.821	25091.11
769.157	25136.98
769.492	25113.48
769.828	24934.73
770.164	24887.72
770.5	24747.39
770.836	24771.11
771.171	24601.63
771.507	24544.68
771.842	24421.52
772.178	24343.33
772.513	24291.35
772.849	24278.7
773.184	23995.09
773.519	23946.05
773.855	23904.7
774.19	23871.48
774.525	23784.02
774.86	23725.27
775.195	23697.02
775.53	23655.66
775.865	23458.83
776.2	23267.42
776.535	23233.98
776.87	23173.42
777.205	23147.88
777.539	23029.24
777.874	23163.7
778.209	22746.99
778.543	22798.06
778.878	22597.16
779.212	22733.65
779.547	22519.42
779.881	22500.44
780.215	22445.98
780.55	22434.9
780.884	22253.44
781.218	22188.13
781.552	22269.94
781.886	22043.5
782.22	21950.17
782.554	21942.94
782.888	21767.13
783.222	21623.63
783.556	21544.08
783.889	21493.69
784.223	21298.66
784.557	21320.81
784.89	21410.52
785.224	21201.04
785.557	21072.91
785.891	20995.85
786.224	20949.29
786.558	20911.33
786.891	20759.02
787.224	20722.18
787.557	20655.52
787.891	20535.07
788.224	20528.97
788.557	20474.28
788.89	20406.71
789.223	20349.54
789.556	20355.86
789.888	20267.28
790.221	20081.97
790.554	19896.67
790.887	20058.92
791.219	19975.99
791.552	19786.16
791.884	19793.39
792.217	19684.02
792.549	19655.54
792.882	19534.19
793.214	19456.45
793.546	19422.33
793.879	19428.43
794.211	19251.94
794.543	19323.12
794.875	19205.84
795.207	19343.01
795.539	19157.25
795.871	19163.35
796.203	18912.06
796.535	18903.47
796.867	18868.67
797.198	18820.99
797.53	18737.6
797.862	18563.59
798.193	18690.6
798.525	18448.57
798.856	18565.63
799.188	18352.3
799.519	18248.12
799.85	18188.91
800.182	18232.98
800.513	18269.14
800.844	18013.1
801.175	18153.21
801.506	18123.15
801.837	18002.93
802.168	17910.28
802.499	17819.43
802.83	17778.98
803.161	17775.82
803.491	17824.86
803.822	17686.1
804.153	17552.55
804.483	17484.07
804.814	17391.2
805.145	17430.52
805.475	17442.95
805.805	17310.07
806.136	17365.21
806.466	17228.26
806.796	17286.11
807.126	17156.4
807.457	17157.08
807.787	17066.01
808.117	16974.94
808.447	16976.52
808.777	16897.2
809.107	16859.91
809.436	16830.98
809.766	16697.43
810.096	16677.32
810.426	16658.33
810.755	16638.22
811.085	16581.05
811.414	16554.16
811.744	16489.07
812.073	16391.22
812.403	16323.65
812.732	16316.42
813.061	16229.42
813.39	16151.23
813.719	16074.62
814.049	16190.32
814.378	16147.84
814.707	16059.93
815.036	16099.48
815.365	16017.45
815.693	15825.36
816.022	15894.51
816.351	15907.17
816.68	15671.92
817.008	15794.85
817.337	15712.14
817.665	15621.3
817.994	15663.78
818.322	15668.3
818.651	15583.11
818.979	15557.57
819.307	15595.99
819.636	15489.78
819.964	15451.36
820.292	15581.98
820.62	15439.83
820.948	15470.34
821.276	15438.03
821.604	15385.6
821.932	15347.63
822.259	15360.97
822.587	15251.82
822.915	15328.88
823.243	15291.59
823.57	15354.64
823.898	15350.8
824.225	15261.31
824.553	15233.74
824.88	15355.09
825.207	15360.51
825.535	15323
825.862	15318.71
826.189	15325.26
826.516	15339.72
826.843	15418.59
827.17	15321.19
827.497	15286.84
827.824	15231.48
828.151	15367.29
828.478	15291.14
828.805	15266.51
829.131	15300.63
829.458	15262.66
829.785	15156.23
830.111	15178.15
830.438	15301.98
830.764	15334.98
831.09	15221.99
831.417	15169.78
831.743	15239.61
832.069	15153.74
832.395	15218.37
832.722	15194.42
833.048	15103.12
833.374	15183.34
833.7	15105.61
834.026	15069.45
834.351	15161.2
834.677	15105.15
835.003	15106.51
835.329	15090.69
835.654	15070.58
835.98	14962.11
836.306	15072.84
836.631	14924.37
836.956	14969.11
837.282	15014.31
837.607	14973.63
837.932	14874.43
838.258	14860.19
838.583	14913.29
838.908	14683.92
839.233	14821.32
839.558	14774.09
839.883	14705.16
840.208	14644.6
840.533	14654.32
840.858	14639.86
841.182	14585.62
841.507	14645.5
841.832	14474.21
842.156	14585.85
842.481	14527.54
842.805	14512.4
843.13	14376.81
843.454	14365.06
843.778	14279.19
844.103	14391.27
844.427	14294.1
844.751	14307.43
845.075	14202.35
845.399	14126.65
845.723	14150.83
846.047	14144.05
846.371	13921.91
846.695	13996.03
847.019	13939.53
847.343	13783.15
847.666	13729.82
847.99	13688.02
848.313	13652.76
848.637	13588.13
848.96	13662.71
849.284	13503.61
849.607	13492.09
849.931	13472.88
850.254	13313.79
850.577	13262.26
850.9	13222.72
851.223	13118.31
851.546	13104.75
851.869	13028.15
852.192	13071.31
852.515	12936.4
852.838	12870.41
853.161	12862.05
853.483	12766.68
853.806	12786.34
854.129	12780.47
854.451	12681.71
854.774	12707.48
855.096	12643.07
855.419	12578.44
855.741	12526.92
856.063	12504.09
856.385	12517.2
856.708	12443.3
857.03	12326.02
857.352	12358.11
857.674	12300.93
857.996	12313.59
858.318	12167.15
858.64	12230.88
858.961	12194.72
859.283	12185.46
859.605	12115.18
859.926	12127.15
860.248	12041.73
860.57	12065.46
860.891	12050.32
861.212	12023.43
861.534	11931
861.855	11859.36
862.176	11882.64
862.498	11851.68
862.819	11845.8
863.14	11831.79
863.461	11832.25
863.782	11735.75
864.103	11769.2
864.424	11681.06
864.745	11726.71
865.065	11655.98
865.386	11614.85
865.707	11611.91
866.027	11636.32
866.348	11604
866.668	11541.86
866.989	11509.09
867.309	11465.02
867.63	11478.58
867.95	11554.06
868.27	11368.98
868.59	11378.02
868.91	11373.5
869.23	11299.83
869.55	11286.72
869.87	11436.1
870.19	11321.07
870.51	11320.85
870.83	11373.5
871.15	11301.19
871.469	11272.71
871.789	11251.24
872.109	11215.31
872.428	11177.8
872.748	11176.67
873.067	11194.97
873.386	11195.65
873.706	11105.26
874.025	11000.63
874.344	11017.8
874.663	11100.74
874.982	11058.48
875.301	11086.95
875.62	11008.31
875.939	11021.42
876.258	10986.84
876.577	10974.64
876.896	10942.78
877.214	10949.33
877.533	10926.05
877.852	10891.71
878.17	10831.37
878.489	10834.31
878.807	10862.33
879.125	10839.5
879.444	10758.6
879.762	10729.68
880.08	10803.8
880.398	10778.26
880.716	10753.63
881.034	10706.63
881.352	10655.33
881.67	10735.1
881.988	10676.8
882.306	10617.14
882.624	10520.19
882.941	10542.56
883.259	10476.35
883.577	10578.04
883.894	10495.56
884.212	10512.28
884.529	10484.03
884.846	10471.15
885.164	10401.1
885.481	10291.72
885.798	10369.46
886.115	10321.1
886.432	10324.04
886.75	10266.18
887.067	10276.81
887.383	10238.61
887.7	10212.17
888.017	10143.48
888.334	10250.59
888.651	10213.53
888.967	10099.18
889.284	10084.04
889.6	10071.84
889.917	9928.79
890.233	9994.55
890.55	9928.34
890.866	10024.61
891.182	9954.33
891.498	9945.06
891.815	9897.16
892.131	9816.25
892.447	9843.6
892.763	9807.21
893.079	9711.4
893.395	9714.79
893.71	9704.39
894.026	9705.97
894.342	9654
894.657	9571.06
894.973	9555.02
895.289	9565.64
895.604	9512.98
895.92	9355.25
896.235	9373.1
896.55	9356.38
896.865	9458.75
897.181	9317.28
897.496	9381.69
897.811	9304.18
898.126	9228.25
898.441	9265.31
898.756	9168.59
899.071	9152.54
899.386	9117.29
899.7	9115.71
900.015	8977.86
900.33	9014.01
900.644	8942.83
900.959	8932.66
901.273	8902.6
901.588	8869.39
901.902	8867.58
902.216	8773.34
902.531	8841.59
902.845	8783.06
903.159	8750.07
903.473	8683.4
903.787	8704.87
904.101	8663.97
904.415	8573.35
904.729	8616.74
905.042	8504.65
905.356	8534.7
905.67	8454.03
905.984	8497.19
906.297	8470.98
906.611	8392.56
906.924	8403.63
907.237	8423.07
907.551	8324.99
907.864	8313.02
908.177	8225.11
908.491	8204.32
908.804	8190.99
909.117	8117.77
909.43	8071.44
909.743	8067.6
910.056	8091.33
910.368	7984.44
910.681	7974.95
910.994	7998.22
911.307	7939.92
911.619	7875.06
911.932	7822.86
912.244	7830.09
912.557	7819.02
912.869	7709.42
913.181	7744.9
913.494	7693.37
913.806	7583.54
914.118	7619.7
914.43	7593.71
914.742	7543.54
915.054	7525.24
915.366	7479.59
915.678	7434.39
915.99	7408.86
916.302	7349.43
916.613	7329.54
916.925	7314.4
917.236	7294.51
917.548	7184.46
917.859	7281.18
918.171	7210.9
918.482	7176.32
918.794	7156.44
919.105	7166.83
919.416	7047.51
919.727	7080.05
920.038	7101.52
920.349	6980.17
920.66	6951.02
920.971	6967.97
921.282	6894.07
921.593	6885.48
921.903	6797.58
922.214	6843
922.525	6812.72
922.835	6724.58
923.146	6739.72
923.456	6652.04
923.767	6724.81
924.077	6664.02
924.387	6620.86
924.697	6623.34
925.008	6630.35
925.318	6503.8
925.628	6541.76
925.938	6503.12
926.248	6470.35
926.558	6447.3
926.867	6445.72
927.177	6360.98
927.487	6371.6
927.796	6267.19
928.106	6314.65
928.416	6288.66
928.725	6247.53
929.034	6216.8
929.344	6245.27
929.653	6197.14
929.962	6132.51
930.271	6075.11
930.581	6076.92
930.89	6075.11
931.199	6019.74
931.508	5992.85
931.817	5973.42
932.125	5963.25
932.434	5954.43
932.743	5870.37
933.051	5892.29
933.36	5828.56
933.669	5868.33
933.977	5782.46
934.286	5794.44
934.594	5793.31
934.902	5742.01
935.21	5710.82
935.519	5716.7
935.827	5639.41
936.135	5664.05
936.443	5601
936.751	5518.74
937.059	5591.96
937.367	5575.01
937.674	5485.52
937.982	5527.78
938.29	5479.64
938.597	5484.62
938.905	5356.71
939.213	5369.36
939.52	5347.67
939.827	5337.73
940.135	5332.08
940.442	5345.18
940.749	5247.79
941.056	5299.99
941.363	5201.69
941.67	5240.33
941.977	5214.34
942.284	5125.98
942.591	5161.46
942.898	5141.35
943.205	5114.46
943.511	5062.48
943.818	5067.68
944.125	5083.5
944.431	5020.67
944.738	4985.19
945.044	4955.36
945.35	4947.68
945.657	4911.75
945.963	4926.89
946.269	4848.7
946.575	4889.83
946.881	4849.38
947.187	4858.87
947.493	4788.59
947.799	4767.8
948.105	4766.22
948.41	4747.69
948.716	4739.1
949.022	4698.87
949.327	4705.65
949.633	4638.31
949.938	4633.34
950.244	4621.36
950.549	4577.97
950.854	4544.3
951.16	4581.81
951.465	4571.87
951.77	4525.77
952.075	4582.72
952.38	4494.13
952.685	4479.44
952.99	4508.82
953.294	4408.26
953.599	4435.83
953.904	4361.26
954.209	4327.13
954.513	4313.8
954.818	4332.56
955.122	4327.81
955.426	4274.93
955.731	4241.26
956.035	4223.63
956.339	4236.74
956.643	4235.83
956.948	4199
957.252	4152.9
957.556	4139.11
957.86	4142.5
958.163	4125.78
958.467	4143.63
958.771	4057.31
959.075	4081.71
959.378	4039.46
959.682	4034.03
959.985	4022.51
960.289	3997.42
960.592	3978.89
960.896	3954.94
961.199	3940.7
961.502	3932.79
961.805	3893.47
962.108	3895.96
962.411	3887.82
962.714	3865
963.017	3870.42
963.32	3789.29
963.623	3832
963.926	3806.69
964.228	3788.84
964.531	3762.63
964.833	3781.61
965.136	3716.53
965.438	3749.75
965.741	3699.13
966.043	3719.01
966.345	3658.45
966.648	3654.61
966.95	3632.91
967.252	3621.16
967.554	3600.15
967.856	3578.45
968.158	3580.03
968.46	3547.04
968.761	3532.12
969.063	3523.31
969.365	3544.78
969.666	3498.45
969.968	3479.24
970.269	3478.79
970.571	3483.31
970.872	3451.22
971.174	3433.37
971.475	3369.19
971.776	3361.73
972.077	3399.47
972.378	3393.6
972.679	3337.1
972.98	3354.95
973.281	3339.36
973.582	3293.26
973.883	3296.42
974.183	3270.66
974.484	3303.66
974.785	3259.14
975.085	3202.42
975.386	3205.13
975.686	3235.41
975.986	3201.29
976.287	3225.01
976.587	3146.37
976.887	3158.8
977.187	3135.07
977.487	3075.19
977.787	3100.72
978.087	3102.98
978.387	3072.48
978.687	3062.08
978.987	3050.78
979.286	3037.45
979.586	3033.83
979.885	2995.19
980.185	3000.16
980.484	2995.87
980.784	3009.2
981.083	2958.13
981.382	2937.11
981.682	2925.13
981.981	2888.98
982.28	2867.96
982.579	2875.19
982.878	2894.4
983.177	2861.41
983.475	2836.55
983.774	2850.11
984.073	2852.59
984.372	2793.84
984.67	2785.03
984.969	2838.36
985.267	2759.94
985.566	2783.44
985.864	2766.27
986.162	2766.72
986.461	2720.39
986.759	2711.13
987.057	2640.85
987.355	2665.25
987.653	2702.32
987.951	2678.81
988.249	2644.92
988.547	2624.58
988.844	2642.2
989.142	2636.1
989.44	2610.11
989.737	2604.92
990.035	2597.69
990.332	2584.8
990.63	2565.14
990.927	2530.8
991.224	2521.08
991.521	2481.08
991.819	2528.76
992.116	2520.4
992.413	2486.05
992.71	2479.04
993.006	2461.64
993.303	2441.98
993.6	2474.3
993.897	2437.01
994.193	2432.72
994.49	2413.51
994.787	2368.77
995.083	2362.89
995.379	2382.78
995.676	2364.02
995.972	2377.8
996.268	2318.82
996.565	2329.44
996.861	2300.97
997.157	2310.91
997.453	2302.78
997.749	2279.73
998.044	2279.73
998.34	2278.6
998.636	2241.99
998.932	2243.12
999.227	2216
999.523	2222.78
999.818	2189.11
1000.114	2226.17
1000.409	2203.57
1000.704	2178.71
1001	2149.34
1001.295	2158.15
1001.59	2140.3
1001.885	2151.37
1002.18	2108.66
1002.475	2088.09
1002.77	2089.68
1003.065	2067.98
1003.359	2046.97
1003.654	2087.87
1003.949	1988.66
1004.243	2023.46
1004.538	2017.59
1004.832	1997.48
1005.127	1984.37
1005.421	1984.14
1005.715	1988.89
1006.009	1983.01
1006.304	1923.35
1006.598	1952.28
1006.892	1953.64
1007.186	1912.73
1007.48	1914.99
1007.773	1926.07
1008.067	1879.29
1008.361	1863.69
1008.655	1860.08
1008.948	1851.04
1009.242	1858.72
1009.535	1855.33
1009.829	1842.23
1010.122	1838.16
1010.415	1809.91
1010.708	1802.45
1011.001	1775.11
1011.295	1766.52
1011.588	1777.82
1011.881	1771.27
1012.173	1737.37
1012.466	1766.3
1012.759	1754.77
1013.052	1743.7
1013.344	1718.39
1013.637	1687.43
1013.93	1686.98
1014.222	1669.57
1014.514	1662.8
1014.807	1663.47
1015.099	1651.95
1015.391	1636.81
1015.683	1632.97
1015.976	1592.97
1016.268	1625.96
1016.56	1635
1016.851	1598.39
1017.143	1557.49
1017.435	1550.48
1017.727	1566.98
1018.018	1535.57
1018.31	1544.15
1018.602	1536.47
1018.893	1543.7
1019.185	1544.15
1019.476	1480.2
1019.767	1476.13
1020.058	1475.68
1020.35	1461.9
1020.641	1489.69
1020.932	1451.95
1021.223	1455.8
1021.514	1449.02
1021.804	1425.29
1022.095	1385.97
1022.386	1417.15
1022.677	1390.26
1022.967	1369.24
1023.258	1374.89
1023.548	1378.73
1023.839	1362.24
1024.129	1360.2
1024.419	1359.3
1024.709	1332.86
1025	1306.87
1025.29	1343.71
1025.58	1293.99
1025.87	1287.44
1026.16	1297.38
1026.449	1282.01
1026.739	1277.04
1027.029	1281.79
1027.319	1241.79
1027.608	1255.8
1027.898	1271.85
1028.187	1260.09
1028.477	1233.65
1028.766	1227.78
1029.055	1201.11
1029.344	1190.04
1029.634	1186.2
1029.923	1162.7
1030.212	1161.34
1030.501	1173.99
1030.79	1160.66
1031.078	1126.76
1031.367	1153.43
1031.656	1119.76
1031.945	1143.94
1032.233	1120.89
1032.522	1118.4
1032.81	1111.62
1033.099	1076.6
1033.387	1099.42
1033.675	1087.44
1033.963	1103.26
1034.251	1105.97
1034.54	1056.94
1034.828	1070.72
1035.116	1075.47
1035.403	1053.32
1035.691	1027.56
1035.979	1046.77
1036.267	1046.77
1036.554	1022.13
1036.842	1011.51
1037.129	1012.19
1037.417	992.76
1037.704	992.76
1037.992	981.01
1038.279	989.82
1038.566	961.34
1038.853	961.34
1039.14	961.34
