Data from hue_190_FLMS001491_00035.txt Node
Date: Tue Feb 07 16:45:12 GMT 2017
User: dcchb
Spectrometer: FLMS00149
Trigger mode: 0
Integration Time (sec): 2.000000E-2
Scans to average: 10
Electric dark correction enabled: true
Nonlinearity correction enabled: false
Boxcar width: 0
XAxis mode: Wavelengths
Number of Pixels in Spectrum: 2048
>>>>>Begin Spectral Data<<<<<
341.393	-3.12
341.776	-3.12
342.16	-3.12
342.543	-49.9
342.927	-59.62
343.31	-64.81
343.693	-65.49
344.077	-52.61
344.46	-41.31
344.843	-62.78
345.226	-42.44
345.61	-33.4
345.993	-42.67
346.376	-0.18
346.759	19.93
347.142	15.64
347.525	42.98
347.908	67.61
348.291	75.29
348.674	98.57
349.057	85.69
349.44	123.65
349.823	127.5
350.206	169.53
350.588	193.48
350.971	208.4
351.354	220.83
351.737	216.99
352.119	248.62
352.502	252.24
352.884	258.34
353.267	257.44
353.65	282.97
354.032	282.97
354.414	287.04
354.797	313.71
355.179	299.02
355.562	321.16
355.944	334.5
356.326	327.27
356.709	325.68
357.091	329.75
357.473	334.27
357.855	338.79
358.238	320.26
358.62	327.72
359.002	332.24
359.384	333.82
359.766	343.54
360.148	307.6
360.53	346.93
360.912	328.17
361.294	340.82
361.676	347.15
362.057	327.04
362.439	335.4
362.821	318.68
363.203	302.18
363.584	324.55
363.966	305.57
364.348	308.51
364.729	306.02
365.111	320.26
365.493	304.22
365.874	314.61
366.256	300.37
366.637	331.56
367.019	312.35
367.4	320.94
367.781	311.67
368.163	328.4
368.544	304.67
368.925	280.94
369.306	311.67
369.688	306.47
370.069	283.88
370.45	321.84
370.831	300.37
371.212	313.48
371.593	306.25
371.974	301.73
372.355	314.84
372.736	329.3
373.117	307.15
373.498	309.64
373.879	301.5
374.26	310.32
374.641	308.06
375.021	300.15
375.402	313.48
375.783	299.24
376.163	304.44
376.544	332.69
376.925	323.88
377.305	318
377.686	341.5
378.066	312.12
378.447	335.4
378.827	309.64
379.208	346.25
379.588	318.23
379.968	329.07
380.349	318.45
380.729	324.33
381.109	330.2
381.489	330.66
381.87	321.39
382.25	319.13
382.63	327.49
383.01	338.11
383.39	334.27
383.77	331.56
384.15	344.89
384.53	327.27
384.91	351.22
385.29	334.5
385.67	339.24
386.049	350.32
386.429	341.5
386.809	338.11
387.189	338.11
387.568	339.02
387.948	348.28
388.328	369.07
388.707	346.7
389.087	342.63
389.466	364.33
389.846	359.58
390.225	353.48
390.605	367.49
390.984	343.76
391.363	361.84
391.743	369.3
392.122	358.68
392.501	362.29
392.881	361.16
393.26	368.39
393.639	370.88
394.018	350.77
394.397	361.39
394.776	389.18
395.155	368.39
395.534	365
395.913	386.47
396.292	385.12
396.671	372.46
397.05	397.55
397.429	384.21
397.808	395.06
398.186	381.5
398.565	391.22
398.944	376.3
399.323	404.33
399.701	399.13
400.08	408.85
400.458	391.22
400.837	425.57
401.215	383.99
401.594	393.7
401.972	409.3
402.351	412.46
402.729	416.3
403.107	404.55
403.486	407.94
403.864	423.76
404.242	415.62
404.62	420.6
404.999	453.36
405.377	409.52
405.755	420.14
406.133	425.12
406.511	437.54
406.889	461.5
407.267	438
407.645	460.14
408.023	467.37
408.401	465.79
408.779	454.95
409.156	478.67
409.534	485.23
409.912	480.03
410.29	496.53
410.667	505.11
411.045	499.69
411.422	514.38
411.8	522.29
412.178	502.18
412.555	527.94
412.933	543.08
413.31	565
413.687	560.93
414.065	587.37
414.442	560.03
414.819	589.63
415.197	585.34
415.574	610.2
415.951	603.19
416.328	585.56
416.705	621.49
417.082	626.47
417.46	637.09
417.837	653.81
418.214	630.08
418.591	662.62
418.967	663.75
419.344	675.28
419.721	679.35
420.098	682.28
420.475	702.85
420.852	717.54
421.228	704.43
421.605	732.9
421.982	737.88
422.358	744.2
422.735	754.15
423.111	786.91
423.488	776.97
423.864	788.95
424.241	812.9
424.617	815.39
424.994	832.79
425.37	856.07
425.746	855.84
426.123	892.22
426.499	890.19
426.875	910.75
427.251	872.56
427.627	937.19
428.003	924.54
428.379	951.66
428.756	943.07
429.132	991.65
429.507	994.59
429.883	976.74
430.259	991.88
430.635	995.95
431.011	1013.58
431.387	1030.98
431.763	1049.51
432.138	1075.04
432.514	1088.83
432.89	1072.78
433.265	1090.86
433.641	1143.06
434.016	1149.84
434.392	1153.01
434.767	1187.81
435.143	1204.98
435.518	1228.94
435.894	1244.98
436.269	1260.12
436.644	1289.27
437.02	1328.14
437.395	1317.07
437.77	1364.75
438.145	1374.47
438.52	1387.12
438.895	1409.95
439.271	1442.26
439.646	1458.08
440.021	1467.57
440.395	1489.04
440.77	1480
441.145	1515.03
441.52	1552.32
441.895	1570.85
442.27	1596.84
442.645	1567.46
443.019	1594.8
443.394	1614.69
443.769	1622.37
444.143	1657.85
444.518	1694.24
444.892	1691.3
445.267	1689.26
445.641	1733.1
446.016	1730.39
446.39	1741.92
446.764	1761.58
447.139	1762.93
447.513	1762.93
447.887	1795.48
448.262	1795.7
448.636	1810.62
449.01	1838.64
449.384	1873.21
449.758	1884.96
450.132	1922.03
450.506	1937.84
450.88	1893.33
451.254	1936.94
451.628	1956.6
452.002	2002.25
452.376	2004.51
452.75	2039.08
453.123	2032.08
453.497	2062.81
453.871	2064.85
454.244	2132.87
454.618	2126.99
454.992	2166.99
455.365	2155.69
455.739	2202.92
456.112	2261
456.486	2247.21
456.859	2257.16
457.232	2342.13
457.606	2304.16
457.979	2382.8
458.352	2432.97
458.725	2407.89
459.099	2444.72
459.472	2536.25
459.845	2555.46
460.218	2538.96
460.591	2588
460.964	2626.87
461.337	2633.87
461.71	2655.57
462.083	2732.85
462.456	2695.34
462.829	2729.24
463.201	2812.4
463.574	2817.14
463.947	2838.16
464.32	2931.26
464.692	2937.82
465.065	2975.11
465.438	3023.69
465.81	3021.21
466.183	3092.16
466.555	3149.56
466.928	3143.01
467.3	3137.81
467.672	3230.69
468.045	3331.48
468.417	3327.86
468.789	3356.34
469.161	3439.27
469.534	3469.56
469.906	3521.76
470.278	3574.64
470.65	3592.04
471.022	3660.29
471.394	3730.79
471.766	3822.77
472.138	3822.09
472.51	3936.44
472.882	3987.96
473.253	4061.18
473.625	4063.21
473.997	4182.98
474.369	4209.88
474.74	4237.67
475.112	4328.06
475.484	4394.28
475.855	4482.64
476.227	4490.55
476.598	4596.08
476.97	4703.42
477.341	4818.45
477.713	4881.27
478.084	4879.69
478.455	5033.58
478.827	5067.71
479.198	5222.05
479.569	5239.23
479.94	5377.08
480.311	5435.15
480.682	5569.84
481.053	5685.77
481.424	5775.03
481.795	5877.85
482.166	5933.45
482.537	6014.12
482.908	6092.31
483.279	6215.7
483.65	6316.94
484.021	6444.39
484.391	6549.47
484.762	6600.55
485.133	6681.45
485.503	6713.09
485.874	6926.19
486.244	6930.71
486.615	7057.26
486.985	7167.76
487.356	7327.76
487.726	7373.18
488.097	7499.05
488.467	7500.41
488.837	7716.45
489.207	7817.01
489.578	7881.64
489.948	7939.72
490.318	8035.31
490.688	8124.35
491.058	8261.07
491.428	8343.78
491.798	8402.31
492.168	8551
492.538	8529.08
492.908	8681.4
493.278	8723.88
493.648	8762.07
494.017	8841.39
494.387	8958.9
494.757	9010.88
495.126	9154.6
495.496	9164.55
495.866	9233.92
496.235	9276.86
496.605	9355.5
496.974	9428.04
497.344	9488.61
497.713	9626.91
498.082	9593.69
498.452	9661.03
498.821	9654.7
499.19	9722.95
499.559	9743.06
499.928	9844.98
500.298	9895.83
500.667	9911.87
501.036	9932.89
501.405	9926.56
501.774	9933.79
502.143	10057.41
502.512	10054.69
502.88	10136.27
503.249	10135.6
503.618	10171.3
503.987	10210.85
504.356	10294.91
504.724	10251.07
505.093	10305.31
505.462	10290.85
505.83	10349.15
506.199	10448.13
506.567	10552.08
506.936	10499.65
507.304	10548.69
507.672	10573.78
508.041	10541.46
508.409	10667.78
508.777	10649.71
509.145	10695.35
509.514	10641.34
509.882	10779.42
510.25	10792.53
510.618	10794.79
510.986	10791.4
511.354	10831.62
511.722	10837.5
512.09	10944.16
512.458	10867.1
512.826	10926.76
513.193	10909.81
513.561	10928.79
513.929	10912.98
514.297	10930.6
514.664	11017.83
515.032	11051.73
515.4	11136.47
515.767	11075.68
516.135	11067.32
516.502	10993.2
516.869	11162.91
517.237	11140.54
517.604	11025.74
517.972	11150.71
518.339	11151.16
518.706	11099.86
519.073	11123.82
519.44	11091.28
519.808	11212.85
520.175	11124.5
520.542	11220.09
520.909	11218.28
521.276	11155.23
521.643	11195.68
522.009	11204.72
522.376	11252.85
522.743	11264.15
523.11	11254.66
523.477	11318.61
523.843	11348.22
524.21	11363.36
524.577	11356.81
524.943	11270.93
525.31	11369.91
525.676	11330.14
526.043	11350.93
526.409	11284.27
526.776	11411.95
527.142	11375.56
527.508	11416.69
527.874	11382.57
528.241	11415.79
528.607	11301.67
528.973	11312.51
529.339	11281.78
529.705	11326.98
530.071	11329.69
530.437	11251.05
530.803	11225.51
531.169	11258.5
531.535	11199.3
531.901	11121.33
532.267	11094.89
532.632	11135.12
532.998	11133.99
533.364	11151.84
533.73	11093.76
534.095	11020.54
534.461	10977.83
534.826	10983.03
535.192	10930.83
535.557	10899.42
535.923	10909.36
536.288	10856.48
536.653	10752.3
537.019	10730.83
537.384	10764.05
537.749	10658.97
538.114	10603.38
538.479	10536.94
538.845	10521.35
539.21	10432.31
539.575	10420.11
539.94	10439.09
540.305	10375.14
540.67	10407.68
541.034	10273.9
541.399	10230.06
541.764	10218.53
542.129	10154.58
542.494	10130.17
542.858	10040.23
543.223	9974.92
543.587	10021.47
543.952	9874.81
544.316	9913.45
544.681	9792.33
545.045	9802.04
545.41	9773.34
545.774	9744.87
546.138	9668.71
546.503	9597.08
546.867	9537.42
547.231	9561.82
547.595	9448.38
547.959	9430.08
548.324	9389.17
548.688	9239.57
549.052	9249.06
549.416	9215.39
549.779	9188.05
550.143	9088.39
550.507	9113.25
550.871	9088.16
551.235	9052.46
551.599	8980.6
551.962	9036.87
552.326	8851.56
552.689	8946.93
553.053	8768.85
553.417	8723.65
553.78	8769.3
554.143	8700.6
554.507	8657.22
554.87	8642.75
555.234	8661.96
555.597	8587.16
555.96	8520.95
556.323	8547.84
556.686	8499.03
557.05	8492.93
557.413	8450.44
557.776	8382.87
558.139	8431.91
558.502	8363.44
558.865	8353.04
559.228	8379.48
559.59	8266.04
559.953	8299.49
560.316	8322.99
560.679	8274.18
561.041	8326.38
561.404	8308.75
561.767	8256.77
562.129	8246.38
562.492	8195.31
562.854	8232.82
563.217	8185.59
563.579	8199.83
563.941	8183.78
564.304	8185.59
564.666	8207.06
565.028	8143.33
565.39	8139.94
565.753	8152.37
566.115	8136.55
566.477	8112.82
566.839	8086.84
567.201	8096.33
567.563	8101.07
567.925	8125.48
568.287	8087.74
568.648	8120.73
569.01	8122.77
569.372	8141.3
569.734	8078.02
570.095	8117.12
570.457	8146.95
570.819	8086.84
571.18	8122.31
571.542	8111.69
571.903	8120.51
572.265	8098.59
572.626	8085.48
572.987	8114.18
573.349	8074.63
573.71	8068.3
574.071	8031.24
574.432	8104.01
574.794	8096.33
575.155	8108.98
575.516	8064.24
575.877	8045.48
576.238	8067.85
576.599	8078.02
576.96	8065.59
577.32	8071.69
577.681	8091.13
578.042	8045.93
578.403	8059.04
578.763	8058.59
579.124	8088.87
579.485	8074.18
579.845	8063.11
580.206	8011.13
580.566	8033.96
580.927	8030.34
581.287	8059.72
581.648	8038.48
582.008	8045.03
582.368	7975.65
582.728	7986.05
583.089	7960.74
583.449	7947.18
583.809	8055.88
584.169	7982.88
584.529	7936.1
584.889	7989.44
585.249	7896.33
585.609	7893.85
585.969	7887.29
586.329	7931.81
586.688	7898.82
587.048	7903.34
587.408	7861.53
587.768	7844.58
588.127	7821.08
588.487	7800.29
588.846	7890.46
589.206	7799.61
589.565	7840.97
589.925	7826.28
590.284	7841.87
590.643	7875.32
591.003	7839.38
591.362	7847.29
591.721	7840.74
592.08	7797.58
592.44	7785.6
592.799	7788.99
593.158	7796.45
593.517	7751.7
593.876	7742.89
594.235	7741.76
594.593	7684.13
594.952	7721.87
595.311	7703.79
595.67	7699.95
596.029	7775.43
596.387	7691.59
596.746	7704.25
597.104	7665.83
597.463	7647.98
597.822	7765.49
598.18	7652.27
598.538	7592.39
598.897	7708.54
599.255	7611.82
599.613	7698.82
599.972	7650.01
600.33	7713.29
600.688	7595.32
601.046	7685.26
601.404	7681.42
601.762	7630.8
602.12	7693.63
602.478	7624.7
602.836	7701.53
603.194	7557.13
603.552	7679.61
603.91	7527.08
604.268	7564.82
604.625	7611.14
604.983	7613.4
605.341	7673.51
605.698	7650.91
606.056	7621.31
606.413	7639.39
606.771	7619.05
607.128	7661.76
607.485	7597.58
607.843	7628.32
608.2	7684.36
608.557	7688.65
608.914	7619.96
609.272	7616.57
609.629	7673.51
609.986	7638.71
610.343	7607.07
610.7	7735.43
611.057	7654.3
611.414	7624.7
611.771	7657.02
612.127	7693.63
612.484	7680.74
612.841	7734.75
613.198	7648.2
613.554	7714.87
613.911	7686.62
614.267	7675.77
614.624	7686.62
614.98	7682.55
615.337	7767.52
615.693	7741.31
616.05	7702.66
616.406	7754.87
616.762	7684.36
617.118	7707.64
617.475	7738.14
617.831	7752.15
618.187	7699.05
618.543	7723.91
618.899	7742.66
619.255	7804.81
619.611	7787.41
619.967	7757.35
620.323	7724.36
620.678	7801.65
621.034	7753.06
621.39	7748.54
621.746	7709.67
622.101	7820.63
622.457	7777.01
622.812	7748.31
623.168	7754.64
623.523	7758.26
623.879	7824.92
624.234	7708.09
624.589	7792.61
624.945	7724.36
625.3	7815.2
625.655	7803.9
626.01	7766.84
626.365	7753.06
626.72	7777.24
627.075	7679.61
627.43	7697.92
627.785	7729.1
628.14	7775.88
628.495	7741.31
628.85	7823.11
629.205	7670.35
629.559	7795.54
629.914	7690.24
630.269	7733.4
630.623	7672.16
630.978	7681.87
631.332	7717.35
631.687	7684.36
632.041	7633.51
632.396	7699.5
632.75	7648.65
633.104	7607.75
633.459	7585.15
633.813	7597.36
634.167	7541.09
634.521	7576.57
634.875	7598.26
635.229	7597.81
635.583	7589.45
635.937	7516
636.291	7521.88
636.645	7548.09
636.999	7495.44
637.352	7509.68
637.706	7426.51
638.06	7560.97
638.413	7512.39
638.767	7513.52
639.121	7429.45
639.474	7412.95
639.828	7466.74
640.181	7414.08
640.534	7490.69
640.888	7492.05
641.241	7342.9
641.594	7400.98
641.947	7434.88
642.301	7374.09
642.654	7426.97
643.007	7424.03
643.36	7409.11
643.713	7388.1
644.066	7442.78
644.419	7385.61
644.771	7278.95
645.124	7220.42
645.477	7275.56
645.83	7190.14
646.182	7145.39
646.535	7093.64
646.888	7158.05
647.24	7075.34
647.593	7109.91
647.945	7101.1
648.298	7106.52
648.65	7097.03
649.002	7131.61
649.355	7127.54
649.707	7104.49
650.059	7177.48
650.411	7223.36
650.763	7241.66
651.115	7348.55
651.467	7334.31
651.819	7352.62
652.171	7262.45
652.523	7258.61
652.875	7283.69
653.227	7252.73
653.578	7277.14
653.93	7273.3
654.282	7223.81
654.633	7281.88
654.985	7265.16
655.337	7239.4
655.688	7335.22
656.039	7378.61
656.391	7254.09
656.742	7273.07
657.094	7251.38
657.445	7274.88
657.796	7316.01
658.147	7350.13
658.498	7314.65
658.849	7345.39
659.2	7290.7
659.551	7310.13
659.902	7345.39
660.253	7354.43
660.604	7334.54
660.955	7297.03
661.306	7329.79
661.656	7329.79
662.007	7353.75
662.358	7349
662.708	7353.75
663.059	7359.4
663.409	7317.59
663.76	7368.21
664.11	7391.49
664.461	7360.3
664.811	7332.73
665.161	7342.45
665.511	7391.71
665.862	7386.97
666.212	7410.24
666.562	7406.18
666.912	7333.63
667.262	7363.24
667.612	7370.92
667.962	7411.15
668.312	7354.2
668.662	7417.47
669.011	7344.48
669.361	7351.26
669.711	7376.12
670.06	7374.76
670.41	7354.65
670.76	7349.91
671.109	7334.09
671.459	7384.03
671.808	7375.89
672.157	7342.22
672.507	7331.38
672.856	7279.85
673.205	7317.36
673.554	7344.71
673.904	7311.26
674.253	7380.87
674.602	7277.82
674.951	7203.24
675.3	7176.12
675.649	7227.42
675.998	7281.88
676.346	7281.88
676.695	7297.03
677.044	7233.75
677.393	7164.6
677.741	7262.9
678.09	7217.03
678.438	7139.52
678.787	7186.97
679.135	7241.66
679.484	7170.93
679.832	7181.1
680.181	7068.33
680.529	7152.85
680.877	7104.26
681.225	7113.98
681.573	7129.8
681.922	7077.82
682.27	7062.68
682.618	7050.93
682.966	7059.07
683.314	7033.53
683.661	6994.89
684.009	6995.79
684.357	6964.15
684.705	6926.41
685.053	6983.81
685.4	6933.19
685.748	6938.84
686.095	6902.46
686.443	6890.03
686.79	6854.1
687.138	6902.46
687.485	6879.64
687.832	6811.16
688.18	6830.37
688.527	6781.56
688.874	6746.31
689.221	6772.97
689.568	6749.7
689.915	6685.52
690.262	6695.01
690.609	6702.69
690.956	6668.34
691.303	6675.35
691.65	6611.62
691.997	6604.61
692.344	6605.97
692.69	6615.46
693.037	6598.29
693.383	6524.16
693.73	6506.76
694.077	6451.85
694.423	6405.3
694.769	6416.82
695.116	6451.17
695.462	6335.92
695.808	6346.09
696.155	6307.45
696.501	6276.94
696.847	6304.74
697.193	6275.13
697.539	6265.19
697.885	6213.21
698.231	6198.98
698.577	6180.9
698.923	6192.87
699.269	6154
699.614	6099.54
699.96	6129.6
700.306	6109.71
700.651	6065.65
700.997	6024.52
701.342	6024.29
701.688	6017.29
702.033	6025.87
702.379	5957.17
702.724	5964.63
703.069	5949.26
703.415	5864.29
703.76	5858.19
704.105	5828.14
704.45	5876.5
704.795	5762.6
705.14	5803.51
705.485	5795.14
705.83	5718.31
706.175	5767.12
706.52	5740.68
706.865	5734.13
707.209	5692.77
707.554	5682.38
707.899	5688.71
708.243	5610.06
708.588	5625.21
708.932	5541.37
709.277	5595.15
709.621	5539.11
709.966	5539.33
710.31	5492.78
710.654	5504.08
710.998	5504.08
711.342	5477.86
711.687	5495.72
712.031	5448.26
712.375	5466.11
712.719	5481.48
713.063	5449.62
713.407	5418.88
713.75	5416.4
714.094	5453.91
714.438	5385.89
714.782	5404.65
715.125	5401.26
715.469	5420.46
715.812	5378.21
716.156	5301.15
716.499	5331.65
716.843	5410.3
717.186	5331.88
717.53	5290.75
717.873	5323.29
718.216	5294.37
718.559	5280.58
718.902	5313.12
719.246	5287.13
719.589	5332.33
719.932	5284.2
720.275	5223.86
720.617	5253.46
720.96	5224.76
721.303	5248.49
721.646	5280.36
721.989	5196.97
722.331	5225.44
722.674	5257.76
723.016	5244.2
723.359	5209.4
723.701	5245.1
724.044	5185.89
724.386	5151.32
724.729	5242.16
725.071	5158.78
725.413	5199.91
725.755	5182.96
726.097	5176.4
726.439	5185.44
726.782	5121.94
727.124	5159.68
727.465	5163.97
727.807	5177.99
728.149	5164.65
728.491	5178.66
728.833	5185.89
729.175	5112.68
729.516	5129.4
729.858	5133.24
730.199	5087.14
730.541	5172.34
730.882	5125.33
731.224	5146.8
731.565	5146.8
731.906	5164.65
732.248	5177.31
732.589	5168.95
732.93	5118.55
733.271	5134.6
733.612	5134.6
733.953	5217.76
734.294	5132.34
734.635	5149.51
734.976	5175.05
735.317	5199.23
735.658	5206.91
735.999	5174.6
736.339	5182.73
736.68	5239
737.021	5201.94
737.361	5193.13
737.702	5242.39
738.042	5212.33
738.383	5179.12
738.723	5222.28
739.063	5258.66
739.404	5267.93
739.744	5311.54
740.084	5234.03
740.424	5246.68
740.764	5287.13
741.104	5319.45
741.444	5314.25
741.784	5327.13
742.124	5353.35
742.464	5331.43
742.804	5357.87
743.143	5367.36
743.483	5362.39
743.823	5399.22
744.162	5399
744.502	5422.72
744.841	5455.04
745.181	5488.26
745.52	5528.71
745.86	5527.81
746.199	5595.38
746.538	5618.43
746.877	5662.72
747.216	5699.78
747.556	5767.57
747.895	5753.79
748.234	5839.66
748.573	5874.46
748.911	5896.38
749.25	5971.86
749.589	6026.78
749.928	6071.97
750.267	6182.25
750.605	6175.47
750.944	6243.49
751.283	6323.94
751.621	6414.56
751.96	6533.66
752.298	6596.48
752.636	6669.25
752.975	6726.65
753.313	6821.78
753.651	6990.37
753.989	7036.69
754.327	7113.08
754.666	7229
755.004	7338.83
755.342	7501.31
755.679	7603.46
756.017	7746.73
756.355	7830.34
756.693	7916.67
757.031	8132.94
757.368	8243.44
757.706	8336.09
758.044	8518.91
758.381	8678.23
758.719	8841.84
759.056	9008.85
759.394	9131.78
759.731	9299.91
760.068	9493.58
760.405	9618.09
760.743	9759.79
761.08	9908.93
761.417	10050.17
761.754	10237.97
762.091	10450.16
762.428	10560.22
762.765	10808.12
763.102	10945.74
763.438	11064.61
763.775	11265.96
764.112	11413.3
764.449	11667.98
764.785	11759.96
765.122	11808.77
765.458	12022.1
765.795	12255.77
766.131	12415.76
766.467	12568.98
766.804	12676.77
767.14	12805.13
767.476	12949.76
767.812	13075.63
768.148	13237.66
768.485	13452.57
768.821	13530.76
769.157	13680.36
769.492	13833.8
769.828	14000.58
770.164	14057.53
770.5	14142.95
770.836	14323.51
771.171	14329.38
771.507	14485.09
771.842	14515.14
772.178	14656.61
772.513	14713.1
772.849	14913.1
773.184	14977.5
773.519	15004.62
773.855	15104.5
774.19	15269.7
774.525	15284.61
774.86	15391.28
775.195	15485.74
775.53	15504.95
775.865	15535.91
776.2	15578.16
776.535	15596.02
776.87	15677.37
777.205	15793.98
777.539	15727.99
777.874	15857.93
778.209	15850.93
778.543	15968.89
778.878	15857.93
779.212	15967.76
779.547	16040.07
779.881	16162.33
780.215	16059.73
780.55	16179.28
780.884	16151.26
781.218	16167.3
781.552	16253.63
781.886	16185.83
782.22	16140.63
782.554	16218.15
782.888	16210.69
783.222	16129.56
783.556	16136.57
783.889	16188.09
784.223	16083.91
784.557	16160.97
784.89	16157.58
785.224	16158.71
785.557	16074.42
785.891	16085.72
786.224	16183.35
786.558	16200.75
786.891	16179.05
787.224	16045.72
787.557	16104.93
787.891	16147.19
788.224	16146.06
788.557	16162.56
788.89	16193.51
789.223	16114.42
789.556	16107.42
789.888	16042.11
790.221	16105.61
790.554	15976.12
790.887	15984.25
791.219	15904.03
791.552	15942
791.884	15846.18
792.217	15817.93
792.549	15914.2
792.882	15889.79
793.214	15724.6
793.546	15823.36
793.879	15735.22
794.211	15721.66
794.543	15767.31
794.875	15766.18
795.207	15683.7
795.539	15635.56
795.871	15709.46
796.203	15515.11
796.535	15442.57
796.867	15466.08
797.198	15447.09
797.53	15494.78
797.862	15407.09
798.193	15452.07
798.525	15333.65
798.856	15394.44
799.188	15257.95
799.519	15263.37
799.85	15154.9
800.182	15253.88
800.513	15155.35
800.844	15004.17
801.175	15211.17
801.506	15153.09
801.837	15134.79
802.168	15057.27
802.499	14980.21
802.83	14912.19
803.161	14950.61
803.491	15036.71
803.822	14907.9
804.153	14881.91
804.483	14691.63
804.814	14743.61
805.145	14812.76
805.475	14672.42
805.805	14693.89
806.136	14687.34
806.466	14671.3
806.796	14687.11
807.126	14567.12
807.457	14481.24
807.787	14488.02
808.117	14426.33
808.447	14424.52
808.777	14382.26
809.107	14364.18
809.436	14420.45
809.766	14309.27
810.096	14349.5
810.426	14308.14
810.755	14248.93
811.085	14155.15
811.414	14262.49
811.744	14173.68
812.073	14096.39
812.403	14087.13
812.732	14043.51
813.061	13999.45
813.39	13949.51
813.719	13949.51
814.049	14050.97
814.378	14038.77
814.707	13887.13
815.036	13897.53
815.365	13903.41
815.693	13802.17
816.022	13829.06
816.351	13730.3
816.68	13709.74
817.008	13762.39
817.337	13592.45
817.665	13535.51
817.994	13596.07
818.322	13636.07
818.651	13557.88
818.979	13422.06
819.307	13501.38
819.636	13457.54
819.964	13525.79
820.292	13484.43
820.62	13537.77
820.948	13505
821.276	13528.5
821.604	13432.46
821.932	13488.73
822.259	13484.43
822.587	13521.49
822.915	13364.44
823.243	13497.54
823.57	13407.37
823.898	13399.01
824.225	13338.45
824.553	13429.97
824.88	13366.92
825.207	13492.79
825.535	13437.43
825.862	13486.69
826.189	13397.88
826.516	13490.99
826.843	13502.74
827.17	13560.36
827.497	13549.97
827.824	13488.5
828.151	13565.11
828.478	13488.95
828.805	13523.08
829.131	13509.52
829.458	13560.36
829.785	13469.74
830.111	13423.64
830.438	13577.76
830.764	13487.15
831.09	13470.42
831.417	13458.9
831.743	13480.59
832.069	13441.27
832.395	13338.45
832.722	13421.61
833.048	13387.49
833.374	13412.35
833.7	13361.5
834.026	13476.75
834.351	13352.91
834.677	13395.4
835.003	13441.95
835.329	13378.22
835.654	13397.43
835.98	13343.87
836.306	13326.47
836.631	13278.56
836.956	13371.67
837.282	13332.8
837.607	13208.28
837.932	13263.87
838.258	13141.39
838.583	13207.15
838.908	13111.11
839.233	13108.85
839.558	13148.17
839.883	13090.32
840.208	13112.69
840.533	13054.61
840.858	13111.34
841.182	13087.16
841.507	13084.44
841.832	13034.95
842.156	12967.61
842.481	13029.53
842.805	12941.17
843.13	12918.35
843.454	12835.41
843.778	12857.78
844.103	12766.71
844.427	12692.82
844.751	12796.99
845.075	12768.97
845.399	12626.6
845.723	12654.17
846.047	12702.76
846.371	12547.28
846.695	12547.96
847.019	12460.05
847.343	12352.71
847.666	12344.8
847.99	12311.13
848.313	12335.54
848.637	12183.9
848.96	12275.2
849.284	12209.89
849.607	12103.23
849.931	12053.96
850.254	11941.65
850.577	11881.31
850.9	11797.25
851.223	11779.62
851.546	11752.5
851.869	11722.22
852.192	11681.77
852.515	11547.76
852.838	11617.14
853.161	11595.22
853.483	11458.27
853.806	11513.64
854.129	11454.43
854.451	11323.59
854.774	11331.72
855.096	11346.18
855.419	11389.8
855.741	11246.07
856.063	11261.67
856.385	11172.4
856.708	11160.88
857.03	11107.55
857.352	11168.11
857.674	11097.83
857.996	11098.28
858.318	10885.18
858.64	10953.65
858.961	10908.46
859.283	10880.66
859.605	10788.23
859.926	10870.27
860.248	10799.76
860.57	10842.92
860.891	10803.6
861.212	10732.42
861.534	10671.63
861.855	10627.56
862.176	10642.47
862.498	10668.24
862.819	10572.42
863.14	10597.96
863.461	10526.09
863.782	10598.18
864.103	10510.27
864.424	10483.83
864.745	10554.34
865.065	10457.62
865.386	10420.33
865.707	10394.12
866.027	10435.25
866.348	10348.47
866.668	10440.67
866.989	10361.35
867.309	10320.9
867.63	10352.09
867.95	10344.18
868.27	10329.94
868.59	10321.8
868.91	10294.91
869.23	10212.88
869.55	10191.86
869.87	10212.43
870.19	10260.11
870.51	10273.22
870.83	10218.76
871.15	10096.27
871.469	10103.73
871.789	10163.16
872.109	10142.6
872.428	10136.72
872.748	10137.18
873.067	10112.77
873.386	10024.41
873.706	10085.43
874.025	9987.58
874.344	10007.69
874.663	9989.61
874.982	9998.2
875.301	9982.38
875.62	9927.69
875.939	9951.19
876.258	9938.09
876.577	9923.85
876.896	9897.18
877.214	9897.64
877.533	9877.52
877.852	9849.5
878.17	9810.86
878.489	9783.06
878.807	9797.07
879.125	9778.32
879.444	9781.25
879.762	9733.57
880.08	9714.36
880.398	9725.44
880.716	9693.8
881.034	9623.07
881.352	9646.12
881.67	9666.45
881.988	9618.32
882.306	9570.19
882.624	9510.98
882.941	9576.51
883.259	9501.49
883.577	9456.52
883.894	9433.01
884.212	9514.37
884.529	9485.44
884.846	9436.63
885.164	9408.83
885.481	9388.5
885.798	9356.41
886.115	9323.87
886.432	9361.38
886.75	9278.44
887.067	9223.3
887.383	9264.43
887.7	9302.17
888.017	9245.22
888.334	9197.09
888.651	9160.93
888.967	9080.93
889.284	9172
889.6	9096.53
889.917	9036.19
890.233	9056.75
890.55	8994.61
890.866	9001.39
891.182	8954.84
891.498	8887.72
891.815	8856.98
892.131	8844.56
892.447	8843.2
892.763	8804.78
893.079	8766.14
893.395	8765.24
893.71	8755.07
894.026	8741.51
894.342	8687.27
894.657	8627.61
894.973	8580.61
895.289	8609.31
895.604	8610.44
895.92	8471.23
896.235	8461.29
896.55	8432.36
896.865	8493.6
897.181	8409.54
897.496	8460.38
897.811	8364.79
898.126	8333.38
898.441	8231.24
898.756	8248.41
899.071	8263.55
899.386	8214.52
899.7	8145.82
900.015	8106.5
900.33	8097.91
900.644	8066.95
900.959	8132.26
901.273	8012.04
901.588	8028.53
901.902	7934.97
902.216	7908.08
902.531	7933.62
902.845	7941.75
903.159	7827.18
903.473	7823.79
903.787	7776.11
904.101	7781.98
904.415	7688.2
904.729	7683.68
905.042	7651.82
905.356	7643.01
905.67	7583.57
905.984	7594.42
906.297	7555.78
906.611	7497.47
906.924	7473.29
907.237	7531.82
907.551	7439.85
907.864	7442.78
908.177	7401.66
908.491	7331.15
908.804	7323.24
909.117	7267.87
909.43	7206.86
909.743	7214.09
910.056	7208.67
910.368	7196.46
910.681	7177.25
910.994	7106.07
911.307	7063.59
911.619	7047.54
911.932	7030.14
912.244	6967.32
912.557	7000.54
912.869	6912.63
913.181	6934.32
913.494	6898.84
913.806	6844.38
914.118	6811.84
914.43	6815.23
914.742	6769.13
915.054	6728.23
915.366	6714.89
915.678	6682.35
915.99	6685.29
916.302	6599.87
916.613	6569.81
916.925	6570.49
917.236	6562.81
917.548	6472.19
917.859	6473.32
918.171	6535.69
918.482	6459.31
918.794	6411.4
919.105	6395.13
919.416	6359.42
919.727	6347.22
920.038	6350.38
920.349	6351.74
920.66	6252.31
920.971	6301.12
921.282	6240.1
921.593	6165.76
921.903	6148.81
922.214	6090.5
922.525	6132.08
922.835	6111.29
923.146	6046.89
923.456	6055.25
923.767	6055.7
924.077	6001.92
924.387	5898.42
924.697	5926.89
925.008	5916.05
925.318	5889.61
925.628	5892.09
925.938	5850.06
926.248	5782.26
926.558	5811.64
926.867	5797.18
927.177	5770.06
927.487	5689.16
927.796	5646.67
928.106	5647.58
928.416	5649.16
928.725	5667.92
929.034	5606
929.344	5646
929.653	5630.4
929.962	5569.16
930.271	5532.78
930.581	5507.47
930.89	5428.15
931.199	5450.97
931.508	5438.77
931.817	5422.05
932.125	5450.75
932.434	5422.5
932.743	5310.41
933.051	5312.9
933.36	5282.39
933.669	5227.25
933.977	5276.06
934.286	5229.96
934.594	5202.39
934.902	5203.3
935.21	5152.9
935.519	5142.28
935.827	5180.25
936.135	5111.09
936.443	5069.06
936.751	5039.91
937.059	5017.31
937.367	5027.48
937.674	5019.8
937.982	4989.52
938.29	5020.25
938.597	5025.9
938.905	4893.92
939.213	4909.97
939.52	4879.69
939.827	4914.49
940.135	4882.85
940.442	4839.46
940.749	4821.16
941.056	4843.08
941.363	4719.69
941.67	4744.55
941.977	4717.21
942.284	4666.81
942.591	4673.59
942.898	4637.21
943.205	4648.73
943.511	4641.28
943.818	4644.89
944.125	4590.88
944.431	4552.69
944.738	4522.86
945.044	4467.5
945.35	4517.44
945.657	4474.95
945.963	4446.25
946.269	4455.52
946.575	4459.59
946.881	4375.75
947.187	4385.24
947.493	4414.39
947.799	4383.88
948.105	4328.74
948.41	4293.71
948.716	4307.27
949.022	4281.29
949.327	4263.21
949.633	4231.57
949.938	4204.9
950.244	4236.77
950.549	4164.68
950.854	4162.42
951.16	4182.31
951.465	4190.89
951.77	4122.65
952.075	4108.63
952.38	4070.67
952.685	4107.28
952.99	4036.77
953.294	4014.17
953.599	4016.89
953.904	4027.06
954.209	4001.07
954.513	3969.43
954.818	3978.47
955.122	3880.39
955.426	3925.81
955.731	3925.14
956.035	3914.97
956.339	3886.95
956.643	3897.57
956.948	3844.01
957.252	3826.16
957.556	3834.29
957.86	3856.21
958.163	3797.23
958.467	3754.29
958.771	3744.8
959.075	3729.44
959.378	3686.95
959.682	3714.07
959.985	3702.77
960.289	3651.7
960.592	3636.1
960.896	3625.03
961.199	3623.22
961.502	3648.31
961.805	3547.29
962.108	3525.37
962.411	3581.19
962.714	3529.44
963.017	3524.7
963.32	3496.22
963.623	3480.85
963.926	3483.79
964.228	3477.24
964.531	3473.62
964.833	3450.12
965.136	3416.68
965.438	3385.26
965.741	3393.63
966.043	3341.2
966.345	3349.78
966.648	3366.06
966.95	3395.89
967.252	3296.23
967.554	3274.76
967.856	3272.5
968.158	3254.42
968.46	3290.13
968.761	3252.39
969.063	3204.48
969.365	3213.52
969.666	3190.47
969.968	3219.17
970.269	3153.41
970.571	3173.29
970.872	3135.55
971.174	3142.78
971.475	3106.85
971.776	3123.35
972.077	3090.58
972.378	3032.05
972.679	3065.95
972.98	3072.5
973.281	3063.69
973.582	3022.11
973.883	3025.5
974.183	3029.34
974.484	2989.57
974.785	2992.51
975.085	2983.69
975.386	2936.46
975.686	2925.62
975.986	2885.84
976.287	2921.77
976.587	2889.91
976.887	2893.75
977.187	2865.28
977.487	2885.62
977.787	2870.02
978.087	2802.91
978.387	2839.52
978.687	2826.18
978.987	2789.57
979.286	2792.06
979.586	2772.17
979.885	2741.44
980.185	2748.22
980.484	2724.72
980.784	2702.57
981.083	2695.34
981.382	2680.88
981.682	2706.64
981.981	2689.24
982.28	2656.92
982.579	2676.58
982.878	2647.2
983.177	2656.47
983.475	2680.2
983.774	2612.18
984.073	2640.42
984.372	2606.08
984.67	2573.31
984.969	2551.16
985.267	2551.16
985.566	2535.57
985.864	2548
986.162	2504.38
986.461	2524.27
986.759	2511.39
987.057	2484.72
987.355	2477.49
987.653	2472.52
987.951	2489.69
988.249	2446.31
988.547	2433.88
988.844	2423.71
989.142	2418.96
989.44	2400.21
989.737	2407.44
990.035	2359.98
990.332	2383.26
990.63	2347.1
990.927	2337.83
991.224	2307.55
991.521	2312.3
991.819	2283.82
992.116	2288.8
992.413	2275.01
992.71	2273.43
993.006	2248.8
993.303	2235.69
993.6	2258.51
993.897	2233.66
994.193	2223.03
994.49	2217.16
994.787	2191.85
995.083	2221.45
995.379	2180.1
995.676	2137.84
995.972	2130.16
996.268	2147.1
996.565	2144.62
996.861	2111.63
997.157	2124.28
997.453	2109.59
997.749	2125.64
998.044	2057.62
998.34	2056.49
998.636	2068.24
998.932	2052.42
999.227	2036.82
999.523	2006.32
999.818	2040.89
1000.114	2049.93
1000.409	1984.17
1000.704	2011.06
1001	1993.66
1001.295	1973.32
1001.59	1963.38
1001.885	1974.91
1002.18	1936.71
1002.475	1909.37
1002.77	1925.64
1003.065	1869.6
1003.359	1928.35
1003.654	1869.82
1003.949	1854.91
1004.243	1862.37
1004.538	1879.31
1004.832	1844.97
1005.127	1804.51
1005.421	1834.57
1005.715	1832.31
1006.009	1801.35
1006.304	1809.26
1006.598	1795.02
1006.892	1760.22
1007.186	1748.92
1007.48	1745.08
1007.773	1725.87
1008.067	1737.85
1008.361	1719.77
1008.655	1729.04
1008.948	1712.09
1009.242	1696.04
1009.535	1705.76
1009.829	1677.06
1010.122	1680.45
1010.415	1644.74
1010.708	1667.57
1011.001	1607.01
1011.295	1612.88
1011.588	1628.7
1011.881	1607.01
1012.173	1600.68
1012.466	1597.97
1012.759	1577.63
1013.052	1581.47
1013.344	1564.07
1013.637	1559.32
1013.93	1548.93
1014.222	1545.09
1014.514	1527.23
1014.807	1503.51
1015.099	1530.62
1015.391	1495.37
1015.683	1502.83
1015.976	1504.64
1016.268	1475.26
1016.56	1479.33
1016.851	1463.73
1017.143	1456.95
1017.435	1418.31
1017.727	1436.84
1018.018	1427.58
1018.31	1422.6
1018.602	1406.79
1018.893	1384.19
1019.185	1374.7
1019.476	1364.07
1019.767	1366.11
1020.058	1373.11
1020.35	1367.92
1020.641	1376.05
1020.932	1339.89
1021.223	1336.96
1021.514	1320.91
1021.804	1322.04
1022.095	1281.36
1022.386	1303.96
1022.677	1297.18
1022.967	1299.22
1023.258	1266.45
1023.548	1255.6
1023.839	1265.77
1024.129	1251.99
1024.419	1255.83
1024.709	1241.14
1025	1212.21
1025.29	1232.78
1025.58	1201.59
1025.87	1216.73
1026.16	1208.82
1026.449	1170.63
1026.739	1171.09
1027.029	1151.42
1027.319	1193.23
1027.608	1162.95
1027.898	1140.13
1028.187	1140.8
1028.477	1141.03
1028.766	1117.3
1029.055	1121.14
1029.344	1124.08
1029.634	1124.76
1029.923	1116.62
1030.212	1067.81
1030.501	1089.96
1030.79	1076.17
1031.078	1082.5
1031.367	1068.71
1031.656	1058.77
1031.945	1042.73
1032.233	1040.69
1032.522	1027.13
1032.81	1034.59
1033.099	1034.82
1033.387	1018.55
1033.675	1033.01
1033.963	1009.96
1034.251	1008.6
1034.54	1009.96
1034.828	953.24
1035.116	967.25
1035.403	992.56
1035.691	994.82
1035.979	962.73
1036.267	981.49
1036.554	945.1
1036.842	948.94
1037.129	942.39
1037.417	929.28
1037.704	922.28
1037.992	927.02
1038.279	916.4
1038.566	929.51
1038.853	929.51
1039.14	929.51
