Data from hue_70_FLMS001491_58.txt Node
Date: Mon Feb 06 15:21:08 GMT 2017
User: dcchb
Spectrometer: FLMS00149
Trigger mode: 0
Integration Time (sec): 2.000000E-2
Scans to average: 10
Electric dark correction enabled: true
Nonlinearity correction enabled: false
Boxcar width: 0
XAxis mode: Wavelengths
Number of Pixels in Spectrum: 2048
>>>>>Begin Spectral Data<<<<<
341.393	-7.01
341.776	-7.01
342.16	-7.01
342.543	-73.67
342.927	-73.22
343.31	-58.98
343.693	-56.27
344.077	-65.99
344.46	-69.15
344.843	-36.61
345.226	-40
345.61	-40
345.993	-14.24
346.376	-14.01
346.759	6.1
347.142	31.86
347.525	25.31
347.908	59.89
348.291	67.34
348.674	90.39
349.057	114.35
349.44	121.35
349.823	148.24
350.206	174.91
350.588	198.64
350.971	200.9
351.354	221.01
351.737	221.01
352.119	255.13
352.502	252.65
352.884	274.12
353.267	281.8
353.65	290.84
354.032	296.26
354.414	320.22
354.797	304.4
355.179	322.25
355.562	341.69
355.944	346.66
356.326	316.38
356.709	335.13
357.091	329.93
357.473	359.54
357.855	348.69
358.238	331.29
358.62	329.03
359.002	343.95
359.384	338.75
359.766	327.67
360.148	327.9
360.53	344.4
360.912	335.36
361.294	351.86
361.676	336.26
362.057	332.42
362.439	337.17
362.821	327.67
363.203	327.22
363.584	327.9
363.966	331.52
364.348	320.67
364.729	342.14
365.111	308.47
365.493	317.73
365.874	323.83
366.256	326.77
366.637	312.31
367.019	298.98
367.4	314.79
367.781	327.9
368.163	297.85
368.544	325.64
368.925	298.52
369.306	318.18
369.688	311.86
370.069	320.44
370.45	324.29
370.831	329.71
371.212	298.75
371.593	315.7
371.974	314.34
372.355	296.26
372.736	314.34
373.117	316.6
373.498	302.36
373.879	314.79
374.26	305.3
374.641	303.04
375.021	313.21
375.402	337.62
375.783	318.41
376.163	325.64
376.544	317.96
376.925	327.22
377.305	323.16
377.686	294.23
378.066	330.16
378.447	310.73
378.827	341.91
379.208	326.09
379.588	316.38
379.968	327.67
380.349	318.64
380.729	310.73
381.109	335.36
381.489	333.1
381.87	339.2
382.25	319.54
382.63	325.42
383.01	338.3
383.39	329.26
383.77	345.08
384.15	334.45
384.53	340.56
384.91	339.2
385.29	361.35
385.67	324.29
386.049	332.87
386.429	356.83
386.809	340.56
387.189	357.28
387.568	325.87
387.948	327.9
388.328	337.84
388.707	344.62
389.087	343.72
389.466	332.19
389.846	338.52
390.225	344.85
390.605	347.56
390.984	356.15
391.363	341.69
391.743	360.89
392.122	373.1
392.501	360.89
392.881	359.31
393.26	378.75
393.639	361.35
394.018	349.82
394.397	343.95
394.776	360.67
395.155	371.06
395.534	367
395.913	349.6
396.292	357.5
396.671	375.58
397.05	356.83
397.429	375.13
397.808	359.99
398.186	372.65
398.565	355.02
398.944	371.97
399.323	372.87
399.701	392.31
400.08	377.62
400.458	387.11
400.837	376.71
401.215	392.08
401.594	376.26
401.972	385.53
402.351	370.16
402.729	370.61
403.107	383.04
403.486	390.95
403.864	388.69
404.242	390.27
404.62	407.67
404.999	393.21
405.377	406.32
405.755	410.84
406.133	395.24
406.511	404.06
406.889	400.22
407.267	393.44
407.645	415.58
408.023	392.53
408.401	425.98
408.779	389.82
409.156	409.25
409.534	435.69
409.912	414.45
410.29	419.65
410.667	424.62
411.045	425.98
411.422	448.12
411.8	434.34
412.178	441.12
412.555	455.13
412.933	435.69
413.31	449.71
413.687	454.45
414.065	442.02
414.442	449.48
414.819	449.71
415.197	456.71
415.574	457.84
415.951	446.77
416.328	451.06
416.705	475.92
417.082	459.2
417.46	470.04
417.837	481.57
418.214	462.13
418.591	478.63
418.967	491.51
419.344	458.97
419.721	483.6
420.098	485.64
420.475	492.87
420.852	479.31
421.228	478.18
421.605	513.43
421.982	501.91
422.358	492.19
422.735	495.13
423.111	467.11
423.488	495.58
423.864	502.81
424.241	524.96
424.617	524.05
424.994	537.39
425.37	519.08
425.746	523.38
426.123	539.87
426.499	529.93
426.875	512.53
427.251	549.14
427.627	532.87
428.003	535.13
428.379	547.33
428.756	555.47
429.132	565.18
429.507	529.48
429.883	569.25
430.259	573.54
430.635	572.64
431.011	557.05
431.387	570.83
431.763	585.97
432.138	591.17
432.514	583.49
432.89	579.42
433.265	610.83
433.641	588.91
434.016	601.79
434.392	612.64
434.767	625.52
435.143	610.61
435.518	630.72
435.894	636.59
436.269	637.27
436.644	634.56
437.02	644.05
437.395	638.4
437.77	646.99
438.145	647.44
438.52	645.63
438.895	668.68
439.271	661.68
439.646	663.94
440.021	654.67
440.395	690.38
440.77	669.36
441.145	681.79
441.52	676.37
441.895	687.44
442.27	696.7
442.645	697.83
443.019	705.52
443.394	726.99
443.769	722.24
444.143	691.73
444.518	710.94
444.892	741.9
445.267	706.2
445.641	715.69
446.016	730.6
446.39	748.68
446.764	744.39
447.139	733.54
447.513	753.2
447.887	713.88
448.262	759.75
448.636	748.68
449.01	764.27
449.384	758.4
449.758	788.23
450.132	783.71
450.506	780.09
450.88	794.33
451.254	768.79
451.628	809.92
452.002	791.39
452.376	799.75
452.75	816.02
453.123	807.89
453.497	819.87
453.871	842.69
454.244	852.41
454.618	850.15
454.992	856.25
455.365	858.51
455.739	872.75
456.112	891.5
456.486	882.69
456.859	916.13
457.232	918.62
457.606	909.35
457.979	908.22
458.352	919.75
458.725	906.64
459.099	946.19
459.472	948.68
459.845	975.34
460.218	962.01
460.591	970.14
460.964	1001.33
461.337	1019.41
461.71	1016.7
462.083	1029.13
462.456	1032.52
462.829	1048.56
463.201	1059.86
463.574	1085.4
463.947	1082.01
464.32	1086.07
464.692	1119.29
465.065	1116.35
465.438	1163.36
465.81	1172.4
466.183	1162.68
466.555	1191.16
466.928	1212.62
467.3	1218.05
467.672	1227.09
468.045	1258.72
468.417	1240.65
468.789	1300.08
469.161	1290.14
469.534	1352.28
469.906	1350.47
470.278	1372.39
470.65	1389.79
471.022	1420.3
471.394	1432.28
471.766	1487.87
472.138	1500.53
472.51	1535.78
472.882	1544.82
473.253	1572.39
473.625	1626.62
473.997	1650.8
474.369	1672.5
474.74	1692.38
475.112	1781.2
475.484	1790.01
475.855	1872.72
476.227	1896
476.598	1944.81
476.97	1966.73
477.341	2039.04
477.713	2077.69
478.084	2134.41
478.455	2213.28
478.827	2233.16
479.198	2353.61
479.569	2364.46
479.94	2461.4
480.311	2500.5
480.682	2578.92
481.053	2699.14
481.424	2772.81
481.795	2810.77
482.166	2878.79
482.537	2930.77
482.908	3054.16
483.279	3148.62
483.65	3220.71
484.021	3349.52
484.391	3421.38
484.762	3497.54
485.133	3574.14
485.503	3648.04
485.874	3800.58
486.244	3931.65
486.615	4015.49
486.985	4098.42
487.356	4243.96
487.726	4310.62
488.097	4488.47
488.467	4582.48
488.837	4768.01
489.207	4813.43
489.578	4995.35
489.948	5112.18
490.318	5235.79
490.688	5337.49
491.058	5469.91
491.428	5601.21
491.798	5764.14
492.168	5975.66
492.538	6014.08
492.908	6178.59
493.278	6281.87
493.648	6466.04
494.017	6557.34
494.387	6736.09
494.757	6837.79
495.126	6990.55
495.496	7069.64
495.866	7202.07
496.235	7352.12
496.605	7535.62
496.974	7631.44
497.344	7735.39
497.713	7877.98
498.082	8028.49
498.452	8234.59
498.821	8354.58
499.19	8416.73
499.559	8523.84
499.928	8648.81
500.298	8808.81
500.667	9007.45
501.036	9040.21
501.405	9210.83
501.774	9261.68
502.143	9343.03
502.512	9527.89
502.88	9721.1
503.249	9763.13
503.618	9898.95
503.987	9927.42
504.356	10087.42
504.724	10190.47
505.093	10362.21
505.462	10450.35
505.83	10529.21
506.199	10606.5
506.567	10843.33
506.936	10864.57
507.304	11105.24
507.672	11179.82
508.041	11266.14
508.409	11394.28
508.777	11497.55
509.145	11627.26
509.514	11674.5
509.882	11760.37
510.25	11886.24
510.618	12017.09
510.986	12084.43
511.354	12241.71
511.722	12321.48
512.09	12510.63
512.458	12422.05
512.826	12604.87
513.193	12649.61
513.561	12718.76
513.929	12911.07
514.297	13070.62
514.664	13151.07
515.032	13218.18
515.4	13362.13
515.767	13333.66
516.135	13455.69
516.502	13352.19
516.869	13703.14
517.237	13654.33
517.604	13757.38
517.972	13844.38
518.339	13968.45
518.706	13983.81
519.073	14171.83
519.44	14157.14
519.808	14370.92
520.175	14382.9
520.542	14553.29
520.909	14607.53
521.276	14648.88
521.643	14720.74
522.009	14829.21
522.376	14972.04
522.743	15044.8
523.11	15202.09
523.477	15254.74
523.843	15304.91
524.21	15550.55
524.577	15580.61
524.943	15711.9
525.31	15765.69
525.676	15851.11
526.043	15943.31
526.409	15987.83
526.776	16155.96
527.142	16157.54
527.508	16256.07
527.874	16460.81
528.241	16452.9
528.607	16499.68
528.973	16607.25
529.339	16519.57
529.705	16679.11
530.071	16774.47
530.437	16813.57
530.803	16957.29
531.169	16958.2
531.535	17006.33
531.901	16975.15
532.267	17063.05
532.632	17191.86
532.998	17179.44
533.364	17320.67
533.73	17276.61
534.095	17443.61
534.461	17465.08
534.826	17531.06
535.192	17514.57
535.557	17595.7
535.923	17612.42
536.288	17661.23
536.653	17749.14
537.019	17665.07
537.384	17794.11
537.749	17835.46
538.114	17764.96
538.479	17795.92
538.845	17823.94
539.21	17788.23
539.575	17892.64
539.94	17885.86
540.305	18007.21
540.67	17879.53
541.034	17950.71
541.399	18098.06
541.764	18124.95
542.129	18107.32
542.494	18097.38
542.858	18167.66
543.223	18156.36
543.587	18254.89
543.952	18273.87
544.316	18206.75
544.681	18179.18
545.045	18367.65
545.41	18302.8
545.774	18347.54
546.138	18208.79
546.503	18266.19
546.867	18323.81
547.231	18479.74
547.595	18338.5
547.959	18449.23
548.324	18400.19
548.688	18457.37
549.052	18571.49
549.416	18445.16
549.779	18516.12
550.143	18439.52
550.507	18722.45
550.871	18615.78
551.235	18627.98
551.599	18664.59
551.962	18731.26
552.326	18662.79
552.689	18821.88
553.053	18674.09
553.417	18783.01
553.78	18953.4
554.143	18834.98
554.507	18886.74
554.87	18928.54
555.234	19072.72
555.597	18946.39
555.96	18968.31
556.323	19065.26
556.686	18968.99
557.05	19199.72
557.413	19152.72
557.776	19199.95
558.139	19332.37
558.502	19321.3
558.865	19281.07
559.228	19463.9
559.59	19425.93
559.953	19503.44
560.316	19578.69
560.679	19597.68
561.041	19665.7
561.404	19751.8
561.767	19864.34
562.129	19765.81
562.492	19936.88
562.854	19905.47
563.217	19818.24
563.579	19966.48
563.941	20101.17
564.304	20142.07
564.666	20206.02
565.028	20253.48
565.39	20219.36
565.753	20383.19
566.115	20448.5
566.477	20529.63
566.839	20521.72
567.201	20622.28
567.563	20626.58
567.925	20728.04
568.287	20769.62
568.648	20779.57
569.01	20921.94
569.372	20937.75
569.734	20736.63
570.095	21004.42
570.457	20997.19
570.819	21174.58
571.18	21046.68
571.542	21218.2
571.903	21230.63
572.265	21369.16
572.626	21283.06
572.987	21311.08
573.349	21454.8
573.71	21516.27
574.071	21485.76
574.432	21558.98
574.794	21731.18
575.155	21688.7
575.516	21586.1
575.877	21722.14
576.238	21641.01
576.599	21811.63
576.96	21815.02
577.32	21818.18
577.681	21841.69
578.042	21905.19
578.403	21865.41
578.763	21906.32
579.124	21956.71
579.485	22004.85
579.845	22146.31
580.206	22041.23
580.566	21914.68
580.927	22078.97
581.287	22144.73
581.648	21992.64
582.008	22152.86
582.368	22024.05
582.728	22144.28
583.089	22186.99
583.449	22068.57
583.809	22149.47
584.169	22214.33
584.529	22074.45
584.889	22220.21
585.249	22219.98
585.609	22033.09
585.969	22174.56
586.329	22159.64
586.688	22111.51
587.048	22217.72
587.408	22185.86
587.768	22121
588.127	22055.92
588.487	22087.33
588.846	22229.92
589.206	22115.12
589.565	22098.18
589.925	22137.5
590.284	22128.68
590.643	22088.68
591.003	22135.24
591.362	22280.32
591.721	22178.63
592.08	22139.3
592.44	22203.71
592.799	22242.8
593.158	22232.86
593.517	22198.06
593.876	22246.65
594.235	22213.43
594.593	22200.32
594.952	22267.66
595.311	22114.22
595.67	22261.56
596.029	22347.44
596.387	22380.43
596.746	22280.09
597.104	22221.34
597.463	22268.79
597.822	22297.94
598.18	22102.47
598.538	22128.23
598.897	22346.98
599.255	22161.45
599.613	22503.82
599.972	22380.88
600.33	22416.36
600.688	22213.65
601.046	22423.82
601.404	22415.91
601.762	22417.72
602.12	22412.52
602.478	22485.28
602.836	22434.44
603.194	22413.2
603.552	22530.71
603.91	22423.14
604.268	22588.78
604.625	22350.6
604.983	22650.7
605.341	22436.92
605.698	22487.77
606.056	22624.94
606.413	22548.11
606.771	22695.67
607.128	22613.42
607.485	22597.37
607.843	22652.96
608.2	22696.35
608.557	22765.5
608.914	22774.09
609.272	22863.13
609.629	22971.37
609.986	23040.75
610.343	22824.94
610.7	23012.73
611.057	22988.55
611.414	22885.05
611.771	23030.81
612.127	23017.02
612.484	23108.32
612.841	23115.1
613.198	23089.11
613.554	23141.31
613.911	23227.41
614.267	23225.15
614.624	23265.38
614.98	23247.98
615.337	23413.62
615.693	23379.05
616.05	23307.18
616.406	23491.81
616.762	23412.27
617.118	23306.51
617.475	23511.47
617.831	23447.52
618.187	23473.06
618.543	23561.19
618.899	23702.2
619.255	23638.7
619.611	23601.64
619.967	23652.71
620.323	23673.5
620.678	23725.7
621.034	23525.48
621.39	23781.52
621.746	23501.53
622.101	23847.06
622.457	23690.9
622.812	23720.28
623.168	23777.91
623.523	23625.82
623.879	23862.42
624.234	23740.39
624.589	23887.51
624.945	23899.71
625.3	23826.94
625.655	23839.37
626.01	23787.62
626.365	23860.62
626.72	23849.09
627.075	23746.04
627.43	23770
627.785	23785.36
628.14	23802.31
628.495	23830.11
628.85	23703.11
629.205	23696.1
629.559	23864.23
629.914	23768.19
630.269	23747.4
630.623	23597.12
630.978	23711.01
631.332	23728.19
631.687	23806.61
632.041	23742.65
632.396	23800.96
632.75	23661.98
633.104	23810.22
633.459	23621.3
633.813	23541.53
634.167	23697.23
634.521	23571.13
634.875	23626.5
635.229	23519.16
635.583	23479.16
635.937	23473.51
636.291	23530.23
636.645	23535.65
636.999	23342.21
637.352	23483.45
637.706	23385.6
638.06	23461.76
638.413	23424.47
638.767	23346.96
639.121	23345.6
639.474	23219.95
639.828	23170.92
640.181	23231.93
640.534	23268.54
640.888	23145.38
641.241	23001.66
641.594	23106.96
641.947	23269.44
642.301	23108.54
642.654	23148.32
643.007	23255.89
643.36	23045.95
643.713	23046.4
644.066	23248.88
644.419	23117.58
644.771	22830.36
645.124	22689.8
645.477	22624.49
645.83	22443.48
646.182	22494.55
646.535	22396.02
646.888	22354.21
647.24	22264.5
647.593	22522.12
647.945	22336.81
648.298	22175.91
648.65	22228.79
649.002	22151.06
649.355	22203.48
649.707	22258.17
650.059	22287.55
650.411	22573.64
650.763	22630.82
651.115	22882.34
651.467	22822.22
651.819	22817.25
652.171	22764.83
652.523	22752.4
652.875	22733.87
653.227	22670.59
653.578	22758.72
653.93	22734.77
654.282	22602.57
654.633	22574.55
654.985	22659.74
655.337	22600.54
655.688	22732.74
656.039	22764.6
656.391	22521.44
656.742	22548.56
657.094	22568.45
657.445	22639.86
657.796	22619.52
658.147	22576.58
658.498	22583.59
658.849	22654.32
659.2	22582.46
659.551	22628.33
659.902	22653.87
660.253	22678.05
660.604	22642.34
660.955	22559.18
661.306	22691.38
661.656	22550.37
662.007	22629.24
662.358	22575.9
662.708	22588.78
663.059	22606.64
663.409	22389.47
663.76	22602.34
664.11	22600.54
664.461	22720.98
664.811	22679.18
665.161	22550.37
665.511	22563.02
665.862	22596.02
666.212	22661.78
666.562	22589.24
666.912	22521.89
667.262	22483.93
667.612	22651.61
667.962	22665.84
668.312	22592.85
668.662	22660.42
669.011	22580.88
669.361	22484.61
669.711	22554.44
670.06	22503.14
670.41	22531.84
670.76	22454.55
671.109	22624.26
671.459	22513.76
671.808	22402.35
672.157	22640.53
672.507	22472.18
672.856	22421.11
673.205	22482.8
673.554	22408.45
673.904	22357.6
674.253	22468.11
674.602	22415.23
674.951	22117.16
675.3	22049.14
675.649	22339.98
675.998	22288.23
676.346	22205.74
676.695	22483.93
677.044	22201.22
677.393	22224.73
677.741	22259.75
678.09	22216.14
678.438	22170.26
678.787	22289.13
679.135	22217.27
679.484	22132.07
679.832	22126.88
680.181	22066.76
680.529	21984.73
680.877	21976.37
681.225	22076.71
681.573	22047.56
681.922	21853.21
682.27	21909.03
682.618	21787.45
682.966	21829.93
683.314	21811.18
683.661	21799.43
684.009	21711.75
684.357	21672.42
684.705	21554.01
685.053	21689.37
685.4	21553.78
685.748	21403.73
686.095	21392.21
686.443	21302.04
686.79	21331.19
687.138	21344.3
687.485	21419.1
687.832	21231.08
688.18	21296.16
688.527	21154.25
688.874	21102.72
689.221	21021.82
689.568	20989.96
689.915	21000.58
690.262	20940.24
690.609	20877.87
690.956	20783.86
691.303	20861.6
691.65	20691.21
691.997	20629.06
692.344	20615.05
692.69	20588.16
693.037	20525.79
693.383	20412.8
693.73	20502.74
694.077	20318.11
694.423	20273.59
694.769	20190.66
695.116	20166.7
695.462	20126.25
695.808	20001.06
696.155	20109.3
696.501	19903.66
696.847	19910.89
697.193	19734.85
697.539	19820.04
697.885	19689.2
698.231	19632.48
698.577	19531.92
698.923	19532.59
699.269	19433.16
699.614	19268.87
699.96	19315.88
700.306	19364.91
700.651	19276.56
700.997	19117.01
701.342	19102.32
701.688	19095.77
702.033	18979.39
702.379	19107.52
702.724	18929.22
703.069	18857.36
703.415	18644.26
703.76	18686.97
704.105	18656.46
704.45	18743.69
704.795	18616.23
705.14	18439.29
705.485	18460.76
705.83	18491.49
706.175	18449.46
706.52	18284.04
706.865	18348.9
707.209	18246.3
707.554	18166.98
707.899	18218.28
708.243	18047.44
708.588	18020.32
708.932	17868.46
709.277	17916.37
709.621	17937.83
709.966	17823.49
710.31	17850.15
710.654	17675.47
710.998	17756.82
711.342	17706.65
711.687	17580.78
712.031	17520.9
712.375	17478.64
712.719	17554.11
713.063	17448.13
713.407	17450.84
713.75	17477.73
714.094	17458.07
714.438	17314.12
714.782	17323.61
715.125	17162.03
715.469	17375.81
715.812	17213.56
716.156	17117.97
716.499	17176.05
716.843	17144.86
717.186	16968.82
717.53	17092.21
717.873	17111.19
718.216	17067.8
718.559	16976.5
718.902	16840.91
719.246	16997.75
719.589	16834.81
719.932	16727.47
720.275	16884.98
720.617	16724.08
720.96	16778.54
721.303	16723.63
721.646	16746.23
721.989	16689.96
722.331	16722.72
722.674	16612.44
723.016	16599.11
723.359	16619.45
723.701	16642.5
724.044	16451.09
724.386	16422.62
724.729	16531.09
725.071	16465.33
725.413	16471.21
725.755	16362.51
726.097	16389.63
726.439	16345.33
726.782	16284.77
727.124	16371.32
727.465	16287.03
727.807	16283.19
728.149	16301.94
728.491	16314.6
728.833	16256.75
729.175	16210.65
729.516	16194.38
729.858	16213.81
730.199	16298.78
730.541	16167.71
730.882	16214.49
731.224	16312.11
731.565	16106.92
731.906	16119.58
732.248	16133.14
732.589	16075.28
732.93	15974.5
733.271	16086.36
733.612	15983.08
733.953	16107.37
734.294	16051.56
734.635	15913.48
734.976	16070.54
735.317	15952.35
735.658	15962.29
735.999	15990.09
736.339	15858.34
736.68	15967.04
737.021	15875.74
737.361	15806.59
737.702	15983.31
738.042	15827.38
738.383	15855.63
738.723	15931.11
739.063	15805.91
739.404	15933.14
739.744	15897.89
740.084	15869.41
740.424	15848.62
740.764	15913.48
741.104	15864.44
741.444	15747.83
741.784	15801.62
742.124	15852.24
742.464	15861.05
742.804	15909.86
743.143	15847.27
743.483	15837.32
743.823	15827.83
744.162	15812.69
744.502	15920.03
744.841	15794.16
745.181	15867.61
745.52	15855.4
745.86	15965.46
746.199	15956.42
746.538	15900.82
746.877	16051.78
747.216	15992.57
747.556	16043.19
747.895	16127.94
748.234	16027.83
748.573	16176.3
748.911	16150.99
749.25	16066.7
749.589	16127.49
749.928	16266.92
750.267	16279.12
750.605	16206.58
750.944	16342.85
751.283	16319.8
751.621	16485.67
751.96	16441.6
752.298	16507.36
752.636	16457.65
752.975	16596.63
753.313	16543.29
753.651	16766.79
753.989	16751.88
754.327	16764.3
754.666	16837.07
755.004	16887.24
755.342	17010.85
755.679	16983.96
756.017	17021.25
756.355	17209.94
756.693	17182.37
757.031	17355.02
757.368	17269.83
757.706	17428.24
758.044	17430.95
758.381	17485.64
758.719	17502.82
759.056	17613.32
759.394	17667.56
759.731	17702.13
760.068	17738.29
760.405	17770.38
760.743	17856.03
761.08	17921.34
761.417	17859.19
761.754	18074.1
762.091	17996.14
762.428	18130.37
762.765	18100.54
763.102	18230.93
763.438	18141.22
763.775	18251.05
764.112	18364.71
764.449	18396.58
764.785	18432.74
765.122	18315
765.458	18311.38
765.795	18392.06
766.131	18473.64
766.467	18515.9
766.804	18488.33
767.14	18360.2
767.476	18508.21
767.812	18553.41
768.148	18600.41
768.485	18477.71
768.821	18570.13
769.157	18468.89
769.492	18552.96
769.828	18460.98
770.164	18418.72
770.5	18396.58
770.836	18561.77
771.171	18444.26
771.507	18403.13
771.842	18318.61
772.178	18425.73
772.513	18423.47
772.849	18322.91
773.184	18301.89
773.519	18435.67
773.855	18328.33
774.19	18273.87
774.525	18239.52
774.86	18255.79
775.195	18212.4
775.53	18202.69
775.865	18186.87
776.2	18029.81
776.535	18040.66
776.87	17912.52
777.205	18000.2
777.539	17849.02
777.874	17970.15
778.209	17840.89
778.543	17830.27
778.878	17738.06
779.212	17694.9
779.547	17632.53
779.881	17703.04
780.215	17590.72
780.55	17571.06
780.884	17559.76
781.218	17420.56
781.552	17435.47
781.886	17452.2
782.22	17271.64
782.554	17290.39
782.888	17183.05
783.222	17113.9
783.556	17088.36
783.889	17036.61
784.223	16891.76
784.557	16811.54
784.89	17001.59
785.224	16802.04
785.557	16739.67
785.891	16742.38
786.224	16672.78
786.558	16697.41
786.891	16561.6
787.224	16528.6
787.557	16501.94
787.891	16479.11
788.224	16445.67
788.557	16430.53
788.89	16397.31
789.223	16266.69
789.556	16244.77
789.888	16204.32
790.221	16168.39
790.554	15978.79
790.887	16025.34
791.219	15986.02
791.552	15934.27
791.884	15924.33
792.217	15801.39
792.549	15810.88
792.882	15684.11
793.214	15675.75
793.546	15647.05
793.879	15571.34
794.211	15497.45
794.543	15485.24
794.875	15423.1
795.207	15473.27
795.539	15373.83
795.871	15293.16
796.203	15246.15
796.535	15163.44
796.867	15149.88
797.198	15111.02
797.53	15078.25
797.862	15005.93
798.193	14961.87
798.525	14922.32
798.856	14943.56
799.188	14743.34
799.519	14818.82
799.85	14682.1
800.182	14710.35
800.513	14810.46
800.844	14511.03
801.175	14597.36
801.506	14518.26
801.837	14529.34
802.168	14485.04
802.499	14384.03
802.83	14370.02
803.161	14309
803.491	14316.23
803.822	14286.4
804.153	14226.52
804.483	14139.29
804.814	14096.58
805.145	14078.05
805.475	14084.6
805.805	14019.07
806.136	13988.33
806.466	13995.34
806.796	13987.43
807.126	13793.76
807.457	13770.94
807.787	13884.15
808.117	13788.34
808.447	13685.52
808.777	13753.08
809.107	13709.7
809.436	13652.75
809.766	13614.56
810.096	13591.28
810.426	13574.56
810.755	13552.19
811.085	13532.75
811.414	13424.96
811.744	13490.94
812.073	13302.25
812.403	13363.04
812.732	13267.45
813.061	13305.64
813.39	13266.32
813.719	13177.28
814.049	13260.22
814.378	13165.53
814.707	13150.16
815.036	13108.58
815.365	12999.88
815.693	12915.82
816.022	12947
816.351	12915.82
816.68	12834.69
817.008	12921.47
817.337	12758.08
817.665	12757.18
817.994	12828.14
818.322	12782.26
818.651	12687.12
818.979	12636.28
819.307	12729.16
819.636	12684.86
819.964	12596.96
820.292	12630.4
820.62	12624.75
820.948	12498.43
821.276	12598.76
821.604	12516.28
821.932	12580.91
822.259	12494.36
822.587	12447.81
822.915	12528.26
823.243	12530.07
823.57	12470.18
823.898	12484.42
824.225	12455.49
824.553	12419.11
824.88	12472.67
825.207	12496.62
825.535	12453.68
825.862	12551.08
826.189	12401.71
826.516	12521.03
826.843	12479.67
827.17	12546.56
827.497	12595.6
827.824	12535.72
828.151	12575.49
828.478	12425.44
828.805	12493.23
829.131	12461.82
829.458	12488.26
829.785	12380.92
830.111	12443.74
830.438	12412.33
830.764	12403.06
831.09	12462.5
831.417	12426.79
831.743	12496.85
832.069	12488.26
832.395	12405.55
832.722	12380.01
833.048	12380.01
833.374	12346.79
833.7	12304.31
834.026	12293.01
834.351	12438.32
834.677	12288.94
835.003	12306.12
835.329	12305.67
835.654	12211.88
835.98	12212.56
836.306	12259.79
836.631	12230.64
836.956	12281.94
837.282	12208.04
837.607	12100.02
837.932	12119
838.258	12186.12
838.583	12116.29
838.908	12038.33
839.233	12089.17
839.558	11975.28
839.883	12052.79
840.208	11975.05
840.533	11973.92
840.858	12027.93
841.182	12037.88
841.507	11905.9
841.832	11916.52
842.156	11797.66
842.481	11815.06
842.805	11854.38
843.13	11753.82
843.454	11798.33
843.778	11722.86
844.103	11654.16
844.427	11692.12
844.751	11679.24
845.075	11662.74
845.399	11536.19
845.723	11526.48
846.047	11568.74
846.371	11438.12
846.695	11470.43
847.019	11348.4
847.343	11312.92
847.666	11242.19
847.99	11247.61
848.313	11147.73
848.637	11188.63
848.96	11159.71
849.284	11106.37
849.607	11082.65
849.931	11044
850.254	10981.86
850.577	10844.46
850.9	10803.78
851.223	10758.81
851.546	10757.68
851.869	10583.45
852.192	10756.78
852.515	10586.84
852.838	10583.22
853.161	10562.89
853.483	10561.08
853.806	10452.15
854.129	10461.87
854.451	10405.15
854.774	10331.93
855.096	10363.12
855.419	10265.72
855.741	10357.47
856.063	10148.21
856.385	10229.56
856.708	10187.98
857.03	10118.15
857.352	10135.1
857.674	10183.69
857.996	10025.73
858.318	10040.64
858.64	9950.92
858.961	9969.68
859.283	9994.99
859.605	9891.72
859.926	9886.52
860.248	9884.03
860.57	9826.18
860.891	9850.59
861.212	9793.87
861.534	9795.45
861.855	9776.92
862.176	9711.16
862.498	9732.85
862.819	9726.52
863.14	9665.51
863.461	9618.73
863.782	9613.31
864.103	9635.68
864.424	9533.76
864.745	9613.98
865.065	9561.1
865.386	9531.95
865.707	9536.92
866.027	9515.23
866.348	9530.6
866.668	9501.22
866.989	9554.55
867.309	9334.22
867.63	9422.13
867.95	9416.93
868.27	9369.47
868.59	9409.47
868.91	9364.73
869.23	9362.92
869.55	9308.91
869.87	9310.72
870.19	9312.75
870.51	9308
870.83	9289.93
871.15	9211.51
871.469	9242.69
871.789	9293.99
872.109	9228.23
872.428	9180.78
872.748	9203.6
873.067	9216.71
873.386	9197.95
873.706	9173.09
874.025	9066.88
874.344	9092.87
874.663	9156.82
874.982	9025.98
875.301	9094
875.62	9080.44
875.939	8977.17
876.258	9031.4
876.577	8980.78
876.896	8974.91
877.214	8909.14
877.533	8956.15
877.852	8934.45
878.17	8969.26
878.489	8907.11
878.807	8893.78
879.125	8924.96
879.444	8873.44
879.762	8818.3
880.08	8919.31
880.398	8770.39
880.716	8826.21
881.034	8763.84
881.352	8781.92
881.67	8811.07
881.988	8735.36
882.306	8703.27
882.624	8694.91
882.941	8682.71
883.259	8679.77
883.577	8593.9
883.894	8597.29
884.212	8598.42
884.529	8576.72
884.846	8517.52
885.164	8553.9
885.481	8469.16
885.798	8568.36
886.115	8421.02
886.432	8392.32
886.75	8415.6
887.067	8438.42
887.383	8398.88
887.7	8394.58
888.017	8401.59
888.334	8353.45
888.651	8306.9
888.967	8332.44
889.284	8270.07
889.6	8218.09
889.917	8234.13
890.233	8231.2
890.55	8227.35
890.866	8152.55
891.182	8122.72
891.498	8110.07
891.815	8072.33
892.131	8084.08
892.447	8094.25
892.763	8040.24
893.079	7985.33
893.395	7940.13
893.71	7933.35
894.026	7910.07
894.342	7899.68
894.657	7886.57
894.973	7884.76
895.289	7809.74
895.604	7823.07
895.92	7741.27
896.235	7725.67
896.55	7769.06
896.865	7735.62
897.181	7620.14
897.496	7687.71
897.811	7632.12
898.126	7543.3
898.441	7589.18
898.756	7522.74
899.071	7473.93
899.386	7495.4
899.7	7420.82
900.015	7446.36
900.33	7327.72
900.644	7367.26
900.959	7348.28
901.273	7316.19
901.588	7283.65
901.902	7261.28
902.216	7236.42
902.531	7190.55
902.845	7176.99
903.159	7171.34
903.473	7118.68
903.787	7071.68
904.101	7115.97
904.415	7026.26
904.729	7064.67
905.042	6985.13
905.356	6993.71
905.67	6947.16
905.984	6951.91
906.297	6981.29
906.611	6832.14
906.924	6913.72
907.237	6799.37
907.551	6801.86
907.864	6832.36
908.177	6759.82
908.491	6708.07
908.804	6706.04
909.117	6642.76
909.43	6623.1
909.743	6591.24
910.056	6568.87
910.368	6555.31
910.681	6497.91
910.994	6521.18
911.307	6481.41
911.619	6459.72
911.932	6409.1
912.244	6370
912.557	6316.67
912.869	6323.68
913.181	6367.52
913.494	6284.35
913.806	6297.91
914.118	6232.83
914.43	6224.92
914.742	6173.4
915.054	6171.36
915.366	6150.12
915.678	6101.31
915.99	6029.22
916.302	6030.58
916.613	6041.88
916.925	5999.62
917.236	6018.82
917.548	6009.56
917.859	5977.02
918.171	5916.45
918.482	5890.69
918.794	5891.37
919.105	5813.41
919.416	5790.81
919.727	5804.14
920.038	5795.78
920.349	5787.64
920.66	5749.91
920.971	5743.13
921.282	5715.78
921.593	5667.42
921.903	5619.74
922.214	5642.56
922.525	5595.56
922.835	5538.16
923.146	5546.29
923.456	5511.04
923.767	5503.36
924.077	5495.45
924.387	5480.31
924.697	5397.82
925.008	5449.12
925.318	5407.77
925.628	5367.32
925.938	5422.23
926.248	5292.06
926.558	5302.91
926.867	5253.2
927.177	5256.81
927.487	5224.72
927.796	5153.99
928.106	5208
928.416	5124.16
928.725	5125.29
929.034	5098.62
929.344	5127.55
929.653	5102.46
929.962	5081.45
930.271	5023.6
930.581	4988.34
930.89	5015.69
931.199	4913.77
931.508	4978.17
931.817	4961.45
932.125	4913.09
932.434	4888.69
932.743	4832.19
933.051	4860.89
933.36	4832.64
933.669	4850.04
933.977	4740.21
934.286	4825.18
934.594	4746.77
934.902	4740.21
935.21	4734.11
935.519	4698.86
935.827	4656.6
936.135	4672.65
936.443	4644.17
936.751	4619.54
937.059	4600.11
937.367	4570.95
937.674	4551.07
937.982	4550.39
938.29	4504.06
938.597	4525.53
938.905	4503.16
939.213	4454.57
939.52	4395.36
939.827	4457.96
940.135	4417.51
940.442	4362.15
940.749	4415.7
941.056	4362.15
941.363	4346.78
941.67	4297.29
941.977	4264.97
942.284	4251.19
942.591	4276.05
942.898	4290.51
943.205	4223.62
943.511	4215.48
943.818	4213.45
944.125	4190.17
944.431	4113.56
944.738	4120.57
945.044	4129.61
945.35	4100.91
945.657	4047.13
945.963	4076.5
946.269	3969.16
946.575	4021.59
946.881	3989.95
947.187	3978.88
947.493	3937.75
947.799	3970.29
948.105	3970.07
948.41	3884.19
948.716	3887.36
949.022	3857.3
949.327	3920.8
949.633	3844.64
949.938	3839.9
950.244	3848.03
950.549	3818.43
950.854	3787.47
951.16	3752.9
951.465	3715.83
951.77	3775.72
952.075	3681.26
952.38	3715.38
952.685	3719
952.99	3681.03
953.294	3723.07
953.599	3665.67
953.904	3622.28
954.209	3620.92
954.513	3602.84
954.818	3595.16
955.122	3612.33
955.426	3535.05
955.731	3527.36
956.035	3549.29
956.339	3518.78
956.643	3544.54
956.948	3492.79
957.252	3472.9
957.556	3499.57
957.86	3488.95
958.163	3434.03
958.467	3425.9
958.771	3431.55
959.075	3370.76
959.378	3362.4
959.682	3359.69
959.985	3314.72
960.289	3344.09
960.592	3311.1
960.896	3302.51
961.199	3261.38
961.502	3252.34
961.805	3222.51
962.108	3191.33
962.411	3255.51
962.714	3200.59
963.017	3207.6
963.32	3203.98
963.623	3176.87
963.926	3160.82
964.228	3159.46
964.531	3146.36
964.833	3147.04
965.136	3114.49
965.438	3092.8
965.741	3068.85
966.043	3063.65
966.345	3029.98
966.648	3093.25
966.95	3009.41
967.252	3041.5
967.554	3021.84
967.856	2997.89
968.158	2988.4
968.46	2977.1
968.761	2945.01
969.063	2955.4
969.365	2898.68
969.666	2909.3
969.968	2881.73
970.269	2849.87
970.571	2860.26
970.872	2877.44
971.174	2854.84
971.475	2827.72
971.776	2838.12
972.077	2797.89
972.378	2778.23
972.679	2803.32
972.98	2776.42
973.281	2767.84
973.582	2769.19
973.883	2726.48
974.183	2707.73
974.484	2739.59
974.785	2705.69
975.085	2671.12
975.386	2695.97
975.686	2643.55
975.986	2704.34
976.287	2652.13
976.587	2604.23
976.887	2614.17
977.187	2627.05
977.487	2615.3
977.787	2596.54
978.087	2577.56
978.387	2550.89
978.687	2536.43
978.987	2507.73
979.286	2500.73
979.586	2498.24
979.885	2511.57
980.185	2515.41
980.484	2476.09
980.784	2485.36
981.083	2479.26
981.382	2491.23
981.682	2460.5
981.981	2430.9
982.28	2427.73
982.579	2420.05
982.878	2432.93
983.177	2420.28
983.475	2386.15
983.774	2385.25
984.073	2364.01
984.372	2355.19
984.67	2344.57
984.969	2328.75
985.267	2321.75
985.566	2328.75
985.864	2315.42
986.162	2282.65
986.461	2296.21
986.759	2266.83
987.057	2285.59
987.355	2255.76
987.653	2251.24
987.951	2256.44
988.249	2228.19
988.547	2244.91
988.844	2183.22
989.142	2182.77
989.44	2179.6
989.737	2185.93
990.035	2134.18
990.332	2175.08
990.63	2180.06
990.927	2161.53
991.224	2137.34
991.521	2118.81
991.819	2102.09
992.116	2117.01
992.413	2072.94
992.71	2053.96
993.006	2065.03
993.303	2063.45
993.6	2046.27
993.897	2068.42
994.193	2056.22
994.49	2027.74
994.787	2034.3
995.083	2005.37
995.379	2016.67
995.676	1981.64
995.972	1969.44
996.268	1960.63
996.565	1963.11
996.861	1951.14
997.157	1965.6
997.453	1930.57
997.749	1908.88
998.044	1929.21
998.34	1898.93
998.636	1877.92
998.932	1890.35
999.227	1915.2
999.523	1873.85
999.818	1837.24
1000.114	1839.05
1000.409	1815.32
1000.704	1813.29
1001	1831.82
1001.295	1823
1001.59	1809.9
1001.885	1817.13
1002.18	1783.68
1002.475	1768.32
1002.77	1752.27
1003.065	1745.04
1003.359	1773.74
1003.654	1724.25
1003.949	1699.84
1004.243	1691.48
1004.538	1686.06
1004.832	1716.11
1005.127	1714.98
1005.421	1685.83
1005.715	1662.33
1006.009	1674.53
1006.304	1696
1006.598	1633.18
1006.892	1641.31
1007.186	1641.99
1007.48	1619.84
1007.773	1603.12
1008.067	1605.61
1008.361	1592.5
1008.655	1581.43
1008.948	1584.14
1009.242	1552.28
1009.535	1562.67
1009.829	1557.47
1010.122	1534.87
1010.415	1515.44
1010.708	1522.22
1011.001	1523.35
1011.295	1505.95
1011.588	1499.17
1011.881	1480.87
1012.173	1497.81
1012.466	1469.11
1012.759	1466.85
1013.052	1472.28
1013.344	1470.92
1013.637	1433.86
1013.93	1418.49
1014.222	1420.3
1014.514	1416.69
1014.807	1392.28
1015.099	1400.64
1015.391	1390.02
1015.683	1419.62
1015.976	1396.35
1016.268	1402.9
1016.56	1371.49
1016.851	1312.73
1017.143	1340.08
1017.435	1309.57
1017.727	1346.86
1018.018	1319.29
1018.31	1320.19
1018.602	1312.96
1018.893	1317.25
1019.185	1287.65
1019.476	1257.59
1019.767	1284.94
1020.058	1267.31
1020.35	1265.5
1020.641	1222.11
1020.932	1242.45
1021.223	1243.36
1021.514	1234.54
1021.804	1237.03
1022.095	1220.98
1022.386	1229.57
1022.677	1225.96
1022.967	1201.55
1023.258	1189.12
1023.548	1199.06
1023.839	1159.29
1024.129	1151.38
1024.419	1137.15
1024.709	1146.86
1025	1136.69
1025.29	1119.29
1025.58	1129.46
1025.87	1135.11
1026.16	1111.61
1026.449	1101.44
1026.739	1110.25
1027.029	1103.7
1027.319	1089.69
1027.608	1081.1
1027.898	1082.68
1028.187	1090.59
1028.477	1056.92
1028.766	1042.68
1029.055	1072.74
1029.344	1033.19
1029.634	1035.68
1029.923	1012.18
1030.212	1019.41
1030.501	988.67
1030.79	1015.57
1031.078	992.29
1031.367	1000.43
1031.656	1004.04
1031.945	982.35
1032.233	959.75
1032.522	988
1032.81	957.26
1033.099	950.94
1033.387	989.58
1033.675	945.51
1033.963	952.97
1034.251	926.76
1034.54	925.17
1034.828	934.44
1035.116	921.33
1035.403	892.41
1035.691	888.79
1035.979	910.48
1036.267	882.24
1036.554	886.53
1036.842	876.81
1037.129	884.72
1037.417	894.44
1037.704	860.99
1037.992	874.78
1038.279	871.84
1038.566	842.46
1038.853	842.46
1039.14	842.46
