Data from hue_36_FLMS001491_00049.txt Node
Date: Tue Feb 07 17:29:52 GMT 2017
User: dcchb
Spectrometer: FLMS00149
Trigger mode: 0
Integration Time (sec): 2.000000E-2
Scans to average: 10
Electric dark correction enabled: true
Nonlinearity correction enabled: false
Boxcar width: 0
XAxis mode: Wavelengths
Number of Pixels in Spectrum: 2048
>>>>>Begin Spectral Data<<<<<
341.393	-2.81
341.776	-2.81
342.16	-2.81
342.543	-47.78
342.927	-71.96
343.31	-77.84
343.693	-72.19
344.077	-57.05
344.46	-46.65
344.843	-49.82
345.226	-19.53
345.61	-21.34
345.993	-23.15
346.376	-11.4
346.759	-7.56
347.142	40.58
347.525	48.04
347.908	63.4
348.291	60.01
348.674	83.97
349.057	90.52
349.44	124.19
349.823	149.95
350.206	160.35
350.588	222.95
350.971	220.69
351.354	236.73
351.737	261.36
352.119	248.03
352.502	278.31
352.884	272.89
353.267	307.01
353.65	307.24
354.032	315.83
354.414	323.51
354.797	316.28
355.179	331.87
355.562	312.66
355.944	320.57
356.326	347.46
356.709	328.48
357.091	348.14
357.473	348.82
357.855	334.36
358.238	342.04
358.62	355.37
359.002	340.01
359.384	340.91
359.766	354.69
360.148	339.33
360.53	345.88
360.912	343.85
361.294	341.36
361.676	356.28
362.057	338.88
362.439	339.78
362.821	327.8
363.203	337.97
363.584	329.61
363.966	347.91
364.348	318.76
364.729	344.07
365.111	342.04
365.493	342.04
365.874	335.26
366.256	318.54
366.637	334.58
367.019	323.73
367.4	315.6
367.781	336.39
368.163	317.41
368.544	320.12
368.925	335.26
369.306	332.55
369.688	298.88
370.069	329.38
370.45	330.29
370.831	330.06
371.212	306.33
371.593	328.93
371.974	333.23
372.355	325.54
372.736	324.19
373.117	309.05
373.498	323.96
373.879	335.94
374.26	322.83
374.641	329.38
375.021	319.21
375.402	340.46
375.783	317.86
376.163	325.32
376.544	337.52
376.925	337.52
377.305	314.7
377.686	311.08
378.066	340.23
378.447	337.97
378.827	300.91
379.208	327.58
379.588	329.38
379.968	344.75
380.349	316.28
380.729	349.04
381.109	351.76
381.489	335.94
381.87	351.76
382.25	332.1
382.63	340.46
383.01	350.17
383.39	339.78
383.77	339.78
384.15	342.72
384.53	361.7
384.91	359.44
385.29	353.56
385.67	354.47
386.049	362.15
386.429	345.65
386.809	347.24
387.189	354.02
387.568	361.47
387.948	365.54
388.328	380
388.707	372.32
389.087	363.96
389.466	357.18
389.846	383.85
390.225	364.64
390.605	379.78
390.984	361.93
391.363	365.32
391.743	369.61
392.122	384.3
392.501	367.58
392.881	374.35
393.26	375.71
393.639	372.32
394.018	388.14
394.397	367.35
394.776	405.54
395.155	401.25
395.534	380.46
395.913	381.81
396.292	382.04
396.671	399.21
397.05	380.91
397.429	381.13
397.808	407.35
398.186	401.02
398.565	385.65
398.944	399.44
399.323	405.54
399.701	386.56
400.08	401.47
400.458	413.68
400.837	397.63
401.215	381.13
401.594	409.83
401.972	405.99
402.351	410.51
402.729	410.96
403.107	431.3
403.486	425.65
403.864	398.53
404.242	424.52
404.62	420.91
404.999	411.42
405.377	414.35
405.755	448.25
406.133	420.23
406.511	430.85
406.889	416.16
407.267	434.92
407.645	427.46
408.023	416.61
408.401	429.49
408.779	459.1
409.156	459.78
409.534	448.25
409.912	448.93
410.29	468.82
410.667	471.75
411.045	457.97
411.422	471.3
411.8	466.1
412.178	466.1
412.555	481.7
412.933	466.1
413.31	459.32
413.687	503.16
414.065	477.4
414.442	493.22
414.819	486.44
415.197	468.14
415.574	470.17
415.951	495.93
416.328	505.65
416.705	502.03
417.082	506.55
417.46	495.93
417.837	517.63
418.214	509.94
418.591	517.85
418.967	514.24
419.344	540.9
419.721	506.33
420.098	538.87
420.475	521.47
420.852	505.2
421.228	519.66
421.605	536.38
421.982	521.24
422.358	531.41
422.735	519.66
423.111	529.15
423.488	562.37
423.864	540.9
424.241	565.31
424.617	574.8
424.994	544.29
425.37	551.98
425.746	542.49
426.123	560.11
426.499	570.51
426.875	586.33
427.251	584.97
427.627	589.49
428.003	591.3
428.379	546.1
428.756	566.21
429.132	588.59
429.507	588.13
429.883	610.96
430.259	604.41
430.635	624.07
431.011	613.22
431.387	627.91
431.763	628.81
432.138	643.95
432.514	651.18
432.89	620.22
433.265	668.13
433.641	672.2
434.016	645.99
434.392	670.17
434.767	685.08
435.143	664.74
435.518	706.32
435.894	662.93
436.269	681.47
436.644	668.36
437.02	680.34
437.395	713.55
437.77	690.96
438.145	723.95
438.52	715.81
438.895	716.49
439.271	720.33
439.646	722.14
440.021	745.42
440.395	742.48
440.77	744.97
441.145	737.51
441.52	775.7
441.895	744.97
442.27	778.19
442.645	762.14
443.019	761.24
443.394	792.87
443.769	777.28
444.143	763.72
444.518	772.76
444.892	798.52
445.267	779.77
445.641	783.61
446.016	793.55
446.39	805.98
446.764	795.81
447.139	839.43
447.513	824.29
447.887	838.3
448.262	803.5
448.636	824.74
449.01	844.85
449.384	824.06
449.758	863.83
450.132	864.51
450.506	878.07
450.88	855.47
451.254	845.53
451.628	864.74
452.002	877.84
452.376	881.91
452.75	892.31
453.123	881.69
453.497	920.78
453.871	897.96
454.244	918.3
454.618	914.68
454.992	929.14
455.365	944.74
455.739	949.25
456.112	950.38
456.486	965.07
456.859	1009.14
457.232	978.18
457.606	981.8
457.979	1002.59
458.352	1020.21
458.725	1015.24
459.099	1045.52
459.472	1045.75
459.845	1045.52
460.218	1074.45
460.591	1101.57
460.964	1081.91
461.337	1094.79
461.71	1127.1
462.083	1131.85
462.456	1124.39
462.829	1142.7
463.201	1178.63
463.574	1158.97
463.947	1186.54
464.32	1226.08
464.692	1197.16
465.065	1243.48
465.438	1251.17
465.81	1232.41
466.183	1263.37
466.555	1298.4
466.928	1314.22
467.3	1312.86
467.672	1353.31
468.045	1334.1
468.417	1349.92
468.789	1365.51
469.161	1410.26
469.534	1429.02
469.906	1447.32
470.278	1464.5
470.65	1461.78
471.022	1513.31
471.394	1580.2
471.766	1577.03
472.138	1556.02
472.51	1610.71
472.882	1648.9
473.253	1700.2
473.625	1701.78
473.997	1756.24
474.369	1767.54
474.74	1785.39
475.112	1822.68
475.484	1855.9
475.855	1889.34
476.227	1938.38
476.598	1984.48
476.97	2012.05
477.341	2077.36
477.713	2098.38
478.084	2129.11
478.455	2210.92
478.827	2300.63
479.198	2311.7
479.569	2356.9
479.94	2463.11
480.311	2478.25
480.682	2551.02
481.053	2605.93
481.424	2716.21
481.795	2702.43
482.166	2823.56
482.537	2857.68
482.908	2979.71
483.279	2999.6
483.65	3079.37
484.021	3176.31
484.391	3232.36
484.762	3331.56
485.133	3422.41
485.503	3503.31
485.874	3593.93
486.244	3626.92
486.615	3750.09
486.985	3803.42
487.356	3966.35
487.726	3998.44
488.097	4147.36
488.467	4186.23
488.837	4321.37
489.207	4370.86
489.578	4554.58
489.948	4585.54
490.318	4703.28
490.688	4748.7
491.058	4813.56
491.428	4954.12
491.798	5035.93
492.168	5277.95
492.538	5305.52
492.908	5305.07
493.278	5486.99
493.648	5517.72
494.017	5699.41
494.387	5746.42
494.757	5904.38
495.126	5981.44
495.496	6031.38
495.866	6095.33
496.235	6183.24
496.605	6319.51
496.974	6357.93
497.344	6495.32
497.713	6565.6
498.082	6656.22
498.452	6764.24
498.821	6760.63
499.19	6845.6
499.559	6982.77
499.928	7102.77
500.298	7134.4
500.667	7251.46
501.036	7284
501.405	7347.73
501.774	7453.94
502.143	7507.27
502.512	7574.84
502.88	7677.67
503.249	7758.34
503.618	7813.71
503.987	7858.45
504.356	7968.73
504.724	8061.84
505.093	8142.96
505.462	8127.37
505.83	8162.62
506.199	8312.9
506.567	8470.64
506.936	8483.07
507.304	8600.8
507.672	8608.26
508.041	8707.02
508.409	8770.74
508.777	8839.22
509.145	8934.81
509.514	8956.95
509.882	9050.51
510.25	9029.72
510.618	9236.49
510.986	9227.68
511.354	9305.19
511.722	9342.25
512.09	9436.49
512.458	9431.29
512.826	9539.99
513.193	9617.05
513.561	9676.93
513.929	9739.76
514.297	9834.22
514.664	9924.39
515.032	9969.81
515.4	9993.31
515.767	10085.74
516.135	10183.36
516.502	10086.87
516.869	10270.82
517.237	10327.31
517.604	10279.86
517.972	10391.27
518.339	10418.61
518.706	10483.47
519.073	10527.99
519.44	10605.05
519.808	10700.18
520.175	10713.74
520.542	10866.06
520.909	10931.82
521.276	10901.08
521.643	11000.06
522.009	11107.86
522.376	11140.63
522.743	11184.92
523.11	11350.56
523.477	11375.42
523.843	11397.12
524.21	11614.29
524.577	11686.83
524.943	11768.86
525.31	11813.15
525.676	11858.57
526.043	11920.72
526.409	11995.07
526.776	12074.39
527.142	12162.52
527.508	12284.55
527.874	12329.75
528.241	12386.02
528.607	12403.87
528.973	12534.94
529.339	12492.91
529.705	12614.48
530.071	12741.49
530.437	12792.79
530.803	12828.04
531.169	12891.31
531.535	12979.22
531.901	12994.59
532.267	13044.3
532.632	13167.01
532.998	13237.29
533.364	13260.12
533.73	13237.97
534.095	13385.31
534.461	13471.86
534.826	13518.87
535.192	13550.28
535.557	13573.56
535.923	13663.27
536.288	13695.59
536.653	13849.48
537.019	13704.85
537.384	13791.4
537.749	13846.77
538.114	13968.35
538.479	13961.34
538.845	14086.99
539.21	14008.35
539.575	14115.46
539.94	14163.82
540.305	14324.72
540.67	14326.53
541.034	14343.93
541.399	14452.18
541.764	14489.92
542.129	14508.22
542.494	14558.39
542.858	14629.8
543.223	14654.88
543.587	14772.39
543.952	14777.59
544.316	14877.48
544.681	14864.37
545.045	14976.23
545.41	15061.65
545.774	15079.28
546.138	15137.13
546.503	15248.77
546.867	15228.65
547.231	15365.6
547.595	15419.61
547.959	15319.72
548.324	15503.22
548.688	15558.81
549.052	15503
549.416	15685.36
549.779	15683.33
550.143	15633.61
550.507	15825.93
550.871	15766.04
551.235	15818.02
551.599	15987.96
551.962	15975.53
552.326	15972.59
552.689	16129.42
553.053	16076.09
553.417	16168.29
553.78	16426.36
554.143	16281.96
554.507	16414.38
554.87	16441.73
555.234	16649.18
555.597	16410.32
555.96	16589.52
556.323	16648.73
556.686	16571.67
557.05	16710.2
557.413	16814.37
557.776	16849.4
558.139	17023.63
558.502	16979.79
558.865	17011.43
559.228	17204.42
559.59	17216.85
559.953	17291.88
560.316	17393.79
560.679	17374.81
561.041	17432.89
561.404	17557.86
561.767	17674.46
562.129	17581.13
562.492	17800.34
562.854	17751.75
563.217	17778.64
563.579	17813.22
563.941	17881.92
564.304	18000.78
564.666	18073.55
565.028	18095.24
565.39	18240.1
565.753	18308.35
566.115	18405.97
566.477	18407.55
566.839	18422.69
567.201	18676.92
567.563	18642.35
567.925	18819.97
568.287	18822.46
568.648	18929.35
569.01	18922.79
569.372	19077.82
569.734	19014.54
570.095	19231.03
570.457	19327.98
570.819	19231.03
571.18	19357.58
571.542	19440.97
571.903	19450.69
572.265	19647.97
572.626	19701.08
572.987	19765.26
573.349	19784.92
573.71	19884.8
574.071	19889.77
574.432	20118.02
574.794	20247.05
575.155	20310.55
575.516	20253.15
575.877	20478.46
576.238	20614.05
576.599	20714.84
576.96	20800.03
577.32	20894.72
577.681	21010.2
578.042	21132.9
578.403	21203.64
578.763	21339
579.124	21578.54
579.485	21727.69
579.845	21893.11
580.206	21889.72
580.566	22036.16
580.927	22121.35
581.287	22394.34
581.648	22421.23
582.008	22783.26
582.368	22788.45
582.728	22948.68
583.089	23156.81
583.449	23244.49
583.809	23524.71
584.169	23712.95
584.529	23805.6
584.889	24201.07
585.249	24231.13
585.609	24521.97
585.969	24744.79
586.329	24844.22
586.688	25139.35
587.048	25291.44
587.408	25458.44
587.768	25657.98
588.127	25971.42
588.487	26030.18
588.846	26351.3
589.206	26376.83
589.565	26721.01
589.925	27046.65
590.284	27212.74
590.643	27479.4
591.003	27745.39
591.362	28010.92
591.721	28107.86
592.08	28371.36
592.44	28630.79
592.799	28925.92
593.158	28967.95
593.517	29222.64
593.876	29483.42
594.235	29545.11
594.593	29937.65
594.952	30175.15
595.311	30387.35
595.67	30510.06
596.029	30977.39
596.387	31090.16
596.746	31284.05
597.104	31459.41
597.463	31579.41
597.822	31988.44
598.18	32096.91
598.538	32222.33
598.897	32653.05
599.255	32541.87
599.613	33191.57
599.972	33218.01
600.33	33579.81
600.688	33550.21
601.046	33801.05
601.404	34106.8
601.762	34206.23
602.12	34535.49
602.478	34672.44
602.836	34926.21
603.194	34754.92
603.552	35021.58
603.91	35020
604.268	35342.25
604.625	35532.75
604.983	35784.95
605.341	35765.06
605.698	36104.49
606.056	36271.72
606.413	36366.63
606.771	36598.03
607.128	36802.32
607.485	36704.7
607.843	36968.42
608.2	37198.25
608.557	37452.7
608.914	37382.42
609.272	37676.65
609.629	37820.6
609.986	38107.83
610.343	38037.55
610.7	38339.23
611.057	38491.32
611.414	38585.78
611.771	38565.89
612.127	38875.04
612.484	38967.01
612.841	39214.01
613.198	39208.59
613.554	39174.01
613.911	39488.13
614.267	39621.01
614.624	39690.61
614.98	39873.2
615.337	40067.1
615.693	40086.76
616.05	40006.53
616.406	40427.31
616.762	40294.89
617.118	40460.98
617.475	40590.47
617.831	40816.46
618.187	40756.57
618.543	40889
618.899	41076.11
619.255	41159.5
619.611	41001.99
619.967	41332.15
620.323	41377.57
620.678	41272.94
621.034	41413.95
621.39	41374.63
621.746	41309.32
622.101	41904.11
622.457	41686.49
622.812	41770.55
623.168	41942.75
623.523	41961.06
623.879	42199.02
624.234	41788.63
624.589	42102.07
624.945	42133.71
625.3	42137.55
625.655	42292.57
626.01	42319.24
626.365	42427.94
626.72	42404.44
627.075	42336.64
627.43	42289.86
627.785	42339.35
628.14	42573.47
628.495	42654.82
628.85	42417.77
629.205	42440.14
629.559	42649.4
629.914	42500.25
630.269	42586.8
630.623	42622.28
630.978	42436.98
631.332	42638.1
631.687	42762.17
632.041	42649.18
632.396	42753.58
632.75	42541.38
633.104	42644.2
633.459	42528.73
633.813	42531.89
634.167	42471.33
634.521	42527.82
634.875	42672
635.229	42653.92
635.583	42359.01
635.937	42480.59
636.291	42420.25
636.645	42596.97
636.999	42342.74
637.352	42481.04
637.706	42280.15
638.06	42481.72
638.413	42367.6
638.767	42312.46
639.121	42445.56
639.474	42205.57
639.828	42215.51
640.181	42336.64
640.534	42197.44
640.888	42190.88
641.241	42063.65
641.594	42179.58
641.947	42448.28
642.301	42115.4
642.654	42210.77
643.007	42187.72
643.36	42210.99
643.713	42135.52
644.066	42286.25
644.419	42130.09
644.771	41887.61
645.124	41437.23
645.477	41474.97
645.83	41238.82
646.182	41051.48
646.535	40765.16
646.888	40915.89
647.24	40823.46
647.593	41035.43
647.945	40978.71
648.298	40853.06
648.65	40769.22
649.002	40672.28
649.355	40729.45
649.707	40687.87
650.059	40768.77
650.411	41169.44
650.763	41340.96
651.115	41587.73
651.467	41581.86
651.819	41470.45
652.171	41393.61
652.523	41410.11
652.875	41331.47
653.227	41246.05
653.578	41379.83
653.93	41533.05
654.282	41212.15
654.633	41236.11
654.985	41322.43
655.337	41380.06
655.688	41203.34
656.039	41461.64
656.391	41209.21
656.742	41245.82
657.094	41291.24
657.445	41468.64
657.796	41263.22
658.147	41256.9
658.498	41167.63
658.849	41338.02
659.2	41270
659.551	41218.03
659.902	41396.55
660.253	41251.7
660.604	41331.02
660.955	41071.14
661.306	41381.41
661.656	41132.38
662.007	41226.39
662.358	41224.13
662.708	41070.91
663.059	41143.45
663.409	40912.95
663.76	41204.24
664.11	41151.81
664.461	41239.49
664.811	41191.59
665.161	41078.14
665.511	41109.55
665.862	41109.33
666.212	41142.77
666.562	41154.3
666.912	41034.75
667.262	41011.93
667.612	41030.01
667.962	41147.97
668.312	41046.51
668.662	41169.89
669.011	41011.7
669.361	40929.22
669.711	41088.31
670.06	40835.89
670.41	40754.54
670.76	40674.76
671.109	40919.28
671.459	40754.08
671.808	40703.69
672.157	40735.33
672.507	40628.89
672.856	40703.46
673.205	40693.75
673.554	40903.23
673.904	40787.53
674.253	40833.18
674.602	40788.89
674.951	40256.7
675.3	40008.79
675.649	40696.46
675.998	40688.32
676.346	40706.4
676.695	40796.34
677.044	40534.2
677.393	40497.14
677.741	40611.26
678.09	40525.16
678.438	40428.67
678.787	40465.05
679.135	40561.09
679.484	40204.95
679.832	40330.14
680.181	40237.94
680.529	40331.72
680.877	39932.86
681.225	40119.98
681.573	40370.37
681.922	39979.64
682.27	39818.06
682.618	40044.27
682.966	39927.89
683.314	39872.98
683.661	39897.61
684.009	39578.3
684.357	39642.25
684.705	39597.96
685.053	39694.22
685.4	39529.48
685.748	39349.37
686.095	39349.6
686.443	39227.57
686.79	39139.89
687.138	39323.16
687.485	39225.76
687.832	39142.37
688.18	39151.64
688.527	38929.5
688.874	38838.65
689.221	38790.52
689.568	38883.17
689.915	38726.57
690.262	38617.42
690.609	38587.14
690.956	38465.56
691.303	38314.15
691.65	38153.25
691.997	38188.5
692.344	37993.93
692.69	37916.87
693.037	37946.7
693.383	37669.87
693.73	37864.44
694.077	37616.99
694.423	37563.43
694.769	37458.58
695.116	37392.36
695.462	37391.69
695.808	37210.45
696.155	37241.18
696.501	37042.99
696.847	36954.86
697.193	36790.57
697.539	36966.61
697.885	36637.58
698.231	36633.51
698.577	36537.02
698.923	36587.41
699.269	36264.71
699.614	36111.95
699.96	36114.88
700.306	36132.74
700.651	36101.1
700.997	35804.61
701.342	35900.43
701.688	35800.77
702.033	35820.65
702.379	35573.66
702.724	35540.21
703.069	35700.21
703.415	35293.89
703.76	35259.31
704.105	35251.63
704.45	35238.07
704.795	34995.14
705.14	34900.23
705.485	34960.79
705.83	34652.78
706.175	34763.96
706.52	34550.86
706.865	34607.35
707.209	34494.14
707.554	34428.6
707.899	34487.58
708.243	34105.67
708.588	34180.92
708.932	33975.96
709.277	34146.57
709.621	34006.92
709.966	33743.65
710.31	33768.28
710.654	33573.48
710.998	33655.51
711.342	33619.13
711.687	33461.39
712.031	33413.94
712.375	33156.32
712.719	33428.85
713.063	33272.02
713.407	33420.72
713.75	33103.89
714.094	33171.46
714.438	32971.01
714.782	33064.79
715.125	32884.23
715.469	32889.43
715.812	32623.9
716.156	32581.64
716.499	32693.28
716.843	32645.6
717.186	32465.04
717.53	32658.03
717.873	32503
718.216	32386.39
718.559	32214.2
718.902	32083.58
719.246	32175.33
719.589	32053.97
719.932	32020.3
720.275	31957.48
720.617	31977.37
720.96	31896.92
721.303	31809.23
721.646	31740.76
721.989	31620.76
722.331	31794.09
722.674	31706.41
723.016	31570.82
723.359	31599.3
723.701	31535.12
724.044	31355.46
724.386	31221.23
724.729	31550.26
725.071	31302.58
725.413	31364.73
725.755	31175.58
726.097	31150.27
726.439	30938.3
726.782	31139.42
727.124	31144.62
727.465	30936.49
727.807	30861.91
728.149	30844.51
728.491	30667.57
728.833	30937.84
729.175	30728.36
729.516	30629.6
729.858	30649.72
730.199	30632.77
730.541	30514.13
730.882	30558.65
731.224	30552.32
731.565	30314.81
731.906	30489.72
732.248	30328.82
732.589	30254.02
732.93	30195.49
733.271	30211.54
733.612	30174.02
733.953	30228.94
734.294	30071.88
734.635	29895.84
734.976	30066
735.317	29849.06
735.658	29825.11
735.999	29710.31
736.339	29779.46
736.68	29903.3
737.021	29663.3
737.361	29653.58
737.702	29763.41
738.042	29669.4
738.383	29569.07
738.723	29736.97
739.063	29454.04
739.404	29505.34
739.744	29329.98
740.084	29406.36
740.424	29288.62
740.764	29252.69
741.104	29321.16
741.444	29168.85
741.784	29147.16
742.124	29166.37
742.464	29136.08
742.804	29148.97
743.143	29099.93
743.483	29064.45
743.823	28967.28
744.162	28786.04
744.502	28991.23
744.841	28734.29
745.181	28963.89
745.52	28781.74
745.86	28843.89
746.199	28834.62
746.538	28685.93
746.877	28791.91
747.216	28673.27
747.556	28645.25
747.895	28541.75
748.234	28518.02
748.573	28441.41
748.911	28379.27
749.25	28384.47
749.589	28240.29
749.928	28323.9
750.267	28346.27
750.605	28202.1
750.944	28247.07
751.283	28080.07
751.621	28062.21
751.96	27763.24
752.298	27981.76
752.636	28019.73
752.975	27752.62
753.313	27693.86
753.651	27774.54
753.989	27592.85
754.327	27592.85
754.666	27483.47
755.004	27656.58
755.342	27660.87
755.679	27449.35
756.017	27429.69
756.355	27443.93
756.693	27260.88
757.031	27289.13
757.368	27226.08
757.706	27101.79
758.044	27091.84
758.381	27094.33
758.719	26961.9
759.056	26995.12
759.394	26923.71
759.731	26810.27
760.068	26728.24
760.405	26651.18
760.743	26491.41
761.08	26558.98
761.417	26302.71
761.754	26287.35
762.091	26220.23
762.428	26118.08
762.765	25963.74
763.102	26040.12
763.438	25963.51
763.775	25812.1
764.112	25836.51
764.449	25766.46
764.785	25781.37
765.122	25572.11
765.458	25408.72
765.795	25350.87
766.131	25357.65
766.467	25262.97
766.804	25293.02
767.14	25038.11
767.476	25067.49
767.812	25013.48
768.148	24908.4
768.485	24834.28
768.821	24753.6
769.157	24641.74
769.492	24643.55
769.828	24551.8
770.164	24312.93
770.5	24441.97
770.836	24321.52
771.171	24055.54
771.507	24050.12
771.842	23885.37
772.178	23931.93
772.513	23767.41
772.849	23753.17
773.184	23695.32
773.519	23623.46
773.855	23572.39
774.19	23540.98
774.525	23349.34
774.86	23292.62
775.195	23296.24
775.53	23195.68
775.865	23094.89
776.2	22854.89
776.535	22677.27
776.87	22783.48
777.205	22618.74
777.539	22501.68
777.874	22649.25
778.209	22466.88
778.543	22368.35
778.878	22251.07
779.212	22178.75
779.547	22141.01
779.881	22186.21
780.215	21957.52
780.55	22031.64
780.884	21802.49
781.218	21770.18
781.552	21846.78
781.886	21677.75
782.22	21530.18
782.554	21513.23
782.888	21299.23
783.222	21230.3
783.556	21066.69
783.889	21063.3
784.223	20916.87
784.557	20880.93
784.89	20846.58
785.224	20822.86
785.557	20723.42
785.891	20714.38
786.224	20545.8
786.558	20646.36
786.891	20465.35
787.224	20315.07
787.557	20291.57
787.891	20200.5
788.224	20125.93
788.557	20240.5
788.89	20033.27
789.223	20137.68
789.556	19932.48
789.888	19910.79
790.221	19756.44
790.554	19635.77
790.887	19612.04
791.219	19577.69
791.552	19472.16
791.884	19445.72
792.217	19300.41
792.549	19317.81
792.882	19144.93
793.214	19092.51
793.546	19177.7
793.879	18991.72
794.211	18940.42
794.543	19030.59
794.875	18896.13
795.207	18916.01
795.539	18745.4
795.871	18729.8
796.203	18664.27
796.535	18519.64
796.867	18531.17
797.198	18366.88
797.53	18407.33
797.862	18236.48
798.193	18321.68
798.525	18138.86
798.856	18173.43
799.188	18055.47
799.519	17903.39
799.85	17838.75
800.182	17972.54
800.513	17935.7
800.844	17777.96
801.175	17704.29
801.506	17780.45
801.837	17659.32
802.168	17675.14
802.499	17601.7
802.83	17425.43
803.161	17390.18
803.491	17363.06
803.822	17442.38
804.153	17309.5
804.483	17060.7
804.814	17139.56
805.145	17128.04
805.475	17023.63
805.805	17034.93
806.136	17008.49
806.466	16936.4
806.796	16930.08
807.126	16773.92
807.457	16707.03
807.787	16763.98
808.117	16697.99
808.447	16648.73
808.777	16670.42
809.107	16542.97
809.436	16438.56
809.766	16482.86
810.096	16322.86
810.426	16341.39
810.755	16360.6
811.085	16272.69
811.414	16223.88
811.744	16143.66
812.073	16140.04
812.403	16142.53
812.732	15982.76
813.061	16012.36
813.39	15896.21
813.719	15972.36
814.049	15916.77
814.378	15823.21
814.707	15761.97
815.036	15731.69
815.365	15662.77
815.693	15536.22
816.022	15658.7
816.351	15481.53
816.68	15458.03
817.008	15441.3
817.337	15354.07
817.665	15402.89
817.994	15316.33
818.322	15280.4
818.651	15191.37
818.979	15170.58
819.307	15222.33
819.636	15232.49
819.964	15067.08
820.292	15134.64
820.62	15094.19
820.948	15027.3
821.276	15116.57
821.604	15000.41
821.932	15106.62
822.259	15038.83
822.587	15014.65
822.915	15044.25
823.243	14995.89
823.57	15019.62
823.898	15050.8
824.225	15025.04
824.553	14947.3
824.88	14909.34
825.207	15055.1
825.535	15062.1
825.862	15025.95
826.189	14977.36
826.516	15115.21
826.843	15071.6
827.17	14963.12
827.497	15059.39
827.824	15011.03
828.151	15054.87
828.478	14925.16
828.805	15010.35
829.131	14971.03
829.458	14895.78
829.785	14910.47
830.111	14948.21
830.438	14960.41
830.764	14945.04
831.09	14968.32
831.417	14837.25
831.743	14886.74
832.069	14938.72
832.395	14811.49
832.722	14917.93
833.048	14815.78
833.374	14839.28
833.7	14770.81
834.026	14784.6
834.351	14826.4
834.677	14762.22
835.003	14876.35
835.329	14862.34
835.654	14827.53
835.98	14690.81
836.306	14713.41
836.631	14625.05
836.956	14713.19
837.282	14604.49
837.607	14638.16
837.932	14566.52
838.258	14596.35
838.583	14464.38
838.908	14429.35
839.233	14462.12
839.558	14439.3
839.883	14512.06
840.208	14300.54
840.533	14322.46
840.858	14279.53
841.182	14338.06
841.507	14323.37
841.832	14198.85
842.156	14202.92
842.481	14236.14
842.805	14306.64
843.13	14164.27
843.454	14204.05
843.778	14010.83
844.103	14098.74
844.427	13975.13
844.751	14012.19
845.075	13985.3
845.399	13901
845.723	13805.87
846.047	13898.97
846.371	13773.55
846.695	13733.1
847.019	13638.41
847.343	13567.23
847.666	13505.76
847.99	13453.33
848.313	13463.05
848.637	13441.81
848.96	13314.13
849.284	13276.39
849.607	13218.99
849.931	13193.45
850.254	13062.38
850.577	13038.65
850.9	12955.72
851.223	13011.54
851.546	12880.69
851.869	12822.16
852.192	12907.58
852.515	12745.33
852.838	12620.36
853.161	12638.21
853.483	12646.8
853.806	12554.6
854.129	12591.89
854.451	12520.02
854.774	12476.86
855.096	12475.73
855.419	12325.23
855.741	12341.05
856.063	12311.89
856.385	12168.17
856.708	12181.73
857.03	12210.65
857.352	12166.59
857.674	12076.42
857.996	12023.09
858.318	11944.67
858.64	11968.63
858.961	11917.55
859.283	11867.16
859.605	11838.46
859.926	11866.48
860.248	11850.44
860.57	11752.36
860.891	11847.95
861.212	11677.11
861.534	11658.13
861.855	11579.71
862.176	11649.31
862.498	11642.98
862.819	11695.19
863.14	11608.41
863.461	11527.51
863.782	11503.55
864.103	11515.53
864.424	11532.03
864.745	11535.42
865.065	11457.23
865.386	11430.56
865.707	11395.99
866.027	11366.61
866.348	11368.87
866.668	11323.45
866.989	11315.31
867.309	11272.83
867.63	11266.27
867.95	11224.46
868.27	11188.08
868.59	11144.69
868.91	11144.69
869.23	11189.89
869.55	11137.91
869.87	11162.77
870.19	11076.9
870.51	11184.47
870.83	11134.07
871.15	11030.35
871.469	11061.76
871.789	11076.9
872.109	11040.97
872.428	10907.41
872.748	11012.72
873.067	11001.87
873.386	10945.38
873.706	10968.88
874.025	10891.59
874.344	10842.33
874.663	10837.36
874.982	10898.6
875.301	10774.99
875.62	10818.15
875.939	10735.21
876.258	10737.25
876.577	10791.93
876.896	10746.74
877.214	10715.55
877.533	10766.62
877.852	10735.21
878.17	10727.75
878.489	10696.34
878.807	10614.99
879.125	10630.81
879.444	10597.81
879.762	10563.69
880.08	10582
880.398	10479.17
880.716	10498.16
881.034	10528.44
881.352	10483.24
881.67	10444.37
881.988	10394.88
882.306	10431.72
882.624	10308.56
882.941	10377.26
883.259	10275.56
883.577	10322.79
883.894	10238.5
884.212	10268.56
884.529	10244.15
884.846	10209.12
885.164	10186.75
885.481	10196.47
885.798	10189.01
886.115	10088.45
886.432	10126.64
886.75	10082.57
887.067	10110.82
887.383	10039.19
887.7	10033.54
888.017	9980.43
888.334	9975.68
888.651	9947.21
888.967	9982.69
889.284	9848.68
889.6	9884.16
889.917	9816.59
890.233	9830.38
890.55	9726.88
890.866	9751.96
891.182	9711.96
891.498	9678.74
891.815	9662.92
892.131	9625.41
892.447	9594.9
892.763	9562.36
893.079	9513.1
893.395	9492.76
893.71	9389.71
894.026	9454.79
894.342	9490.95
894.657	9347.68
894.973	9420.44
895.289	9318.3
895.604	9351.07
895.92	9317.17
896.235	9250.28
896.55	9206.21
896.865	9190.85
897.181	9135.71
897.496	9115.59
897.811	9074.46
898.126	9078.53
898.441	8992.43
898.756	9065.88
899.071	8952.66
899.386	8970.74
899.7	8898.88
900.015	8844.64
900.33	8832.66
900.644	8803.74
900.959	8841.7
901.273	8710.63
901.588	8691.2
901.902	8731.87
902.216	8614.36
902.531	8657.07
902.845	8622.73
903.159	8513.35
903.473	8536.85
903.787	8459.57
904.101	8408.95
904.415	8486.68
904.729	8345.67
905.042	8399.91
905.356	8363.3
905.67	8327.82
905.984	8356.97
906.297	8267.25
906.611	8254.83
906.924	8191.78
907.237	8218.67
907.551	8136.86
907.864	8129.63
908.177	8087.82
908.491	8040.37
908.804	8056.19
909.117	8010.99
909.43	7906.81
909.743	7855.74
910.056	7893.25
910.368	7871.33
910.681	7796.76
910.994	7756.08
911.307	7727.61
911.619	7691
911.932	7723.09
912.244	7643.09
912.557	7668.63
912.869	7614.62
913.181	7595.86
913.494	7564.22
913.806	7430.44
914.118	7450.78
914.43	7360.61
914.742	7458.91
915.054	7360.39
915.366	7364.45
915.678	7354.51
915.99	7256.66
916.302	7256.43
916.613	7225.25
916.925	7198.58
917.236	7162.88
917.548	7145.25
917.859	7155.65
918.171	7062.31
918.482	7050.11
918.794	7033.39
919.105	6983.67
919.416	6944.13
919.727	6917.69
920.038	6946.39
920.349	6877.46
920.66	6887.63
920.971	6813.28
921.282	6792.26
921.593	6754.07
921.903	6719.27
922.214	6651.7
922.525	6650.57
922.835	6621.87
923.146	6564.7
923.456	6537.13
923.767	6566.73
924.077	6517.7
924.387	6521.31
924.697	6452.61
925.008	6437.47
925.318	6461.43
925.628	6383.69
925.938	6318.38
926.248	6285.61
926.558	6280.87
926.867	6228.21
927.177	6239.06
927.487	6224.6
927.796	6179.4
928.106	6106.63
928.416	6173.07
928.725	6133.07
929.034	6068.44
929.344	6086.52
929.653	6089.91
929.962	5999.97
930.271	5966.75
930.581	5970.82
930.89	5966.3
931.199	5893.08
931.508	5863.48
931.817	5867.54
932.125	5876.58
932.434	5767.66
932.743	5765.4
933.051	5702.35
933.36	5744.16
933.669	5715.23
933.977	5653.09
934.286	5719.3
934.594	5663.48
934.902	5574.9
935.21	5601.56
935.519	5544.39
935.827	5561.11
936.135	5528.12
936.443	5475.24
936.751	5450.83
937.059	5484.05
937.367	5406.99
937.674	5394.79
937.982	5396.37
938.29	5352.3
938.597	5360.89
938.905	5305.3
939.213	5316.82
939.52	5254.9
939.827	5276.37
940.135	5222.81
940.442	5219.2
940.749	5189.37
941.056	5187.56
941.363	5110.5
941.67	5139.65
941.977	5086.1
942.284	5041.8
942.591	5061.69
942.898	5033.67
943.205	5029.37
943.511	5033.89
943.818	4995.25
944.125	4980.56
944.431	4920
944.738	4934.01
945.044	4913.67
945.35	4835.03
945.657	4820.34
945.963	4796.84
946.269	4784.63
946.575	4750.51
946.881	4766.33
947.187	4725.65
947.493	4732.66
947.799	4710.74
948.105	4657.63
948.41	4643.85
948.716	4653.11
949.022	4598.65
949.327	4598.88
949.633	4576.05
949.938	4574.47
950.244	4555.94
950.549	4515.04
950.854	4537.18
951.16	4475.72
951.465	4435.72
951.77	4435.49
952.075	4386.23
952.38	4388.26
952.685	4410.41
952.99	4351.2
953.294	4338.54
953.599	4306.91
953.904	4301.03
954.209	4242.73
954.513	4271.88
954.818	4228.72
955.122	4195.72
955.426	4216.51
955.731	4201.15
956.035	4154.59
956.339	4138.32
956.643	4144.2
956.948	4122.28
957.252	4129.06
957.556	4061.94
957.86	4094.93
958.163	4089.51
958.467	4002.51
958.771	4019.68
959.075	3980.81
959.378	3987.37
959.682	3971.1
959.985	3912.11
960.289	3938.33
960.592	3907.14
960.896	3918.44
961.199	3859.46
961.502	3852.91
961.805	3852.91
962.108	3786.69
962.411	3822.17
962.714	3758.45
963.017	3747.15
963.32	3806.81
963.623	3780.82
963.926	3685
964.228	3704.21
964.531	3661.5
964.833	3689.97
965.136	3655.17
965.438	3620.37
965.741	3568.39
966.043	3597.77
966.345	3551.67
966.648	3563.65
966.95	3592.35
967.252	3549.41
967.554	3536.08
967.856	3520.03
968.158	3525.23
968.46	3499.92
968.761	3494.95
969.063	3513.48
969.365	3468.74
969.666	3433.26
969.968	3391.9
970.269	3432.35
970.571	3373.15
970.872	3410.43
971.174	3350.32
971.475	3320.94
971.776	3327.5
972.077	3279.36
972.378	3300.61
972.679	3300.15
972.98	3282.07
973.281	3260.15
973.582	3287.5
973.883	3215.18
974.183	3208.86
974.484	3205.24
974.785	3202.3
975.085	3191.68
975.386	3176.99
975.686	3136.99
975.986	3147.39
976.287	3168.86
976.587	3067.39
976.887	3078.92
977.187	3048.86
977.487	3072.81
977.787	3027.84
978.087	3045.02
978.387	3030.1
978.687	3017.67
978.987	3012.7
979.286	2985.36
979.586	3003.21
979.885	2958.24
980.185	2970.67
980.484	2927.73
980.784	2941.97
981.083	2881.63
981.382	2891.35
981.682	2892.03
981.981	2868.3
982.28	2892.25
982.579	2866.27
982.878	2861.29
983.177	2810.22
983.475	2836.66
983.774	2757.57
984.073	2795.76
984.372	2743.78
984.67	2743.56
984.969	2731.35
985.267	2715.08
985.566	2721.86
985.864	2701.3
986.162	2678.7
986.461	2696.1
986.759	2691.58
987.057	2626.72
987.355	2628.08
987.653	2619.95
987.951	2621.08
988.249	2593.96
988.547	2570
988.844	2591.47
989.142	2579.72
989.44	2542.43
989.737	2538.37
990.035	2575.88
990.332	2529.33
990.63	2500.17
990.927	2490.01
991.224	2522.77
991.521	2483.23
991.819	2517.12
992.116	2451.81
992.413	2419.05
992.71	2437.13
993.006	2414.75
993.303	2388.31
993.6	2417.92
993.897	2386.05
994.193	2366.17
994.49	2376.56
994.787	2371.14
995.083	2363.91
995.379	2333.17
995.676	2276.23
995.972	2335.66
996.268	2287.07
996.565	2292.04
996.861	2303.57
997.157	2268.09
997.453	2260.18
997.749	2233.74
998.044	2225.15
998.34	2229.9
998.636	2215.44
998.932	2192.84
999.227	2184.7
999.523	2164.36
999.818	2172.95
1000.114	2141.99
1000.409	2178.15
1000.704	2115.1
1001	2115.33
1001.295	2083.46
1001.59	2086.17
1001.885	2096.12
1002.18	2050.92
1002.475	2064.25
1002.77	2017.48
1003.065	2056.34
1003.359	2021.99
1003.654	2011.6
1003.949	1980.19
1004.243	1970.7
1004.538	1970.47
1004.832	2003.92
1005.127	1953.97
1005.421	1946.29
1005.715	1935.22
1006.009	1941.09
1006.304	1913.98
1006.598	1928.66
1006.892	1896.12
1007.186	1895.9
1007.48	1849.34
1007.773	1890.7
1008.067	1858.38
1008.361	1840.98
1008.655	1849.8
1008.948	1845.05
1009.242	1804.15
1009.535	1792.4
1009.829	1775.9
1010.122	1819.06
1010.415	1772.74
1010.708	1762.79
1011.001	1749.46
1011.295	1760.98
1011.588	1749.46
1011.881	1730.7
1012.173	1742.23
1012.466	1703.59
1012.759	1678.73
1013.052	1701.78
1013.344	1676.47
1013.637	1649.12
1013.93	1643.02
1014.222	1636.02
1014.514	1645.96
1014.807	1655.68
1015.099	1622.68
1015.391	1610.93
1015.683	1611.84
1015.976	1587.66
1016.268	1562.35
1016.56	1570.48
1016.851	1562.57
1017.143	1598.5
1017.435	1559.63
1017.727	1537.04
1018.018	1530.03
1018.31	1506.98
1018.602	1473.99
1018.893	1501.1
1019.185	1528.9
1019.476	1504.27
1019.767	1469.69
1020.058	1464.95
1020.35	1482.8
1020.641	1444.16
1020.932	1432.63
1021.223	1419.07
1021.514	1417.04
1021.804	1400.77
1022.095	1389.24
1022.386	1398.06
1022.677	1359.19
1022.967	1359.19
1023.258	1342.01
1023.548	1345.4
1023.839	1342.24
1024.129	1339.75
1024.419	1352.41
1024.709	1289.58
1025	1312.18
1025.29	1307.89
1025.58	1259.3
1025.87	1269.47
1026.16	1277.38
1026.449	1271.96
1026.739	1266.99
1027.029	1266.53
1027.319	1238.96
1027.608	1233.32
1027.898	1226.99
1028.187	1225.86
1028.477	1197.16
1028.766	1200.77
1029.055	1182.69
1029.344	1200.1
1029.634	1170.94
1029.923	1168.91
1030.212	1165.75
1030.501	1156.03
1030.79	1140.89
1031.078	1122.81
1031.367	1112.19
1031.656	1127.78
1031.945	1113.09
1032.233	1102.47
1032.522	1109.7
1032.81	1129.81
1033.099	1085.3
1033.387	1081.91
1033.675	1074.68
1033.963	1075.35
1034.251	1065.41
1034.54	1035.35
1034.828	1038.52
1035.116	1051.62
1035.403	1021.57
1035.691	1023.38
1035.979	1008.24
1036.267	1012.53
1036.554	1010.5
1036.842	994.23
1037.129	1017.28
1037.417	1002.81
1037.704	998.74
1037.992	987.9
1038.279	982.25
1038.566	979.99
1038.853	979.99
1039.14	979.99
