Data from hue_30_FLMS001491_5.txt Node
Date: Mon Feb 06 15:04:34 GMT 2017
User: dcchb
Spectrometer: FLMS00149
Trigger mode: 0
Integration Time (sec): 2.000000E-2
Scans to average: 10
Electric dark correction enabled: true
Nonlinearity correction enabled: false
Boxcar width: 0
XAxis mode: Wavelengths
Number of Pixels in Spectrum: 2048
>>>>>Begin Spectral Data<<<<<
341.393	5.95
341.776	5.95
342.16	5.95
342.543	-61.85
342.927	-52.36
343.31	-63.88
343.693	-67.72
344.077	-63.2
344.46	-67.95
344.843	-41.74
345.226	-60.94
345.61	-18.01
345.993	1.43
346.376	-16.43
346.759	11.6
347.142	30.13
347.525	27.19
347.908	58.37
348.291	80.52
348.674	92.95
349.057	97.7
349.44	105.38
349.823	152.38
350.206	157.81
350.588	166.17
350.971	193.29
351.354	219.95
351.737	238.03
352.119	255.66
352.502	252.95
352.884	279.16
353.267	291.59
353.65	286.84
354.032	318.71
354.414	292.04
354.797	297.01
355.179	334.53
355.562	309.22
355.944	315.54
356.326	320.97
356.709	323.68
357.091	334.53
357.473	326.16
357.855	332.94
358.238	330.91
358.62	341.53
359.002	325.49
359.384	326.39
359.766	330.46
360.148	332.49
360.53	320.29
360.912	339.27
361.294	330.68
361.676	327.75
362.057	312.15
362.439	328.2
362.821	319.84
363.203	318.71
363.584	329.33
363.966	333.4
364.348	310.8
364.729	313.51
365.111	315.77
365.493	321.64
365.874	313.73
366.256	318.71
366.637	327.07
367.019	323
367.4	316.9
367.781	315.77
368.163	317.8
368.544	324.58
368.925	308.76
369.306	318.25
369.688	313.51
370.069	323.23
370.45	299.05
370.831	303.79
371.212	302.44
371.593	307.41
371.974	302.44
372.355	298.14
372.736	325.03
373.117	327.52
373.498	311.25
373.879	314.41
374.26	284.81
374.641	308.76
375.021	308.54
375.402	321.87
375.783	304.47
376.163	319.84
376.544	316.9
376.925	325.26
377.305	326.39
377.686	310.8
378.066	333.17
378.447	337.46
378.827	333.62
379.208	326.84
379.588	326.16
379.968	337.69
380.349	341.08
380.729	337.69
381.109	352.38
381.489	309.67
381.87	341.08
382.25	316.45
382.63	328.2
383.01	341.3
383.39	339.27
383.77	341.53
384.15	329.55
384.53	337.01
384.91	345.15
385.29	322.1
385.67	352.15
386.049	339.95
386.429	317.35
386.809	355.32
387.189	338.14
387.568	341.53
387.948	360.97
388.328	351.02
388.707	341.3
389.087	338.59
389.466	359.84
389.846	343.11
390.225	353.96
390.605	359.38
390.984	326.16
391.363	354.86
391.743	333.62
392.122	363.9
392.501	363.22
392.881	373.17
393.26	382.66
393.639	366.16
394.018	343.11
394.397	363.9
394.776	355.77
395.155	388.53
395.534	364.58
395.913	371.59
396.292	358.03
396.671	376.11
397.05	368.87
397.429	377.91
397.808	371.13
398.186	382.66
398.565	370
398.944	393.96
399.323	382.43
399.701	385.82
400.08	379.95
400.458	386.5
400.837	391.47
401.215	394.64
401.594	377.01
401.972	372.49
402.351	400.06
402.729	377.46
403.107	398.93
403.486	377.46
403.864	392.38
404.242	386.28
404.62	406.39
404.999	402.32
405.377	391.25
405.755	404.81
406.133	408.87
406.511	403.22
406.889	406.39
407.267	396.44
407.645	400.51
408.023	407.97
408.401	442.77
408.779	395.77
409.156	420.85
409.534	450.68
409.912	432.83
410.29	411.59
410.667	423.79
411.045	435.99
411.422	432.6
411.8	424.69
412.178	419.27
412.555	442.32
412.933	456.78
413.31	456.78
413.687	452.71
414.065	446.16
414.442	451.58
414.819	447.97
415.197	455.2
415.574	452.94
415.951	444.13
416.328	466.05
416.705	489.1
417.082	488.19
417.46	472.37
417.837	469.21
418.214	480.74
418.591	475.99
418.967	472.83
419.344	477.57
419.721	484.13
420.098	504.69
420.475	480.28
420.852	503.11
421.228	483
421.605	480.28
421.982	494.29
422.358	480.51
422.735	502.2
423.111	489.55
423.488	513.73
423.864	512.83
424.241	525.71
424.617	531.81
424.994	526.38
425.37	538.36
425.746	510.11
426.123	531.36
426.499	537.91
426.875	557.57
427.251	534.52
427.627	536.33
428.003	543.56
428.379	575.42
428.756	559.83
429.132	577.91
429.507	569.32
429.883	586.95
430.259	566.84
430.635	579.04
431.011	562.32
431.387	584.01
431.763	585.37
432.138	577.68
432.514	590.56
432.89	598.7
433.265	613.61
433.641	608.64
434.016	613.16
434.392	610.45
434.767	618.13
435.143	612.26
435.518	640.73
435.894	642.77
436.269	649.32
436.644	635.53
437.02	640.28
437.395	669.21
437.77	650
438.145	664.23
438.52	659.04
438.895	673.5
439.271	659.04
439.646	662.88
440.021	665.59
440.395	699.94
440.77	658.13
441.145	663.56
441.52	689.32
441.895	689.09
442.27	685.93
442.645	694.97
443.019	727.96
443.394	707.62
443.769	719.37
444.143	719.6
444.518	723.89
444.892	717.34
445.267	725.02
445.641	719.83
446.016	722.09
446.39	746.49
446.764	753.05
447.139	734.29
447.513	725.48
447.887	745.36
448.262	766.15
448.636	762.08
449.01	761.63
449.384	764.8
449.758	772.03
450.132	761.18
450.506	767.96
450.88	762.08
451.254	809.77
451.628	794.4
452.002	785.81
452.376	796.43
452.75	794.85
453.123	813.61
453.497	818.81
453.871	815.19
454.244	808.18
454.618	856.55
454.992	844.79
455.365	832.82
455.739	864.68
456.112	864.91
456.486	872.36
456.859	907.84
457.232	893.83
457.606	884.79
457.979	909.2
458.352	929.99
458.725	895.64
459.099	944.45
459.472	928.41
459.845	918.46
460.218	974.96
460.591	984.45
460.964	962.08
461.337	985.36
461.71	985.36
462.083	1019.93
462.456	987.84
462.829	996.2
463.201	1017.9
463.574	1058.12
463.947	1048.86
464.32	1069.42
464.692	1055.41
465.065	1079.82
465.438	1083.66
465.81	1120.49
466.183	1119.36
466.555	1144.67
466.928	1164.56
467.3	1140.61
467.672	1165.24
468.045	1197.78
468.417	1176.08
468.789	1190.77
469.161	1219.93
469.534	1246.82
469.906	1240.94
470.278	1268.96
470.65	1280.49
471.022	1315.97
471.394	1315.29
471.766	1342.86
472.138	1352.35
472.51	1392.35
472.882	1420.82
473.253	1426.02
473.625	1463.08
473.997	1463.76
474.369	1498.79
474.74	1508.96
475.112	1570.2
475.484	1574.94
475.855	1592.35
476.227	1640.25
476.598	1660.14
476.97	1681.38
477.341	1757.99
477.713	1761.83
478.084	1769.29
478.455	1818.33
478.827	1854.03
479.198	1883.18
479.569	1881.6
479.94	1976.74
480.311	1996.85
480.682	2036.63
481.053	2114.37
481.424	2125.89
481.795	2183.06
482.166	2163.4
482.537	2260.12
482.908	2282.95
483.279	2329.95
483.65	2391.42
484.021	2450.18
484.391	2497.86
484.762	2536.05
485.133	2576.5
485.503	2604.3
485.874	2687.23
486.244	2739.43
486.615	2775.59
486.985	2825.08
487.356	2871.63
487.726	2929.94
488.097	3002.93
488.467	2995.7
488.837	3090.84
489.207	3145.75
489.578	3201.34
489.948	3277.5
490.318	3324.73
490.688	3394.11
491.058	3437.95
491.428	3465.74
491.798	3528.11
492.168	3623.7
492.538	3651.05
492.908	3693.76
493.278	3762.23
493.648	3824.15
494.017	3886.97
494.387	3930.36
494.757	3962.68
495.126	4015.11
495.496	4073.18
495.866	4076.35
496.235	4151.37
496.605	4188.44
496.974	4284.48
497.344	4278.6
497.713	4321.54
498.082	4317.47
498.452	4408.77
498.821	4432.95
499.19	4474.76
499.559	4500.97
499.928	4560.4
500.298	4571.02
500.667	4640.17
501.036	4668.87
501.405	4744.8
501.774	4711.13
502.143	4810.79
502.512	4787.52
502.88	4860.51
503.249	4890.34
503.618	4889.21
503.987	4977.57
504.356	5001.97
504.724	5062.31
505.093	5055.76
505.462	5090.11
505.83	5116.32
506.199	5168.07
506.567	5260.27
506.936	5230.67
507.304	5287.84
507.672	5311.34
508.041	5367.84
508.409	5383.21
508.777	5444.67
509.145	5446.03
509.514	5488.74
509.882	5530.55
510.25	5584.78
510.618	5582.75
510.986	5574.16
511.354	5621.39
511.722	5684.21
512.09	5748.85
512.458	5764.66
512.826	5789.07
513.193	5771.44
513.561	5769.18
513.929	5856.64
514.297	5912.23
514.664	5950.2
515.032	5985.22
515.4	6006.92
515.767	6064.77
516.135	6086.69
516.502	5976.64
516.869	6129.4
517.237	6156.52
517.604	6047.82
517.972	6176.86
518.339	6263.63
518.706	6250.98
519.073	6205.11
519.44	6320.13
519.808	6346.12
520.175	6321.26
520.542	6397.42
520.909	6471.99
521.276	6454.36
521.643	6490.52
522.009	6475.83
522.376	6571.2
522.743	6550.41
523.11	6589.73
523.477	6688.26
523.843	6723.06
524.21	6742.49
524.577	6837.18
524.943	6842.15
525.31	6822.94
525.676	6924.63
526.043	6928.93
526.409	6983.16
526.776	7012.32
527.142	7021.81
527.508	7087.12
527.874	7140.67
528.241	7159.43
528.607	7165.76
528.973	7220.67
529.339	7199.43
529.705	7313.1
530.071	7402.36
530.437	7384.28
530.803	7447.56
531.169	7522.81
531.535	7482.13
531.901	7523.26
532.267	7538.18
532.632	7597.61
532.998	7598.51
533.364	7715.8
533.73	7678.96
534.095	7789.47
534.461	7744.5
534.826	7821.11
535.192	7785.18
535.557	7898.39
535.923	7841.9
536.288	7971.84
536.653	7970.26
537.019	7925.06
537.384	7990.37
537.749	8062.46
538.114	8056.13
538.479	8104.94
538.845	8132.29
539.21	8101.55
539.575	8219.06
539.94	8194.21
540.305	8262.68
540.67	8217.71
541.034	8296.8
541.399	8358.04
541.764	8471.94
542.129	8424.71
542.494	8449.57
542.858	8480.75
543.223	8509.68
543.587	8563.46
543.952	8574.53
544.316	8598.94
544.681	8593.97
545.045	8647.3
545.41	8696.57
545.774	8770.69
546.138	8722.33
546.503	8744.7
546.867	8792.61
547.231	8888.42
547.595	8909.21
547.959	8970.46
548.324	8973.39
548.688	8960.96
549.052	9032.83
549.416	9059.49
549.779	9050.68
550.143	9029.66
550.507	9128.87
550.871	9181.3
551.235	9152.6
551.599	9244.8
551.962	9307.4
552.326	9262.65
552.689	9319.15
553.053	9327.51
553.417	9363.21
553.78	9492.93
554.143	9473.95
554.507	9506.26
554.87	9508.07
555.234	9594.39
555.597	9574.73
555.96	9572.7
556.323	9586.03
556.686	9653.6
557.05	9682.3
557.413	9711.91
557.776	9741.74
558.139	9818.8
558.502	9839.81
558.865	9866.25
559.228	9923.2
559.59	9990.32
559.953	9968.4
560.316	10063.53
560.679	9955.06
561.041	10061.27
561.404	10068.05
561.767	10136.3
562.129	10190.76
562.492	10237.54
562.854	10219.46
563.217	10213.59
563.579	10246.58
563.941	10313.25
564.304	10301.72
564.666	10454.03
565.028	10419.23
565.39	10497.42
565.753	10516.63
566.115	10566.8
566.477	10600.7
566.839	10581.49
567.201	10721.37
567.563	10731.31
567.925	10782.39
568.287	10776.74
568.648	10791.88
569.01	10884.3
569.372	10989.39
569.734	10843.85
570.095	11041.59
570.457	11088.82
570.819	11079.33
571.18	11091.76
571.542	11086.56
571.903	11131.53
572.265	11227.57
572.626	11327
572.987	11362.03
573.349	11421.92
573.71	11465.53
574.071	11515.25
574.432	11618.75
574.794	11625.53
575.155	11786.65
575.516	11751.4
575.877	11805.86
576.238	11881.79
576.599	12077.72
576.96	12119.53
577.32	12129.92
577.681	12261.67
578.042	12375.56
578.403	12409.46
578.763	12485.84
579.124	12626.86
579.485	12792.28
579.845	12836.34
580.206	12933.97
580.566	13091.03
580.927	13279.95
581.287	13463.45
581.648	13461.86
582.008	13651.46
582.368	13794.51
582.728	13921.74
583.089	14048.06
583.449	14152.47
583.809	14374.61
584.169	14660.48
584.529	14727.14
584.889	15011.88
585.249	15164.64
585.609	15336.84
585.969	15594.24
586.329	15679.21
586.688	15897.73
587.048	16128.69
587.408	16238.06
587.768	16553.31
588.127	16724.15
588.487	16890.7
588.846	17200.52
589.206	17389.9
589.565	17541.76
589.925	17865.14
590.284	18087.73
590.643	18380.6
591.003	18626.47
591.362	18890.65
591.721	19056.97
592.08	19278.43
592.44	19612.21
592.799	19844.29
593.158	20120.22
593.517	20363.6
593.876	20697.38
594.235	20797.26
594.593	21137.82
594.952	21467.53
595.311	21680.4
595.67	21954.3
596.029	22224.57
596.387	22524.9
596.746	22850.77
597.104	22960.6
597.463	23257.76
597.822	23591.31
598.18	23763.74
598.538	23851.42
598.897	24344.74
599.255	24378.19
599.613	24888
599.972	24987.89
600.33	25353.98
600.688	25483.47
601.046	25878.71
601.404	26008.88
601.762	26226.73
602.12	26541.52
602.478	26729.99
602.836	26950.1
603.194	27089.3
603.552	27362.97
603.91	27428.28
604.268	27833.92
604.625	27956.85
604.983	28143.06
605.341	28229.38
605.698	28632.99
606.056	28733.1
606.413	28952.08
606.771	29302.13
607.128	29383.7
607.485	29435.68
607.843	29679.97
608.2	30146.4
608.557	30202.67
608.914	30319.95
609.272	30573.05
609.629	30814.63
609.986	31118.35
610.343	31084
610.7	31485.34
611.057	31580.94
611.414	31630.88
611.771	31790.2
612.127	32060.24
612.484	32083.97
612.841	32414.13
613.198	32456.84
613.554	32564.41
613.911	32750.85
614.267	32976.15
614.624	32951.97
614.98	33290.95
615.337	33419.98
615.693	33591.73
616.05	33487.55
616.406	33828.56
616.762	33925.28
617.118	33866.07
617.475	34010.25
617.831	34189.45
618.187	34370.69
618.543	34492.95
618.899	34683
619.255	34703.56
619.611	34723.68
619.967	35044.57
620.323	35111.01
620.678	35126.38
621.034	35107.4
621.39	35122.99
621.746	35142.88
622.101	35639.59
622.457	35446.82
622.812	35630.55
623.168	35806.81
623.523	35862.18
623.879	36003.42
624.234	35820.37
624.589	35884.55
624.945	36144.2
625.3	36134.94
625.655	36111.21
626.01	36162.74
626.365	36336.97
626.72	36339.23
627.075	36345.33
627.43	36353.92
627.785	36421.94
628.14	36562.73
628.495	36564.31
628.85	36492.9
629.205	36563.63
629.559	36891.76
629.914	36665.32
630.269	36667.58
630.623	36629.39
630.978	36592.33
631.332	36876.62
631.687	36751.42
632.041	36688.6
632.396	36747.58
632.75	36818.99
633.104	36740.12
633.459	36795.04
633.813	36777.18
634.167	36738.31
634.521	36782.83
634.875	36822.83
635.229	36833.9
635.583	36642.95
635.937	36799.78
636.291	36752.55
636.645	36713.46
636.999	36872.1
637.352	36830.74
637.706	36612.44
638.06	36768.6
638.413	36663.06
638.767	36618.32
639.121	36757.07
639.474	36399.79
639.828	36616.73
640.181	36597.53
640.534	36582.61
640.888	36563.4
641.241	36485.21
641.594	36359.79
641.947	36534.93
642.301	36479.79
642.654	36510.98
643.007	36476.85
643.36	36470.52
643.713	36448.6
644.066	36638.43
644.419	36384.42
644.771	36237.08
645.124	35834.38
645.477	35678.23
645.83	35640.49
646.182	35424.9
646.535	35410.44
646.888	35481.62
647.24	35291.35
647.593	35491.57
647.945	35342.19
648.298	35298.58
648.65	35222.42
649.002	35096.1
649.355	35357.56
649.707	35301.06
650.059	35431.23
650.411	35967.03
650.763	35785.8
651.115	36213.81
651.467	35983.98
651.819	36073.7
652.171	35932.23
652.523	35826.25
652.875	36014.26
653.227	35771.33
653.578	36049.52
653.93	35892.69
654.282	35765.91
654.633	35752.8
654.985	35819.24
655.337	35999.12
655.688	35888.84
656.039	35906.25
656.391	35529.98
656.742	35812.01
657.094	35802.97
657.445	35880.48
657.796	35829.19
658.147	35658.34
658.498	35644.78
658.849	35785.34
659.2	35722.07
659.551	35630.55
659.902	35694.27
660.253	35651.34
660.604	35764.55
660.955	35479.14
661.306	35441.17
661.656	35517.55
662.007	35595.29
662.358	35518.23
662.708	35538.12
663.059	35524.33
663.409	35260.84
663.76	35718.45
664.11	35554.62
664.461	35760.26
664.811	35624.9
665.161	35600.04
665.511	35420.38
665.862	35584.45
666.212	35582.86
666.562	35751.67
666.912	35601.17
667.262	35605.01
667.612	35590.1
667.962	35550.77
668.312	35376.32
668.662	35633.26
669.011	35442.98
669.361	35405.69
669.711	35429.42
670.06	35275.98
670.41	35452.25
670.76	35262.19
671.109	35508.29
671.459	35303.32
671.808	35369.76
672.157	35310.55
672.507	35125.25
672.856	35195.08
673.205	35166.83
673.554	35276.43
673.904	35135.19
674.253	35436.65
674.602	35173.61
674.951	34795.77
675.3	34579.05
675.649	35186.94
675.998	35008.19
676.346	35226.71
676.695	35233.04
677.044	35086.83
677.393	35145.14
677.741	35056.78
678.09	35081.86
678.438	34893.39
678.787	34968.42
679.135	34960.06
679.484	34686.84
679.832	34865.14
680.181	34742.89
680.529	34862.88
680.877	34725.26
681.225	34714.19
681.573	34912.6
681.922	34579.27
682.27	34511.71
682.618	34439.17
682.966	34489.11
683.314	34461.54
683.661	34383.57
684.009	34191.94
684.357	34190.13
684.705	34184.26
685.053	34223.8
685.4	34155.33
685.748	33958.73
686.095	33946.52
686.443	33890.25
686.79	33773.19
687.138	33806.87
687.485	33849.12
687.832	33655.23
688.18	33868.56
688.527	33579.75
688.874	33538.17
689.221	33400.55
689.568	33366.65
689.915	33223.83
690.262	33327.1
690.609	33138.18
690.956	33237.39
691.303	33229.25
691.65	33002.14
691.997	33002.14
692.344	32680.12
692.69	32683.05
693.037	32810.28
693.383	32503.85
693.73	32630.17
694.077	32299.79
694.423	32463.4
694.769	32267.02
695.116	32233.57
695.462	32181.15
695.808	32108.6
696.155	32054.6
696.501	31832.68
696.847	31837.43
697.193	31569.86
697.539	31719.91
697.885	31537.77
698.231	31368.29
698.577	31552.01
698.923	31469.53
699.269	31094.17
699.614	31236.31
699.96	31048.97
700.306	31108.63
700.651	30980.5
700.997	30834.74
701.342	30812.59
701.688	30731.01
702.033	30672.71
702.379	30604.01
702.724	30611.7
703.069	30692.6
703.415	30171.93
703.76	30304.13
704.105	30229.56
704.45	30181.65
704.795	30056.23
705.14	29882.67
705.485	29849.46
705.83	29816.91
706.175	29948.21
706.52	29823.24
706.865	29536.47
707.209	29481.33
707.554	29554.1
707.899	29457.6
708.243	29433.2
708.588	29327.89
708.932	29216.25
709.277	29085.18
709.621	29115.24
709.966	28919.08
710.31	29028.69
710.654	28757.96
710.998	28940.1
711.342	28996.82
711.687	28830.5
712.031	28799.31
712.375	28592.31
712.719	28616.27
713.063	28522.48
713.407	28645.65
713.75	28381.02
714.094	28402.26
714.438	28155.26
714.782	28286.11
715.125	28164.3
715.469	28203.62
715.812	28032.78
716.156	27974.48
716.499	27955.72
716.843	27957.98
717.186	27784.2
717.53	27861.48
717.873	27899.68
718.216	27786.91
718.559	27705.56
718.902	27521.61
719.246	27541.49
719.589	27564.54
719.932	27466.69
720.275	27443.64
720.617	27360.26
720.96	27410.65
721.303	27291.56
721.646	27294.95
721.989	27079.36
722.331	27258.34
722.674	27080.04
723.016	27267.83
723.359	27066.03
723.701	27113.26
724.044	26964.33
724.386	26759.59
724.729	27006.14
725.071	26826.94
725.413	26807.28
725.755	26761.63
726.097	26654.51
726.439	26502.88
726.782	26497.23
727.124	26667.62
727.465	26460.84
727.807	26530.45
728.149	26422.65
728.491	26394.63
728.833	26410.22
729.175	26308.08
729.516	26296.1
729.858	26244.35
730.199	26203.68
730.541	26147.41
730.882	26080.29
731.224	26210.91
731.565	25908.09
731.906	25997.35
732.248	25980.18
732.589	25888.88
732.93	25773.86
733.271	25804.82
733.612	25836.68
733.953	25937.02
734.294	25756
734.635	25667.87
734.976	25679.17
735.317	25577.25
735.658	25489.8
735.999	25564.6
736.339	25576.57
736.68	25594.43
737.021	25456.8
737.361	25444.6
737.702	25409.8
738.042	25434.2
738.383	25355.11
738.723	25537.25
739.063	25164.61
739.404	25372.51
739.744	25205.28
740.084	25130.71
740.424	25167.32
740.764	25055.91
741.104	25192.63
741.444	24976.82
741.784	24958.74
742.124	25013.65
742.464	24920.55
742.804	24799.87
743.143	24842.58
743.483	24884.84
743.823	24700.89
744.162	24709.48
744.502	24756.03
744.841	24665.41
745.181	24741.57
745.52	24623.83
745.86	24573.66
746.199	24501.8
746.538	24478.07
746.877	24551.74
747.216	24491.63
747.556	24444.85
747.895	24452.54
748.234	24334.35
748.573	24415.47
748.911	24310.84
749.25	24301.58
749.589	24071.08
749.928	24204.18
750.267	24137.74
750.605	24082.15
750.944	24128.93
751.283	23970.74
751.621	24007.12
751.96	23944.53
752.298	23935.26
752.636	23966.22
752.975	23760.35
753.313	23798.54
753.651	23839.9
753.989	23775.26
754.327	23627.47
754.666	23640.13
755.004	23711.09
755.342	23682.61
755.679	23605.55
756.017	23443.3
756.355	23556.51
756.693	23427.7
757.031	23474.03
757.368	23339.8
757.706	23260.48
758.044	23073.81
758.381	23188.16
758.719	23188.61
759.056	23138.22
759.394	23104.77
759.731	22896.64
760.068	22875.4
760.405	22705.91
760.743	22664.79
761.08	22781.84
761.417	22594.05
761.754	22602.87
762.091	22557.9
762.428	22488.74
762.765	22406.94
763.102	22373.27
763.438	22283.33
763.775	22152.93
764.112	22200.62
764.449	22245.59
764.785	22177.57
765.122	21963.11
765.458	21869.78
765.795	21950.23
766.131	21831.14
766.467	21789.33
766.804	21706.17
767.14	21580.29
767.476	21722.44
767.812	21519.5
768.148	21491.71
768.485	21302.79
768.821	21241.55
769.157	21335.33
769.492	21236.57
769.828	21092.62
770.164	20993.87
770.5	21002
770.836	20885.4
771.171	20784.83
771.507	20758.17
771.842	20697.83
772.178	20582.58
772.513	20488.57
772.849	20478.18
773.184	20402.47
773.519	20303.04
773.855	20271.85
774.19	20148.47
774.525	20129.48
774.86	20098.75
775.195	20078.41
775.53	19959.55
775.865	19871.64
776.2	19711.87
776.535	19598.88
776.87	19571.99
777.205	19489.28
777.539	19403.4
777.874	19524.3
778.209	19260.13
778.543	19281.37
778.878	19189.62
779.212	19229.17
779.547	19111.43
779.881	19056.74
780.215	18908.27
780.55	18894.04
780.884	18758.9
781.218	18722.74
781.552	18675.96
781.886	18671.44
782.22	18507.83
782.554	18442.75
782.888	18332.02
783.222	18288.86
783.556	18195.98
783.889	18170.67
784.223	18063.55
784.557	18092.7
784.89	18117.11
785.224	17874.85
785.557	17811.81
785.891	17879.15
786.224	17737.01
786.558	17791.24
786.891	17585.82
787.224	17548.31
787.557	17457.01
787.891	17443.91
788.224	17492.27
788.557	17428.31
788.89	17306.73
789.223	17294.98
789.556	17114.65
789.888	17091.82
790.221	16950.81
790.554	16979.51
790.887	16912.39
791.219	16835.56
791.552	16843.92
791.884	16669.91
792.217	16751.27
792.549	16648.22
792.882	16441.22
793.214	16430.83
793.546	16459.07
793.879	16429.47
794.211	16262.92
794.543	16265.41
794.875	16250.94
795.207	16295.46
795.539	16117.39
795.871	16182.7
796.203	15980.67
796.535	15903.38
796.867	15910.39
797.198	15868.13
797.53	15762.37
797.862	15719.21
798.193	15763.95
798.525	15589.04
798.856	15649.6
799.188	15446.9
799.519	15439.66
799.85	15373
800.182	15330.51
800.513	15401.47
800.844	15258.43
801.175	15395.15
801.506	15285.09
801.837	15107.47
802.168	15120.35
802.499	15128.49
802.83	15039.22
803.161	14963.97
803.491	14933.01
803.822	15027.02
804.153	14839
804.483	14770.08
804.814	14731.21
805.145	14679.23
805.475	14688.95
805.805	14683.98
806.136	14692.34
806.466	14654.15
806.796	14560.59
807.126	14410.31
807.457	14315.63
807.787	14461.61
808.117	14349.98
808.447	14336.64
808.777	14307.94
809.107	14189.3
809.436	14219.13
809.766	14167.38
810.096	14152.69
810.426	14024.79
810.755	14083.77
811.085	14049.19
811.414	14000.15
811.744	13905.69
812.073	13873.15
812.403	13828.86
812.732	13799.93
813.061	13695.53
813.39	13681.29
813.719	13667.73
814.049	13688.07
814.378	13679.48
814.707	13599.94
815.036	13577.34
815.365	13482.65
815.693	13348.87
816.022	13393.84
816.351	13404.01
816.68	13316.56
817.008	13434.97
817.337	13176.9
817.665	13219.38
817.994	13173.28
818.322	13288.99
818.651	13152.72
818.979	13112.72
819.307	13121.53
819.636	13125.83
819.964	13012.84
820.292	13114.98
820.62	13105.26
820.948	13039.28
821.276	13071.37
821.604	12955.44
821.932	12978.03
822.259	12959.5
822.587	12995.44
822.915	12982.78
823.243	12973.06
823.57	12974.87
823.898	12875.66
824.225	12823.01
824.553	12872.95
824.88	12813.07
825.207	12957.7
825.535	12882.67
825.862	12936.68
826.189	12819.85
826.516	12933.06
826.843	12974.19
827.17	12957.24
827.497	12948.88
827.824	12953.85
828.151	12957.92
828.478	12863.46
828.805	12921.31
829.131	12925.38
829.458	12873.86
829.785	12740.53
830.111	12804.25
830.438	12911.6
830.764	12824.14
831.09	12927.41
831.417	12783.69
831.743	12900.52
832.069	12858.04
832.395	12777.36
832.722	12863.01
833.048	12847.64
833.374	12813.52
833.7	12773.97
834.026	12676.57
834.351	12702.34
834.677	12707.76
835.003	12804.03
835.329	12695.78
835.654	12703.24
835.98	12635.44
836.306	12602.45
836.631	12635.44
836.956	12653.52
837.282	12656.69
837.607	12523.58
837.932	12600.64
838.258	12473.41
838.583	12536.46
838.908	12441.55
839.233	12441.78
839.558	12437.94
839.883	12437.94
840.208	12440.65
840.533	12292.85
840.858	12373.3
841.182	12356.81
841.507	12315.9
841.832	12281.78
842.156	12292.85
842.481	12217.15
842.805	12145.06
843.13	12168.56
843.454	12153.42
843.778	12024.84
844.103	12060.54
844.427	12112.52
844.751	12134.44
845.075	11989.59
845.399	11955.91
845.723	11919.76
846.047	11897.38
846.371	11810.16
846.695	11755.47
847.019	11791.62
847.343	11593.89
847.666	11658.3
847.99	11548.92
848.313	11499.88
848.637	11448.13
848.96	11491.29
849.284	11406.78
849.607	11330.85
849.931	11338.53
850.254	11284.97
850.577	11232.09
850.9	11146.67
851.223	11130.85
851.546	11059.67
851.869	10990.06
852.192	11059.44
852.515	10936.73
852.838	10861.48
853.161	10881.37
853.483	10835.94
853.806	10845.89
854.129	10806.34
854.451	10721.6
854.774	10688.38
855.096	10658.1
855.419	10664.87
855.741	10595.27
856.063	10506.46
856.385	10521.6
856.708	10542.17
857.03	10438.89
857.352	10441.38
857.674	10347.37
857.996	10464.43
858.318	10416.29
858.64	10325.22
858.961	10328.39
859.283	10225.56
859.605	10148.28
859.926	10226.24
860.248	10176.75
860.57	10135.17
860.891	10155.74
861.212	10066.02
861.534	10096.75
861.855	10012.01
862.176	10038
862.498	10064.44
862.819	10031.67
863.14	9936.53
863.461	9977.89
863.782	9894.5
864.103	9901.28
864.424	9914.39
864.745	9875.29
865.065	9807.27
865.386	9784.22
865.707	9794.39
866.027	9783.54
866.348	9794.84
866.668	9818.12
866.989	9753.26
867.309	9644.79
867.63	9687.73
867.95	9720.72
868.27	9633.49
868.59	9717.56
868.91	9647.05
869.23	9707.16
869.55	9477.79
869.87	9578.58
870.19	9551.91
870.51	9581.29
870.83	9560.05
871.15	9549.88
871.469	9529.76
871.789	9573.6
872.109	9501.97
872.428	9458.58
872.748	9524.11
873.067	9434.85
873.386	9468.3
873.706	9402.31
874.025	9381.74
874.344	9423.33
874.663	9335.87
874.982	9347.4
875.301	9371.35
875.62	9340.62
875.939	9312.59
876.258	9263.78
876.577	9278.47
876.896	9296.1
877.214	9192.15
877.533	9258.81
877.852	9271.47
878.17	9226.95
878.489	9232.14
878.807	9169.32
879.125	9188.76
879.444	9156.89
879.762	9071.92
880.08	9113.5
880.398	9088.19
880.716	9101.3
881.034	9040.74
881.352	9041.19
881.67	9045.03
881.988	9049.1
882.306	9072.15
882.624	9015.43
882.941	8900.4
883.259	8880.97
883.577	8901.08
883.894	8800.29
884.212	8825.6
884.529	8817.01
884.846	8743.8
885.164	8692.5
885.481	8767.98
885.798	8771.14
886.115	8655.66
886.432	8674.19
886.75	8661.99
887.067	8720.75
887.383	8607.98
887.7	8684.36
888.017	8591.71
888.334	8541.54
888.651	8559.39
888.967	8521.43
889.284	8544.93
889.6	8465.38
889.917	8457.02
890.233	8433.97
890.55	8426.29
890.866	8407.99
891.182	8363.69
891.498	8367.08
891.815	8350.36
892.131	8310.81
892.447	8303.58
892.763	8252.06
893.079	8240.31
893.395	8168.9
893.71	8224.94
894.026	8198.05
894.342	8149.46
894.657	8113.76
894.973	8072.17
895.289	8076.92
895.604	8075.34
895.92	7976.81
896.235	7867.89
896.55	7991.95
896.865	7960.09
897.181	7903.14
897.496	7933.42
897.811	7853.42
898.126	7802.35
898.441	7836.47
898.756	7771.17
899.071	7758.28
899.386	7716.48
899.7	7631.06
900.015	7654.78
900.33	7571.62
900.644	7582.92
900.959	7581.79
901.273	7539.08
901.588	7512.87
901.902	7477.39
902.216	7451.63
902.531	7361.01
902.845	7380.44
903.159	7403.72
903.473	7368.46
903.787	7337.96
904.101	7265.64
904.415	7289.82
904.729	7246.66
905.042	7219.54
905.356	7189.49
905.67	7181.58
905.984	7180.9
906.297	7160.11
906.611	7102.48
906.924	7055.93
907.237	7072.43
907.551	6993.33
907.864	7017.29
908.177	6930.28
908.491	6922.6
908.804	6862.49
909.117	6912.88
909.43	6864.3
909.743	6837.86
910.056	6813.68
910.368	6766.45
910.681	6757.18
910.994	6747.46
911.307	6695.71
911.619	6633.79
911.932	6640.57
912.244	6572.78
912.557	6604.87
912.869	6529.16
913.181	6493.69
913.494	6459.79
913.806	6428.83
914.118	6392.44
914.43	6387.7
914.742	6389.51
915.054	6401.71
915.366	6311.32
915.678	6322.16
915.99	6352.9
916.302	6221.6
916.613	6234.03
916.925	6210.08
917.236	6194.26
917.548	6127.82
917.859	6128.72
918.171	6121.94
918.482	6080.59
918.794	6044.21
919.105	6000.14
919.416	5992.46
919.727	5972.34
920.038	5973.92
920.349	5897.09
920.66	5933.7
920.971	5895.28
921.282	5843.53
921.593	5838.34
921.903	5825.91
922.214	5792.23
922.525	5780.94
922.835	5731.22
923.146	5693.03
923.456	5700.49
923.767	5650.32
924.077	5669.98
924.387	5654.39
924.697	5601.05
925.008	5594.73
925.318	5578.23
925.628	5511.11
925.938	5517.21
926.248	5498.46
926.558	5488.51
926.867	5408.52
927.177	5434.73
927.487	5401.06
927.796	5293.72
928.106	5326.94
928.416	5342.08
928.725	5303.43
929.034	5291.23
929.344	5280.16
929.653	5289.42
929.962	5218.01
930.271	5183.89
930.581	5161.74
930.89	5145.47
931.199	5136.88
931.508	5088.98
931.817	5058.02
932.125	5091.91
932.434	5082.2
932.743	5005.14
933.051	4978.92
933.36	4962.88
933.669	4906.16
933.977	4877
934.286	4922.43
934.594	4893.28
934.902	4879.04
935.21	4893.95
935.519	4875.42
935.827	4779.83
936.135	4785.26
936.443	4736.9
936.751	4744.58
937.059	4757.69
937.367	4659.84
937.674	4703.68
937.982	4682.21
938.29	4678.59
938.597	4656.67
938.905	4602.89
939.213	4608.09
939.52	4561.98
939.827	4558.37
940.135	4532.15
940.442	4519.05
940.749	4535.09
941.056	4492.61
941.363	4427.07
941.67	4433.4
941.977	4395.21
942.284	4358.37
942.591	4397.7
942.898	4356.11
943.205	4350.24
943.511	4309.34
943.818	4296.23
944.125	4255.78
944.431	4280.64
944.738	4246.51
945.044	4222.78
945.35	4196.34
945.657	4231.82
945.963	4185.95
946.269	4116.57
946.575	4141.43
946.881	4108.21
947.187	4121.77
947.493	4047.87
947.799	4067.31
948.105	4008.1
948.41	4034.09
948.716	4009.46
949.022	3997.48
949.327	3990.7
949.633	3983.69
949.938	3974.88
950.244	3930.81
950.549	3941.21
950.854	3907.54
951.16	3819.18
951.465	3860.53
951.77	3834.77
952.075	3829.57
952.38	3811.95
952.685	3805.17
952.99	3808.33
953.294	3764.72
953.599	3771.5
953.904	3745.96
954.209	3696.92
954.513	3718.39
954.818	3677.26
955.122	3670.48
955.426	3694.66
955.731	3638.84
956.035	3597.94
956.339	3643.59
956.643	3667.09
956.948	3578.28
957.252	3586.19
957.556	3564.95
957.86	3530.6
958.163	3491.5
958.467	3555.91
958.771	3482.69
959.075	3493.31
959.378	3503.71
959.682	3456.02
959.985	3453.54
960.289	3438.62
960.592	3393.65
960.896	3401.79
961.199	3389.81
961.502	3370.6
961.805	3378.96
962.108	3332.41
962.411	3328.57
962.714	3279.98
963.017	3279.31
963.32	3281.34
963.623	3239.76
963.926	3260.32
964.228	3205.64
964.531	3202.7
964.833	3233.43
965.136	3195.69
965.438	3193.43
965.741	3201.57
966.043	3126.77
966.345	3152.3
966.648	3129.71
966.95	3140.1
967.252	3088.58
967.554	3111.85
967.856	3118.86
968.158	3068.24
968.46	3015.58
968.761	3046.54
969.063	3002.25
969.365	3019.43
969.666	2982.59
969.968	3003.38
970.269	2947.11
970.571	2949.37
970.872	2938.75
971.174	2940.78
971.475	2904.85
971.776	2929.49
972.077	2900.33
972.378	2889.49
972.679	2854.23
972.98	2844.97
973.281	2848.13
973.582	2826.21
973.883	2772.2
974.183	2828.92
974.484	2792.09
974.785	2776.27
975.085	2771.3
975.386	2747.79
975.686	2733.33
975.986	2735.37
976.287	2713.22
976.587	2705.54
976.887	2725.2
977.187	2680.23
977.487	2665.99
977.787	2661.92
978.087	2650.4
978.387	2603.39
978.687	2651.75
978.987	2643.84
979.286	2646.33
979.586	2588.48
979.885	2565.43
980.185	2565.2
980.484	2566.1
980.784	2555.48
981.083	2530.17
981.382	2498.76
981.682	2540.12
981.981	2507.35
982.28	2504.19
982.579	2484.07
982.878	2492.66
983.177	2481.81
983.475	2437.52
983.774	2412.44
984.073	2444.75
984.372	2434.13
984.67	2406.11
984.969	2412.21
985.267	2404.08
985.566	2369.73
985.864	2345.55
986.162	2367.24
986.461	2357.97
986.759	2330.4
987.057	2296.51
987.355	2310.74
987.653	2292.89
987.951	2294.47
988.249	2284.98
988.547	2256.73
988.844	2295.83
989.142	2278.65
989.44	2251.76
989.737	2238.66
990.035	2236.62
990.332	2209.73
990.63	2208.6
990.927	2172.22
991.224	2174.7
991.521	2183.74
991.819	2172.22
992.116	2129.28
992.413	2164.08
992.71	2152.33
993.006	2134.03
993.303	2117.98
993.6	2117.53
993.897	2101.71
994.193	2070.75
994.49	2080.47
994.787	2063.97
995.083	2105.55
995.379	2052.22
995.676	2025.1
995.972	2045.44
996.268	1985.1
996.565	1991.66
996.861	2002.05
997.157	2003.18
997.453	1990.53
997.749	2005.44
998.044	1957.31
998.34	1945.56
998.636	1934.03
998.932	1939.91
999.227	1897.2
999.523	1881.6
999.818	1949.17
1000.114	1892.68
1000.409	1869.4
1000.704	1873.02
1001	1828.5
1001.295	1854.94
1001.59	1832.56
1001.885	1816.97
1002.18	1825.33
1002.475	1828.05
1002.77	1791.66
1003.065	1822.17
1003.359	1794.6
1003.654	1767.48
1003.949	1773.58
1004.243	1762.74
1004.538	1732.91
1004.832	1751.44
1005.127	1748.05
1005.421	1765.9
1005.715	1721.83
1006.009	1721.38
1006.304	1674.6
1006.598	1697.88
1006.892	1667.15
1007.186	1653.81
1007.48	1663.98
1007.773	1666.69
1008.067	1627.6
1008.361	1603.64
1008.655	1623.53
1008.948	1620.14
1009.242	1607.03
1009.535	1608.39
1009.829	1578.56
1010.122	1571.55
1010.415	1590.54
1010.708	1570.2
1011.001	1562.52
1011.295	1530.65
1011.588	1571.1
1011.881	1527.04
1012.173	1548.96
1012.466	1514.38
1012.759	1515.74
1013.052	1475.06
1013.344	1449.75
1013.637	1484.1
1013.93	1495.85
1014.222	1485.91
1014.514	1432.58
1014.807	1452.69
1015.099	1435.51
1015.391	1452.24
1015.683	1415.17
1015.976	1430.54
1016.268	1421.73
1016.56	1418.79
1016.851	1364.1
1017.143	1405.23
1017.435	1403.65
1017.727	1396.64
1018.018	1392.8
1018.31	1360.03
1018.602	1373.14
1018.893	1316.19
1019.185	1317.32
1019.476	1294.05
1019.767	1309.19
1020.058	1306.48
1020.35	1281.17
1020.641	1291.11
1020.932	1279.36
1021.223	1283.65
1021.514	1279.58
1021.804	1242.98
1022.095	1254.95
1022.386	1224.22
1022.677	1223.99
1022.967	1219.7
1023.258	1195.75
1023.548	1208.17
1023.839	1218.57
1024.129	1187.61
1024.419	1191
1024.709	1156.2
1025	1159.14
1025.29	1162.53
1025.58	1183.77
1025.87	1148.74
1026.16	1139.02
1026.449	1129.76
1026.739	1132.7
1027.029	1113.49
1027.319	1112.13
1027.608	1101.51
1027.898	1098.8
1028.187	1078.46
1028.477	1075.3
1028.766	1070.78
1029.055	1093.6
1029.344	1064.68
1029.634	1061.06
1029.923	1050.21
1030.212	1056.31
1030.501	1076.88
1030.79	1033.04
1031.078	1044.34
1031.367	1016.77
1031.656	991.91
1031.945	985.13
1032.233	1005.92
1032.522	984.23
1032.81	997.56
1033.099	1003.43
1033.387	981.74
1033.675	968.86
1033.963	984.23
1034.251	953.72
1034.54	961.4
1034.828	962.53
1035.116	912.36
1035.403	946.94
1035.691	947.39
1035.979	951.01
1036.267	941.29
1036.554	910.78
1036.842	897.45
1037.129	902.87
1037.417	926.15
1037.704	864.45
1037.992	872.14
1038.279	885.7
1038.566	858.58
1038.853	858.58
1039.14	858.58
