Data from hue_20_FLMS001491_89.txt Node
Date: Mon Feb 06 15:34:48 GMT 2017
User: dcchb
Spectrometer: FLMS00149
Trigger mode: 0
Integration Time (sec): 2.000000E-2
Scans to average: 10
Electric dark correction enabled: true
Nonlinearity correction enabled: false
Boxcar width: 0
XAxis mode: Wavelengths
Number of Pixels in Spectrum: 2048
>>>>>Begin Spectral Data<<<<<
341.393	-19.6
341.776	-19.6
342.16	-19.6
342.543	-77
342.927	-105.7
343.31	-53.28
343.693	-87.62
344.077	-72.71
344.46	-56.21
344.843	-41.3
345.226	-38.81
345.61	-44.91
345.993	-22.77
346.376	-2.88
346.759	9.1
347.142	40.51
347.525	36.89
347.908	65.59
348.291	70.56
348.674	105.36
349.057	92.48
349.44	126.61
349.823	144.46
350.206	152.59
350.588	191.46
350.971	211.12
351.354	228.07
351.737	246.38
352.119	231.24
352.502	254.51
352.884	263.78
353.267	258.35
353.65	289.77
354.032	287.05
354.414	292.48
354.797	310.78
355.179	315.75
355.562	315.53
355.944	337.67
356.326	320.95
356.709	323.89
357.091	351.91
357.473	351.46
357.855	345.81
358.238	329.77
358.62	348.07
359.002	347.39
359.384	324.34
359.766	354.85
360.148	354.62
360.53	337.45
360.912	337
361.294	323.44
361.676	340.84
362.057	337.67
362.439	327.05
362.821	332.48
363.203	334.28
363.584	310.78
363.966	323.66
364.348	314.85
364.729	316.66
365.111	311.23
365.493	322.99
365.874	308.97
366.256	303.55
366.637	315.08
367.019	312.14
367.4	315.3
367.781	304.68
368.163	326.38
368.544	322.31
368.925	320.95
369.306	338.35
369.688	306.49
370.069	320.73
370.45	322.53
370.831	304.23
371.212	313.49
371.593	313.95
371.974	318.69
372.355	301.74
372.736	304.23
373.117	287.96
373.498	317.11
373.879	325.02
374.26	335.41
374.641	299.71
375.021	314.4
375.402	326.83
375.783	333.61
376.163	316.43
376.544	320.73
376.925	330.22
377.305	322.31
377.686	334.74
378.066	311.46
378.447	331.12
378.827	330.44
379.208	320.5
379.588	325.47
379.968	331.8
380.349	337.67
380.729	325.47
381.109	328.86
381.489	325.02
381.87	326.83
382.25	344.45
382.63	331.35
383.01	349.2
383.39	332.93
383.77	349.88
384.15	359.37
384.53	337
384.91	346.94
385.29	355.98
385.67	356.66
386.049	353.49
386.429	346.04
386.809	349.65
387.189	347.39
387.568	354.85
387.948	333.38
388.328	351.69
388.707	361.63
389.087	342.65
389.466	375.87
389.846	370.22
390.225	360.27
390.605	374.06
390.984	347.17
391.363	367.73
391.743	373.15
392.122	374.28
392.501	367.73
392.881	363.44
393.26	369.54
393.639	362.76
394.018	370.89
394.397	369.09
394.776	347.62
395.155	379.93
395.534	371.35
395.913	382.65
396.292	368.86
396.671	385.81
397.05	391.01
397.429	391.68
397.808	365.47
398.186	367.96
398.565	400.95
398.944	387.39
399.323	377.9
399.701	376.32
400.08	394.62
400.458	387.84
400.837	411.8
401.215	392.59
401.594	393.94
401.972	399.14
402.351	384
402.729	410.89
403.107	399.37
403.486	406.83
403.864	407.73
404.242	388.52
404.62	412.48
404.999	410.44
405.377	402.53
405.755	424.68
406.133	431.23
406.511	409.54
406.889	422.87
407.267	425.58
407.645	428.07
408.023	428.75
408.401	432.59
408.779	445.24
409.156	452.25
409.534	455.86
409.912	458.58
410.29	441.17
410.667	443.89
411.045	449.08
411.422	441.85
411.8	454.06
412.178	457.45
412.555	443.43
412.933	462.64
413.31	478.69
413.687	459.71
414.065	482.3
414.442	479.59
414.819	466.26
415.197	474.62
415.574	500.61
415.951	505.81
416.328	494.51
416.705	487.5
417.082	478.69
417.46	498.12
417.837	494.73
418.214	498.8
418.591	479.37
418.967	506.48
419.344	492.7
419.721	506.94
420.098	527.27
420.475	500.16
420.852	519.14
421.228	521.62
421.605	525.24
421.982	527.95
422.358	537.67
422.735	525.24
423.111	538.57
423.488	543.77
423.864	532.7
424.241	537.22
424.617	551.91
424.994	558.23
425.37	550.55
425.746	554.17
426.123	569.08
426.499	547.61
426.875	557.56
427.251	564.56
427.627	565.24
428.003	578.12
428.379	581.28
428.756	570.66
429.132	575.86
429.507	584.67
429.883	619.48
430.259	608.18
430.635	609.98
431.011	601.17
431.387	636.65
431.763	618.12
432.138	631.68
432.514	620.61
432.89	652.24
433.265	654.73
433.641	650.66
434.016	663.54
434.392	646.82
434.767	659.25
435.143	679.59
435.518	682.52
435.894	680.72
436.269	695.41
436.644	674.39
437.02	725.46
437.395	694.28
437.77	702.18
438.145	722.3
438.52	710.77
438.895	693.82
439.271	706.25
439.646	736.76
440.021	726.37
440.395	744.22
440.77	749.64
441.145	730.66
441.52	760.26
441.895	749.64
442.27	759.36
442.645	745.57
443.019	770.21
443.394	774.95
443.769	770.21
444.143	774.95
444.518	795.06
444.892	770.21
445.267	740.38
445.641	762.75
446.016	790.32
446.39	790.54
446.764	807.94
447.139	823.76
447.513	816.53
447.887	806.59
448.262	820.83
448.636	822.18
449.01	802.07
449.384	839.58
449.758	825.57
450.132	850.66
450.506	871.22
450.88	853.59
451.254	845.91
451.628	859.92
452.002	859.02
452.376	892.01
452.75	892.46
453.123	863.31
453.497	878.45
453.871	897.43
454.244	937.66
454.618	933.37
454.992	920.26
455.365	955.06
455.739	966.13
456.112	956.42
456.486	968.39
456.859	976.08
457.232	977.66
457.606	966.58
457.979	1006.81
458.352	997.77
458.725	1027.83
459.099	1022.85
459.472	1051.1
459.845	1054.49
460.218	1040.03
460.591	1066.24
460.964	1088.39
461.337	1126.13
461.71	1088.84
462.083	1092.91
462.456	1140.59
462.829	1116.19
463.201	1152.79
463.574	1151.44
463.947	1157.31
464.32	1160.7
464.692	1195.73
465.065	1180.14
465.438	1221.27
465.81	1259.23
466.183	1256.52
466.555	1282.06
466.928	1272.11
467.3	1294.71
467.672	1287.71
468.045	1295.39
468.417	1324.32
468.789	1348.04
469.161	1365.44
469.534	1362.96
469.906	1393.92
470.278	1420.13
470.65	1418.78
471.022	1460.58
471.394	1472.79
471.766	1478.44
472.138	1518.66
472.51	1505.33
472.882	1562.5
473.253	1536.97
473.625	1599.11
473.997	1645.89
474.369	1651.54
474.74	1656.28
475.112	1687.02
475.484	1715.94
475.855	1743.51
476.227	1774.25
476.598	1797.3
476.97	1825.32
477.341	1850.86
477.713	1900.35
478.084	1920.68
478.455	1962.94
478.827	2007.46
479.198	2051.75
479.569	2035.94
479.94	2103.5
480.311	2119.55
480.682	2191.19
481.053	2238.64
481.424	2290.39
481.795	2317.51
482.166	2336.49
482.537	2384.4
482.908	2440.9
483.279	2459.65
483.65	2485.64
484.021	2538.29
484.391	2628.69
484.762	2625.07
485.133	2655.35
485.503	2717.95
485.874	2774.67
486.244	2820.77
486.615	2884.5
486.985	2874.11
487.356	2943.71
487.726	2996.81
488.097	3058.28
488.467	3049.47
488.837	3121.56
489.207	3167.88
489.578	3207.66
489.948	3293.3
490.318	3335.34
490.688	3325.17
491.058	3369.91
491.428	3432.51
491.798	3458.95
492.168	3581.21
492.538	3593.18
492.908	3607.42
493.278	3651.49
493.648	3666.63
494.017	3722.9
494.387	3814.19
494.757	3812.16
495.126	3863.91
495.496	3889.67
495.866	3945.94
496.235	3956.79
496.605	4026.17
496.974	4061.87
497.344	4041.31
497.713	4122.43
498.082	4110.68
498.452	4194.52
498.821	4213.28
499.19	4265.03
499.559	4283.79
499.928	4307.74
500.298	4311.13
500.667	4383.44
501.036	4357.23
501.405	4430
501.774	4454.85
502.143	4458.92
502.512	4490.33
502.88	4497.11
503.249	4519.71
503.618	4559.48
503.987	4590.67
504.356	4655.53
504.724	4631.35
505.093	4698.92
505.462	4652.59
505.83	4733.94
506.199	4761.51
506.567	4813.04
506.936	4786.37
507.304	4863.43
507.672	4882.87
508.041	4912.92
508.409	4948.63
508.777	4938.91
509.145	5006.25
509.514	4945.46
509.882	5017.33
510.25	4993.37
510.618	5058.23
510.986	5034.73
511.354	5063.65
511.722	5105.46
512.09	5177.77
512.458	5176.19
512.826	5180.03
513.193	5255.74
513.561	5216.87
513.929	5286.25
514.297	5287.38
514.664	5357.66
515.032	5342.74
515.4	5375.06
515.767	5372.8
516.135	5493.7
516.502	5302.29
516.869	5466.13
517.237	5469.07
517.604	5434.04
517.972	5562.17
518.339	5531.44
518.706	5528.27
519.073	5544.09
519.44	5555.84
519.808	5605.11
520.175	5625.45
520.542	5684.43
520.909	5707.03
521.276	5714.93
521.643	5750.41
522.009	5757.65
522.376	5835.38
522.743	5853.24
523.11	5903.63
523.477	5949.73
523.843	5965.32
524.21	5944.31
524.577	6001.71
524.943	6025.89
525.31	6012.33
525.676	6065.66
526.043	6102.72
526.409	6162.15
526.776	6181.36
527.142	6239.89
527.508	6216.84
527.874	6341.13
528.241	6295.48
528.607	6274.92
528.973	6424.97
529.339	6411.19
529.705	6457.29
530.071	6513.33
530.437	6509.04
530.803	6532.54
531.169	6606.89
531.535	6618.64
531.901	6583.39
532.267	6582.48
532.632	6684.17
532.998	6648.92
533.364	6751.29
533.73	6782.03
534.095	6827
534.461	6816.83
534.826	6862.25
535.192	6907.67
535.557	6959.42
535.923	6943.83
536.288	6966.2
536.653	6997.61
537.019	6967.33
537.384	6978.4
537.749	7121.45
538.114	7068.57
538.479	7097.95
538.845	7135.91
539.21	7136.59
539.575	7186.08
539.94	7224.05
540.305	7271.73
540.67	7290.71
541.034	7292.07
541.399	7392.18
541.764	7377.72
542.129	7396.47
542.494	7424.49
542.858	7422.46
543.223	7486.64
543.587	7587.88
543.952	7535
544.316	7563.47
544.681	7566.19
545.045	7554.21
545.41	7603.47
545.774	7650.93
546.138	7690.25
546.503	7695.9
546.867	7798.72
547.231	7825.16
547.595	7809.57
547.959	7827.2
548.324	7848.44
548.688	7914.65
549.052	7943.58
549.416	7963.91
549.779	7958.49
550.143	7997.59
550.507	8035.33
550.871	8108.77
551.235	8074.65
551.599	8132.95
551.962	8153.51
552.326	8216.79
552.689	8277.8
553.053	8205.72
553.417	8228.77
553.78	8359.38
554.143	8281.87
554.507	8383.34
554.87	8402.55
555.234	8415.88
555.597	8425.37
555.96	8430.57
556.323	8465.6
556.686	8525.26
557.05	8528.42
557.413	8504.47
557.776	8505.14
558.139	8668.98
558.502	8670.11
558.865	8651.35
559.228	8720.51
559.59	8761.41
559.953	8698.58
560.316	8887.28
560.679	8778.36
561.041	8902.2
561.404	8925.25
561.767	8984.9
562.129	8918.47
562.492	8966.15
562.854	8979.93
563.217	9034.17
563.579	9106.26
563.941	9063.32
564.304	9092.25
564.666	9144.22
565.028	9119.14
565.39	9220.61
565.753	9324.33
566.115	9254.95
566.477	9308.51
566.839	9353.26
567.201	9441.62
567.563	9461.05
567.925	9492.46
568.287	9498.11
568.648	9516.87
569.01	9565.68
569.372	9626.47
569.734	9586.25
570.095	9733.13
570.457	9746.92
570.819	9788.27
571.18	9809.06
571.542	9871.89
571.903	9885.22
572.265	9952.11
572.626	9975.84
572.987	10044.31
573.349	10124.99
573.71	10139.68
574.071	10229.17
574.432	10200.69
574.794	10301.71
575.155	10375.83
575.516	10390.07
575.877	10473.45
576.238	10533.56
576.599	10644.97
576.96	10692.66
577.32	10772.2
577.681	10832.99
578.042	10925.19
578.403	11023.27
578.763	11119.31
579.124	11186.2
579.485	11336.03
579.845	11371.73
580.206	11471.62
580.566	11534.67
580.927	11784.15
581.287	11882.91
581.648	11916.35
582.008	12144.37
582.368	12286.97
582.728	12463.23
583.089	12632.72
583.449	12746.84
583.809	12880.17
584.169	13042.88
584.529	13222.76
584.889	13481.74
585.249	13658.45
585.609	13765.12
585.969	14137.76
586.329	14291.88
586.688	14527.36
587.048	14790.85
587.408	14884.64
587.768	15087.34
588.127	15447.11
588.487	15721.9
588.846	15962.8
589.206	16202.57
589.565	16454.09
589.925	16758.03
590.284	17009.78
590.643	17409.77
591.003	17681.17
591.362	18047.72
591.721	18209.52
592.08	18583.75
592.44	18917.98
592.799	19157.07
593.158	19435.93
593.517	19758.18
593.876	20240.2
594.235	20407.43
594.593	20825.05
594.952	21176.9
595.311	21352.49
595.67	21696.21
596.029	22220.49
596.387	22581.38
596.746	22933.24
597.104	23176.17
597.463	23489.16
597.822	23895.7
598.18	24121.46
598.538	24461.11
598.897	24815.9
599.255	25060.87
599.613	25767.29
599.972	25898.13
600.33	26276.2
600.688	26508.51
601.046	26920.7
601.404	27303.29
601.762	27522.27
602.12	27983.28
602.478	28378.75
602.836	28639.98
603.194	28882.91
603.552	29052.63
603.91	29397.25
604.268	29830.68
604.625	29999.72
604.983	30427.96
605.341	30615.52
605.698	30935.06
606.056	31466.57
606.413	31534.37
606.771	31942.72
607.128	32245.31
607.485	32354.01
607.843	32738.86
608.2	33165.29
608.557	33466.75
608.914	33556.46
609.272	34018.37
609.629	34333.17
609.986	34595.31
610.343	34741.52
610.7	34998.01
611.057	35343.53
611.414	35477.99
611.771	35734.03
612.127	36050.18
612.484	36305.32
612.841	36470.28
613.198	36665.08
613.554	36798.41
613.911	37138.97
614.267	37290.38
614.624	37518.39
614.98	37637.48
615.337	38034.08
615.693	38113.18
616.05	38360.86
616.406	38686.95
616.762	38637.68
617.118	38789.77
617.475	38957.68
617.831	39252.58
618.187	39441.28
618.543	39569.19
618.899	39937.76
619.255	40089.17
619.611	40089.17
619.967	40434.93
620.323	40442.61
620.678	40420.24
621.034	40485.09
621.39	40907.91
621.746	40722.38
622.101	41365.07
622.457	41126.66
622.812	41249.14
623.168	41555.35
623.523	41687.55
623.879	41883.47
624.234	41688.23
624.589	41836.92
624.945	41960.54
625.3	42227.65
625.655	42196.24
626.01	42256.8
626.365	42364.59
626.72	42410.69
627.075	42494.08
627.43	42497.7
627.785	42549.9
628.14	42746.05
628.495	42803.22
628.85	42815.2
629.205	42705.6
629.559	42970.45
629.914	42888.42
630.269	43072.37
630.623	42898.59
630.978	42817.46
631.332	43090
631.687	43277.79
632.041	43154.63
632.396	43220.39
632.75	43057.23
633.104	43187.4
633.459	43140.17
633.813	43220.39
634.167	43257.22
634.521	43238.92
634.875	43362.08
635.229	43294.96
635.583	43271.24
635.937	43229.88
636.291	43196.66
636.645	43139.26
636.999	43257.9
637.352	43276.66
637.706	43144.23
638.06	43307.17
638.413	43185.36
638.767	43133.84
639.121	43203.44
639.474	43161.41
639.828	43027.17
640.181	43233.04
640.534	43177.23
640.888	43223.55
641.241	43034.18
641.594	43165.02
641.947	43301.29
642.301	43026.95
642.654	43048.19
643.007	43200.95
643.36	43240.28
643.713	42998.93
644.066	43142.65
644.419	42972.94
644.771	42709.44
645.124	42473.06
645.477	42305.84
645.83	41967.77
646.182	42004.38
646.535	41919.86
646.888	42030.82
647.24	41676.25
647.593	42055.45
647.945	41923.7
648.298	41796.47
648.65	41751.05
649.002	41634.67
649.355	41779.75
649.707	41704.72
650.059	42062.23
650.411	42302
650.763	42402.11
651.115	42887.06
651.467	42636.22
651.819	42656.56
652.171	42562.33
652.523	42610.69
652.875	42637.81
653.227	42440.52
653.578	42725.71
653.93	42577.02
654.282	42364.59
654.633	42358.04
654.985	42449.56
655.337	42461.31
655.688	42579.28
656.039	42647.52
656.391	42209.79
656.742	42376.12
657.094	42439.62
657.445	42391.48
657.796	42270.58
658.147	42243.24
658.498	42275.1
658.849	42412.05
659.2	42356.23
659.551	42270.58
659.902	42293.86
660.253	42261.77
660.604	42324.59
660.955	42257.7
661.306	42312.84
661.656	42183.58
662.007	42316.23
662.358	42222.9
662.708	42163.92
663.059	42135.45
663.409	41908.79
663.76	42258.83
664.11	42136.12
664.461	42075.11
664.811	42224.93
665.161	42175.22
665.511	42155.11
665.862	42130.25
666.212	42277.59
666.562	42258.83
666.912	42130.47
667.262	42116.92
667.612	42057.03
667.962	42231.71
668.312	42171.83
668.662	42232.17
669.011	42015.22
669.361	42122.34
669.711	42080.98
670.06	42043.24
670.41	41877.6
670.76	41946.07
671.109	42056.8
671.459	42003.47
671.808	41811.61
672.157	41951.04
672.507	41919.86
672.856	41778.17
673.205	41852.97
673.554	41933.19
673.904	41823.36
674.253	42149.68
674.602	41967.99
674.951	41297.28
675.3	41229.48
675.649	41735
675.998	41720.32
676.346	41827.43
676.695	41925.73
677.044	41592.41
677.393	41698.62
677.741	41656.81
678.09	41654.33
678.438	41519.19
678.787	41556.03
679.135	41463.6
679.484	41234.45
679.832	41377.95
680.181	41247.33
680.529	41285.3
680.877	41099.99
681.225	41268.8
681.573	41347.22
681.922	41127.79
682.27	41126.66
682.618	41071.52
682.966	40970.73
683.314	41141.35
683.661	40906.1
684.009	40676.95
684.357	40689.16
684.705	40599.21
685.053	40666.11
685.4	40558.54
685.748	40517.86
686.095	40396.73
686.443	40294.14
686.79	40201.03
687.138	40276.96
687.485	40304.99
687.832	40159.68
688.18	40139.34
688.527	39937.99
688.874	39888.5
689.221	39923.53
689.568	39747.94
689.915	39714.94
690.262	39578.68
690.609	39445.57
690.956	39485.35
691.303	39386.14
691.65	39151.12
691.997	39126.03
692.344	39019.6
692.69	39017.34
693.037	38933.27
693.383	38663.45
693.73	38926.94
694.077	38521.53
694.423	38601.53
694.769	38543.22
695.116	38379.61
695.462	38458.93
695.808	38278.6
696.155	38207.41
696.501	37957.93
696.847	38022.33
697.193	37776.46
697.539	37885.61
697.885	37640.65
698.231	37599.07
698.577	37463.48
698.923	37349.58
699.269	37297.83
699.614	36975.81
699.96	37062.58
700.306	37132.64
700.651	36976.49
700.997	36785.53
701.342	36882.7
701.688	36676.15
702.033	36683.39
702.379	36578.08
702.724	36468.25
703.069	36476.61
703.415	36148.03
703.76	36216.96
704.105	36148.48
704.45	36125.66
704.795	35833.92
705.14	35879.34
705.485	35715.05
705.83	35539.24
706.175	35692.68
706.52	35563.87
706.865	35481.84
707.209	35336.53
707.554	35285.91
707.899	35329.52
708.243	35141.96
708.588	35062.64
708.932	34825.81
709.277	34799.37
709.621	34806.37
709.966	34594.85
710.31	34731.8
710.654	34497.45
710.998	34497
711.342	34456.1
711.687	34409.55
712.031	34207.29
712.375	34122.78
712.719	34115.09
713.063	34150.8
713.407	34141.98
713.75	34118.93
714.094	33990.8
714.438	33869.9
714.782	33816.12
715.125	33665.61
715.469	33736.12
715.812	33394.66
716.156	33334.77
716.499	33422.23
716.843	33423.36
717.186	33270.59
717.53	33327.99
717.873	33278.96
718.216	33220.65
718.559	32958.96
718.902	32892.75
719.246	32995.12
719.589	32945.63
719.932	32640.33
720.275	32695.92
720.617	32676.26
720.96	32583.38
721.303	32620.89
721.646	32624.28
721.989	32343.16
722.331	32485.08
722.674	32331.64
723.016	32280.79
723.359	32403.05
723.701	32293.9
724.044	32222.71
724.386	31963.74
724.729	32095.03
725.071	32054.58
725.413	32048.25
725.755	32101.13
726.097	31824.98
726.439	31678.09
726.782	31847.81
727.124	31842.16
727.465	31782.5
727.807	31670.64
728.149	31450.53
728.491	31460.92
728.833	31569.85
729.175	31427.93
729.516	31321.04
729.858	31281.72
730.199	31348.16
730.541	31308.61
730.882	31208.95
731.224	31350.42
731.565	30990.2
731.906	31126.02
732.248	31130.99
732.589	30951.11
732.93	30775.74
733.271	30865.91
733.612	30884.22
733.953	30962.41
734.294	30562.19
734.635	30670.44
734.976	30811.9
735.317	30495.53
735.658	30571.23
735.999	30479.48
736.339	30455.75
736.68	30495.98
737.021	30409.43
737.361	30350.67
737.702	30445.58
738.042	30211.47
738.383	30238.81
738.723	30320.16
739.063	30200.17
739.404	30230
739.744	30089.89
740.084	29970.57
740.424	30089.21
740.764	30037.01
741.104	30019.61
741.444	29848.31
741.784	29838.82
742.124	29859.16
742.464	29685.15
742.804	29620.75
743.143	29694.87
743.483	29769.44
743.823	29541.88
744.162	29613.06
744.502	29589.33
744.841	29363.58
745.181	29532.61
745.52	29352.51
745.86	29384.37
746.199	29343.24
746.538	29305.95
746.877	29249.68
747.216	29213.07
747.556	29226.41
747.895	29244.71
748.234	29088.11
748.573	28989.8
748.911	28989.12
749.25	28973.98
749.589	28923.59
749.928	28907.32
750.267	28809.92
750.605	28785.97
750.944	28779.19
751.283	28715.46
751.621	28783.48
751.96	28512.53
752.298	28625.97
752.636	28538.97
752.975	28437.27
753.313	28327.45
753.651	28576.03
753.989	28371.74
754.327	28300.33
754.666	28104.63
755.004	28124.06
755.342	28134.01
755.679	28054.23
756.017	27849.95
756.355	27875.71
756.693	27791.64
757.031	27929.49
757.368	27830.29
757.706	27655.37
758.044	27636.62
758.381	27586.9
758.719	27571.76
759.056	27513.23
759.394	27446.11
759.731	27259.45
760.068	27316.85
760.405	27163.41
760.743	27182.84
761.08	27019.01
761.417	26910.08
761.754	26867.6
762.091	26887.94
762.428	26862.63
762.765	26661.95
763.102	26743.99
763.438	26605.23
763.775	26485.46
764.112	26543.99
764.449	26515.07
764.785	26423.09
765.122	26185.36
765.458	26174.28
765.795	25973.38
766.131	26021.97
766.467	25888.64
766.804	25781.75
767.14	25768.42
767.476	25618.59
767.812	25506.5
768.148	25544.02
768.485	25471.03
768.821	25299.5
769.157	25331.59
769.492	25182.22
769.828	25220.18
770.164	24962.11
770.5	24952.85
770.836	24881.44
771.171	24686.19
771.507	24683.93
771.842	24565.96
772.178	24623.59
772.513	24573.2
772.849	24364.61
773.184	24331.17
773.519	24295.69
773.855	24205.97
774.19	24000.33
774.525	23993.55
774.86	23978.86
775.195	23886.89
775.53	23804.85
775.865	23645.31
776.2	23490.96
776.535	23310.63
776.87	23382.04
777.205	23182.95
777.539	23253.46
777.874	23191.54
778.209	22958.77
778.543	22966.91
778.878	22856.86
779.212	22789.51
779.547	22672.23
779.881	22797.2
780.215	22556.07
780.55	22590.2
780.884	22314.95
781.218	22330.77
781.552	22325.8
781.886	22155.18
782.22	22119.93
782.554	21881.06
782.888	21841.06
783.222	21763.55
783.556	21778.01
783.889	21606.49
784.223	21592.94
784.557	21386.84
784.89	21486.72
785.224	21338.48
785.557	21125.83
785.891	21316.56
786.224	21123.79
786.558	21106.62
786.891	20941.43
787.224	20869.56
787.557	20772.17
787.891	20732.39
788.224	20752.05
788.557	20634.32
788.89	20625.05
789.223	20494.66
789.556	20454.43
789.888	20313.65
790.221	20270.71
790.554	20116.36
790.887	20192.52
791.219	20012.19
791.552	20059.42
791.884	19864.17
792.217	19924.96
792.549	19821.91
792.882	19648.58
793.214	19574.91
793.546	19580.56
793.879	19441.58
794.211	19304.41
794.543	19489.94
794.875	19312.09
795.207	19285.2
795.539	19237.97
795.871	19131.3
796.203	19016.28
796.535	18997.75
796.867	18952.33
797.198	18743.52
797.53	18814.25
797.862	18727.7
798.193	18766.12
798.525	18626.01
798.856	18659
799.188	18393.02
799.519	18390.99
799.85	18303.53
800.182	18282.51
800.513	18238.45
800.844	18138.79
801.175	18225.57
801.506	18249.29
801.837	18079.81
802.168	17977.66
802.499	17930.66
802.83	17831.23
803.161	17811.57
803.491	17769.53
803.822	17811.79
804.153	17690.89
804.483	17557.33
804.814	17542.19
805.145	17489.31
805.475	17447.28
805.805	17346.27
806.136	17308.53
806.466	17381.52
806.796	17339.26
807.126	17246.38
807.457	17072.38
807.787	17175.88
808.117	16994.64
808.447	17028.31
808.777	16955.54
809.107	17024.47
809.436	16872.16
809.766	16873.74
810.096	16799.61
810.426	16732.5
810.755	16707.64
811.085	16736.79
811.414	16659.96
811.744	16485.72
812.073	16573.86
812.403	16485.5
812.732	16401.66
813.061	16253.41
813.39	16282.57
813.719	16340.64
814.049	16205.96
814.378	16268.78
814.707	16130.71
815.036	16120.99
815.365	16051.61
815.693	15882.35
816.022	15838.06
816.351	15897.94
816.68	15807.78
817.008	15812.97
817.337	15672.19
817.665	15661.11
817.994	15722.81
818.322	15620.89
818.651	15564.17
818.979	15515.13
819.307	15589.48
819.636	15515.13
819.964	15487.11
820.292	15548.12
820.62	15433.32
820.948	15483.94
821.276	15461.8
821.604	15352.65
821.932	15421.35
822.259	15406.21
822.587	15408.24
822.915	15336.83
823.243	15492.53
823.57	15417.05
823.898	15314.91
824.225	15275.81
824.553	15307.9
824.88	15381.57
825.207	15391.06
825.535	15324.17
825.862	15391.52
826.189	15347.68
826.516	15454.79
826.843	15368.01
827.17	15345.19
827.497	15378.86
827.824	15379.54
828.151	15416.15
828.478	15290.5
828.805	15344.06
829.131	15278.52
829.458	15223.16
829.785	15258.41
830.111	15253.44
830.438	15374.57
830.764	15276.72
831.09	15167.79
831.417	15212.99
831.743	15192.2
832.069	15309.71
832.395	15154.46
832.722	15254.34
833.048	15181.58
833.374	15250.28
833.7	15132.31
834.026	15126.44
834.351	15250.5
834.677	15156.72
835.003	15100
835.329	15173.89
835.654	15042.15
835.98	15011.41
836.306	14999.21
836.631	14968.7
836.956	15062.94
837.282	14989.27
837.607	14931.64
837.932	14921.02
838.258	14954.92
838.583	14800.35
838.908	14760.35
839.233	14832.21
839.558	14702.27
839.883	14657.98
840.208	14668.82
840.533	14681.7
840.858	14726
841.182	14662.72
841.507	14607.81
841.832	14489.62
842.156	14569.84
842.481	14493.01
842.805	14450.07
843.13	14460.69
843.454	14357.87
843.778	14403.97
844.103	14345.89
844.427	14328.72
844.751	14285.33
845.075	14197.2
845.399	14232.9
845.723	14077.65
846.047	14213.69
846.371	14073.13
846.695	14081.95
847.019	13916.75
847.343	13936.64
847.666	13901.84
847.99	13741.84
848.313	13734.16
848.637	13693.48
848.96	13691.9
849.284	13610.77
849.607	13474.96
849.931	13445.35
850.254	13336.88
850.577	13345.24
850.9	13149.54
851.223	13217.34
851.546	13145.25
851.869	13058.47
852.192	13211.46
852.515	13046.49
852.838	12960.85
853.161	12926.95
853.483	12926.04
853.806	12789.55
854.129	12768.99
854.451	12756.33
854.774	12727.18
855.096	12641.98
855.419	12648.31
855.741	12524.92
856.063	12555.88
856.385	12495.1
856.708	12470.92
857.03	12357.02
857.352	12512.72
857.674	12326.96
857.996	12368.32
858.318	12170.36
858.64	12263.91
858.961	12178.95
859.283	12199.51
859.605	12036.58
859.926	12187.76
860.248	12094.88
860.57	12036.12
860.891	12029.57
861.212	12002.23
861.534	11952.06
861.855	11875.9
862.176	11931.04
862.498	11919.29
862.819	11950.25
863.14	11830.48
863.461	11764.72
863.782	11764.94
864.103	11715.91
864.424	11720.88
864.745	11745.06
865.065	11653.54
865.386	11667.32
865.707	11631.16
866.027	11611.5
866.348	11571.5
866.668	11587.1
866.989	11542.13
867.309	11509.13
867.63	11519.75
867.95	11522.47
868.27	11426.2
868.59	11444.28
868.91	11435.24
869.23	11343.71
869.55	11346.88
869.87	11371.73
870.19	11355.01
870.51	11350.72
870.83	11353.43
871.15	11355.46
871.469	11247.22
871.789	11244.96
872.109	11283.38
872.428	11162.47
872.748	11236.37
873.067	11144.17
873.386	11238.63
873.706	11171.51
874.025	11105.98
874.344	11117.05
874.663	11182.14
874.982	11032.31
875.301	10975.36
875.62	11026.66
875.939	10994.57
876.258	10992.54
876.577	11024.63
876.896	10916.15
877.214	10859.88
877.533	10931.07
877.852	10889.49
878.17	10939.43
878.489	10922.26
878.807	10894.23
879.125	10876.83
879.444	10805.87
879.762	10787.12
880.08	10751.41
880.398	10758.42
880.716	10764.29
881.034	10770.17
881.352	10718.42
881.67	10686.1
881.988	10671.87
882.306	10614.69
882.624	10640.23
882.941	10534.24
883.259	10542.6
883.577	10557.29
883.894	10525.66
884.212	10427.13
884.529	10469.39
884.846	10480.23
885.164	10423.74
885.481	10364.76
885.798	10419.9
886.115	10337.19
886.432	10365.66
886.75	10248.83
887.067	10295.6
887.383	10204.99
887.7	10224.19
888.017	10230.07
888.334	10155.04
888.651	10101.03
888.967	10120.24
889.284	10064.2
889.6	10020.81
889.917	10007.7
890.233	10042.96
890.55	9948.04
890.866	9948.72
891.182	9905.56
891.498	9921.83
891.815	9873.47
892.131	9813.36
892.447	9837.31
892.763	9768.16
893.079	9773.13
893.395	9742.63
893.71	9597.32
894.026	9654.04
894.342	9605.91
894.657	9584.66
894.973	9521.61
895.289	9556.64
895.604	9556.19
895.92	9464.67
896.235	9418.11
896.55	9431.9
896.865	9377.89
897.181	9352.13
897.496	9331.79
897.811	9297.67
898.126	9253.15
898.441	9231
898.756	9217.22
899.071	9223.77
899.386	9047.95
899.7	9058.35
900.015	9105.35
900.33	8940.61
900.644	9012.25
900.959	8989.42
901.273	8969.99
901.588	8943.1
901.902	8875.3
902.216	8874.85
902.531	8795.76
902.845	8797.11
903.159	8720.96
903.473	8700.84
903.787	8658.81
904.101	8668.76
904.415	8595.31
904.729	8523
905.042	8499.72
905.356	8492.04
905.67	8498.82
905.984	8482.09
906.297	8437.8
906.611	8434.41
906.924	8393.06
907.237	8340.4
907.551	8314.41
907.864	8276.22
908.177	8261.99
908.491	8233.51
908.804	8183.12
909.117	8088.66
909.43	8028.77
909.743	7984.03
910.056	8010.47
910.368	8012.95
910.681	8028.32
910.994	7917.81
911.307	7951.26
911.619	7839.17
911.932	7901.32
912.244	7775.45
912.557	7780.42
912.869	7692.96
913.181	7716.46
913.494	7646.64
913.806	7637.82
914.118	7642.57
914.43	7528.67
914.742	7554.43
915.054	7508.33
915.366	7476.02
915.678	7402.8
915.99	7415.68
916.302	7335
916.613	7248.91
916.925	7345.85
917.236	7289.36
917.548	7275.35
917.859	7198.96
918.171	7156.25
918.482	7111.06
918.794	7122.81
919.105	7109.93
919.416	7087.78
919.727	7111.73
920.038	7022.92
920.349	7009.14
920.66	6884.4
920.971	6881.91
921.282	6865.86
921.593	6889.59
921.903	6801.23
922.214	6770.27
922.525	6706.09
922.835	6751.97
923.146	6718.07
923.456	6721.46
923.767	6645.53
924.077	6636.72
924.387	6535.7
924.697	6588.36
925.008	6562.37
925.318	6573.67
925.628	6545.2
925.938	6469.72
926.248	6436.72
926.558	6370.74
926.867	6413.67
927.177	6366.44
927.487	6328.48
927.796	6306.33
928.106	6288.25
928.416	6297.97
928.725	6254.58
929.034	6196.73
929.344	6150.86
929.653	6223.17
929.962	6106.79
930.271	6116.05
930.581	6024.98
930.89	6006.68
931.199	6012.55
931.508	5983.85
931.817	5947.7
932.125	5943.4
932.434	5924.65
932.743	5896.85
933.051	5842.16
933.36	5840.81
933.669	5818.21
933.977	5789.51
934.286	5775.5
934.594	5753.8
934.902	5745.44
935.21	5727.59
935.519	5656.63
935.827	5681.04
936.135	5634.03
936.443	5563.53
936.751	5531.66
937.059	5550.65
937.367	5485.79
937.674	5479.91
937.982	5500.48
938.29	5478.78
938.597	5455.96
938.905	5377.09
939.213	5349.07
939.52	5366.02
939.827	5336.87
940.135	5298.67
940.442	5272.69
940.749	5320.82
941.056	5281.5
941.363	5206.93
941.67	5232.69
941.977	5138.45
942.284	5150.2
942.591	5135.06
942.898	5079.7
943.205	5118.57
943.511	5061.84
943.818	5101.17
944.125	4984.33
944.431	5011.68
944.738	5007.83
945.044	4956.54
945.35	4887.61
945.657	4908.85
945.963	4921.06
946.269	4875.41
946.575	4862.75
946.881	4820.49
947.187	4819.59
947.493	4782.08
947.799	4794.05
948.105	4717.45
948.41	4730.78
948.716	4680.84
949.022	4702.98
949.327	4623.66
949.633	4620.05
949.938	4654.4
950.244	4634.06
950.549	4598.13
950.854	4535.53
951.16	4516.55
951.465	4500.5
951.77	4505.93
952.075	4462.54
952.38	4462.76
952.685	4452.14
952.99	4380.96
953.294	4391.81
953.599	4435.42
953.904	4397
954.209	4328.3
954.513	4312.94
954.818	4308.64
955.122	4254.63
955.426	4275.42
955.731	4261.64
956.035	4225.48
956.339	4206.27
956.643	4226.61
956.948	4159.5
957.252	4126.73
957.556	4152.72
957.86	4122.43
958.163	4106.16
958.467	4094.19
958.771	4078.82
959.075	4054.41
959.378	4020.29
959.682	4045.83
959.985	4019.39
960.289	3961.08
960.592	3963.12
960.896	3964.47
961.199	3947.52
961.502	3921.54
961.805	3893.29
962.108	3859.84
962.411	3894.19
962.714	3814.87
963.017	3823.68
963.32	3861.42
963.623	3810.13
963.926	3826.4
964.228	3751.6
964.531	3735.55
964.833	3723.57
965.136	3730.81
965.438	3696.91
965.741	3671.6
966.043	3676.57
966.345	3641.99
966.648	3614.65
966.95	3584.6
967.252	3575.56
967.554	3592.5
967.856	3561.54
968.158	3552.51
968.46	3560.87
968.761	3535.78
969.063	3531.04
969.365	3505.73
969.666	3542.56
969.968	3466.41
970.269	3437.48
970.571	3443.58
970.872	3408.78
971.174	3410.59
971.475	3404.49
971.776	3382.11
972.077	3358.39
972.378	3369.91
972.679	3356.35
972.98	3315.45
973.281	3282.23
973.582	3251.72
973.883	3283.13
974.183	3261.44
974.484	3265.96
974.785	3239.29
975.085	3195.9
975.386	3188.67
975.686	3173.53
975.986	3169.69
976.287	3157.94
976.587	3121.33
976.887	3075.68
977.187	3121.33
977.487	3135.57
977.787	3092.63
978.087	3047.89
978.387	3072.97
978.687	3010.82
978.987	3004.95
979.286	3005.18
979.586	3011.5
979.885	3011.95
980.185	3005.85
980.484	2985.51
980.784	2968.57
981.083	2935.8
981.382	2942.8
981.682	2915.23
981.981	2884.5
982.28	2883.37
982.579	2887.66
982.878	2877.27
983.177	2840.43
983.475	2863.71
983.774	2819.42
984.073	2811.06
984.372	2802.92
984.67	2788.46
984.969	2786.2
985.267	2794.56
985.566	2788.23
985.864	2745.75
986.162	2737.39
986.461	2743.26
986.759	2717.5
987.057	2676.82
987.355	2660.78
987.653	2668.91
987.951	2649.7
988.249	2663.49
988.547	2679.08
988.844	2593.66
989.142	2586.66
989.44	2608.8
989.737	2565.86
990.035	2566.32
990.332	2564.51
990.63	2528.8
990.927	2520.44
991.224	2533.1
991.521	2521.12
991.819	2502.82
992.116	2490.61
992.413	2463.95
992.71	2455.36
993.006	2435.02
993.303	2434.57
993.6	2440.67
993.897	2403.84
994.193	2439.09
994.49	2435.25
994.787	2385.98
995.083	2337.4
995.379	2394.12
995.676	2404.51
995.972	2317.96
996.268	2346.89
996.565	2318.64
996.861	2321.35
997.157	2274.8
997.453	2287.68
997.749	2262.82
998.044	2290.17
998.34	2254.01
998.636	2259.43
998.932	2227.12
999.227	2213.78
999.523	2192.99
999.818	2187.57
1000.114	2187.34
1000.409	2156.38
1000.704	2177.17
1001	2155.93
1001.295	2148.93
1001.59	2116.16
1001.885	2117.97
1002.18	2071.41
1002.475	2089.49
1002.77	2067.57
1003.065	2043.84
1003.359	2070.28
1003.654	2061.25
1003.949	2023.28
1004.243	2027.8
1004.538	2049.27
1004.832	1993.45
1005.127	2009.72
1005.421	1974.02
1005.715	1992.77
1006.009	1972.43
1006.304	1968.59
1006.598	1914.81
1006.892	1928.14
1007.186	1884.75
1007.48	1926.11
1007.773	1891.31
1008.067	1885.66
1008.361	1885.66
1008.655	1844.75
1008.948	1840.91
1009.242	1816.28
1009.535	1815.6
1009.829	1814.92
1010.122	1805.66
1010.415	1786.9
1010.708	1780.8
1011.001	1773.8
1011.295	1736.96
1011.588	1755.04
1011.881	1757.07
1012.173	1756.17
1012.466	1729.5
1012.759	1732.44
1013.052	1716.85
1013.344	1705.77
1013.637	1694.25
1013.93	1647.47
1014.222	1648.15
1014.514	1676.4
1014.807	1632.33
1015.099	1610.41
1015.391	1622.61
1015.683	1630.97
1015.976	1606.57
1016.268	1600.24
1016.56	1575.83
1016.851	1614.7
1017.143	1577.64
1017.435	1576.29
1017.727	1549.17
1018.018	1552.11
1018.31	1533.12
1018.602	1519.34
1018.893	1499.9
1019.185	1488.6
1019.476	1481.15
1019.767	1480.47
1020.058	1449.74
1020.35	1434.37
1020.641	1434.37
1020.932	1474.14
1021.223	1442.96
1021.514	1427.14
1021.804	1421.49
1022.095	1417.42
1022.386	1430.75
1022.677	1389.62
1022.967	1369.06
1023.258	1360.02
1023.548	1367.7
1023.839	1373.58
1024.129	1337.42
1024.419	1333.13
1024.709	1311.43
1025	1306.24
1025.29	1310.53
1025.58	1297.42
1025.87	1256.75
1026.16	1295.84
1026.449	1282.28
1026.739	1265.33
1027.029	1266.01
1027.319	1238.44
1027.608	1254.26
1027.898	1228.05
1028.187	1233.24
1028.477	1226.46
1028.766	1200.02
1029.055	1202.96
1029.344	1208.16
1029.634	1181.72
1029.923	1194.38
1030.212	1184.66
1030.501	1182.85
1030.79	1169.07
1031.078	1136.98
1031.367	1158.44
1031.656	1133.13
1031.945	1090.65
1032.233	1136.98
1032.522	1107.15
1032.81	1123.87
1033.099	1115.51
1033.387	1085.23
1033.675	1093.81
1033.963	1085.45
1034.251	1065.79
1034.54	1057.43
1034.828	1050.2
1035.116	1064.44
1035.403	1020.59
1035.691	1045.23
1035.979	1008.62
1036.267	1034.15
1036.554	999.35
1036.842	1006.36
1037.129	992.57
1037.417	997.32
1037.704	998
1037.992	969.3
1038.279	950.31
1038.566	976.08
1038.853	976.08
1039.14	976.08
