Data from hue_320_FLMS001491_89.txt Node
Date: Mon Feb 06 15:47:50 GMT 2017
User: dcchb
Spectrometer: FLMS00149
Trigger mode: 0
Integration Time (sec): 2.000000E-2
Scans to average: 10
Electric dark correction enabled: true
Nonlinearity correction enabled: false
Boxcar width: 0
XAxis mode: Wavelengths
Number of Pixels in Spectrum: 2048
>>>>>Begin Spectral Data<<<<<
341.393	-13.9
341.776	-13.9
342.16	-13.9
342.543	-43.28
342.927	-80.79
343.31	-89.15
343.693	-60.68
344.077	-69.26
344.46	-65.2
344.843	-46.89
345.226	-40.11
345.61	-19.55
345.993	-30.39
346.376	-1.47
346.759	16.38
347.142	15.93
347.525	46.44
347.908	58.42
348.291	77.17
348.674	101.81
349.057	106.55
349.44	129.15
349.823	153.1
350.206	183.39
350.588	198.98
350.971	211.41
351.354	220.45
351.737	235.14
352.119	254.12
352.502	262.25
352.884	269.26
353.267	300.22
353.65	296.15
354.032	301.35
354.414	308.35
354.797	302.93
355.179	319.2
355.562	310.61
355.944	300.44
356.326	322.59
356.709	332.76
357.091	346.77
357.473	341.35
357.855	341.57
358.238	351.29
358.62	332.99
359.002	318.75
359.384	330.27
359.766	351.52
360.148	324.4
360.53	347.67
360.912	344.51
361.294	327.34
361.676	311.74
362.057	326.21
362.439	337.05
362.821	324.4
363.203	332.53
363.584	304.74
363.966	314.46
364.348	311.52
364.729	348.13
365.111	327.56
365.493	327.34
365.874	312.42
366.256	319.65
366.637	323.49
367.019	312.42
367.4	306.09
367.781	308.81
368.163	318.07
368.544	310.16
368.925	312.87
369.306	328.69
369.688	321.91
370.069	278.07
370.45	299.77
370.831	315.13
371.212	310.84
371.593	307.68
371.974	307.45
372.355	308.13
372.736	350.84
373.117	327.11
373.498	337.05
373.879	332.08
374.26	330.73
374.641	314.68
375.021	298.86
375.402	313.55
375.783	314.46
376.163	328.24
376.544	320.56
376.925	320.78
377.305	329.37
377.686	345.87
378.066	332.99
378.447	325.3
378.827	321.69
379.208	318.52
379.588	325.08
379.968	331.86
380.349	331.18
380.729	338.41
381.109	329.14
381.489	323.72
381.87	340.22
382.25	345.41
382.63	304.96
383.01	348.13
383.39	332.76
383.77	346.54
384.15	338.64
384.53	345.64
384.91	338.64
385.29	351.06
385.67	372.53
386.049	364.62
386.429	361.01
386.809	362.36
387.189	342.25
387.568	360.1
387.948	371.63
388.328	346.32
388.707	352.87
389.087	355.36
389.466	348.35
389.846	370.72
390.225	352.87
390.605	382.7
390.984	390.16
391.363	363.49
391.743	370.05
392.122	364.17
392.501	375.02
392.881	359.88
393.26	372.98
393.639	406.88
394.018	380.22
394.397	383.83
394.776	371.85
395.155	375.24
395.534	361.69
395.913	374.11
396.292	386.09
396.671	381.35
397.05	392.65
397.429	384.96
397.808	386.54
398.186	394.68
398.565	393.32
398.944	387.67
399.323	389.48
399.701	405.53
400.08	408.92
400.458	391.52
400.837	405.07
401.215	389.71
401.594	409.14
401.972	418.18
402.351	414.79
402.729	409.37
403.107	426.77
403.486	425.64
403.864	424.28
404.242	425.19
404.62	426.54
404.999	419.09
405.377	409.37
405.755	423.15
406.133	441.23
406.511	449.82
406.889	448.46
407.267	435.36
407.645	427.22
408.023	443.27
408.401	468.12
408.779	471.96
409.156	483.49
409.534	471.51
409.912	475.81
410.29	476.26
410.667	468.35
411.045	491.4
411.422	506.99
411.8	521
412.178	507.9
412.555	516.71
412.933	533.66
413.31	518.52
413.687	541.34
414.065	528.91
414.442	544.05
414.819	547.44
415.197	559.87
415.574	555.8
415.951	553.54
416.328	570.95
416.705	590.38
417.082	590.61
417.46	574.79
417.837	573.66
418.214	589.93
418.591	609.59
418.967	619.08
419.344	619.31
419.721	622.7
420.098	627.44
420.475	622.47
420.852	644.62
421.228	657.5
421.605	649.59
421.982	649.14
422.358	668.57
422.735	683.48
423.111	683.94
423.488	682.58
423.864	696.82
424.241	722.81
424.617	682.13
424.994	735.01
425.37	713.09
425.746	713.31
426.123	718.96
426.499	733.65
426.875	733.88
427.251	752.64
427.627	765.97
428.003	765.06
428.379	781.56
428.756	776.82
429.132	800.09
429.507	798.28
429.883	824.72
430.259	828.34
430.635	841.67
431.011	848.68
431.387	858.17
431.763	854.55
432.138	872.41
432.514	876.25
432.89	877.6
433.265	903.59
433.641	906.3
434.016	916.47
434.392	934.78
434.767	945.17
435.143	927.09
435.518	912.18
435.894	954.66
436.269	986.98
436.644	952.63
437.02	950.37
437.395	986.75
437.77	998.28
438.145	994.66
438.52	1042.8
438.895	1008.67
439.271	1040.76
439.646	1048.45
440.021	1045.51
440.395	1046.41
440.77	1061.55
441.145	1069.69
441.52	1083.7
441.895	1065.85
442.27	1114.43
442.645	1085.96
443.019	1059.29
443.394	1093.87
443.769	1109.46
444.143	1112.63
444.518	1132.74
444.892	1086.64
445.267	1094.32
445.641	1144.49
446.016	1132.96
446.39	1128.44
446.764	1125.73
447.139	1157.37
447.513	1167.31
447.887	1157.6
448.262	1177.03
448.636	1150.37
449.01	1171.83
449.384	1187.43
449.758	1204.15
450.132	1198.27
450.506	1188.56
450.88	1213.41
451.254	1200.08
451.628	1222.23
452.002	1227.43
452.376	1232.85
452.75	1231.04
453.123	1241.66
453.497	1238.05
453.871	1255.45
454.244	1263.81
454.618	1298.61
454.992	1295.45
455.365	1271.27
455.739	1305.16
456.112	1315.78
456.486	1321.66
456.859	1336.12
457.232	1334.32
457.606	1357.59
457.979	1373.41
458.352	1390.36
458.725	1402.11
459.099	1372.28
459.472	1435.33
459.845	1448.21
460.218	1451.15
460.591	1450.47
460.964	1457.25
461.337	1473.07
461.71	1483.92
462.083	1500.86
462.456	1485.95
462.829	1521.65
463.201	1532.73
463.574	1541.32
463.947	1532.73
464.32	1573.18
464.692	1602.78
465.065	1597.81
465.438	1598.49
465.81	1627.64
466.183	1613.63
466.555	1644.14
466.928	1648.43
467.3	1663.35
467.672	1680.07
468.045	1688.43
468.417	1690.92
468.789	1685.94
469.161	1734.53
469.534	1725.27
469.906	1800.97
470.278	1780.86
470.65	1820.63
471.022	1807.52
471.394	1848.65
471.766	1848.65
472.138	1861.76
472.51	1909.67
472.882	1894.98
473.253	1977.24
473.625	1969.1
473.997	1964.58
474.369	2015.65
474.74	2019.27
475.112	2048.65
475.484	2036.44
475.855	2108.53
476.227	2110.34
476.598	2146.27
476.97	2135.42
477.341	2184.69
477.713	2217.23
478.084	2230.11
478.455	2262.2
478.827	2281.41
479.198	2371.58
479.569	2346.04
479.94	2372.71
480.311	2391.24
480.682	2445.47
481.053	2493.15
481.424	2496.77
481.795	2507.62
482.166	2568.86
482.537	2573.83
482.908	2599.14
483.279	2630.78
483.65	2694.96
484.021	2703.32
484.391	2715.07
484.762	2733.37
485.133	2751.23
485.503	2806.37
485.874	2863.54
486.244	2901.28
486.615	2897.66
486.985	2939.02
487.356	3007.27
487.726	3001.62
488.097	3009.98
488.467	3055.85
488.837	3103.53
489.207	3167.49
489.578	3163.87
489.948	3167.04
490.318	3233.47
490.688	3255.17
491.058	3284.09
491.428	3307.37
491.798	3312.79
492.168	3394.83
492.538	3420.14
492.908	3437.99
493.278	3428.05
493.648	3497.65
494.017	3483.64
494.387	3509.85
494.757	3582.62
495.126	3571.77
495.496	3588.72
495.866	3592.56
496.235	3672.56
496.605	3699
496.974	3651.54
497.344	3717.53
497.713	3758.88
498.082	3742.39
498.452	3767.02
498.821	3746.23
499.19	3815.38
499.559	3791.2
499.928	3840.46
500.298	3848.37
500.667	3914.13
501.036	3877.3
501.405	3920.91
501.774	3920.46
502.143	3941.93
502.512	3982.61
502.88	3998.43
503.249	3961.36
503.618	3979.67
503.987	4014.7
504.356	4017.41
504.724	4021.02
505.093	4078.65
505.462	4068.25
505.83	4042.04
506.199	4126.33
506.567	4145.54
506.936	4073.9
507.304	4171.3
507.672	4219.66
508.041	4184.86
508.409	4181.47
508.777	4240.68
509.145	4274.8
509.514	4248.59
509.882	4273.22
510.25	4325.2
510.618	4263.96
510.986	4339.43
511.354	4396.61
511.722	4402.71
512.09	4425.53
512.458	4383.95
512.826	4384.18
513.193	4469.15
513.561	4436.15
513.929	4461.46
514.297	4500.33
514.664	4556.6
515.032	4526.55
515.4	4531.97
515.767	4519.09
516.135	4564.06
516.502	4511.18
516.869	4580.33
517.237	4593.21
517.604	4589.82
517.972	4679.99
518.339	4690.16
518.706	4664.17
519.073	4672.53
519.44	4666.88
519.808	4709.37
520.175	4701.46
520.542	4752.76
520.909	4762.7
521.276	4754.79
521.643	4781.91
522.009	4837.27
522.376	4853.09
522.743	4856.93
523.11	4896.03
523.477	4933.09
523.843	4923.6
524.21	5005.86
524.577	4981.45
524.943	5018.29
525.31	5062.58
525.676	5092.18
526.043	5089.24
526.409	5082.01
526.776	5150.71
527.142	5148.9
527.508	5201.78
527.874	5246.75
528.241	5258.05
528.607	5315
528.973	5354.77
529.339	5301.44
529.705	5362.68
530.071	5466.41
530.437	5391.61
530.803	5452.85
531.169	5466.41
531.535	5469.12
531.901	5461.66
532.267	5492.62
532.632	5530.59
532.998	5543.02
533.364	5597.71
533.73	5563.13
534.095	5630.02
534.461	5624.6
534.826	5666.4
535.192	5730.36
535.557	5733.97
535.923	5716.57
536.288	5746.4
536.653	5801.09
537.019	5783.69
537.384	5831.6
537.749	5862.56
538.114	5871.82
538.479	5914.53
538.845	5942.1
539.21	5921.54
539.575	6005.38
539.94	5988.2
540.305	6026.4
540.67	6054.87
541.034	6059.84
541.399	6118.82
541.764	6111.82
542.129	6087.18
542.494	6136.45
542.858	6191.14
543.223	6194.53
543.587	6256.9
543.952	6224.36
544.316	6250.34
544.681	6272.49
545.045	6295.99
545.41	6319.49
545.774	6343.22
546.138	6405.59
546.503	6362.43
546.867	6449.43
547.231	6462.54
547.595	6471.13
547.959	6411.92
548.324	6552.94
548.688	6543.22
549.052	6586.61
549.416	6552.71
549.779	6619.83
550.143	6606.49
550.507	6666.38
550.871	6679.71
551.235	6708.19
551.599	6706.83
551.962	6762.87
552.326	6777.79
552.689	6773.72
553.053	6780.05
553.417	6791.57
553.78	6876.32
554.143	6842.87
554.507	6905.47
554.87	6883.32
555.234	7030.66
555.597	7001.06
555.96	6952.47
556.323	6989.53
556.686	7022.3
557.05	7070.21
557.413	7057.55
557.776	7046.26
558.139	7089.42
558.502	7099.59
558.865	7168.29
559.228	7221.39
559.59	7205.35
559.953	7262.52
560.316	7290.09
560.679	7331.22
561.041	7371.9
561.404	7368.51
561.767	7390.88
562.129	7365.12
562.492	7423.87
562.854	7387.49
563.217	7437.21
563.579	7493.25
563.941	7487.15
564.304	7540.03
564.666	7566.69
565.028	7588.61
565.39	7608.05
565.753	7666.13
566.115	7637.43
566.477	7747.48
566.839	7709.97
567.201	7762.85
567.563	7748.84
567.925	7803.3
568.287	7892.11
568.648	7894.59
569.01	7921.49
569.372	7982.73
569.734	7882.62
570.095	7977.53
570.457	8066.34
570.819	8016.17
571.18	8070.41
571.542	8103.4
571.903	8185.21
572.265	8226.79
572.626	8222.72
572.987	8330.29
573.349	8400.34
573.71	8415.48
574.071	8361.25
574.432	8471.75
574.794	8555.14
575.155	8593.79
575.516	8608.02
575.877	8659.77
576.238	8751.3
576.599	8776.38
576.96	8884.4
577.32	8888.47
577.681	8983.83
578.042	9125.97
578.403	9127.78
578.763	9250.94
579.124	9370.26
579.485	9458.62
579.845	9564.38
580.206	9593.76
580.566	9676.02
580.927	9836.46
581.287	9979.74
581.648	10026.97
582.008	10167.98
582.368	10296.11
582.728	10443.91
583.089	10642.09
583.449	10735.65
583.809	10873.05
584.169	11013.61
584.529	11161.85
584.889	11398.91
585.249	11596.19
585.609	11706.7
585.969	11935.62
586.329	12074.82
586.688	12235.05
587.048	12496.96
587.408	12658.99
587.768	12840.45
588.127	13103.95
588.487	13265.53
588.846	13594.11
589.206	13710.71
589.565	14003.36
589.925	14336.01
590.284	14520.18
590.643	14714.3
591.003	15053.95
591.362	15334.4
591.721	15585.69
592.08	15807.83
592.44	16094.83
592.799	16319.23
593.158	16615.5
593.517	16942.94
593.876	17189.27
594.235	17429.94
594.593	17761.23
594.952	18145.85
595.311	18261.33
595.67	18634.65
596.029	19013.62
596.387	19237.35
596.746	19581.07
597.104	19757.79
597.463	20019.93
597.822	20393.25
598.18	20470.31
598.538	20847.7
598.897	21301.25
599.255	21372.66
599.613	21996.14
599.972	22145.29
600.33	22478.62
600.688	22598.61
601.046	22961.54
601.404	23295.32
601.762	23461.42
602.12	23809.88
602.478	24108.41
602.836	24396.31
603.194	24653.02
603.552	24827.03
603.91	25016.18
604.268	25410.52
604.625	25482.15
604.983	25871.52
605.341	25915.82
605.698	26392.41
606.056	26712.63
606.413	26862.68
606.771	27149
607.128	27471.48
607.485	27562.1
607.843	27755.77
608.2	28177.68
608.557	28342.64
608.914	28503.09
609.272	28878.22
609.629	29134.04
609.986	29337.42
610.343	29460.81
610.7	29775.15
611.057	29880.91
611.414	30196.16
611.771	30311.63
612.127	30604.28
612.484	30764.5
612.841	30971.05
613.198	31157.94
613.554	31298.05
613.911	31560.64
614.267	31726.51
614.624	31914.98
614.98	32091.7
615.337	32354.52
615.693	32394.74
616.05	32460.73
616.406	32820.27
616.762	32854.39
617.118	32986.59
617.475	33181.39
617.831	33301.16
618.187	33556.52
618.543	33711.77
618.899	33973.46
619.255	34008.94
619.611	34188.82
619.967	34254.58
620.323	34481.47
620.678	34521.01
621.034	34527.79
621.39	34585.42
621.746	34649.15
622.101	35022.24
622.457	34877.16
622.812	35189.02
623.168	35186.08
623.523	35492.06
623.879	35505.17
624.234	35473.53
624.589	35616.13
624.945	35804.82
625.3	35754.43
625.655	35816.57
626.01	36080.75
626.365	36007.3
626.72	36095.89
627.075	36142.67
627.43	36204.81
627.785	36210.46
628.14	36264.47
628.495	36571.13
628.85	36497.68
629.205	36407.07
629.559	36718.7
629.914	36708.07
630.269	36602.09
630.623	36603.9
630.978	36498.59
631.332	36711.01
631.687	36683.89
632.041	36822.42
632.396	36781.07
632.75	36802.08
633.104	36866.49
633.459	36699.26
633.813	36776.55
634.167	36758.92
634.521	36799.82
634.875	36808.86
635.229	36900.61
635.583	36773.38
635.937	36887.28
636.291	36718.24
636.645	36824.46
636.999	36859.26
637.352	36901.74
637.706	36667.62
638.06	36947.84
638.413	36961.18
638.767	36759.37
639.121	37002.3
639.474	36582.88
639.828	36798.69
640.181	36845.92
640.534	36807.28
640.888	36690.67
641.241	36758.24
641.594	36793.27
641.947	36806.6
642.301	36705.59
642.654	36608.87
643.007	36751.69
643.36	36701.07
643.713	36693.39
644.066	36877.79
644.419	36665.59
644.771	36434.18
645.124	36101.08
645.477	36137.24
645.83	35828.1
646.182	35817.48
646.535	35701.1
646.888	35742.45
647.24	35456.13
647.593	35759.85
647.945	35612.96
648.298	35546.3
648.65	35597.14
649.002	35474.66
649.355	35710.59
649.707	35501.55
650.059	35716.69
650.411	36173.4
650.763	36124.81
651.115	36369.55
651.467	36341.98
651.819	36318.03
652.171	36198.48
652.523	36213.85
652.875	36257.69
653.227	36135.89
653.578	36405.26
653.93	36307.86
654.282	36191.48
654.633	36025.38
654.985	36253.62
655.337	36276
655.688	36124.36
656.039	36268.09
656.391	36012.05
656.742	36101.99
657.094	36087.75
657.445	36326.84
657.796	36084.14
658.147	36008.88
658.498	36036
658.849	36175.43
659.2	36116.9
659.551	35987.87
659.902	36036.23
660.253	36020.86
660.604	36180.86
660.955	35923.69
661.306	36142.44
661.656	35963.69
662.007	36029.22
662.358	36094.98
662.708	35967.3
663.059	36039.17
663.409	35720.98
663.76	36023.35
664.11	36027.87
664.461	36056.57
664.811	35930.69
665.161	35882.11
665.511	35902.45
665.862	35918.26
666.212	36021.31
666.562	35979.05
666.912	35996.23
667.262	35967.98
667.612	35813.18
667.962	35917.36
668.312	35897.25
668.662	36142.21
669.011	35923.46
669.361	35912.84
669.711	35913.29
670.06	35857.02
670.41	35673.53
670.76	35742.68
671.109	35900.64
671.459	35771.15
671.808	35778.38
672.157	35811.15
672.507	35554.21
672.856	35588.78
673.205	35690.7
673.554	35780.42
673.904	35481.44
674.253	35852.28
674.602	35744.71
674.951	35118.96
675.3	34973.43
675.649	35570.7
675.998	35565.28
676.346	35502.23
676.695	35694.09
677.044	35494.32
677.393	35616.8
677.741	35498.61
678.09	35517.82
678.438	35329.81
678.787	35399.41
679.135	35250.94
679.484	35249.58
679.832	35396.47
680.181	35226.98
680.529	35342.91
680.877	35241.67
681.225	35178.4
681.573	35302.24
681.922	35114.67
682.27	34964.39
682.618	35050.26
682.966	34956.93
683.314	35032.64
683.661	35021.57
684.009	34785.87
684.357	34675.59
684.705	34646.21
685.053	34587.23
685.4	34485.08
685.748	34438.3
686.095	34358.31
686.443	34341.36
686.79	34287.12
687.138	34396.95
687.485	34329.15
687.832	34096.17
688.18	34179.1
688.527	34020.91
688.874	34096.84
689.221	33837.64
689.568	33771.2
689.915	33641.26
690.262	33785.44
690.609	33760.36
690.956	33569.63
691.303	33499.35
691.65	33371.44
691.997	33425
692.344	33215.06
692.69	33066.81
693.037	33233.14
693.383	33005.12
693.73	32969.19
694.077	32833.83
694.423	32911.34
694.769	32773.04
695.116	32657.56
695.462	32529.88
695.808	32629.99
696.155	32637.67
696.501	32315.65
696.847	32316.55
697.193	32117.69
697.539	32347.06
697.885	31939.16
698.231	31872.95
698.577	31877.24
698.923	31880.63
699.269	31742.56
699.614	31578.27
699.96	31496.46
700.306	31593.18
700.651	31354.32
700.997	31303.24
701.342	31213.08
701.688	31186.19
702.033	31055.57
702.379	31063.48
702.724	30989.35
703.069	31070.26
703.415	30790.26
703.76	30685.18
704.105	30789.59
704.45	30674.56
704.795	30508.24
705.14	30538.52
705.485	30401.8
705.83	30353.67
706.175	30396.6
706.52	30191.41
706.865	30103.73
707.209	30134.91
707.554	30032.09
707.899	30049.04
708.243	29932.43
708.588	29867.35
708.932	29588.71
709.277	29542.16
709.621	29627.58
709.966	29346.01
710.31	29580.8
710.654	29249.97
710.998	29174.94
711.342	29216.75
711.687	29136.3
712.031	29060.37
712.375	28973.36
712.719	29000.48
713.063	28957.09
713.407	29020.59
713.75	28917.54
714.094	28884.78
714.438	28666.7
714.782	28808.17
715.125	28598.23
715.469	28720.49
715.812	28497.67
716.156	28307.62
716.499	28384
716.843	28399.82
717.186	28238.47
717.53	28311.01
717.873	28324.34
718.216	28224.46
718.559	28186.04
718.902	27951.92
719.246	28131.35
719.589	28063.1
719.932	27818.14
720.275	27891.36
720.617	27752.15
720.96	27711.93
721.303	27767.52
721.646	27791.7
721.989	27440.52
722.331	27688.2
722.674	27574.3
723.016	27499.73
723.359	27423.8
723.701	27500.18
724.044	27224.71
724.386	27171.83
724.729	27335.67
725.071	27237.81
725.413	27227.65
725.755	27246.18
726.097	27159.62
726.439	26921.21
726.782	26951.04
727.124	27114.65
727.465	26913.53
727.807	26948.78
728.149	26894.55
728.491	26866.53
728.833	26704.27
729.175	26632.63
729.516	26604.61
729.858	26658.85
730.199	26671.28
730.541	26589.92
730.882	26495.46
731.224	26669.47
731.565	26351.96
731.906	26449.59
732.248	26394.67
732.589	26215.24
732.93	26327.1
733.271	26326.88
733.612	26397.84
733.953	26265.86
734.294	26183.15
734.635	26202.36
734.976	26251.85
735.317	25997.85
735.658	25998.3
735.999	25932.76
736.339	25878.98
736.68	26009.37
737.021	25893.67
737.361	25800.11
737.702	25819.1
738.042	25868.36
738.383	25669.49
738.723	25809.38
739.063	25636.5
739.404	25645.99
739.744	25619.1
740.084	25424.98
740.424	25538.2
740.764	25436.96
741.104	25707.69
741.444	25372.55
741.784	25314.02
742.124	25430.4
742.464	25336.17
742.804	25246.68
743.143	25243.29
743.483	25234.48
743.823	25066.35
744.162	25093.69
744.502	25145.21
744.841	25034.03
745.181	25090.3
745.52	24928.95
745.86	24992.22
746.199	24910.64
746.538	24950.19
746.877	24876.07
747.216	24862.51
747.556	24788.84
747.895	24839.23
748.234	24782.06
748.573	24715.85
748.911	24551.78
749.25	24661.39
749.589	24537.77
749.928	24525.12
750.267	24599.01
750.605	24456.19
750.944	24420.04
751.283	24344.11
751.621	24340.49
751.96	24283.32
752.298	24328.51
752.636	24119.25
752.975	24075.86
753.313	24012.14
753.651	24190.21
753.989	24081.97
754.327	24050.78
754.666	23822.31
755.004	23909.77
755.342	23856.21
755.679	23818.47
756.017	23690.34
756.355	23733.95
756.693	23656.67
757.031	23623.22
757.368	23550.45
757.706	23593.39
758.044	23314.75
758.381	23373.51
758.719	23316.79
759.056	23275.66
759.394	23280.4
759.731	23073.86
760.068	23126.74
760.405	23047.87
760.743	22961.09
761.08	23011.71
761.417	22818.04
761.754	22790.02
762.091	22773.98
762.428	22685.84
762.765	22611.5
763.102	22637.26
763.438	22430.71
763.775	22359.3
764.112	22470.26
764.449	22379.19
764.785	22270.94
765.122	22147.1
765.458	22026.65
765.795	22055.58
766.131	22080.21
766.467	22047.44
766.804	21787.79
767.14	21699.43
767.476	21769.48
767.812	21588.25
768.148	21670.05
768.485	21521.81
768.821	21308.48
769.157	21388.03
769.492	21337.18
769.828	21258.31
770.164	21108.94
770.5	21063.06
770.836	21018.32
771.171	20951.2
771.507	20848.83
771.842	20702.17
772.178	20626.01
772.513	20640.25
772.849	20568.39
773.184	20469.18
773.519	20477.99
773.855	20349.63
774.19	20247.26
774.525	20225.12
774.86	20235.74
775.195	20062.41
775.53	20007.95
775.865	19866.03
776.2	19814.96
776.535	19754.85
776.87	19620.84
777.205	19585.36
777.539	19566.15
777.874	19515.08
778.209	19347.63
778.543	19257.23
778.878	19235.99
779.212	19237.12
779.547	19042.32
779.881	19132.72
780.215	18961.65
780.55	18998.26
780.884	18816.57
781.218	18916.45
781.552	18914.64
781.886	18697.47
782.22	18563.92
782.554	18507.42
782.888	18434.43
783.222	18304.04
783.556	18182.23
783.889	18194.66
784.223	18068.79
784.557	18109.24
784.89	18131.61
785.224	17966.87
785.557	17909.02
785.891	17886.65
786.224	17821.57
786.558	17808.01
786.891	17681.91
787.224	17652.08
787.557	17592.87
787.891	17537.73
788.224	17549.93
788.557	17527.56
788.89	17424.97
789.223	17365.98
789.556	17093.22
789.888	17171.86
790.221	17062.04
790.554	17017.74
790.887	17035.15
791.219	16883.28
791.552	16922.15
791.884	16845.77
792.217	16704.76
792.549	16696.62
792.882	16480.36
793.214	16468.61
793.546	16548.38
793.879	16361.26
794.211	16384.09
794.543	16387.7
794.875	16215.96
795.207	16307.25
795.539	16263.87
795.871	16235.62
796.203	16101.38
796.535	15999.47
796.867	15936.64
797.198	15899.58
797.53	15894.84
797.862	15751.34
798.193	15784.1
798.525	15711.79
798.856	15688.74
799.188	15554.28
799.519	15679.47
799.85	15456.2
800.182	15531.91
800.513	15482.64
800.844	15332.37
801.175	15369.2
801.506	15238.81
801.837	15231.35
802.168	15256.21
802.499	15174.18
802.83	15041.3
803.161	15032.94
803.491	15019.83
803.822	14973.96
804.153	14938.48
804.483	14769.89
804.814	14732.83
805.145	14794.07
805.475	14717.01
805.805	14732.61
806.136	14665.94
806.466	14610.8
806.796	14578.71
807.126	14548.43
807.457	14382.11
807.787	14433.18
808.117	14323.58
808.447	14321.32
808.777	14363.58
809.107	14391.15
809.436	14307.31
809.766	14232.73
810.096	14206.29
810.426	14137.37
810.755	14230.25
811.085	14063.7
811.414	14000.42
811.744	13901.89
812.073	13947.77
812.403	13996.13
812.732	13891.05
813.061	13832.97
813.39	13801.33
813.719	13757.27
814.049	13856.92
814.378	13763.14
814.707	13696.25
815.036	13614.44
815.365	13631.84
815.693	13449.7
816.022	13503.71
816.351	13459.19
816.68	13342.81
817.008	13339.42
817.337	13232.08
817.665	13251.06
817.994	13312.76
818.322	13315.47
818.651	13140.78
818.979	13143.27
819.307	13151.41
819.636	13173.1
819.964	13058.98
820.292	13071.63
820.62	13072.99
820.948	13028.25
821.276	13129.94
821.604	13047.45
821.932	12992.09
822.259	13051.07
822.587	12983.73
822.915	12967.46
823.243	13071.18
823.57	12980.34
823.898	12962.94
824.225	12958.87
824.553	12952.99
824.88	12963.61
825.207	12884.52
825.535	12954.8
825.862	13024.63
826.189	12939.66
826.516	12939.66
826.843	13018.53
827.17	13002.71
827.497	12944.41
827.824	12976.95
828.151	13063.5
828.478	13036.38
828.805	13136.94
829.131	12972.2
829.458	12936.72
829.785	12806.33
830.111	12843.62
830.438	12917.29
830.764	12936.72
831.09	12914.35
831.417	12890.17
831.743	12939.43
832.069	12957.51
832.395	12885.2
832.722	12906.21
833.048	12813.11
833.374	12889.94
833.7	12796.61
834.026	12838.65
834.351	12797.97
834.677	12821.92
835.003	12861.02
835.329	12801.58
835.654	12830.51
835.98	12714.58
836.306	12714.58
836.631	12652.89
836.956	12726.11
837.282	12679.1
837.607	12616.96
837.932	12603.62
838.258	12678.2
838.583	12569.5
838.908	12476.85
839.233	12614.92
839.558	12527.02
839.883	12496.96
840.208	12398.43
840.533	12487.02
840.858	12446.34
841.182	12454.93
841.507	12423.74
841.832	12326.79
842.156	12283.63
842.481	12350.75
842.805	12284.76
843.13	12241.83
843.454	12182.39
843.778	12177.65
844.103	12102.85
844.427	12143.07
844.751	12058.55
845.075	12145.56
845.399	12007.25
845.723	11943.08
846.047	12044.99
846.371	11947.14
846.695	11888.84
847.019	11793.25
847.343	11766.81
847.666	11720.48
847.99	11543.09
848.313	11590.09
848.637	11459.02
848.96	11521.17
849.284	11508.28
849.607	11300.61
849.931	11363.2
850.254	11297.9
850.577	11258.12
850.9	11154.85
851.223	11171.8
851.546	11073.49
851.869	11036.66
852.192	11141.51
852.515	10980.62
852.838	10915.08
853.161	10953.5
853.483	10855.65
853.806	10883.22
854.129	10823.11
854.451	10728.19
854.774	10651.58
855.096	10643.9
855.419	10683.45
855.741	10681.87
856.063	10603.68
856.385	10569.1
856.708	10527.75
857.03	10515.99
857.352	10506.5
857.674	10461.53
857.996	10388.77
858.318	10377.92
858.64	10384.02
858.961	10285.04
859.283	10294.76
859.605	10277.81
859.926	10281.65
860.248	10154.65
860.57	10089.34
860.891	10206.85
861.212	10103.8
861.534	10118.49
861.855	10034.2
862.176	10064.93
862.498	10144.25
862.819	10104.03
863.14	10064.71
863.461	9983.81
863.782	9951.72
864.103	9986.97
864.424	9915.78
864.745	9886.41
865.065	9971.83
865.386	9795.11
865.707	9877.37
866.027	9834.43
866.348	9830.14
866.668	9817.93
866.989	9735.9
867.309	9743.81
867.63	9809.35
867.95	9730.03
868.27	9716.92
868.59	9664.94
868.91	9673.3
869.23	9689.12
869.55	9653.87
869.87	9708.33
870.19	9686.19
870.51	9642.57
870.83	9652.97
871.15	9598.28
871.469	9575
871.789	9601.22
872.109	9548.34
872.428	9560.31
872.748	9596.02
873.067	9588.79
873.386	9573.65
873.706	9514.44
874.025	9456.36
874.344	9403.48
874.663	9456.81
874.982	9459.98
875.301	9414.55
875.62	9358.96
875.939	9331.39
876.258	9335.46
876.577	9263.6
876.896	9345.86
877.214	9301.11
877.533	9264.28
877.852	9234.22
878.17	9288.46
878.489	9242.81
878.807	9203.03
879.125	9203.03
879.444	9234.67
879.762	9245.07
880.08	9161
880.398	9135.24
880.716	9154.22
881.034	9110.61
881.352	9093.21
881.67	9096.82
881.988	9065.41
882.306	9066.54
882.624	9018.18
882.941	8998.29
883.259	8896.38
883.577	8914.91
883.894	8944.28
884.212	8932.08
884.529	8895.7
884.846	8897.73
885.164	8832.2
885.481	8808.47
885.798	8839.88
886.115	8806.44
886.432	8740.45
886.75	8690.28
887.067	8840.78
887.383	8626.1
887.7	8678.98
888.017	8650.28
888.334	8630.62
888.651	8645.99
888.967	8569.15
889.284	8499.1
889.6	8492.32
889.917	8513.34
890.233	8530.06
890.55	8438.31
890.866	8412.55
891.182	8452.55
891.498	8394.02
891.815	8356.28
892.131	8395.15
892.447	8316.5
892.763	8287.13
893.079	8237.86
893.395	8222.72
893.71	8250.97
894.026	8185.43
894.342	8195.38
894.657	8119
894.973	8107.02
895.289	8124.42
895.604	8084.19
895.92	8055.95
896.235	7980.69
896.55	7986.57
896.865	7939.34
897.181	7984.99
897.496	7935.72
897.811	7900.24
898.126	7869.28
898.441	7798.55
898.756	7797.42
899.071	7832.45
899.386	7782.51
899.7	7654.38
900.015	7646.24
900.33	7635.17
900.644	7622.29
900.959	7648.95
901.273	7627.48
901.588	7523.76
901.902	7520.37
902.216	7491.67
902.531	7519.24
902.845	7482.18
903.159	7362.86
903.473	7364.67
903.787	7380.94
904.101	7328.28
904.415	7332.35
904.729	7322.41
905.042	7221.39
905.356	7238.79
905.67	7152.92
905.984	7178.68
906.297	7173.26
906.611	7125.8
906.924	7136.42
907.237	7116.99
907.551	7009.42
907.864	6975.07
908.177	6986.82
908.491	7005.35
908.804	6973.94
909.117	6891.68
909.43	6842.64
909.743	6827.96
910.056	6792.02
910.368	6812.36
910.681	6719.71
910.994	6725.81
911.307	6675.19
911.619	6664.8
911.932	6661.63
912.244	6603.1
912.557	6658.24
912.869	6582.99
913.181	6527.17
913.494	6545.25
913.806	6519.26
914.118	6507.51
914.43	6403.11
914.742	6465.25
915.054	6398.81
915.366	6423.67
915.678	6372.37
915.99	6309.55
916.302	6291.25
916.613	6229.78
916.925	6267.07
917.236	6200.85
917.548	6191.59
917.859	6222.77
918.171	6176.67
918.482	6098.03
918.794	6122.66
919.105	6042.44
919.416	6048.77
919.727	6033.17
920.038	6030.46
920.349	5938.26
920.66	5938.71
920.971	5934.42
921.282	5869.34
921.593	5857.59
921.903	5802.45
922.214	5875.21
922.525	5825.5
922.835	5748.66
923.146	5758.83
923.456	5739.62
923.767	5712.73
924.077	5730.81
924.387	5634.32
924.697	5657.14
925.008	5596.8
925.318	5598.38
925.628	5568.78
925.938	5568.55
926.248	5513.41
926.558	5503.47
926.867	5458.05
927.177	5439.07
927.487	5406.3
927.796	5415.56
928.106	5401.55
928.416	5356.36
928.725	5336.7
929.034	5331.72
929.344	5311.39
929.653	5262.12
929.962	5239.75
930.271	5205.17
930.581	5182.35
930.89	5224.61
931.199	5135.12
931.508	5131.05
931.817	5125.4
932.125	5072.52
932.434	5102.35
932.743	5030.94
933.051	5013.99
933.36	4971.28
933.669	4942.81
933.977	4963.15
934.286	4950.27
934.594	4946.65
934.902	4929.02
935.21	4827.1
935.519	4859.19
935.827	4865.07
936.135	4828.91
936.443	4778.97
936.751	4779.2
937.059	4753.66
937.367	4710.5
937.674	4722.25
937.982	4699.42
938.29	4636.38
938.597	4662.59
938.905	4598.86
939.213	4580.78
939.52	4581.01
939.827	4614.23
940.135	4528.58
940.442	4504.18
940.749	4530.16
941.056	4513.89
941.363	4432.54
941.67	4517.06
941.977	4405.87
942.284	4371.98
942.591	4389.6
942.898	4361.35
943.205	4393.22
943.511	4381.69
943.818	4359.77
944.125	4304.63
944.431	4302.6
944.738	4316.61
945.044	4275.03
945.35	4248.36
945.657	4154.58
945.963	4187.8
946.269	4186.67
946.575	4172.43
946.881	4171.75
947.187	4152.09
947.493	4135.82
947.799	4124.3
948.105	4091.3
948.41	4074.81
948.716	4061.25
949.022	4055.83
949.327	4044.98
949.633	3983.29
949.938	3967.24
950.244	3962.49
950.549	3960.23
950.854	3956.39
951.16	3929.73
951.465	3889.73
951.77	3909.61
952.075	3862.84
952.38	3875.27
952.685	3867.81
952.99	3816.51
953.294	3856.73
953.599	3804.76
953.904	3775.83
954.209	3781.03
954.513	3761.6
954.818	3758.21
955.122	3671.65
955.426	3686.8
955.731	3693.58
956.035	3677.53
956.339	3675.95
956.643	3642.73
956.948	3623.52
957.252	3580.81
957.556	3563.18
957.86	3561.15
958.163	3548.27
958.467	3515.5
958.771	3549.17
959.075	3501.72
959.378	3477.99
959.682	3474.37
959.985	3456.52
960.289	3444.99
960.592	3408.61
960.896	3426.92
961.199	3378.56
961.502	3391.89
961.805	3354.83
962.108	3339.23
962.411	3332.23
962.714	3301.5
963.017	3312.34
963.32	3320.25
963.623	3272.34
963.926	3270.54
964.228	3229.18
964.531	3230.99
964.833	3257.65
965.136	3195.51
965.438	3180.14
965.741	3176.3
966.043	3148.73
966.345	3141.73
966.648	3146.92
966.95	3133.36
967.252	3128.62
967.554	3081.61
967.856	3069.64
968.158	3050.65
968.46	3077.55
968.761	3068.73
969.063	3041.16
969.365	3025.8
969.666	3022.86
969.968	2973.59
970.269	2987.61
970.571	2989.86
970.872	3004.78
971.174	2940.6
971.475	2917.1
971.776	2927.49
972.077	2936.08
972.378	2945.35
972.679	2888.62
972.98	2890.21
973.281	2863.99
973.582	2807.95
973.883	2843.2
974.183	2837.55
974.484	2826.03
974.785	2815.86
975.085	2789.87
975.386	2796.65
975.686	2753.26
975.986	2746.71
976.287	2747.16
976.587	2744
976.887	2696.99
977.187	2707.16
977.487	2709.42
977.787	2660.61
978.087	2669.2
978.387	2611.34
978.687	2664.68
978.987	2630.1
979.286	2620.38
979.586	2593.94
979.885	2614.51
980.185	2573.6
980.484	2589.65
980.784	2565.47
981.083	2535.87
981.382	2552.81
981.682	2541.52
981.981	2544
982.28	2504.45
982.579	2481.86
982.878	2508.07
983.177	2445.7
983.475	2483.89
983.774	2441.63
984.073	2430.33
984.372	2413.61
984.67	2453.61
984.969	2411.58
985.267	2416.09
985.566	2392.82
985.864	2397.56
986.162	2355.31
986.461	2347.62
986.759	2352.14
987.057	2316.89
987.355	2349.43
987.653	2316.89
987.951	2301.07
988.249	2333.38
988.547	2302.2
988.844	2277.79
989.142	2283.22
989.44	2249.09
989.737	2228.08
990.035	2233.27
990.332	2251.13
990.63	2221.3
990.927	2222.88
991.224	2184.91
991.521	2178.13
991.819	2181.3
992.116	2151.47
992.413	2147.18
992.71	2161.41
993.006	2134.07
993.303	2130.23
993.6	2125.48
993.897	2092.04
994.193	2093.39
994.49	2076.67
994.787	2070.12
995.083	2035.77
995.379	2028.99
995.676	2019.72
995.972	2038.03
996.268	2030.57
996.565	2012.72
996.861	2023.11
997.157	1991.25
997.453	2003
997.749	1996.44
998.044	1986.05
998.34	1967.74
998.636	1961.42
998.932	1955.32
999.227	1926.16
999.523	1935.88
999.818	1875.77
1000.114	1912.83
1000.409	1906.28
1000.704	1882.1
1001	1883.68
1001.295	1870.35
1001.59	1859.5
1001.885	1885.71
1002.18	1842.78
1002.475	1834.87
1002.77	1845.49
1003.065	1834.64
1003.359	1814.08
1003.654	1800.52
1003.949	1804.36
1004.243	1794.19
1004.538	1752.38
1004.832	1780.63
1005.127	1741.08
1005.421	1730.91
1005.715	1725.94
1006.009	1727.53
1006.304	1706.96
1006.598	1671.48
1006.892	1678.26
1007.186	1641.88
1007.48	1647.98
1007.773	1658.83
1008.067	1671.26
1008.361	1631.71
1008.655	1648.66
1008.948	1629.45
1009.242	1650.92
1009.535	1619.28
1009.829	1596.23
1010.122	1605.04
1010.415	1568.66
1010.708	1565.95
1011.001	1582.44
1011.295	1558.04
1011.588	1556.23
1011.881	1553.97
1012.173	1545.16
1012.466	1513.52
1012.759	1535.67
1013.052	1497.93
1013.344	1504.03
1013.637	1474.65
1013.93	1472.84
1014.222	1480.07
1014.514	1476.46
1014.807	1451.6
1015.099	1455.44
1015.391	1448.21
1015.683	1428.32
1015.976	1420.87
1016.268	1412.96
1016.56	1396.23
1016.851	1423.13
1017.143	1396.01
1017.435	1395.56
1017.727	1342
1018.018	1377.25
1018.31	1334.99
1018.602	1343.35
1018.893	1319.85
1019.185	1326.18
1019.476	1316.24
1019.767	1318.72
1020.058	1314.2
1020.35	1326.18
1020.641	1320.08
1020.932	1274.43
1021.223	1272.62
1021.514	1279.63
1021.804	1256.13
1022.095	1251.61
1022.386	1238.5
1022.677	1251.83
1022.967	1215.67
1023.258	1234.66
1023.548	1215.45
1023.839	1182.91
1024.129	1198.73
1024.419	1191.49
1024.709	1198.5
1025	1181.78
1025.29	1200.31
1025.58	1157.6
1025.87	1166.86
1026.16	1155.79
1026.449	1130.48
1026.739	1140.2
1027.029	1134.77
1027.319	1118.5
1027.608	1093.42
1027.898	1104.26
1028.187	1083.93
1028.477	1078.95
1028.766	1097.26
1029.055	1084.38
1029.344	1056.36
1029.634	1062.68
1029.923	1042.35
1030.212	1039.63
1030.501	1020.65
1030.79	1057.03
1031.078	1033.31
1031.367	1030.59
1031.656	997.15
1031.945	1024.72
1032.233	1016.81
1032.522	984.04
1032.81	997.83
1033.099	985.17
1033.387	986.3
1033.675	967.32
1033.963	947.88
1034.251	962.8
1034.54	980.88
1034.828	960.77
1035.116	945.17
1035.403	945.4
1035.691	927.77
1035.979	922.57
1036.267	903.82
1036.554	926.87
1036.842	930.94
1037.129	902.24
1037.417	902.46
1037.704	895.23
1037.992	894.55
1038.279	876.25
1038.566	860.66
1038.853	860.66
1039.14	860.66
