Data from hue_90_FLMS001491_21.txt Node
Date: Mon Feb 06 15:24:53 GMT 2017
User: dcchb
Spectrometer: FLMS00149
Trigger mode: 0
Integration Time (sec): 2.000000E-2
Scans to average: 10
Electric dark correction enabled: true
Nonlinearity correction enabled: false
Boxcar width: 0
XAxis mode: Wavelengths
Number of Pixels in Spectrum: 2048
>>>>>Begin Spectral Data<<<<<
341.393	-14.43
341.776	-14.43
342.16	-14.43
342.543	-57.82
342.927	-56.47
343.31	-60.54
343.693	-62.79
344.077	-69.57
344.46	-60.54
344.843	-41.1
345.226	-57.37
345.61	-25.96
345.993	-18.5
346.376	-19.63
346.759	12.68
347.142	27.15
347.525	22.85
347.908	70.08
348.291	80.48
348.674	100.14
349.057	102.62
349.44	146.92
349.823	132.68
350.206	148.72
350.588	176.52
350.971	196.63
351.354	232.11
351.737	227.82
352.119	255.39
352.502	262.17
352.884	267.59
353.267	278.89
353.65	272.11
354.032	292.68
354.414	296.97
354.797	299.46
355.179	311.66
355.562	328.16
355.944	309.17
356.326	315.95
356.709	327.7
357.091	310.98
357.473	342.17
357.855	324.09
358.238	324.99
358.62	356.63
359.002	332
359.384	350.98
359.766	340.13
360.148	313.92
360.53	324.54
360.912	330.64
361.294	335.39
361.676	343.07
362.057	342.17
362.439	338.32
362.821	327.25
363.203	329.74
363.584	318.21
363.966	330.42
364.348	299
364.729	317.53
365.111	308.27
365.493	320.92
365.874	306.01
366.256	310.08
366.637	320.47
367.019	317.31
367.4	328.83
367.781	299
368.163	304.43
368.544	317.76
368.925	328.38
369.306	332.22
369.688	318.44
370.069	306.91
370.45	292.22
370.831	323.86
371.212	325.44
371.593	314.37
371.974	309.85
372.355	315.95
372.736	318.21
373.117	302.62
373.498	308.72
373.879	309.85
374.26	302.62
374.641	324.99
375.021	301.49
375.402	327.25
375.783	297.2
376.163	338.32
376.544	332.9
376.925	322.51
377.305	329.51
377.686	308.95
378.066	323.86
378.447	319.79
378.827	328.38
379.208	311.43
379.588	327.7
379.968	330.42
380.349	321.83
380.729	323.18
381.109	341.49
381.489	338.1
381.87	332.67
382.25	337.87
382.63	334.03
383.01	346.23
383.39	341.49
383.77	353.24
384.15	351.43
384.53	324.31
384.91	335.61
385.29	348.49
385.67	360.92
386.049	335.84
386.429	348.49
386.809	351.88
387.189	359.79
387.568	358.21
387.948	355.95
388.328	370.41
388.707	367.02
389.087	340.81
389.466	349.62
389.846	379.68
390.225	340.36
390.605	367.48
390.984	363.41
391.363	376.06
391.743	371.09
392.122	372.22
392.501	371.32
392.881	386.01
393.26	350.75
393.639	381.26
394.018	387.36
394.397	391.2
394.776	391.88
395.155	396.4
395.534	371.54
395.913	373.58
396.292	392.33
396.671	394.82
397.05	397.98
397.429	384.88
397.808	384.2
398.186	417.64
398.565	406.8
398.944	403.41
399.323	407.7
399.701	384.2
400.08	416.74
400.458	423.75
400.837	413.8
401.215	409.51
401.594	411.54
401.972	426.68
402.351	406.35
402.729	440.47
403.107	422.84
403.486	444.31
403.864	441.82
404.242	434.59
404.62	430.3
404.999	438.66
405.377	432.56
405.755	441.82
406.133	430.53
406.511	446.8
406.889	454.48
407.267	438.21
407.645	451.09
408.023	459.68
408.401	471.65
408.779	437.76
409.156	449.96
409.534	465.1
409.912	475.5
410.29	475.72
410.667	452.9
411.045	472.33
411.422	484.31
411.8	489.96
412.178	474.14
412.555	501.26
412.933	480.47
413.31	484.54
413.687	495.61
414.065	508.72
414.442	508.94
414.819	513.24
415.197	499
415.574	533.8
415.951	516.4
416.328	510.52
416.705	524.76
417.082	528.15
417.46	534.93
417.837	518.66
418.214	518.21
418.591	544.65
418.967	537.42
419.344	544.19
419.721	549.17
420.098	523.4
420.475	529.73
420.852	558.43
421.228	573.57
421.605	561.37
421.982	549.84
422.358	561.6
422.735	564.08
423.111	569.05
423.488	592.78
423.864	592.1
424.241	588.49
424.617	584.65
424.994	593.01
425.37	626.45
425.746	589.84
426.123	595.49
426.499	615.15
426.875	619.9
427.251	621.25
427.627	636.17
428.003	634.59
428.379	625.1
428.756	654.93
429.132	660.12
429.507	663.06
429.883	651.31
430.259	681.59
430.635	677.3
431.011	667.58
431.387	691.31
431.763	686.11
432.138	699.22
432.514	703.74
432.89	698.77
433.265	687.47
433.641	723.63
434.016	722.04
434.392	767.24
434.767	753
435.143	734.25
435.518	730.86
435.894	764.98
436.269	769.5
436.644	794.36
437.02	785.32
437.395	764.53
437.77	789.16
438.145	807.24
438.52	787.13
438.895	793
439.271	815.83
439.646	819.22
440.021	834.13
440.395	835.71
440.77	836.39
441.145	819.44
441.52	826.67
441.895	868.25
442.27	882.49
442.645	876.62
443.019	862.83
443.394	876.39
443.769	890.17
444.143	864.86
444.518	889.95
444.892	905.99
445.267	901.25
445.641	884.98
446.016	920.91
446.39	898.31
446.764	940.12
447.139	927.69
447.513	920.68
447.887	945.99
448.262	925.2
448.636	960.91
449.01	954.13
449.384	957.52
449.758	970.4
450.132	990.51
450.506	970.17
450.88	995.93
451.254	994.35
451.628	991.87
452.002	1023.73
452.376	1037.97
452.75	1036.39
453.123	1026.89
453.497	1045.65
453.871	1074.35
454.244	1083.84
454.618	1078.64
454.992	1089.27
455.365	1099.21
455.739	1135.14
456.112	1147.12
456.486	1156.83
456.859	1155.25
457.232	1159.77
457.606	1144.63
457.979	1211.3
458.352	1174.91
458.725	1229.37
459.099	1225.98
459.472	1235.48
459.845	1284.97
460.218	1298.75
460.591	1266.66
460.964	1285.19
461.337	1319.77
461.71	1317.96
462.083	1351.41
462.456	1396.15
462.829	1374.91
463.201	1411.52
463.574	1417.39
463.947	1436.37
464.32	1464.4
464.692	1485.86
465.065	1502.59
465.438	1540.33
465.81	1575.13
466.183	1551.63
466.555	1611.96
466.928	1586.65
467.3	1569.93
467.672	1618.06
468.045	1698.97
468.417	1708.91
468.789	1702.58
469.161	1731.73
469.534	1776.48
469.906	1828.91
470.278	1846.53
470.65	1840.88
471.022	1881.11
471.394	1931.28
471.766	1976.93
472.138	1990.94
472.51	2033.87
472.882	2084.27
473.253	2140.31
473.625	2158.62
473.997	2235.22
474.369	2232.51
474.74	2270.03
475.112	2307.09
475.484	2368.1
475.855	2436.35
476.227	2459.85
476.598	2547.08
476.97	2620.07
477.341	2694.42
477.713	2754.08
478.084	2826.85
478.455	2859.61
478.827	2909.56
479.198	3027.52
479.569	3082.66
479.94	3212.15
480.311	3256.44
480.682	3340.96
481.053	3468.64
481.424	3526.04
481.795	3623.44
482.166	3669.99
482.537	3774.39
482.908	3902.52
483.279	3988.17
483.65	4089.41
484.021	4156.76
484.391	4302.74
484.762	4335.28
485.133	4435.84
485.503	4576.63
485.874	4734.82
486.244	4795.16
486.615	5004.42
486.985	5034.92
487.356	5231.53
487.726	5264.75
488.097	5424.29
488.467	5525.08
488.837	5662.03
489.207	5822.93
489.578	5946.31
489.948	6071.28
490.318	6138.4
490.688	6312.86
491.058	6429.92
491.428	6582.91
491.798	6698.16
492.168	6941.09
492.538	6936.34
492.908	7065.61
493.278	7241.65
493.648	7305.6
494.017	7475.99
494.387	7635.99
494.757	7755.08
495.126	7868.3
495.496	7907.39
495.866	8096.09
496.235	8195.29
496.605	8321.84
496.974	8367.27
497.344	8609.07
497.713	8656.52
498.082	8751.21
498.452	8902.85
498.821	9032.11
499.19	9054.03
499.559	9162.5
499.928	9231.2
500.298	9345.32
500.667	9514.35
501.036	9541.02
501.405	9715.03
501.774	9759.32
502.143	9851.07
502.512	9952.08
502.88	9981.01
503.249	10052.65
503.618	10183.49
503.987	10247.22
504.356	10385.52
504.724	10452.18
505.093	10466.19
505.462	10565.85
505.83	10651.27
506.199	10825.28
506.567	10935.33
506.936	10960.19
507.304	11091.71
507.672	11105.5
508.041	11132.62
508.409	11179.17
508.777	11322.89
509.145	11417.81
509.514	11437.92
509.882	11460.97
510.25	11520.63
510.618	11621.64
510.986	11662.77
511.354	11737.12
511.722	11850.11
512.09	11932.82
512.458	11830.45
512.826	12051.01
513.193	12084
513.561	12122.2
513.929	12130.1
514.297	12263.43
514.664	12262.98
515.032	12291.91
515.4	12362.87
515.767	12399.93
516.135	12483.99
516.502	12395.86
516.869	12533.48
517.237	12655.06
517.604	12583.43
517.972	12726.7
518.339	12813.48
518.706	12720.82
519.073	12735.29
519.44	12867.03
519.808	12953.59
520.175	12862.74
520.542	13068.84
520.909	12963.08
521.276	13019.57
521.643	13137.54
522.009	13173.47
522.376	13218.66
522.743	13291.2
523.11	13321.26
523.477	13407.59
523.843	13364.65
524.21	13446.45
524.577	13530.97
524.943	13547.47
525.31	13605.77
525.676	13693.23
526.043	13731.42
526.409	13688.03
526.776	13883.05
527.142	13789.04
527.508	13872.43
527.874	13825.2
528.241	13875.82
528.607	14015.25
528.973	13950.85
529.339	13890.74
529.705	13962.6
530.071	13969.6
530.437	14063.16
530.803	14147
531.169	14082.82
531.535	14028.13
531.901	14027
532.267	14055.7
532.632	14134.35
532.998	14101.13
533.364	14144.97
533.73	14091.86
534.095	14093.67
534.461	14157.4
534.826	14168.24
535.192	14177.51
535.557	14193.1
535.923	14109.94
536.288	14214.34
536.653	14102.26
537.019	14067
537.384	14100.9
537.749	14016.16
538.114	14083.05
538.479	14080.79
538.845	14039.89
539.21	13912.2
539.575	13965.08
539.94	13985.88
540.305	13972.99
540.67	13909.27
541.034	13909.27
541.399	13905.43
541.764	13863.62
542.129	13824.07
542.494	13900.91
542.858	13962.6
543.223	13851.64
543.587	13788.59
543.952	13780.46
544.316	13789.27
544.681	13734.81
545.045	13779.55
545.41	13784.98
545.774	13719.67
546.138	13713.34
546.503	13666.34
546.867	13683.96
547.231	13772.32
547.595	13657.52
547.959	13596.73
548.324	13540.24
548.688	13620.24
549.052	13563.74
549.416	13518.09
549.779	13540.46
550.143	13508.15
550.507	13503.4
550.871	13488.94
551.235	13431.54
551.599	13522.16
551.962	13496.62
552.326	13406.23
552.689	13499.33
553.053	13331.2
553.417	13302.05
553.78	13529.84
554.143	13416.4
554.507	13382.5
554.87	13325.33
555.234	13436.74
555.597	13238.32
555.96	13353.35
556.323	13362.16
556.686	13380.24
557.05	13346.57
557.413	13344.31
557.776	13377.08
558.139	13356.06
558.502	13357.64
558.865	13280.58
559.228	13446.23
559.59	13413.23
559.953	13344.31
560.316	13389.05
560.679	13374.82
561.041	13399
561.404	13495.49
561.767	13437.64
562.129	13456.62
562.492	13472.67
562.854	13419.56
563.217	13520.12
563.579	13517.86
563.941	13563.51
564.304	13522.38
564.666	13583.85
565.028	13672.89
565.39	13583.63
565.753	13601.03
566.115	13666.56
566.477	13634.7
566.839	13655.04
567.201	13786.11
567.563	13680.57
567.925	13760.12
568.287	13654.58
568.648	13730.29
569.01	13723.51
569.372	13810.96
569.734	13759.67
570.095	13829.5
570.457	13880.57
570.819	13875.82
571.18	13866.1
571.542	13992.88
571.903	13975.48
572.265	13931.41
572.626	14076.04
572.987	13979.77
573.349	14040.11
573.71	13978.87
574.071	13955.82
574.432	14037.63
574.794	14102.48
575.155	14039.21
575.516	14041.47
575.877	14156.72
576.238	14151.07
576.599	14203.04
576.96	14141.58
577.32	14146.1
577.681	14274.46
578.042	14204.17
578.403	14200.78
578.763	14172.31
579.124	14273.1
579.485	14243.5
579.845	14242.59
580.206	14254.79
580.566	14172.31
580.927	14199.2
581.287	14280.56
581.648	14270.39
582.008	14255.02
582.368	14151.29
582.728	14214.12
583.089	14192.88
583.449	14200.11
583.809	14181.8
584.169	14217.28
584.529	14113.78
584.889	14302.25
585.249	14215.25
585.609	14160.56
585.969	14235.81
586.329	14115.82
586.688	14167.79
587.048	14182.03
587.408	14115.14
587.768	14147.23
588.127	14134.12
588.487	14100.22
588.846	14098.64
589.206	14074.69
589.565	14063.39
589.925	14169.83
590.284	14077.4
590.643	14134.57
591.003	14117.85
591.362	14126.66
591.721	14054.57
592.08	14095.02
592.44	14224.74
592.799	14103.84
593.158	14061.35
593.517	13977.74
593.876	14015.48
594.235	13939.55
594.593	13996.95
594.952	14053.44
595.311	13982.26
595.67	13983.62
596.029	14053.9
596.387	14051.18
596.746	14057.74
597.104	14059.09
597.463	14003.95
597.822	14055.48
598.18	13984.29
598.538	13928.02
598.897	14016.83
599.255	13927.8
599.613	14173.21
599.972	13996.72
600.33	13991.98
600.688	13945.42
601.046	14063.61
601.404	14030.62
601.762	13986.33
602.12	14027.91
602.478	13954.24
602.836	14134.8
603.194	13984.52
603.552	13960.11
603.91	13944.52
604.268	14080.79
604.625	14048.47
604.983	14072.65
605.341	13945.65
605.698	14088.25
606.056	14042.37
606.413	14043.95
606.771	14064.52
607.128	13990.62
607.485	13957.4
607.843	14069.04
608.2	14176.83
608.557	14185.87
608.914	14104.97
609.272	14112.43
609.629	14213.67
609.986	14248.69
610.343	14179.54
610.7	14215.02
611.057	14176.38
611.414	14210.73
611.771	14254.57
612.127	14130.73
612.484	14230.84
612.841	14261.12
613.198	14274
613.554	14181.35
613.911	14332.31
614.267	14285.53
614.624	14252.08
614.98	14308.13
615.337	14345.19
615.693	14311.06
616.05	14270.39
616.406	14384.06
616.762	14258.41
617.118	14305.87
617.475	14355.13
617.831	14439.87
618.187	14388.12
618.543	14412.3
618.899	14506.31
619.255	14490.49
619.611	14420.21
619.967	14628.8
620.323	14572.53
620.678	14467.67
621.034	14457.95
621.39	14458.18
621.746	14389.03
622.101	14570.27
622.457	14412.08
622.812	14480.33
623.168	14459.76
623.523	14453.66
623.879	14509.7
624.234	14448.01
624.589	14523.71
624.945	14421.12
625.3	14490.04
625.655	14441
626.01	14417.28
626.365	14554.45
626.72	14575.46
627.075	14419.31
627.43	14421.12
627.785	14457.5
628.14	14414.34
628.495	14391.51
628.85	14471.51
629.205	14405.98
629.559	14449.82
629.914	14350.16
630.269	14471.06
630.623	14389.71
630.978	14356.49
631.332	14379.76
631.687	14428.58
632.041	14369.82
632.396	14400.1
632.75	14282.14
633.104	14250.05
633.459	14238.3
633.813	14262.03
634.167	14267.45
634.521	14187
634.875	14248.47
635.229	14195.81
635.583	14136.15
635.937	14137.96
636.291	14045.08
636.645	14129.83
636.999	14076.72
637.352	14175.47
637.706	14008.47
638.06	14134.8
638.413	13981.58
638.767	13978.42
639.121	14034.91
639.474	13972.99
639.828	13885.54
640.181	13885.31
640.534	13935.48
640.888	13871.75
641.241	13815.71
641.594	13912.66
641.947	13890.06
642.301	13856.61
642.654	13839.21
643.007	13853.9
643.36	13871.98
643.713	13888.7
644.066	13946.55
644.419	13794.02
644.771	13767.12
645.124	13619.78
645.477	13565.1
645.83	13524.42
646.182	13449.17
646.535	13394.25
646.888	13426.12
647.24	13349.28
647.593	13451.2
647.945	13395.83
648.298	13350.64
648.65	13349.06
649.002	13337.08
649.355	13301.6
649.707	13308.83
650.059	13268.15
650.411	13566.9
650.763	13562.16
651.115	13720.8
651.467	13706.56
651.819	13708.59
652.171	13645.09
652.523	13671.53
652.875	13590.63
653.227	13598.54
653.578	13616.39
653.93	13535.27
654.282	13528.26
654.633	13564.19
654.985	13615.94
655.337	13543.17
655.688	13617.3
656.039	13648.03
656.391	13570.74
656.742	13607.81
657.094	13626.11
657.445	13630.86
657.796	13573.23
658.147	13586.56
658.498	13580.01
658.849	13671.31
659.2	13657.52
659.551	13561.25
659.902	13638.77
660.253	13566.45
660.604	13535.94
660.955	13565.32
661.306	13527.81
661.656	13585.43
662.007	13602.61
662.358	13541.59
662.708	13637.86
663.059	13582.5
663.409	13580.91
663.76	13644.87
664.11	13582.95
664.461	13654.36
664.811	13686.22
665.161	13695.49
665.511	13675.83
665.862	13619.78
666.212	13716.05
666.562	13634.92
666.912	13705.88
667.262	13684.87
667.612	13637.18
667.962	13617.52
668.312	13747.01
668.662	13658.2
669.011	13697.97
669.361	13604.42
669.711	13585.43
670.06	13644.19
670.41	13540.92
670.76	13500.92
671.109	13604.64
671.459	13542.95
671.808	13520.58
672.157	13592.21
672.507	13497.75
672.856	13411.2
673.205	13566.9
673.554	13587.47
673.904	13466.11
674.253	13518.99
674.602	13485.1
674.951	13319.45
675.3	13293.24
675.649	13448.49
675.998	13375.72
676.346	13359.45
676.695	13387.7
677.044	13293.92
677.393	13412.1
677.741	13373.24
678.09	13350.41
678.438	13323.07
678.787	13349.51
679.135	13345.44
679.484	13228.83
679.832	13296.18
680.181	13266.12
680.529	13211.88
680.877	13261.15
681.225	13128.5
681.573	13299.34
681.922	13205.1
682.27	13095.96
682.618	13132.56
682.966	13042.62
683.314	13116.97
683.661	13012.79
684.009	12992.91
684.357	12951.78
684.705	12956.98
685.053	12863.19
685.4	12835.4
685.748	12843.98
686.095	12803.76
686.443	12707.72
686.79	12712.01
687.138	12815.28
687.485	12840.82
687.832	12790.88
688.18	12699.58
688.527	12642.63
688.874	12634.95
689.221	12637.66
689.568	12593.6
689.915	12585.46
690.262	12540.72
690.609	12508.4
690.956	12437.89
691.303	12435.41
691.65	12355.41
691.997	12322.64
692.344	12308.63
692.69	12212.14
693.037	12240.84
693.383	12131.69
693.73	12162.19
694.077	12069.54
694.423	12061.63
694.769	12008.07
695.116	11933.05
695.462	11925.82
695.808	11902.54
696.155	11961.52
696.501	11788.64
696.847	11779.15
697.193	11696.22
697.539	11758.14
697.885	11649.67
698.231	11604.47
698.577	11604.02
698.923	11537.35
699.269	11402.89
699.614	11423.46
699.96	11338.26
700.306	11328.09
700.651	11357.92
700.997	11323.8
701.342	11214.87
701.688	11253.07
702.033	11229.11
702.379	11104.37
702.724	11140.07
703.069	11119.51
703.415	11015.56
703.76	11029.34
704.105	11016.46
704.45	10927.2
704.795	11001.32
705.14	10837.94
705.485	10827.99
705.83	10802
706.175	10824.15
706.52	10773.76
706.865	10784.83
707.209	10743.02
707.554	10676.13
707.899	10682.91
708.243	10703.93
708.588	10581.9
708.932	10471.39
709.277	10517.27
709.621	10526.98
709.966	10446.08
710.31	10544.84
710.654	10336.71
710.998	10387.33
711.342	10378.06
711.687	10344.62
712.031	10251.74
712.375	10261.45
712.719	10279.98
713.063	10254.9
713.407	10256.93
713.75	10150.04
714.094	10218.97
714.438	10172.42
714.782	10103.49
715.125	10133.55
715.469	10073.66
715.812	9987.79
716.156	10057.84
716.499	10016.04
716.843	9999.77
717.186	9861.69
717.53	9943.27
717.873	9989.37
718.216	9991.18
718.559	9859.2
718.902	9847.9
719.246	9920.9
719.589	9854.23
719.932	9832.99
720.275	9764.29
720.617	9871.41
720.96	9855.59
721.303	9844.06
721.646	9849.49
721.989	9740.34
722.331	9742.6
722.674	9827.57
723.016	9780.79
723.359	9724.97
723.701	9677.74
724.044	9721.58
724.386	9635.26
724.729	9714.12
725.071	9630.96
725.413	9635.93
725.755	9611.75
726.097	9661.24
726.439	9578.99
726.782	9600.45
727.124	9570.85
727.465	9575.82
727.807	9605.88
728.149	9576.27
728.491	9550.51
728.833	9607.23
729.175	9561.58
729.516	9578.99
729.858	9471.19
730.199	9569.72
730.541	9547.57
730.882	9524.3
731.224	9577.86
731.565	9552.32
731.906	9486.56
732.248	9526.33
732.589	9499.21
732.93	9409.72
733.271	9399.78
733.612	9492.66
733.953	9505.77
734.294	9398.2
734.635	9413.57
734.976	9527.91
735.317	9447.01
735.658	9413.57
735.999	9453.79
736.339	9474.13
736.68	9518.65
737.021	9469.61
737.361	9461.47
737.702	9490.85
738.042	9481.13
738.383	9393.91
738.723	9437.52
739.063	9470.29
739.404	9508.7
739.744	9459.21
740.084	9444.07
740.424	9484.52
740.764	9510.29
741.104	9507.8
741.444	9510.51
741.784	9453.11
742.124	9575.37
742.464	9508.03
742.804	9535.6
743.143	9523.39
743.483	9573.11
743.823	9617.85
744.162	9595.48
744.502	9696.04
744.841	9671.19
745.181	9629.38
745.52	9734.69
745.86	9728.81
746.199	9756.16
746.538	9778.3
746.877	9883.16
747.216	9863.72
747.556	9854.68
747.895	9954.34
748.234	9917.51
748.573	10021.91
748.911	10099.42
749.25	10080.89
749.589	10045.19
749.928	10209.7
750.267	10229.59
750.605	10271.85
750.944	10343.71
751.283	10403.82
751.621	10508.45
751.96	10526.31
752.298	10689.46
752.636	10680.88
752.975	10741.67
753.313	10817.14
753.651	11029.57
753.989	11042.22
754.327	11078.83
754.666	11138.27
755.004	11341.65
755.342	11423.23
755.679	11542.32
756.017	11579.38
756.355	11645.82
756.693	11832.71
757.031	11961.97
757.368	12045.81
757.706	12167.39
758.044	12299.14
758.381	12468.17
758.719	12474.05
759.056	12672.46
759.394	12788.39
759.731	12900.93
760.068	13015.51
760.405	13174.15
760.743	13231.54
761.08	13467.47
761.417	13548.6
761.754	13661.59
762.091	13778.87
762.428	13900.91
762.765	14039.89
763.102	14155.59
763.438	14254.57
763.775	14382.25
764.112	14539.98
764.449	14710.38
764.785	14832.18
765.122	14912.4
765.458	15004.38
765.795	15187.2
766.131	15261.77
766.467	15447.76
766.804	15511.71
767.14	15521.65
767.476	15754.64
767.812	15830.35
768.148	15998.03
768.485	15965.71
768.821	16067.63
769.157	16203.67
769.492	16361.18
769.828	16456.77
770.164	16400.05
770.5	16568.41
770.836	16612.7
771.171	16666.48
771.507	16765.01
771.842	16774.5
772.178	16954.84
772.513	17007.49
772.849	17080.94
773.184	17059.24
773.519	17198.67
773.855	17240.25
774.19	17181.5
774.525	17310.31
774.86	17381.72
775.195	17433.69
775.53	17388.95
775.865	17453.13
776.2	17334.26
776.535	17350.98
776.87	17505.1
777.205	17495.16
777.539	17489.06
777.874	17624.65
778.209	17477.53
778.543	17552.34
778.878	17531.77
779.212	17581.49
779.547	17515.5
779.881	17658.1
780.215	17515.5
780.55	17691.77
780.884	17601.83
781.218	17633.69
781.552	17614.71
781.886	17627.14
782.22	17565.22
782.554	17559.34
782.888	17475.73
783.222	17463.07
783.556	17407.03
783.889	17423.3
784.223	17387.14
784.557	17388.5
784.89	17438.89
785.224	17357.54
785.557	17379.46
785.891	17376.29
786.224	17372.45
786.558	17410.64
786.891	17222.4
787.224	17208.39
787.557	17149.86
787.891	17200.93
788.224	17175.85
788.557	17235.51
788.89	17078.68
789.223	17204.1
789.556	17052.46
789.888	17067.38
790.221	16931.11
790.554	16847.95
790.887	16983.99
791.219	16850.21
791.552	16889.53
791.884	16712.81
792.217	16814.28
792.549	16724.79
792.882	16678.01
793.214	16608.18
793.546	16720.94
793.879	16627.84
794.211	16550.33
794.543	16555.07
794.875	16490.44
795.207	16574.73
795.539	16455.64
795.871	16473.04
796.203	16271.92
796.535	16304.46
796.867	16274.85
797.198	16209.77
797.53	16132.03
797.862	16077.57
798.193	16182.43
798.525	16059.72
798.856	16065.14
799.188	15913.28
799.519	15935.65
799.85	15803.23
800.182	15832.83
800.513	15832.38
800.844	15705.15
801.175	15757.35
801.506	15837.35
801.837	15723
802.168	15657.02
802.499	15590.13
802.83	15506.06
803.161	15572.27
803.491	15528.66
803.822	15449.79
804.153	15492.73
804.483	15307.87
804.814	15390.13
805.145	15263.13
805.475	15275.33
805.805	15227.2
806.136	15159.18
806.466	15219.29
806.796	15241.44
807.126	14998.73
807.457	15065.85
807.787	15007.77
808.117	14961.89
808.447	15026.07
808.777	15004.38
809.107	14855.91
809.436	14821.33
809.766	14853.87
810.096	14848.45
810.426	14745.18
810.755	14729.58
811.085	14678.29
811.414	14686.65
811.744	14578.85
812.073	14574.56
812.403	14571.85
812.732	14459.76
813.061	14467.67
813.39	14344.51
813.719	14395.13
814.049	14422.02
814.378	14468.35
814.707	14426.99
815.036	14417.73
815.365	14301.8
815.693	14240.11
816.022	14164.85
816.351	14169.83
816.68	14087.34
817.008	14176.83
817.337	14107
817.665	13971.41
817.994	14096.38
818.322	14016.16
818.651	13869.27
818.979	13984.52
819.307	13985.42
819.636	13917.4
819.964	13867.46
820.292	13911.3
820.62	13809.83
820.948	13811.64
821.276	13913.79
821.604	13801.25
821.932	13882.38
822.259	13855.26
822.587	13806.9
822.915	13787.46
823.243	13892.77
823.57	13785.88
823.898	13831.53
824.225	13790.63
824.553	13736.16
824.88	13877.4
825.207	13837.4
825.535	13686.9
825.862	13807.57
826.189	13763.96
826.516	13887.12
826.843	13906.33
827.17	13837.4
827.497	13824.3
827.824	13811.19
828.151	13872.43
828.478	13779.33
828.805	13886.67
829.131	13752.21
829.458	13773.45
829.785	13710.63
830.111	13700.46
830.438	13785.43
830.764	13697.97
831.09	13728.71
831.417	13703.17
831.743	13778.2
832.069	13781.13
832.395	13743.17
832.722	13766.9
833.048	13735.49
833.374	13744.98
833.7	13682.83
834.026	13770.74
834.351	13746.33
834.677	13695.94
835.003	13718.31
835.329	13678.54
835.654	13657.3
835.98	13603.29
836.306	13644.42
836.631	13624.08
836.956	13600.35
837.282	13575.04
837.607	13504.98
837.932	13551.76
838.258	13531.65
838.583	13573
838.908	13414.59
839.233	13412.56
839.558	13517.64
839.883	13425.66
840.208	13371.43
840.533	13317.64
840.858	13348.83
841.182	13217.76
841.507	13233.58
841.832	13215.95
842.156	13173.47
842.481	13239.45
842.805	13168.72
843.13	13080.59
843.454	13079.23
843.778	13056.18
844.103	12965.79
844.427	12977.99
844.751	12909.75
845.075	12952.68
845.399	12996.75
845.723	12879.92
846.047	12849.63
846.371	12837.88
846.695	12756.98
847.019	12742.52
847.343	12683.54
847.666	12534.16
847.99	12554.73
848.313	12531.22
848.637	12457.55
848.96	12428.63
849.284	12414.17
849.607	12245.58
849.931	12254.85
850.254	12234.06
850.577	12132.36
850.9	11995.65
851.223	12018.7
851.546	11923.78
851.869	11895.76
852.192	11987.96
852.515	11848.98
852.838	11809.89
853.161	11786.39
853.483	11764.01
853.806	11649.44
854.129	11577.58
854.451	11646.5
854.774	11545.04
855.096	11567.86
855.419	11461.87
855.741	11450.8
856.063	11375.55
856.385	11402.21
856.708	11319.5
857.03	11330.13
857.352	11329.22
857.674	11304.82
857.996	11184.14
858.318	11144.37
858.64	11178.27
858.961	11149.57
859.283	11130.13
859.605	11076.57
859.926	11134.2
860.248	11042.9
860.57	10943.47
860.891	10977.82
861.212	10877.93
861.534	10952.51
861.855	10846.75
862.176	10865.51
862.498	10871.83
862.819	10872.74
863.14	10832.51
863.461	10741.44
863.782	10717.26
864.103	10760.2
864.424	10776.02
864.745	10760.2
865.065	10632.52
865.386	10656.02
865.707	10646.98
866.027	10614.21
866.348	10649.92
866.668	10520.88
866.989	10521.33
867.309	10520.43
867.63	10471.39
867.95	10553.88
868.27	10486.08
868.59	10459.41
868.91	10485.63
869.23	10498.96
869.55	10382.81
869.87	10534.67
870.19	10404.73
870.51	10428
870.83	10421
871.15	10345.97
871.469	10317.72
871.789	10266.42
872.109	10342.58
872.428	10255.35
872.748	10256.71
873.067	10300.55
873.386	10204.73
873.706	10228.46
874.025	10212.42
874.344	10120.67
874.663	10131.51
874.982	10185.52
875.301	10101.01
875.62	10142.36
875.939	10084.28
876.258	10082.25
876.577	10032.08
876.896	10013.1
877.214	9986.43
877.533	9999.77
877.852	9997.73
878.17	9997.51
878.489	9952.76
878.807	9949.15
879.125	9920.45
879.444	9990.27
879.762	9885.64
880.08	9988.47
880.398	9855.59
880.716	9825.98
881.034	9790.51
881.352	9737.17
881.67	9840.45
881.988	9759.55
882.306	9772.2
882.624	9749.38
882.941	9676.16
883.259	9664.63
883.577	9578.53
883.894	9558.42
884.212	9618.76
884.529	9594.58
884.846	9536.05
885.164	9515.94
885.481	9489.95
885.798	9579.66
886.115	9448.14
886.432	9477.75
886.75	9371.76
887.067	9413.79
887.383	9384.64
887.7	9349.84
888.017	9328.6
888.334	9309.61
888.651	9306
888.967	9289.5
889.284	9219.9
889.6	9212.67
889.917	9143.52
890.233	9151.43
890.55	9103.97
890.866	9181.48
891.182	9032.33
891.498	9027.36
891.815	9049.96
892.131	8989.85
892.447	8995.72
892.763	8938.78
893.079	8917.76
893.395	8861.26
893.71	8893.81
894.026	8895.16
894.342	8832.79
894.657	8783.3
894.973	8777.42
895.289	8736.52
895.604	8682.74
895.92	8670.31
896.235	8624.66
896.55	8712.34
896.865	8603.19
897.181	8581.27
897.496	8507.6
897.811	8478.9
898.126	8494.95
898.441	8431.22
898.756	8396.64
899.071	8341.96
899.386	8357.77
899.7	8328.85
900.015	8251.34
900.33	8184.9
900.644	8209.76
900.959	8188.29
901.273	8208.17
901.588	8084.11
901.902	8091.34
902.216	8079.82
902.531	8065.58
902.845	8038.23
903.159	7928.63
903.473	7919.14
903.787	7939.93
904.101	7867.39
904.415	7903.55
904.729	7850.22
905.042	7783.78
905.356	7809.54
905.67	7755.76
905.984	7687.28
906.297	7663.33
906.611	7641.41
906.924	7619.49
907.237	7595.53
907.551	7542.65
907.864	7522.32
908.177	7484.35
908.491	7467.4
908.804	7407.07
909.117	7357.12
909.43	7369.33
909.743	7313.96
910.056	7354.64
910.368	7236.9
910.681	7245.71
910.994	7214.53
911.307	7192.83
911.619	7125.94
911.932	7131.14
912.244	7067.87
912.557	7076.9
912.869	7083.46
913.181	7016.11
913.494	7024.48
913.806	6943.57
914.118	6980.18
914.43	6892.73
914.742	6858.6
915.054	6821.09
915.366	6829
915.678	6800.75
915.99	6803.24
916.302	6765.95
916.613	6660.19
916.925	6730.47
917.236	6726.18
917.548	6591.95
917.859	6616.8
918.171	6559.18
918.482	6575.22
918.794	6508.56
919.105	6553.75
919.416	6451.16
919.727	6493.64
920.038	6491.83
920.349	6388.56
920.66	6386.98
920.971	6363.93
921.282	6329.58
921.593	6272.41
921.903	6284.61
922.214	6254.78
922.525	6262.46
922.835	6226.98
923.146	6179.07
923.456	6150.38
923.767	6134.56
924.077	6141.34
924.387	6109.7
924.697	6042.13
925.008	6048.91
925.318	6023.82
925.628	5979.31
925.938	5990.83
926.248	5909.7
926.558	5842.59
926.867	5931.62
927.177	5810.27
927.487	5815.92
927.796	5786.54
928.106	5757.84
928.416	5758.29
928.725	5769.14
929.034	5719.43
929.344	5721.01
929.653	5720.33
929.962	5619.99
930.271	5614.8
930.581	5577.96
930.89	5582.03
931.199	5514.91
931.508	5523.72
931.817	5502.03
932.125	5528.47
932.434	5496.83
932.743	5451.41
933.051	5436.95
933.36	5386.33
933.669	5361.7
933.977	5335.93
934.286	5319.21
934.594	5365.76
934.902	5302.04
935.21	5275.6
935.519	5196.5
935.827	5209.38
936.135	5254.81
936.443	5167.35
936.751	5109.5
937.059	5195.82
937.367	5138.88
937.674	5129.84
937.982	5087.8
938.29	5012.78
938.597	5002.38
938.905	5005.09
939.213	4981.82
939.52	4929.16
939.827	4986.79
940.135	4907.7
940.442	4906.79
940.749	4897.3
941.056	4870.18
941.363	4818.88
941.67	4836.51
941.977	4806.91
942.284	4755.38
942.591	4809.39
942.898	4707.7
943.205	4718.77
943.511	4678.32
943.818	4653.24
944.125	4641.71
944.431	4589.74
944.738	4590.64
945.044	4632.67
945.35	4560.36
945.657	4547.71
945.963	4541.15
946.269	4488.95
946.575	4479.68
946.881	4495.73
947.187	4458.44
947.493	4453.24
947.799	4418.9
948.105	4338.22
948.41	4367.6
948.716	4362.4
949.022	4360.82
949.327	4340.25
949.633	4306.13
949.938	4293.7
950.244	4277.88
950.549	4274.04
950.854	4236.53
951.16	4182.97
951.465	4252.8
951.77	4186.58
952.075	4164.89
952.38	4147.72
952.685	4158.79
952.99	4128.28
953.294	4136.19
953.599	4062.07
953.904	4048.96
954.209	4003.76
954.513	4042.86
954.818	4020.26
955.122	4014.61
955.426	3957.89
955.731	3999.92
956.035	3916.99
956.339	3924.22
956.643	3878.57
956.948	3881.51
957.252	3841.28
957.556	3854.16
957.86	3841.74
958.163	3874.73
958.467	3801.74
958.771	3809.65
959.075	3765.13
959.378	3747.95
959.682	3749.08
959.985	3755.18
960.289	3728.74
960.592	3662.08
960.896	3691.23
961.199	3678.35
961.502	3658.92
961.805	3636.54
962.108	3589.54
962.411	3620.27
962.714	3540.27
963.017	3542.76
963.32	3564
963.623	3521.97
963.926	3529.2
964.228	3537.56
964.531	3471.12
964.833	3517.68
965.136	3476.55
965.438	3436.77
965.741	3429.32
966.043	3446.27
966.345	3419.15
966.648	3372.59
966.95	3357
967.252	3339.83
967.554	3337.57
967.856	3348.41
968.158	3309.32
968.46	3307.96
968.761	3287.4
969.063	3264.8
969.365	3282.2
969.666	3263.9
969.968	3234.07
970.269	3220.96
970.571	3214.41
970.872	3207.4
971.174	3198.81
971.475	3220.51
971.776	3160.17
972.077	3166.95
972.378	3105.26
972.679	3139.38
972.98	3141.64
973.281	3064.58
973.582	3093.96
973.883	3070.46
974.183	3068.65
974.484	3058.93
974.785	3043.34
975.085	3013.51
975.386	2998.37
975.686	2974.64
975.986	2942.78
976.287	2967.18
976.587	2907.97
976.887	2924.92
977.187	2939.39
977.487	2911.59
977.787	2882.66
978.087	2885.6
978.387	2871.14
978.687	2849.9
978.987	2828.88
979.286	2799.05
979.586	2801.31
979.885	2809.45
980.185	2786.62
980.484	2766.28
980.784	2805.83
981.083	2749.11
981.382	2739.39
981.682	2713.63
981.981	2704.14
982.28	2696
982.579	2668.21
982.878	2660.3
983.177	2654.65
983.475	2689.9
983.774	2677.7
984.073	2613.29
984.372	2618.49
984.67	2613.74
984.969	2629.79
985.267	2592.73
985.566	2599.51
985.864	2587.76
986.162	2547.98
986.461	2531.49
986.759	2520.87
987.057	2490.58
987.355	2491.71
987.653	2510.7
987.951	2480.64
988.249	2500.3
988.547	2495.56
988.844	2452.85
989.142	2450.81
989.44	2448.78
989.737	2449
990.035	2380.53
990.332	2376.24
990.63	2383.47
990.927	2352.06
991.224	2355.45
991.521	2354.54
991.819	2319.52
992.116	2335.11
992.413	2341.21
992.71	2276.13
993.006	2283.58
993.303	2265.73
993.6	2290.59
993.897	2284.26
994.193	2260.08
994.49	2266.18
994.787	2223.25
995.083	2247.43
995.379	2215.79
995.676	2213.53
995.972	2210.37
996.268	2176.92
996.565	2145.73
996.861	2179.63
997.157	2160.42
997.453	2152.74
997.749	2149.58
998.044	2141.44
998.34	2115.68
998.636	2095.34
998.932	2083.82
999.227	2081.78
999.523	2054.21
999.818	2051.05
1000.114	2055.57
1000.409	2032.29
1000.704	2006.53
1001	2019.86
1001.295	2015.34
1001.59	1972.86
1001.885	2006.53
1002.18	1984.83
1002.475	1943.93
1002.77	1955.23
1003.065	1944.38
1003.359	1950.71
1003.654	1916.14
1003.949	1911.16
1004.243	1912.97
1004.538	1898.74
1004.832	1877.94
1005.127	1911.39
1005.421	1851.96
1005.715	1815.12
1006.009	1807.44
1006.304	1836.14
1006.598	1805.18
1006.892	1801.79
1007.186	1768.8
1007.48	1790.72
1007.773	1780.09
1008.067	1796.82
1008.361	1737.16
1008.655	1736.25
1008.948	1722.92
1009.242	1721.34
1009.535	1679.76
1009.829	1702.58
1010.122	1719.53
1010.415	1678.4
1010.708	1694.22
1011.001	1682.02
1011.295	1650.83
1011.588	1660.32
1011.881	1616.93
1012.173	1634.79
1012.466	1605.41
1012.759	1618.06
1013.052	1592.75
1013.344	1587.11
1013.637	1568.35
1013.93	1578.74
1014.222	1553.43
1014.514	1552.08
1014.807	1567.22
1015.099	1524.06
1015.391	1508.46
1015.683	1540.33
1015.976	1512.76
1016.268	1498.75
1016.56	1475.7
1016.851	1504.17
1017.143	1481.8
1017.435	1479.76
1017.727	1478.86
1018.018	1444.96
1018.31	1431.86
1018.602	1431.18
1018.893	1410.84
1019.185	1432.53
1019.476	1403.38
1019.767	1385.08
1020.058	1373.1
1020.35	1383.49
1020.641	1377.85
1020.932	1330.16
1021.223	1349.82
1021.514	1332.42
1021.804	1344.4
1022.095	1319.54
1022.386	1322.48
1022.677	1327.22
1022.967	1324.29
1023.258	1285.87
1023.548	1274.35
1023.839	1279.99
1024.129	1268.7
1024.419	1264.85
1024.709	1262.82
1025	1253.1
1025.29	1227.79
1025.58	1221.47
1025.87	1221.47
1026.16	1201.8
1026.449	1239.54
1026.739	1197.28
1027.029	1176.49
1027.319	1190.51
1027.608	1171.75
1027.898	1190.73
1028.187	1183.95
1028.477	1151.64
1028.766	1161.58
1029.055	1127.68
1029.344	1158.19
1029.634	1120.9
1029.923	1129.04
1030.212	1104.18
1030.501	1098.76
1030.79	1092.88
1031.078	1064.41
1031.367	1099.43
1031.656	1098.76
1031.945	1066.89
1032.233	1079.77
1032.522	1050.62
1032.81	1090.17
1033.099	1050.17
1033.387	990.74
1033.675	1046.55
1033.963	1048.81
1034.251	1011.75
1034.54	1008.14
1034.828	1000
1035.116	993.67
1035.403	985.54
1035.691	973.34
1035.979	981.7
1036.267	968.59
1036.554	983.73
1036.842	961.81
1037.129	949.16
1037.417	946.9
1037.704	943.51
1037.992	917.07
1038.279	940.34
1038.566	925.43
1038.853	925.43
1039.14	925.43
