Data from hue_26_FLMS001491_00024.txt Node
Date: Tue Feb 07 17:13:46 GMT 2017
User: dcchb
Spectrometer: FLMS00149
Trigger mode: 0
Integration Time (sec): 2.000000E-2
Scans to average: 10
Electric dark correction enabled: true
Nonlinearity correction enabled: false
Boxcar width: 0
XAxis mode: Wavelengths
Number of Pixels in Spectrum: 2048
>>>>>Begin Spectral Data<<<<<
341.393	-13.35
341.776	-13.35
342.16	-13.35
342.543	-58.54
342.927	-55.15
343.31	-71.88
343.693	-54.93
344.077	-77.75
344.46	-69.16
344.843	-37.08
345.226	-40.47
345.61	-31.2
345.993	-6.12
346.376	2.7
346.759	-0.47
347.142	18.52
347.525	48.8
347.908	48.8
348.291	80.21
348.674	77.05
349.057	112.98
349.44	143.48
349.823	146.42
350.206	181.22
350.588	187.33
350.971	189.59
351.354	223.71
351.737	255.35
352.119	244.73
352.502	268.68
352.884	289.47
353.267	269.36
353.65	297.83
354.032	294.89
354.414	304.61
354.797	311.84
355.179	323.82
355.562	321.79
355.944	338.28
356.326	322.46
356.709	314.55
357.091	319.07
357.473	327.43
357.855	325.63
358.238	348
358.62	336.02
359.002	345.97
359.384	350.71
359.766	328.79
360.148	322.69
360.53	324.72
360.912	342.12
361.294	326.3
361.676	336.25
362.057	322.24
362.439	335.12
362.821	321.56
363.203	355
363.584	318.85
363.966	341.45
364.348	328.56
364.729	316.14
365.111	331.95
365.493	322.69
365.874	303.93
366.256	315.91
366.637	319.75
367.019	319.75
367.4	315.68
367.781	331.95
368.163	306.64
368.544	323.14
368.925	314.55
369.306	324.95
369.688	312.52
370.069	323.14
370.45	321.11
370.831	298.28
371.212	289.7
371.593	315.91
371.974	326.98
372.355	308.45
372.736	299.64
373.117	313.42
373.498	328.34
373.879	320.66
374.26	301.67
374.641	325.4
375.021	333.54
375.402	317.94
375.783	327.66
376.163	324.27
376.544	322.46
376.925	341.22
377.305	316.81
377.686	330.82
378.066	330.37
378.447	339.64
378.827	333.54
379.208	349.81
379.588	321.11
379.968	323.14
380.349	322.69
380.729	339.86
381.109	326.08
381.489	349.58
381.87	342.35
382.25	328.11
382.63	341.9
383.01	330.37
383.39	327.21
383.77	355.46
384.15	349.58
384.53	351.62
384.91	358.62
385.29	346.42
385.67	361.56
386.049	358.85
386.429	351.84
386.809	359.3
387.189	350.49
387.568	362.69
387.948	374.44
388.328	364.5
388.707	348.23
389.087	339.86
389.466	384.16
389.846	359.3
390.225	366.98
390.605	387.77
390.984	364.04
391.363	371.05
391.743	364.5
392.122	358.17
392.501	372.86
392.881	383.93
393.26	377.15
393.639	358.62
394.018	351.39
394.397	393.65
394.776	357.72
395.155	378.51
395.534	366.98
395.913	390.26
396.292	380.99
396.671	393.87
397.05	389.35
397.429	383.7
397.808	382.8
398.186	397.26
398.565	383.03
398.944	406.98
399.323	403.59
399.701	398.85
400.08	386.42
400.458	402.46
400.837	424.16
401.215	374.89
401.594	391.61
401.972	390.94
402.351	395.23
402.729	399.98
403.107	418.73
403.486	395.23
403.864	415.12
404.242	416.47
404.62	417.15
404.999	398.62
405.377	392.97
405.755	419.18
406.133	432.97
406.511	406.75
406.889	421.67
407.267	414.44
407.645	406.53
408.023	437.71
408.401	430.26
408.779	443.82
409.156	440.88
409.534	432.52
409.912	435.91
410.29	435.23
410.667	442.23
411.045	428
411.422	456.47
411.8	442.69
412.178	456.92
412.555	449.47
412.933	468.67
413.31	453.31
413.687	462.57
414.065	468.22
414.442	473.87
414.819	463.7
415.197	478.17
415.574	491.05
415.951	494.89
416.328	482.23
416.705	482.01
417.082	496.24
417.46	492.85
417.837	496.92
418.214	498.5
418.591	508.45
418.967	502.12
419.344	495.34
419.721	500.99
420.098	494.66
420.475	496.02
420.852	503.48
421.228	520.65
421.605	530.82
421.982	524.94
422.358	530.82
422.735	530.14
423.111	544.6
423.488	549.8
423.864	535.34
424.241	534.44
424.617	558.39
424.994	552.51
425.37	558.39
425.746	536.02
426.123	560.2
426.499	577.82
426.875	577.6
427.251	568.11
427.627	575.56
428.003	588.9
428.379	562.23
428.756	592.06
429.132	592.06
429.507	577.6
429.883	587.77
430.259	624.15
430.635	591.61
431.011	594.32
431.387	592.06
431.763	606.75
432.138	621.44
432.514	652.17
432.89	642
433.265	631.16
433.641	654.66
434.016	658.5
434.392	628.9
434.767	674.09
435.143	657.37
435.518	648.1
435.894	670.93
436.269	693.98
436.644	688.1
437.02	699.63
437.395	695.33
437.77	705.73
438.145	698.27
438.52	692.62
438.895	705.28
439.271	715.45
439.646	745.95
440.021	736.69
440.395	753.19
440.77	751.38
441.145	722.9
441.52	749.8
441.895	742.11
442.27	725.39
442.645	753.64
443.019	736.92
443.394	752.06
443.769	744.83
444.143	747.76
444.518	778.95
444.892	780.08
445.267	772.85
445.641	775.33
446.016	774.88
446.39	775.33
446.764	790.25
447.139	773.52
447.513	803.35
447.887	790.7
448.262	806.29
448.636	804.94
449.01	812.85
449.384	826.63
449.758	807.65
450.132	801.32
450.506	823.02
450.88	837.03
451.254	828.44
451.628	861.66
452.002	817.14
452.376	848.1
452.75	893.52
453.123	860.3
453.497	872.28
453.871	909.11
454.244	911.6
454.618	917.93
454.992	916.35
455.365	935.78
455.739	957.47
456.112	934.88
456.486	952.28
456.859	956.34
457.232	1002.22
457.606	983.69
457.979	989.56
458.352	1003.8
458.725	1026.63
459.099	1039.28
459.472	1032.95
459.845	1045.83
460.218	1040.18
460.591	1043.12
460.964	1057.13
461.337	1081.99
461.71	1082.9
462.083	1099.17
462.456	1110.01
462.829	1084.03
463.201	1097.58
463.574	1131.26
463.947	1146.17
464.32	1168.09
464.692	1181.42
465.065	1193.63
465.438	1198.82
465.81	1223.91
466.183	1229.33
466.555	1245.6
466.928	1263.91
467.3	1264.36
467.672	1285.38
468.045	1300.74
468.417	1302.32
468.789	1303.45
469.161	1346.17
469.534	1361.31
469.906	1375.54
470.278	1395.43
470.65	1413.06
471.022	1415.09
471.394	1463.45
471.766	1461.42
472.138	1467.07
472.51	1521.53
472.882	1572.15
473.253	1569.89
473.625	1601.53
473.997	1626.84
474.369	1647.63
474.74	1651.47
475.112	1686.72
475.484	1712.94
475.855	1738.47
476.227	1779.37
476.598	1792.26
476.97	1791.35
477.341	1870.67
477.713	1919.94
478.084	1901.4
478.455	1982.08
478.827	2013.04
479.198	2019.82
479.569	2053.72
479.94	2114.51
480.311	2149.76
480.682	2208.74
481.053	2226.14
481.424	2300.49
481.795	2322.86
482.166	2358.57
482.537	2423.2
482.908	2500.26
483.279	2460.03
483.65	2521.5
484.021	2603.76
484.391	2618
484.762	2675.62
485.133	2674.49
485.503	2725.11
485.874	2761.04
486.244	2837.88
486.615	2879.91
486.985	2899.12
487.356	2985.9
487.726	3055.72
488.097	3070.19
488.467	3139.34
488.837	3220.92
489.207	3255.72
489.578	3304.31
489.948	3350.86
490.318	3367.35
490.688	3396.96
491.058	3444.87
491.428	3561.02
491.798	3554.69
492.168	3637.63
492.538	3640.57
492.908	3719.89
493.278	3791.52
493.648	3798.98
494.017	3839.21
494.387	3904.06
494.757	3934.35
495.126	3998.52
495.496	4012.99
495.866	4040.33
496.235	4068.13
496.605	4104.74
496.974	4195.58
497.344	4244.39
497.713	4227.9
498.082	4315.35
498.452	4259.53
498.821	4326.43
499.19	4381.57
499.559	4418.4
499.928	4457.95
500.298	4498.4
500.667	4533.43
501.036	4531.39
501.405	4577.04
501.774	4597.83
502.143	4631.95
502.512	4634.67
502.88	4703.14
503.249	4681.44
503.618	4741.33
503.987	4763.25
504.356	4779.75
504.724	4845.73
505.093	4851.38
505.462	4882.8
505.83	4873.98
506.199	4920.76
506.567	4963.47
506.936	4965.96
507.304	5037.14
507.672	5035.33
508.041	5051.83
508.409	5122.56
508.777	5140.19
509.145	5149.68
509.514	5171.6
509.882	5187.19
510.25	5198.04
510.618	5220.19
510.986	5244.82
511.354	5357.13
511.722	5304.93
512.09	5382.67
512.458	5388.77
512.826	5406.62
513.193	5402.1
513.561	5488.88
513.929	5487.75
514.297	5536.11
514.664	5551.48
515.032	5543.34
515.4	5585.83
515.767	5592.38
516.135	5660.18
516.502	5582.44
516.869	5727.07
517.237	5705.15
517.604	5683.45
517.972	5739.72
518.339	5742.89
518.706	5771.59
519.073	5766.16
519.44	5863.11
519.808	5871.47
520.175	5846.84
520.542	5933.62
520.909	5957.57
521.276	5922.32
521.643	5976.33
522.009	5967.74
522.376	6001.18
522.743	6064.46
523.11	6068.3
523.477	6198.01
523.843	6217.68
524.21	6217.22
524.577	6231.23
524.943	6272.59
525.31	6315.3
525.676	6390.78
526.043	6424.9
526.409	6454.05
526.776	6463.32
527.142	6432.81
527.508	6530.21
527.874	6561.85
528.241	6606.82
528.607	6598
528.973	6689.98
529.339	6694.73
529.705	6769.07
530.071	6716.65
530.437	6813.37
530.803	6826.7
531.169	6883.42
531.535	6835.51
531.901	6873.25
532.267	6895.62
532.632	7041.16
532.998	6980.14
533.364	7109.63
533.73	7093.36
534.095	7105.56
534.461	7185.56
534.826	7210.19
535.192	7183.53
535.557	7246.35
535.923	7268.27
536.288	7284.54
536.653	7314.82
537.019	7346.23
537.384	7376.97
537.749	7417.64
538.114	7434.59
538.479	7346.69
538.845	7480.02
539.21	7469.39
539.575	7501.03
539.94	7536.74
540.305	7595.49
540.67	7556.62
541.034	7633.68
541.399	7705.55
541.764	7639.11
542.129	7747.58
542.494	7709.84
542.858	7801.36
543.223	7827.58
543.587	7858.76
543.952	7875.03
544.316	7874.13
544.681	7898.54
545.045	7992.54
545.41	8040
545.774	8016.95
546.138	8016.5
546.503	8077.29
546.867	8113.9
547.231	8138.75
547.595	8182.82
547.959	8201.35
548.324	8221.01
548.688	8206.55
549.052	8289.03
549.416	8311.63
549.779	8316.15
550.143	8333.55
550.507	8400.22
550.871	8393.21
551.235	8403.61
551.599	8483.83
551.962	8481.8
552.326	8599.31
552.689	8602.47
553.053	8532.42
553.417	8527.45
553.78	8680.66
554.143	8625.97
554.507	8705.29
554.87	8738.29
555.234	8839.53
555.597	8738.74
555.96	8794.78
556.323	8811.73
556.686	8834.1
557.05	8924.27
557.413	8919.53
557.776	8930.37
558.139	8971.05
558.502	9006.53
558.865	8961.11
559.228	9109.58
559.59	9072.52
559.953	9090.59
560.316	9228.9
560.679	9201.1
561.041	9227.99
561.404	9285.84
561.767	9324.71
562.129	9322
562.492	9374.65
562.854	9406.74
563.217	9347.54
563.579	9459.4
563.941	9449.45
564.304	9497.59
564.666	9503.24
565.028	9570.81
565.39	9667.08
565.753	9630.69
566.115	9735.32
566.477	9675.21
566.839	9809.67
567.201	9754.76
567.563	9735.1
567.925	9849.22
568.287	9869.78
568.648	9889.44
569.01	9919.95
569.372	10011.7
569.734	10000.17
570.095	10091.25
570.457	10067.52
570.819	10166.05
571.18	10219.38
571.542	10260.06
571.903	10270.45
572.265	10354.74
572.626	10392.71
572.987	10391.58
573.349	10498.47
573.71	10576.2
574.071	10651.23
574.432	10618.69
574.794	10725.35
575.155	10773.71
575.516	10834.05
575.877	10922.64
576.238	10967.38
576.599	11067.72
576.96	11123.31
577.32	11194.49
577.681	11263.64
578.042	11389.29
578.403	11493.47
578.763	11522.17
579.124	11643.97
579.485	11700.7
579.845	11887.81
580.206	11911.54
580.566	12081.48
580.927	12159.44
581.287	12345.65
581.648	12324.86
582.008	12562.82
582.368	12698.64
582.728	12871.29
583.089	13033.54
583.449	13199.64
583.809	13401.22
584.169	13531.83
584.529	13624.71
584.889	13868.77
585.249	14000.07
585.609	14252.72
585.969	14433.05
586.329	14727.73
586.688	14849.99
587.048	15139.47
587.408	15250.66
587.768	15451.56
588.127	15724.54
588.487	15892.45
588.846	16266.9
589.206	16435.26
589.565	16646.33
589.925	17021.91
590.284	17228.23
590.643	17450.15
591.003	17776.24
591.362	18123.35
591.721	18318.15
592.08	18534.19
592.44	18952.71
592.799	19219.82
593.158	19384.56
593.517	19718.79
593.876	20070.42
594.235	20256.4
594.593	20526
594.952	20882.83
595.311	21150.39
595.67	21443.72
596.029	21898.62
596.387	22167.31
596.746	22510.35
597.104	22603.23
597.463	22933.85
597.822	23478.24
598.18	23604.34
598.538	23920.26
598.897	24292.45
599.255	24316.63
599.613	25021.25
599.972	25191.41
600.33	25445.42
600.688	25690.84
601.046	25983.48
601.404	26450.14
601.762	26641.32
602.12	27037.69
602.478	27251.92
602.836	27615.98
603.194	27656.43
603.552	27904.79
603.91	28147.95
604.268	28596.52
604.625	28742.96
604.983	29133.91
605.341	29178.2
605.698	29532.77
606.056	29884.62
606.413	30107.22
606.771	30512.63
607.128	30645.73
607.485	30734.32
607.843	31052.05
608.2	31379.95
608.557	31651.58
608.914	31724.8
609.272	32211.79
609.629	32387.61
609.986	32634.16
610.343	32826.02
610.7	33275.5
611.057	33288.83
611.414	33249.73
611.771	33701.92
612.127	34069.82
612.484	33982.37
612.841	34376.03
613.198	34537.16
613.554	34698.28
613.911	34960.2
614.267	35070.7
614.624	35285.16
614.98	35534.64
615.337	35745.94
615.693	35897.35
616.05	36086.27
616.406	36235.42
616.762	36283.33
617.118	36416.2
617.475	36589.76
617.831	36755.86
618.187	36910.43
618.543	37184.09
618.899	37480.13
619.255	37420.92
619.611	37470.64
619.967	37722.16
620.323	38017.29
620.678	37806.9
621.034	37922.83
621.39	38210.73
621.746	38013
622.101	38798.06
622.457	38497.96
622.812	38589.93
623.168	38672.19
623.523	38784.95
623.879	38950.37
624.234	38721.91
624.589	39036.93
624.945	39050.03
625.3	39232.63
625.655	39383.36
626.01	39506.29
626.365	39510.13
626.72	39485.5
627.075	39559.17
627.43	39632.16
627.785	39596.23
628.14	39851.59
628.495	39861.31
628.85	39945.38
629.205	39838.26
629.559	40123.45
629.914	39970.91
630.269	40058.59
630.623	39978.6
630.978	39932.95
631.332	40308.76
631.687	40365.48
632.041	40183.11
632.396	40384.46
632.75	40259.72
633.104	40378.81
633.459	40200.06
633.813	40231.24
634.167	40250
634.521	40283.9
634.875	40382.43
635.229	40366.16
635.583	40221.98
635.937	40465.14
636.291	40281.19
636.645	40351.02
636.999	40370.9
637.352	40316.89
637.706	40140.85
638.06	40322.54
638.413	40233.5
638.767	40135.2
639.121	40183.34
639.474	40127.07
639.828	40313.5
640.181	40251.13
640.534	40288.87
640.888	40030.8
641.241	39971.59
641.594	40103.56
641.947	40247.74
642.301	40157.57
642.654	40199.15
643.007	40290.68
643.36	40201.64
643.713	40009.56
644.066	40406.83
644.419	39970.46
644.771	39863.34
645.124	39458.61
645.477	39404.83
645.83	39202.8
646.182	39123.48
646.535	38988.34
646.888	39202.8
647.24	38979.3
647.593	39281.21
647.945	39159.41
648.298	38936.14
648.65	38899.3
649.002	38776.37
649.355	38982.69
649.707	38866.53
650.059	39182.23
650.411	39535.67
650.763	39608.21
651.115	39987.18
651.467	39796.45
651.819	39859.05
652.171	39683.91
652.523	39694.31
652.875	39737.92
653.227	39520.3
653.578	39910.8
653.93	39636.46
654.282	39640.98
654.633	39568.44
654.985	39646.18
655.337	39661.09
655.688	39675.55
656.039	39658.15
656.391	39271.04
656.742	39537.93
657.094	39540.42
657.445	39627.42
657.796	39465.39
658.147	39454.32
658.498	39486.63
658.849	39468.1
659.2	39396.69
659.551	39417.48
659.902	39473.52
660.253	39505.16
660.604	39558.04
660.955	39407.54
661.306	39385.84
661.656	39377.03
662.007	39377.71
662.358	39297.94
662.708	39438.95
663.059	39427.65
663.409	39187.43
663.76	39462.9
664.11	39447.31
664.461	39430.81
664.811	39397.37
665.161	39435.33
665.511	39269.01
665.862	39351.27
666.212	39432.62
666.562	39445.95
666.912	39426.29
667.262	39371.38
667.612	39262.46
667.962	39470.36
668.312	39319.4
668.662	39552.17
669.011	39381.32
669.361	39266.75
669.711	39226.3
670.06	39278.05
670.41	39229.91
670.76	39186.75
671.109	39206.64
671.459	39102.01
671.808	39262.23
672.157	39316.92
672.507	38910.83
672.856	38964.39
673.205	39055.91
673.554	39169.8
673.904	39075.34
674.253	39240.54
674.602	39034.67
674.951	38548.58
675.3	38479.65
675.649	39123.02
675.998	38980.88
676.346	39022.46
676.695	39227.2
677.044	38734.33
677.393	38774.33
677.741	39006.42
678.09	38862.24
678.438	38746.54
678.787	38821.79
679.135	38730.94
679.484	38538.41
679.832	38714.22
680.181	38532.08
680.529	38596.26
680.877	38569.82
681.225	38550.16
681.573	38669.25
681.922	38270.62
682.27	38227.91
682.618	38348.81
682.966	38280.11
683.314	38295.93
683.661	38191.07
684.009	38010.96
684.357	38058.19
684.705	37923.96
685.053	38067.46
685.4	37818.2
685.748	37734.81
686.095	37681.25
686.443	37668.15
686.79	37622.5
687.138	37739.11
687.485	37614.14
687.832	37541.82
688.18	37457.76
688.527	37232.91
688.874	37167.14
689.221	37238.78
689.568	37130.08
689.915	37060.03
690.262	36984.1
690.609	36866.14
690.956	36860.03
691.303	36944.33
691.65	36603.32
691.997	36537.56
692.344	36411.91
692.69	36387.05
693.037	36382.08
693.383	36089.88
693.73	36282.87
694.077	35889.44
694.423	35967.85
694.769	35903.45
695.116	35867.52
695.462	35806.95
695.808	35734.64
696.155	35686.28
696.501	35426.62
696.847	35467.08
697.193	35183.24
697.539	35377.81
697.885	35042.23
698.231	35087.2
698.577	35028.67
698.923	34942.57
699.269	34884.94
699.614	34688.79
699.96	34539.87
700.306	34641.79
700.651	34389.82
700.997	34407.67
701.342	34319.54
701.688	34292.64
702.033	34061.69
702.379	34074.12
702.724	34145.98
703.069	34129.48
703.415	33742.83
703.76	33809.04
704.105	33729.72
704.45	33677.97
704.795	33455.15
705.14	33297.87
705.485	33384.19
705.83	33211.77
706.175	33330.18
706.52	33092
706.865	33148.49
707.209	32934.49
707.554	33007.25
707.899	32980.14
708.243	32755.73
708.588	32767.49
708.932	32463.09
709.277	32597.32
709.621	32562.29
709.966	32275.07
710.31	32356.2
710.654	32120.05
710.998	32107.84
711.342	32082.31
711.687	32049.31
712.031	31945.81
712.375	31896.32
712.719	31953.04
713.063	31825.36
713.407	31994.17
713.75	31779.94
714.094	31784.01
714.438	31588.08
714.782	31648.87
715.125	31425.6
715.469	31633.05
715.812	31376.34
716.156	31142.67
716.499	31146.51
716.843	31232.61
717.186	31141.99
717.53	31297.92
717.873	31099.73
718.216	31001.2
718.559	30992.39
718.902	30793.98
719.246	30886.86
719.589	30701.55
719.932	30588.11
720.275	30596.47
720.617	30556.47
720.96	30538.84
721.303	30543.14
721.646	30372.97
721.989	30288.91
722.331	30454.55
722.674	30378.62
723.016	30254.56
723.359	30254.78
723.701	30215.91
724.044	30043.49
724.386	29968.69
724.729	30101.34
725.071	30051.85
725.413	29827.22
725.755	29859.09
726.097	29787.45
726.439	29670.17
726.782	29673.1
727.124	29808.92
727.465	29564.86
727.807	29607.79
728.149	29525.76
728.491	29480.57
728.833	29545.2
729.175	29438.08
729.516	29292.55
729.858	29317.41
730.199	29353.79
730.541	29212.55
730.882	29201.25
731.224	29307.01
731.565	29075.61
731.906	29089.16
732.248	29183.85
732.589	28866.57
732.93	28796.29
733.271	28863.18
733.612	28893.01
733.953	28903.18
734.294	28758.1
734.635	28625.22
734.976	28649.4
735.317	28594.94
735.658	28565.11
735.999	28617.54
736.339	28425.91
736.68	28527.37
737.021	28500.71
737.361	28259.81
737.702	28546.13
738.042	28468.16
738.383	28414.38
738.723	28412.8
739.063	28273.37
739.404	28289.64
739.744	28254.61
740.084	28149.75
740.424	28188.4
740.764	28149.75
741.104	28150.21
741.444	28050.77
741.784	27946.82
742.124	27978.46
742.464	27944.11
742.804	27948.4
743.143	27852.13
743.483	27817.11
743.823	27678.58
744.162	27685.59
744.502	27708.18
744.841	27728.97
745.181	27670.67
745.52	27600.39
745.86	27538.02
746.199	27525.82
746.538	27367.63
746.877	27417.8
747.216	27478.81
747.556	27357.91
747.895	27307.52
748.234	27320.62
748.573	27226.61
748.911	27155.88
749.25	27286.27
749.589	27180.06
749.928	27095.09
750.267	27364.24
750.605	27038.82
750.944	26907.53
751.283	26874.53
751.621	26928.09
751.96	26794.08
752.298	26838.15
752.636	26808.09
752.975	26774.42
753.313	26610.81
753.651	26773.52
753.989	26475.45
754.327	26501.21
754.666	26450.59
755.004	26533.07
755.342	26407.2
755.679	26400.42
756.017	26228.9
756.355	26241.56
756.693	26138.28
757.031	26153.2
757.368	26112.29
757.706	26047.66
758.044	25934.67
758.381	25946.65
758.719	25920.66
759.056	25859.42
759.394	25714.79
759.731	25660.33
760.068	25678.41
760.405	25511.63
760.743	25541.24
761.08	25399.09
761.417	25318.19
761.754	25273.45
762.091	25323.16
762.428	25127.91
762.765	25033.68
763.102	25053.56
763.438	24942.38
763.775	24849.5
764.112	24810.86
764.449	24897.86
764.785	24729.51
765.122	24619.9
765.458	24530.41
765.795	24440.02
766.131	24475.5
766.467	24449.96
766.804	24193.47
767.14	24139.24
767.476	24254.72
767.812	24032.35
768.148	24052.23
768.485	23903.76
768.821	23775.41
769.157	23762.07
769.492	23675.07
769.828	23555.3
770.164	23395.08
770.5	23338.58
770.836	23432.59
771.171	23142.88
771.507	23264.68
771.842	23040.28
772.178	23024.92
772.513	23031.7
772.849	22816.79
773.184	22682.33
773.519	22762.78
773.855	22687.07
774.19	22559.84
774.525	22480.98
774.86	22457.02
775.195	22337.93
775.53	22345.16
775.865	22323.47
776.2	21973.65
776.535	21891.61
776.87	21921.9
777.205	21845.51
777.539	21783.14
777.874	21806.87
778.209	21556.03
778.543	21520.55
778.878	21434.9
779.212	21410.72
779.547	21252.99
779.881	21470.61
780.215	21156.94
780.55	21197.85
780.884	21026.55
781.218	21041.47
781.552	21064.52
781.886	20921.47
782.22	20797.41
782.554	20652.78
782.888	20552.21
783.222	20456.4
783.556	20270.87
783.889	20342.05
784.223	20184.31
784.557	20181.6
784.89	20278.1
785.224	20029.29
785.557	19975.96
785.891	19851.44
786.224	19824.32
786.558	19811.44
786.891	19621.84
787.224	19541.39
787.557	19573.26
787.891	19462.75
788.224	19476.08
788.557	19493.26
788.89	19293.72
789.223	19246.49
789.556	19113.83
789.888	18999.03
790.221	19094.85
790.554	18887.17
790.887	18855.76
791.219	18769.44
791.552	18847.17
791.884	18667.97
792.217	18636.78
792.549	18551.59
792.882	18479.27
793.214	18448.99
793.546	18441.08
793.879	18320.63
794.211	18239.28
794.543	18242.9
794.875	18235.66
795.207	18227.98
795.539	18120.19
795.871	18092.39
796.203	17881.32
796.535	17883.58
796.867	17673.65
797.198	17704.15
797.53	17794.32
797.862	17607.66
798.193	17612.4
798.525	17520.2
798.856	17502.8
799.188	17421
799.519	17315.69
799.85	17280.66
800.182	17210.38
800.513	17248.35
800.844	17142.59
801.175	17060.1
801.506	17067.79
801.837	17022.82
802.168	16982.82
802.499	16981.91
802.83	16766.1
803.161	16720.68
803.491	16769.04
803.822	16672.54
804.153	16620.57
804.483	16446.33
804.814	16487.24
805.145	16381.25
805.475	16399.33
805.805	16376.5
806.136	16383.06
806.466	16324.98
806.796	16274.36
807.126	16247.24
807.457	16099.22
807.787	16182.84
808.117	15994.14
808.447	15863.52
808.777	16101.71
809.107	15954.14
809.436	15840.7
809.766	15795.95
810.096	15803.64
810.426	15735.84
810.755	15701.49
811.085	15663.08
811.414	15670.08
811.744	15496.75
812.073	15454.72
812.403	15498.79
812.732	15331.79
813.061	15389.64
813.39	15315.52
813.719	15388.06
814.049	15370.66
814.378	15245.69
814.707	15185.12
815.036	15148.97
815.365	15036.2
815.693	14954.62
816.022	14947.84
816.351	15032.36
816.68	14905.36
817.008	14912.59
817.337	14830.1
817.665	14862.19
817.994	14840.05
818.322	14773.16
818.651	14723.67
818.979	14632.6
819.307	14694.06
819.636	14649.77
819.964	14566.61
820.292	14631.69
820.62	14599.83
820.948	14569.09
821.276	14589.21
821.604	14481.41
821.932	14577.46
822.259	14574.52
822.587	14512.6
822.915	14503.33
823.243	14577.91
823.57	14546.04
823.898	14516.89
824.225	14435.09
824.553	14448.42
824.88	14492.26
825.207	14508.53
825.535	14463.11
825.862	14476.89
826.189	14379.04
826.516	14470.79
826.843	14554.18
827.17	14491.13
827.497	14430.57
827.824	14522.99
828.151	14400.96
828.478	14443.22
828.805	14544.91
829.131	14473.28
829.458	14447.06
829.785	14371.36
830.111	14369.1
830.438	14479.61
830.764	14453.17
831.09	14399.83
831.417	14318.48
831.743	14452.71
832.069	14337.24
832.395	14358.93
832.722	14385.6
833.048	14402.55
833.374	14297.01
833.7	14256.11
834.026	14276.9
834.351	14302.66
834.677	14247.07
835.003	14195.09
835.329	14253.17
835.654	14170.23
835.98	14120.74
836.306	14149.44
836.631	14145.6
836.956	14226.73
837.282	14147.86
837.607	14152.16
837.932	14056.79
838.258	14095.66
838.583	14033.52
838.908	13935.66
839.233	13952.61
839.558	13986.51
839.883	13868.1
840.208	13799.4
840.533	13814.99
840.858	13872.62
841.182	13825.84
841.507	13789.91
841.832	13758.04
842.156	13724.6
842.481	13765.5
842.805	13716.01
843.13	13631.27
843.454	13602.34
843.778	13535.45
844.103	13430.59
844.427	13458.16
844.751	13511.04
845.075	13360.31
845.399	13354.21
845.723	13421.1
846.047	13363.02
846.371	13256.59
846.695	13217.04
847.019	13176.59
847.343	13100.43
847.666	13070.38
847.99	12972.98
848.313	12970.04
848.637	12947.89
848.96	12860.21
849.284	12883.49
849.607	12749.71
849.931	12714.91
850.254	12584.51
850.577	12547.23
850.9	12459.32
851.223	12482.14
851.546	12353.79
851.869	12279.66
852.192	12467.45
852.515	12302.26
852.838	12242.6
853.161	12162.6
853.483	12193.34
853.806	12093.68
854.129	12076.5
854.451	12070.18
854.774	12027.69
855.096	11961.71
855.419	11953.57
855.741	11956.06
856.063	11823.4
856.385	11784.99
856.708	11833.8
857.03	11710.86
857.352	11744.76
857.674	11674.48
857.996	11682.39
858.318	11543.19
858.64	11563.75
858.961	11622.28
859.283	11458.22
859.605	11411.44
859.926	11535.28
860.248	11432.45
860.57	11361.27
860.891	11378.22
861.212	11278.79
861.534	11277.43
861.855	11257.32
862.176	11252.8
862.498	11315.62
862.819	11247.15
863.14	11250.99
863.461	11183.19
863.782	11073.14
864.103	11094.16
864.424	11031.33
864.745	11047.38
865.065	10995.18
865.386	10981.62
865.707	10936.42
866.027	10988.85
866.348	10977.55
866.668	11026.36
866.989	10938.91
867.309	10876.76
867.63	10908.4
867.95	10829.98
868.27	10768.29
868.59	10721.06
868.91	10773.49
869.23	10819.14
869.55	10730.1
869.87	10758.12
870.19	10722.19
870.51	10685.13
870.83	10770.1
871.15	10646.71
871.469	10617.79
871.789	10658.46
872.109	10612.36
872.428	10622.76
872.748	10552.48
873.067	10552.25
873.386	10624.57
873.706	10532.82
874.025	10506.83
874.344	10433.38
874.663	10557.22
874.982	10459.6
875.301	10442.88
875.62	10403.33
875.939	10416.21
876.258	10335.53
876.577	10355.19
876.896	10340.73
877.214	10269.09
877.533	10298.02
877.852	10330.56
878.17	10311.35
878.489	10295.08
878.807	10219.15
879.125	10222.32
879.444	10284.24
879.762	10153.84
880.08	10219.15
880.398	10171.7
880.716	10216.67
881.034	10154.75
881.352	10142.32
881.67	10070
881.988	10136.22
882.306	10060.96
882.624	10029.55
882.941	9964.24
883.259	9937.35
883.577	9975.77
883.894	9992.72
884.212	9925.83
884.529	9917.92
884.846	9820.74
885.164	9871.82
885.481	9766.51
885.798	9893.96
886.115	9787.98
886.432	9709.79
886.75	9722.67
887.067	9733.29
887.383	9642.44
887.7	9684.03
888.017	9546.85
888.334	9674.99
888.651	9673.4
888.967	9625.27
889.284	9505.95
889.6	9517.48
889.917	9473.18
890.233	9480.87
890.55	9404.71
890.866	9442.68
891.182	9431.15
891.498	9371.26
891.815	9293.75
892.131	9281.55
892.447	9305.28
892.763	9252.4
893.079	9187.09
893.395	9186.64
893.71	9132.63
894.026	9149.35
894.342	9153.87
894.657	9023.03
894.973	9036.58
895.289	9046.75
895.604	9007.66
895.92	8976.02
896.235	8898.51
896.55	8935.12
896.865	8850.83
897.181	8855.35
897.496	8818.74
897.811	8775.8
898.126	8732.19
898.441	8774.67
898.756	8708.46
899.071	8605.64
899.386	8644.5
899.7	8604.05
900.015	8514.34
900.33	8498.75
900.644	8467.33
900.959	8454
901.273	8436.83
901.588	8417.39
901.902	8280.9
902.216	8340.33
902.531	8341.69
902.845	8282.93
903.159	8244.51
903.473	8230.28
903.787	8213.78
904.101	8181.01
904.415	8153.44
904.729	8095.37
905.042	8120.45
905.356	8056.27
905.67	8013.56
905.984	8028.93
906.297	7976.5
906.611	7854.47
906.924	7981.92
907.237	7889.95
907.551	7846.56
907.864	7809.5
908.177	7755.04
908.491	7734.92
908.804	7705.77
909.117	7659.45
909.43	7623.74
909.743	7548.26
910.056	7571.54
910.368	7586.68
910.681	7494.25
910.994	7461.48
911.307	7482.5
911.619	7383.07
911.932	7430.52
912.244	7358.21
912.557	7375.39
912.869	7313.69
913.181	7237.31
913.494	7315.27
913.806	7179.68
914.118	7207.93
914.43	7140.14
914.742	7188.95
915.054	7112.12
915.366	7092.91
915.678	7029.41
915.99	7033.47
916.302	6969.97
916.613	6920.93
916.925	6933.59
917.236	6964.1
917.548	6849.98
917.859	6917.77
918.171	6845.91
918.482	6785.12
918.794	6761.84
919.105	6747.61
919.416	6680.71
919.727	6695.86
920.038	6717.55
920.349	6643.2
920.66	6610.43
920.971	6573.6
921.282	6560.72
921.593	6507.84
921.903	6507.16
922.214	6458.57
922.525	6426.26
922.835	6413.6
923.146	6353.49
923.456	6348.97
923.767	6333.6
924.077	6297.45
924.387	6297
924.697	6286.6
925.008	6253.38
925.318	6225.36
925.628	6192.59
925.938	6139.94
926.248	6114.85
926.558	6106.27
926.867	6040.96
927.177	6028.08
927.487	5973.39
927.796	5984.91
928.106	5970.9
928.416	5982.43
928.725	5939.49
929.034	5883.45
929.344	5885.93
929.653	5821.53
929.962	5817.69
930.271	5748.76
930.581	5738.37
930.89	5756.44
931.199	5752.83
931.508	5653.85
931.817	5674.41
932.125	5638.26
932.434	5663.79
932.743	5568.43
933.051	5569.1
933.36	5523.23
933.669	5489.79
933.977	5483.46
934.286	5468.54
934.594	5463.57
934.902	5380.18
935.21	5403.46
935.519	5380.18
935.827	5361.2
936.135	5364.82
936.443	5284.14
936.751	5313.74
937.059	5266.74
937.367	5245.27
937.674	5238.72
937.982	5218.15
938.29	5172.51
938.597	5224.26
938.905	5106.74
939.213	5103.81
939.52	5041.66
939.827	5102
940.135	5034.66
940.442	5012.06
940.749	4983.36
941.056	4979.06
941.363	4911.27
941.67	4917.82
941.977	4912.17
942.284	4901.55
942.591	4850.71
942.898	4890.25
943.205	4854.1
943.511	4824.94
943.818	4816.36
944.125	4797.37
944.431	4781.56
944.738	4709.92
945.044	4704.72
945.35	4678.05
945.657	4649.81
945.963	4647.32
946.269	4624.72
946.575	4601.9
946.881	4572.75
947.187	4560.77
947.493	4524.61
947.799	4506.31
948.105	4517.16
948.41	4474.22
948.716	4455.69
949.022	4448.23
949.327	4448.68
949.633	4411.62
949.938	4378.4
950.244	4335.01
950.549	4367.78
950.854	4292.75
951.16	4312.41
951.465	4342.92
951.77	4247.78
952.075	4267.22
952.38	4207.56
952.685	4222.47
952.99	4207.56
953.294	4186.77
953.599	4165.98
953.904	4116.94
954.209	4120.78
954.513	4113.1
954.818	4103.83
955.122	4106.09
955.426	4004.63
955.731	4039.65
956.035	4051.4
956.339	3998.98
956.643	3975.93
956.948	3981.8
957.252	3971.18
957.556	3961.46
957.86	3986.1
958.163	3961.24
958.467	3898.64
958.771	3910.17
959.075	3859.32
959.378	3831.07
959.682	3841.92
959.985	3813.44
960.289	3841.01
960.592	3792.88
960.896	3777.74
961.199	3780.45
961.502	3756.95
961.805	3702.94
962.108	3693.22
962.411	3685.54
962.714	3681.92
963.017	3669.04
963.32	3690.51
963.623	3604.64
963.926	3591.76
964.228	3604.64
964.531	3555.15
964.833	3552.21
965.136	3521.48
965.438	3543.17
965.741	3521.25
966.043	3506.79
966.345	3466.79
966.648	3461.14
966.95	3451.87
967.252	3424.08
967.554	3428.82
967.856	3421.59
968.158	3365.32
968.46	3389.28
968.761	3388.15
969.063	3369.16
969.365	3366.68
969.666	3349.5
969.968	3283.74
970.269	3302.72
970.571	3285.1
970.872	3297.3
971.174	3211.2
971.475	3244.19
971.776	3174.37
972.077	3174.59
972.378	3182.73
972.679	3183.63
972.98	3153.12
973.281	3106.12
973.582	3117.19
973.883	3156.06
974.183	3114.03
974.484	3112.45
974.785	3055.05
975.085	3063.41
975.386	3083.07
975.686	3046.23
975.986	3038.78
976.287	3017.76
976.587	2962.85
976.887	2963.52
977.187	3015.95
977.487	3002.62
977.787	2953.58
978.087	2954.03
978.387	2915.84
978.687	2908.61
978.987	2890.08
979.286	2881.27
979.586	2911.1
979.885	2846.46
980.185	2845.79
980.484	2823.87
980.784	2833.36
981.083	2817.09
981.382	2820.7
981.682	2772.57
981.981	2772.12
982.28	2781.83
982.579	2753.36
982.878	2733.93
983.177	2756.07
983.475	2733.93
983.774	2688.05
984.073	2704.32
984.372	2672.23
984.67	2642.4
984.969	2623.87
985.267	2660.25
985.566	2615.96
985.864	2603.76
986.162	2630.88
986.461	2559.92
986.759	2607.83
987.057	2578.68
987.355	2533.93
987.653	2538.22
987.951	2547.94
988.249	2509.3
988.547	2503.87
988.844	2517.21
989.142	2483.54
989.44	2488.51
989.737	2462.07
990.035	2475.18
990.332	2442.86
990.63	2421.62
990.927	2419.81
991.224	2418.68
991.521	2422.3
991.819	2412.58
992.116	2415.29
992.413	2380.04
992.71	2340.49
993.006	2314.28
993.303	2342.3
993.6	2339.81
993.897	2297.78
994.193	2324.22
994.49	2292.13
994.787	2276.54
995.083	2242.86
995.379	2275.86
995.676	2273.15
995.972	2253.26
996.268	2227.95
996.565	2183.88
996.861	2221.62
997.157	2201.51
997.453	2199.7
997.749	2165.8
998.044	2155.86
998.34	2147.95
998.636	2149.53
998.932	2154.05
999.227	2110.21
999.523	2127.84
999.818	2085.81
1000.114	2078.58
1000.409	2050.1
1000.704	2053.94
1001	2051.01
1001.295	2030.89
1001.59	2033.6
1001.885	2019.59
1002.18	2003.1
1002.475	2019.59
1002.77	1990.67
1003.065	1946.6
1003.359	1974.85
1003.654	1963.32
1003.949	1924.23
1004.243	1951.12
1004.538	1947.73
1004.832	1927.17
1005.127	1908.41
1005.421	1881.29
1005.715	1897.34
1006.009	1889.43
1006.304	1893.5
1006.598	1849.2
1006.892	1850.56
1007.186	1835.87
1007.48	1818.92
1007.773	1833.61
1008.067	1808.07
1008.361	1773.05
1008.655	1776.66
1008.948	1772.82
1009.242	1743.89
1009.535	1750.67
1009.829	1778.24
1010.122	1735.53
1010.415	1731.01
1010.708	1737.79
1011.001	1706.61
1011.295	1698.92
1011.588	1695.76
1011.881	1677.46
1012.173	1656.21
1012.466	1638.13
1012.759	1662.99
1013.052	1653.73
1013.344	1648.98
1013.637	1610.79
1013.93	1589.77
1014.222	1584.58
1014.514	1575.99
1014.807	1578.25
1015.099	1560.4
1015.391	1556.78
1015.683	1558.36
1015.976	1566.05
1016.268	1553.62
1016.56	1538.02
1016.851	1510.45
1017.143	1485.14
1017.435	1546.39
1017.727	1476.33
1018.018	1485.37
1018.31	1463
1018.602	1477.46
1018.893	1457.12
1019.185	1420.29
1019.476	1416.9
1019.767	1407.63
1020.058	1418.25
1020.35	1448.08
1020.641	1373.51
1020.932	1394.07
1021.223	1372.61
1021.514	1341.87
1021.804	1379.38
1022.095	1348.42
1022.386	1307.97
1022.677	1310.01
1022.967	1305.94
1023.258	1277.92
1023.548	1303.91
1023.839	1334.19
1024.129	1284.47
1024.419	1291.7
1024.709	1279.95
1025	1286.28
1025.29	1264.13
1025.58	1262.33
1025.87	1260.74
1026.16	1206.73
1026.449	1234.76
1026.739	1206.51
1027.029	1210.35
1027.319	1213.06
1027.608	1185.27
1027.898	1188.88
1028.187	1178.71
1028.477	1195.43
1028.766	1188.43
1029.055	1146.62
1029.344	1147.75
1029.634	1136.23
1029.923	1145.27
1030.212	1145.72
1030.501	1126.28
1030.79	1118.37
1031.078	1112.95
1031.367	1102.56
1031.656	1115.66
1031.945	1088.09
1032.233	1091.03
1032.522	1071.82
1032.81	1046.06
1033.099	1052.84
1033.387	1059.17
1033.675	1060.07
1033.963	1039.73
1034.251	1045.83
1034.54	1036.57
1034.828	1012.39
1035.116	1024.82
1035.403	1000.86
1035.691	989.34
1035.979	972.62
1036.267	988.66
1036.554	1009.22
1036.842	969.68
1037.129	955.44
1037.417	973.52
1037.704	944.14
1037.992	937.59
1038.279	953.86
1038.566	971.71
1038.853	971.71
1039.14	971.71
