Data from hue_50_FLMS001491_70.txt Node
Date: Mon Feb 06 15:10:46 GMT 2017
User: dcchb
Spectrometer: FLMS00149
Trigger mode: 0
Integration Time (sec): 2.000000E-2
Scans to average: 10
Electric dark correction enabled: true
Nonlinearity correction enabled: false
Boxcar width: 0
XAxis mode: Wavelengths
Number of Pixels in Spectrum: 2048
>>>>>Begin Spectral Data<<<<<
341.393	-11.36
341.776	-11.36
342.16	-11.36
342.543	-43.9
342.927	-59.72
343.31	-62.65
343.693	-63.78
344.077	-67.4
344.46	-60.85
344.843	-59.04
345.226	-41.19
345.61	-18.81
345.993	-34.18
346.376	5.59
346.759	17.57
347.142	6.5
347.525	31.36
347.908	41.98
348.291	75.87
348.674	104.8
349.057	124.23
349.44	126.27
349.823	139.37
350.206	145.02
350.588	192.25
350.971	201.75
351.354	223.21
351.737	253.5
352.119	250.11
352.502	255.98
352.884	278.13
353.267	267.96
353.65	305.7
354.032	301.18
354.414	298.47
354.797	321.29
355.179	323.55
355.562	327.39
355.944	338.24
356.326	366.71
356.709	329.43
357.091	335.75
357.473	330.1
357.855	352.93
358.238	322.65
358.62	348.63
359.002	345.47
359.384	350.89
359.766	340.05
360.148	328.52
360.53	345.02
360.912	347.05
361.294	348.41
361.676	343.44
362.057	320.61
362.439	322.42
362.821	327.62
363.203	311.8
363.584	341.63
363.966	330.1
364.348	330.78
364.729	337.56
365.111	317.22
365.493	333.49
365.874	296.21
366.256	326.49
366.637	324.68
367.019	319.26
367.4	316.32
367.781	309.09
368.163	296.21
368.544	309.09
368.925	308.41
369.306	328.52
369.688	299.37
370.069	315.87
370.45	311.8
370.831	306.38
371.212	307.96
371.593	328.07
371.974	323.1
372.355	322.19
372.736	288.52
373.117	312.03
373.498	316.32
373.879	313.38
374.26	328.52
374.641	335.75
375.021	307.73
375.402	326.04
375.783	294.63
376.163	341.63
376.544	326.49
376.925	331.91
377.305	334.85
377.686	320.39
378.066	323.1
378.447	331.23
378.827	340.05
379.208	329.43
379.588	351.12
379.968	335.08
380.349	323.78
380.729	333.49
381.109	326.26
381.489	348.86
381.87	338.69
382.25	333.27
382.63	354.28
383.01	317.45
383.39	337.56
383.77	336.66
384.15	362.19
384.53	345.02
384.91	351.8
385.29	341.63
385.67	324.23
386.049	345.7
386.429	355.19
386.809	341.86
387.189	332.59
387.568	322.87
387.948	361.29
388.328	342.76
388.707	358.35
389.087	334.17
389.466	353.83
389.846	349.76
390.225	364.68
390.605	328.52
390.984	373.04
391.363	349.09
391.743	373.27
392.122	368.52
392.501	362.19
392.881	362.87
393.26	362.87
393.639	387.73
394.018	367.17
394.397	364.23
394.776	362.19
395.155	368.07
395.534	374.85
395.913	392.25
396.292	385.7
396.671	366.04
397.05	390.44
397.429	374.4
397.808	391.35
398.186	359.48
398.565	382.31
398.944	382.98
399.323	389.54
399.701	373.72
400.08	394.74
400.458	379.82
400.837	415.53
401.215	404.23
401.594	391.8
401.972	389.54
402.351	371.01
402.729	386.15
403.107	368.3
403.486	395.64
403.864	373.27
404.242	407.62
404.62	390.22
404.999	414.4
405.377	390.22
405.755	389.76
406.133	428.63
406.511	409.88
406.889	411.23
407.267	433.83
407.645	407.62
408.023	420.05
408.401	420.5
408.779	424.79
409.156	426.6
409.534	413.72
409.912	427.95
410.29	432.93
410.667	422.98
411.045	435.64
411.422	428.63
411.8	460.95
412.178	420.72
412.555	427.73
412.933	444.9
413.31	442.64
413.687	445.13
414.065	453.04
414.442	436.99
414.819	447.39
415.197	472.7
415.574	479.48
415.951	450.33
416.328	466.82
416.705	464.56
417.082	492.81
417.46	479.03
417.837	479.25
418.214	486.03
418.591	483.77
418.967	491.68
419.344	494.62
419.721	484.9
420.098	509.99
420.475	499.14
420.852	507.27
421.228	491.23
421.605	491.23
421.982	493.04
422.358	495.98
422.735	515.64
423.111	518.57
423.488	507.95
423.864	507.73
424.241	524.22
424.617	512.25
424.994	540.27
425.37	531.23
425.746	538.46
426.123	532.81
426.499	526.71
426.875	526.03
427.251	549.08
427.627	551.57
428.003	538.69
428.379	557.67
428.756	534.39
429.132	553.15
429.507	567.61
429.883	546.37
430.259	564.9
430.635	568.06
431.011	568.74
431.387	578.91
431.763	582.08
432.138	608.29
432.514	603.77
432.89	615.97
433.265	606.71
433.641	585.24
434.016	621.62
434.392	625.01
434.767	618.91
435.143	613.26
435.518	621.17
435.894	631.57
436.269	638.34
436.644	651.45
437.02	646.48
437.395	628.4
437.77	646.48
438.145	658.46
438.52	669.08
438.895	649.19
439.271	663.88
439.646	686.71
440.021	669.98
440.395	677.44
440.77	681.28
441.145	683.09
441.52	708.63
441.895	694.84
442.27	700.04
442.645	704.11
443.019	693.71
443.394	699.59
443.769	699.13
444.143	685.35
444.518	726.25
444.892	702.98
445.267	733.26
445.641	734.16
446.016	727.38
446.39	744.33
446.764	749.53
447.139	751.79
447.513	755.4
447.887	746.36
448.262	769.41
448.636	750.88
449.01	755.4
449.384	753.6
449.758	781.62
450.132	767.15
450.506	785.46
450.88	803.76
451.254	812.13
451.628	806.02
452.002	798.79
452.376	800.83
452.75	800.15
453.123	826.14
453.497	829.98
453.871	835.18
454.244	851.22
454.618	835.63
454.992	847.15
455.365	895.97
455.739	868.17
456.112	901.84
456.486	905.46
456.859	885.12
457.232	907.26
457.606	896.87
457.979	959.69
458.352	949.3
458.725	957.21
459.099	945.68
459.472	960.82
459.845	949.98
460.218	992.69
460.591	992.23
460.964	996.3
461.337	1019.13
461.71	1006.47
462.083	1035.4
462.456	1040.82
462.829	1056.64
463.201	1071.1
463.574	1044.66
463.947	1122.4
464.32	1090.76
464.692	1126.47
465.065	1123.98
465.438	1146.81
465.81	1161.72
466.183	1173.92
466.555	1188.84
466.928	1190.87
467.3	1214.15
467.672	1230.65
468.045	1243.98
468.417	1275.16
468.789	1309.74
469.161	1312.9
469.534	1340.02
469.906	1364.43
470.278	1406.01
470.65	1386.8
471.022	1449.62
471.394	1491.2
471.766	1477.87
472.138	1548.83
472.51	1571.43
472.882	1606.91
473.253	1609.84
473.625	1651.2
473.997	1681.48
474.369	1714.25
474.74	1754.25
475.112	1819.1
475.484	1852.78
475.855	1881.48
476.227	1938.88
476.598	2023.62
476.97	2047.12
477.341	2102.49
477.713	2150.4
478.084	2191.75
478.455	2273.1
478.827	2306.78
479.198	2414.34
479.569	2461.8
479.94	2512.87
480.311	2594.23
480.682	2668.8
481.053	2757.39
481.424	2845.74
481.795	2926.87
482.166	2997.6
482.537	3120.99
482.908	3186.07
483.279	3265.85
483.65	3369.35
484.021	3507.2
484.391	3576.57
484.762	3648.44
485.133	3773.4
485.503	3884.81
485.874	3999.84
486.244	4121.64
486.615	4231.7
486.985	4360.73
487.356	4481.18
487.726	4625.81
488.097	4770.67
488.467	4835.3
488.837	5022.86
489.207	5158.45
489.578	5302.85
489.948	5409.29
490.318	5539.68
490.688	5606.8
491.058	5810.86
491.428	5944.19
491.798	6098.31
492.168	6276.39
492.538	6368.59
492.908	6562.03
493.278	6678.41
493.648	6793.21
494.017	6966.09
494.387	7102.58
494.757	7197.49
495.126	7388.22
495.496	7513.87
495.866	7613.08
496.235	7798.83
496.605	7973.07
496.974	8058.04
497.344	8241.31
497.713	8340.52
498.082	8490.79
498.452	8661.86
498.821	8857.11
499.19	8910.44
499.559	9038.12
499.928	9160.83
500.298	9331.9
500.667	9455.29
501.036	9579.58
501.405	9704.1
501.774	9829.29
502.143	9995.84
502.512	10094.59
502.88	10278.09
503.249	10320.8
503.618	10432.89
503.987	10606.67
504.356	10742.71
504.724	10783.61
505.093	10882.82
505.462	11031.29
505.83	11207.56
506.199	11359.19
506.567	11492.97
506.936	11586.76
507.304	11770.03
507.672	11805.73
508.041	11949.23
508.409	12035.79
508.777	12260.64
509.145	12274.87
509.514	12358.04
509.882	12471.93
510.25	12571.59
510.618	12723.9
510.986	12772.72
511.354	12968.42
511.722	13175.19
512.09	13243.66
512.458	13280.95
512.826	13468.74
513.193	13609.76
513.561	13666.93
513.929	13772.46
514.297	13870.54
514.664	13993.25
515.032	14040.48
515.4	14270.98
515.767	14360.92
516.135	14482.05
516.502	14349.17
516.869	14683.4
517.237	14855.6
517.604	14802.04
517.972	15010.62
518.339	15093.33
518.706	15162.03
519.073	15228.47
519.44	15346.21
519.808	15528.57
520.175	15569.03
520.542	15746.87
520.909	15757.27
521.276	15790.49
521.643	16114.55
522.009	16135.34
522.376	16304.37
522.743	16384.37
523.11	16548.89
523.477	16679.05
523.843	16844.7
524.21	17034.3
524.577	17126.05
524.943	17236.55
525.31	17242.88
525.676	17545.47
526.043	17568.07
526.409	17670.67
526.776	17905.01
527.142	17976.19
527.508	18129.18
527.874	18265
528.241	18341.16
528.607	18413.02
528.973	18605.33
529.339	18596.74
529.705	18776.4
530.071	18971.65
530.437	19015.26
530.803	19108.37
531.169	19234.47
531.535	19186.56
531.901	19280.34
532.267	19418.87
532.632	19571.18
532.998	19548.58
533.364	19751.29
533.73	19744.74
534.095	19966.88
534.461	20034.22
534.826	20048.68
535.192	20156.02
535.557	20353.76
535.923	20277.83
536.288	20457.71
536.653	20627.88
537.019	20512.17
537.384	20704.94
537.749	20779.74
538.114	20784.48
538.479	20835.33
538.845	20966.17
539.21	21005.49
539.575	21050.92
539.94	21212.04
540.305	21313.06
540.67	21181.08
541.034	21386.95
541.399	21500.85
541.764	21649.32
542.129	21690.67
542.494	21777.68
542.858	21837.56
543.223	21864.68
543.587	21969.76
543.952	21951.23
544.316	22020.61
544.681	22115.07
545.045	22230.77
545.41	22259.02
545.774	22325.46
546.138	22385.34
546.503	22515.06
546.867	22561.16
547.231	22772
547.595	22690.65
547.959	22802.28
548.324	22909.62
548.688	22990.3
549.052	23092.44
549.416	23030.3
549.779	23163.4
550.143	23218.99
550.507	23427.58
550.871	23474.13
551.235	23430.51
551.599	23700.79
551.962	23674.35
552.326	23712.09
552.689	23919.77
553.053	23893.1
553.417	23892.2
553.78	24262.81
554.143	24037.96
554.507	24259.19
554.87	24267.78
555.234	24463.03
555.597	24471.62
555.96	24452.63
556.323	24648.79
556.686	24683.81
557.05	24829.35
557.413	24884.49
557.776	24902.11
558.139	25138.49
558.502	25182.78
558.865	25343.46
559.228	25544.36
559.59	25588.42
559.953	25509.56
560.316	25836.33
560.679	25836.55
561.041	25989.09
561.404	26115.87
561.767	26188.41
562.129	26001.52
562.492	26412.58
562.854	26451.45
563.217	26608.96
563.579	26658.9
563.941	26748.39
564.304	26897.54
564.666	27106.58
565.028	27100.7
565.39	27143.18
565.753	27412.33
566.115	27398.32
566.477	27481.93
566.839	27562.16
567.201	27733.68
567.563	27786.78
567.925	28127.11
568.287	27986.78
568.648	28141.8
569.01	28247.56
569.372	28315.58
569.734	28466.99
570.095	28669.02
570.457	28601.68
570.819	28834.21
571.18	28774.55
571.542	28975.68
571.903	28951.27
572.265	29245.73
572.626	29172.06
572.987	29422.9
573.349	29501.54
573.71	29567.53
574.071	29607.3
574.432	29741.08
574.794	29963.9
575.155	29957.8
575.516	29917.35
575.877	30166.61
576.238	30217.68
576.599	30389.2
576.96	30474.17
577.32	30549.65
577.681	30674.84
578.042	30779.7
578.403	30817.44
578.763	30881.39
579.124	31069.41
579.485	31223.53
579.845	31266.69
580.206	31365.45
580.566	31379.46
580.927	31545.78
581.287	31690.64
581.648	31729.05
582.008	32036.39
582.368	32068.93
582.728	32186.44
583.089	32199.32
583.449	32346.44
583.809	32465.53
584.169	32609.03
584.529	32665.07
584.889	33021
585.249	32905.29
585.609	32885.63
585.969	33163.14
586.329	33237.04
586.688	33460.08
587.048	33486.75
587.408	33490.14
587.768	33566.97
588.127	33846.51
588.487	33825.27
588.846	34107.97
589.206	34081.76
589.565	34248.08
589.925	34430.22
590.284	34459.38
590.643	34611.69
591.003	34789.99
591.362	34970.55
591.721	35094.16
592.08	35153.37
592.44	35343.87
592.799	35546.35
593.158	35575.51
593.517	35694.6
593.876	35784.31
594.235	35770.53
594.593	35942.28
594.952	36044.42
595.311	36104.08
595.67	36284.19
596.029	36405.99
596.387	36493
596.746	36745.87
597.104	36653.44
597.463	36796.72
597.822	36943.38
598.18	36922.36
598.538	36981.57
598.897	37236.7
599.255	37144.05
599.613	37589.46
599.972	37604.15
600.33	37747.43
600.688	37586.3
601.046	37891.6
601.404	37935.44
601.762	38018.38
602.12	38250.69
602.478	38225.61
602.836	38295.89
603.194	38190.35
603.552	38301.76
603.91	38414.07
604.268	38605.93
604.625	38562.09
604.983	38743.33
605.341	38843.44
605.698	38916.66
606.056	39028.75
606.413	39134.96
606.771	39344.67
607.128	39434.39
607.485	39361.85
607.843	39421.05
608.2	39628.51
608.557	39746.92
608.914	39643.42
609.272	39927.71
609.629	39905.11
609.986	40155.72
610.343	39960.7
610.7	40236.85
611.057	40312.56
611.414	40219
611.771	40424.19
612.127	40608.59
612.484	40574.92
612.841	40762.71
613.198	40703.51
613.554	40835.93
613.911	41079.09
614.267	41006.55
614.624	41048.58
614.98	41259.88
615.337	41395.69
615.693	41357.27
616.05	41324.51
616.406	41702.12
616.762	41484.73
617.118	41458.06
617.475	41623.48
617.831	41674.33
618.187	41730.15
618.543	41913.64
618.899	41884.27
619.255	42005.62
619.611	41962.23
619.967	42235.44
620.323	42286.29
620.678	42146.86
621.034	41971.95
621.39	42082
621.746	42226.86
622.101	42648.31
622.457	42359.96
622.812	42455.1
623.168	42540.97
623.523	42526.06
623.879	42644.02
624.234	42537.81
624.589	42644.92
624.945	42742.77
625.3	42738.03
625.655	42674.53
626.01	42810.34
626.365	42955.88
626.72	42845.37
627.075	42626.17
627.43	42779.38
627.785	42802.66
628.14	42882.66
628.495	42844.92
628.85	42709.1
629.205	42733.96
629.559	42966.27
629.914	42897.35
630.269	42744.81
630.623	42790
630.978	42694.87
631.332	42911.81
631.687	42949.55
632.041	42814.41
632.396	42939.15
632.75	42843.11
633.104	42790
633.459	42643.34
633.813	42717.01
634.167	42726.28
634.521	42588.88
634.875	42796.11
635.229	42699.39
635.583	42486.51
635.937	42439.96
636.291	42509.33
636.645	42575.77
636.999	42457.81
637.352	42467.98
637.706	42434.99
638.06	42581.65
638.413	42361.54
638.767	42493.52
639.121	42502.78
639.474	42096.24
639.828	42120.87
640.181	42288.55
640.534	42303.92
640.888	42258.95
641.241	41999.29
641.594	42061.89
641.947	42280.19
642.301	42054.88
642.654	42139.63
643.007	42101.89
643.36	42042.68
643.713	41844.49
644.066	42110.93
644.419	41979.4
644.771	41628.23
645.124	41247.67
645.477	41154.57
645.83	41006.1
646.182	40798.87
646.535	40695.37
646.888	40722.49
647.24	40574.02
647.593	40890.62
647.945	40683.39
648.298	40588.25
648.65	40416.96
649.002	40447.47
649.355	40584.19
649.707	40530.18
650.059	40640.91
650.411	41085.19
650.763	41237.73
651.115	41463.49
651.467	41416.93
651.819	41374.9
652.171	41463.94
652.523	41187.11
652.875	41335.58
653.227	41071.18
653.578	41455.12
653.93	41237.96
654.282	41081.12
654.633	41028.02
654.985	41160.44
655.337	41029.15
655.688	41151.4
656.039	41074.57
656.391	40837.06
656.742	40938.75
657.094	40847.01
657.445	41012.2
657.796	40927.91
658.147	40873.9
658.498	40758.19
658.849	40955.48
659.2	40934.69
659.551	40911.86
659.902	40942.82
660.253	40888.81
660.604	40785.54
660.955	40900.34
661.306	40884.97
661.656	40859.66
662.007	40812.66
662.358	40834.35
662.708	40790.74
663.059	40773.79
663.409	40604.3
663.76	40817.63
664.11	40851.98
664.461	40767.69
664.811	40694.47
665.161	40647.46
665.511	40628.25
665.862	40645.65
666.212	40833.45
666.562	40861.47
666.912	40673.68
667.262	40768.82
667.612	40691.53
667.962	40767.23
668.312	40602.27
668.662	40859.66
669.011	40711.19
669.361	40595.71
669.711	40616.05
670.06	40517.52
670.41	40458.09
670.76	40429.84
671.109	40679.33
671.459	40474.81
671.808	40421.25
672.157	40482.04
672.507	40159.79
672.856	40094.71
673.205	40244.31
673.554	40599.33
673.904	40259.68
674.253	40417.19
674.602	40321.37
674.951	39710.76
675.3	39581.05
675.649	40173.58
675.998	40185.1
676.346	40263.52
676.695	40338.54
677.044	40072.56
677.393	40085.44
677.741	40149.85
678.09	40056.74
678.438	39979.68
678.787	40055.61
679.135	39948.05
679.484	39795.73
679.832	39952.79
680.181	39720.71
680.529	39751.67
680.877	39746.02
681.225	39707.83
681.573	39891.55
681.922	39551.45
682.27	39478.45
682.618	39418.12
682.966	39431
683.314	39435.52
683.661	39445.23
684.009	39273.71
684.357	39130.89
684.705	39046.83
685.053	39066.26
685.4	39020.84
685.748	38973.61
686.095	38776.1
686.443	38801.18
686.79	38727.51
687.138	38715.99
687.485	38779.04
687.832	38597.12
688.18	38497.91
688.527	38375.43
688.874	38337.01
689.221	38464.47
689.568	38200.97
689.915	38183.35
690.262	38096.57
690.609	38120.07
690.956	37967.08
691.303	37929.12
691.65	37805.28
691.997	37632.17
692.344	37598.95
692.69	37393.08
693.037	37488.68
693.383	37220.89
693.73	37297.27
694.077	37094.79
694.423	37092.3
694.769	36974.56
695.116	36810.5
695.462	36880.33
695.808	36671.97
696.155	36761.69
696.501	36504.75
696.847	36568.25
697.193	36108.15
697.539	36346.78
697.885	36007.81
698.231	36010.07
698.577	35892.33
698.923	35985.89
699.269	35923.97
699.614	35752.9
699.96	35583.64
700.306	35667.03
700.651	35472.01
700.997	35326.47
701.342	35368.28
701.688	35245.57
702.033	35238.34
702.379	35067.27
702.724	35045.12
703.069	35144.56
703.415	34686.04
703.76	34808.29
704.105	34779.82
704.45	34623.21
704.795	34508.19
705.14	34440.17
705.485	34288.53
705.83	34233.85
706.175	34232.26
706.52	34096.22
706.865	33959.28
707.209	34122.89
707.554	33827.53
707.899	33864.82
708.243	33680.87
708.588	33610.13
708.932	33521.1
709.277	33479.97
709.621	33461.89
709.966	33175.79
710.31	33271.39
710.654	32979.87
710.998	33145.74
711.342	33056.93
711.687	33084.5
712.031	32855.35
712.375	32726.54
712.719	32830.27
713.063	32596.6
713.407	32849.02
713.75	32553.89
714.094	32620.1
714.438	32414.46
714.782	32510.95
715.125	32240
715.469	32378.98
715.812	32118.65
716.156	32175.14
716.499	32207.46
716.843	32113.9
717.186	31957.3
717.53	32083.85
717.873	32045.2
718.216	31807.47
718.559	31836.39
718.902	31528.61
719.246	31623.52
719.589	31614.48
719.932	31393.69
720.275	31534.48
720.617	31421.94
720.96	31375.62
721.303	31332.45
721.646	31355.28
721.989	31203.64
722.331	31258.1
722.674	31191.21
723.016	31137.2
723.359	31003.65
723.701	31097.88
724.044	30968.17
724.386	30777.89
724.729	30802.52
725.071	30753.03
725.413	30680.94
725.755	30654.5
726.097	30627.39
726.439	30444.57
726.782	30422.42
727.124	30609.08
727.465	30317.34
727.807	30387.62
728.149	30270.11
728.491	30180.17
728.833	30312.59
729.175	30045.71
729.516	30099.49
729.858	29910.12
730.199	30021.98
730.541	30004.35
730.882	30022.43
731.224	29892.49
731.565	29781.08
731.906	29821.98
732.248	29668.32
732.589	29648.66
732.93	29542.67
733.271	29497.02
733.612	29595.78
733.953	29598.49
734.294	29483.01
734.635	29389
734.976	29363.69
735.317	29222.45
735.658	29348.1
735.999	29365.05
736.339	29177.71
736.68	29361.43
737.021	29230.36
737.361	28945.62
737.702	29170.25
738.042	29086.18
738.383	28943.82
738.723	28977.26
739.063	28939.07
739.404	28909.92
739.744	28823.82
740.084	28656.59
740.424	28769.58
740.764	28774.1
741.104	28773.2
741.444	28570.49
741.784	28584.73
742.124	28606.65
742.464	28375.69
742.804	28413.21
743.143	28336.83
743.483	28496.6
743.823	28313.55
744.162	28208.02
744.502	28279.65
744.841	28192.2
745.181	28288.69
745.52	28056.83
745.86	28154.01
746.199	28113.33
746.538	27986.55
746.877	28022.94
747.216	28036.27
747.556	28039.21
747.895	27925.99
748.234	27847.12
748.573	27763.51
748.911	27858.19
749.25	27745.43
749.589	27644.87
749.928	27668.59
750.267	27778.65
750.605	27515.83
750.944	27464.98
751.283	27427.47
751.621	27485.1
751.96	27240.58
752.298	27314.03
752.636	27206.01
752.975	27167.82
753.313	27060.47
753.651	27109.06
753.989	27029.29
754.327	26878.56
754.666	26836.3
755.004	26871.1
755.342	26987.71
755.679	26789.3
756.017	26691.9
756.355	26821.61
756.693	26603.76
757.031	26671.33
757.368	26440.83
757.706	26401.96
758.044	26324.22
758.381	26308.86
758.719	26254.85
759.056	26384.11
759.394	26180.05
759.731	25898.7
760.068	25985.25
760.405	25815.08
760.743	25767.63
761.08	25826.16
761.417	25698.25
761.754	25658.03
762.091	25492.61
762.428	25537.58
762.765	25284.25
763.102	25353.18
763.438	25223.24
763.775	25076.35
764.112	25116.57
764.449	25094.42
764.785	24973.3
765.122	24834.09
765.458	24780.53
765.795	24715.45
766.131	24698.5
766.467	24549.35
766.804	24446.53
767.14	24274.79
767.476	24332.41
767.812	24204.5
768.148	24191.62
768.485	24037.96
768.821	23882.25
769.157	23942.82
769.492	23954.79
769.828	23828.02
770.164	23578.31
770.5	23584.41
770.836	23639.1
771.171	23447.24
771.507	23428.93
771.842	23170.63
772.178	23270.07
772.513	23124.99
772.849	23118.43
773.184	23024.42
773.519	23020.13
773.855	22963.86
774.19	22792.34
774.525	22742.4
774.86	22709.63
775.195	22642.96
775.53	22543.31
775.865	22335.63
776.2	22218.79
776.535	22151.23
776.87	22082.3
777.205	22024
777.539	22003.43
777.874	21983.09
778.209	21757.34
778.543	21666.49
778.878	21536.78
779.212	21659.04
779.547	21418.36
779.881	21451.13
780.215	21283.9
780.55	21332.72
780.884	21245.26
781.218	21093.4
781.552	21074.19
781.886	21037.58
782.22	20861.32
782.554	20872.16
782.888	20732.96
783.222	20631.72
783.556	20522.79
783.889	20576.58
784.223	20274.21
784.557	20352.18
784.89	20420.88
785.224	20163.48
785.557	20170.49
785.891	20135.46
786.224	20052.75
786.558	20036.48
786.891	19864.51
787.224	19771.18
787.557	19646.21
787.891	19637.85
788.224	19541.58
788.557	19617.96
788.89	19453.67
789.223	19476.95
789.556	19305.2
789.888	19229.04
790.221	19263.39
790.554	19036.05
790.887	19086.22
791.219	18976.85
791.552	18925.32
791.884	18833.8
792.217	18796.74
792.549	18713.8
792.882	18563.3
793.214	18513.36
793.546	18559.23
793.879	18380.93
794.211	18308.16
794.543	18331.44
794.875	18325.34
795.207	18355.62
795.539	18261.38
795.871	18267.94
796.203	18006.25
796.535	17976.19
796.867	17876.76
797.198	17817.55
797.53	17843.99
797.862	17669.54
798.193	17716.77
798.525	17548.18
798.856	17655.3
799.188	17441.74
799.519	17364.91
799.85	17289.66
800.182	17379.83
800.513	17333.5
800.844	17236.78
801.175	17226.16
801.506	17246.72
801.837	17060.96
802.168	17105.26
802.499	17023.45
802.83	16886.05
803.161	16911.36
803.491	16878.82
803.822	16860.74
804.153	16842.89
804.483	16615.55
804.814	16536.91
805.145	16571.71
805.475	16590.92
805.805	16442.9
806.136	16450.58
806.466	16412.62
806.796	16371.04
807.126	16238.39
807.457	16186.86
807.787	16301.89
808.117	16124.04
808.447	16101.44
808.777	16236.13
809.107	16004.27
809.436	15987.77
809.766	15907.55
810.096	15992.52
810.426	15864.61
810.755	15794.56
811.085	15819.41
811.414	15755.91
811.744	15596.37
812.073	15628.01
812.403	15653.09
812.732	15590.04
813.061	15525.19
813.39	15436.15
813.719	15438.18
814.049	15418.07
814.378	15397.96
814.707	15348.24
815.036	15306.89
815.365	15127.91
815.693	15055.14
816.022	15096.04
816.351	15106.21
816.68	15029.6
817.008	15097.17
817.337	14883.85
817.665	14888.14
817.994	14931.3
818.322	14859.44
818.651	14764.75
818.979	14756.62
819.307	14861.47
819.636	14669.84
819.964	14666.9
820.292	14640.46
820.62	14644.76
820.948	14587.81
821.276	14613.57
821.604	14606.57
821.932	14597.75
822.259	14603.63
822.587	14577.19
822.915	14568.15
823.243	14618.77
823.57	14528.15
823.898	14490.41
824.225	14468.72
824.553	14533.57
824.88	14516.85
825.207	14560.69
825.535	14516.85
825.862	14508.26
826.189	14466
826.516	14478.66
826.843	14574.7
827.17	14501.26
827.497	14587.81
827.824	14520.69
828.151	14530.41
828.478	14542.84
828.805	14607.02
829.131	14484.76
829.458	14451.77
829.785	14374.93
830.111	14444.31
830.438	14533.8
830.764	14528.83
831.09	14507.36
831.417	14334.26
831.743	14480.24
832.069	14402.28
832.395	14325.89
832.722	14421.94
833.048	14398.89
833.374	14325.44
833.7	14338.55
834.026	14334.71
834.351	14356.4
834.677	14297.87
835.003	14309.62
835.329	14260.36
835.654	14248.61
835.98	14215.39
836.306	14214.49
836.631	14239.12
836.956	14187.14
837.282	14200.25
837.607	14102.17
837.932	14078.67
838.258	14158.67
838.583	14045.68
838.908	14072.34
839.233	14097.65
839.558	14029.41
839.883	13950.54
840.208	13875.74
840.533	13924.32
840.858	13962.97
841.182	13896.3
841.507	13950.76
841.832	13810.43
842.156	13808.85
842.481	13792.58
842.805	13727.72
843.13	13666.93
843.454	13717.55
843.778	13645.01
844.103	13528.18
844.427	13543.09
844.751	13577.67
845.075	13499.93
845.399	13452.47
845.723	13364.79
846.047	13423.09
846.371	13343.55
846.695	13291.57
847.019	13197.79
847.343	13097.23
847.666	13070.33
847.99	12984.91
848.313	13020.62
848.637	12920.73
848.96	12876.89
849.284	12769.78
849.607	12785.37
849.931	12722.55
850.254	12696.33
850.577	12598.26
850.9	12514.64
851.223	12535.43
851.546	12448.2
851.869	12360.52
852.192	12525.26
852.515	12305.61
852.838	12295.89
853.161	12238.04
853.483	12172.5
853.806	12101.55
854.129	12140.64
854.451	12070.81
854.774	11957.6
855.096	11915.34
855.419	11940.87
855.741	11916.69
856.063	11815.45
856.385	11824.94
856.708	11722.57
857.03	11650.71
857.352	11764.15
857.674	11673.99
857.996	11643.71
858.318	11582.24
858.64	11612.97
858.961	11558.28
859.283	11549.47
859.605	11437.38
859.926	11552.41
860.248	11416.59
860.57	11281.45
860.891	11383.37
861.212	11274.22
861.534	11339.53
861.855	11330.27
862.176	11360.1
862.498	11325.3
862.819	11267.9
863.14	11228.35
863.461	11203.26
863.782	11182.02
864.103	11162.14
864.424	11124.17
864.745	11170.72
865.065	11058.64
865.386	11003.95
865.707	11071.97
866.027	11048.47
866.348	11024.74
866.668	11001.24
866.989	10915.59
867.309	10894.35
867.63	10851.86
867.95	10918.3
868.27	10862.26
868.59	10854.8
868.91	10860.67
869.23	10723.05
869.55	10785.65
869.87	10814.35
870.19	10783.39
870.51	10731.64
870.83	10783.16
871.15	10653.67
871.469	10621.36
871.789	10702.26
872.109	10715.37
872.428	10615.48
872.748	10670.4
873.067	10604.41
873.386	10603.73
873.706	10633.34
874.025	10541.81
874.344	10524.41
874.663	10487.35
874.982	10505.66
875.301	10516.05
875.62	10496.39
875.939	10449.84
876.258	10460.01
876.577	10324.87
876.896	10387.02
877.214	10330.52
877.533	10388.82
877.852	10375.49
878.17	10360.58
878.489	10243.06
878.807	10298.2
879.125	10282.16
879.444	10301.37
879.762	10253.23
880.08	10246.91
880.398	10163.07
880.716	10172.11
881.034	10130.3
881.352	10148.38
881.67	10085.33
881.988	10101.15
882.306	10108.15
882.624	10080.36
882.941	9969.4
883.259	10031.54
883.577	9977.99
883.894	9966.01
884.212	9912.9
884.529	9959.46
884.846	9927.37
885.164	9843.75
885.481	9777.77
885.798	9923.98
886.115	9756.07
886.432	9776.18
886.75	9815.73
887.067	9734.6
887.383	9722.85
887.7	9725.34
888.017	9608.05
888.334	9686.47
888.651	9566.92
888.967	9575.28
889.284	9518.11
889.6	9497.32
889.917	9501.16
890.233	9467.72
890.55	9430.66
890.866	9394.05
891.182	9388.62
891.498	9329.64
891.815	9327.61
892.131	9276.76
892.447	9269.08
892.763	9278.34
893.079	9208.97
893.395	9205.58
893.71	9122.42
894.026	9116.09
894.342	9102.76
894.657	9095.07
894.973	9062.08
895.289	9020.72
895.604	9030.67
895.92	8941.63
896.235	8891.46
896.55	8922.42
896.865	8899.82
897.181	8874.74
897.496	8866.6
897.811	8793.61
898.126	8776.44
898.441	8646.5
898.756	8684.23
899.071	8595.88
899.386	8638.59
899.7	8625.48
900.015	8528.76
900.33	8530.79
900.644	8453.28
900.959	8524.92
901.273	8508.19
901.588	8479.27
901.902	8418.71
902.216	8320.63
902.531	8325.6
902.845	8322.44
903.159	8313.17
903.473	8202.67
903.787	8270.46
904.101	8147.3
904.415	8166.06
904.729	8110.24
905.042	8073.86
905.356	8084.02
905.67	8037.02
905.984	8029.56
906.297	8011.03
906.611	7913.63
906.924	7942.33
907.237	7866.86
907.551	7820.98
907.864	7799.06
908.177	7831.38
908.491	7793.18
908.804	7713.86
909.117	7708.44
909.43	7677.71
909.743	7601.33
910.056	7630.93
910.368	7560.65
910.681	7599.52
910.994	7520.42
911.307	7491.5
911.619	7418.05
911.932	7389.13
912.244	7333.54
912.557	7349.13
912.869	7317.94
913.181	7306.42
913.494	7289.92
913.806	7204.5
914.118	7204.05
914.43	7128.57
914.742	7118.17
915.054	7119.76
915.366	7103.03
915.678	7081.79
915.99	7023.71
916.302	6978.29
916.613	6931.51
916.925	6929.93
917.236	6956.37
917.548	6909.37
917.859	6914.11
918.171	6906.2
918.482	6796.6
918.794	6746.88
919.105	6722.48
919.416	6708.02
919.727	6722.93
920.038	6638.19
920.349	6645.42
920.66	6569.04
920.971	6540.34
921.282	6586.21
921.593	6535.14
921.903	6490.17
922.214	6479.32
922.525	6416.5
922.835	6394.8
923.146	6371.08
923.456	6344.18
923.767	6313.45
924.077	6341.02
924.387	6340.79
924.697	6246.78
925.008	6238.2
925.318	6211.31
925.628	6171.76
925.938	6142.15
926.248	6124.3
926.558	6074.59
926.867	6093.79
927.177	6059.9
927.487	6002.95
927.796	5954.14
928.106	6002.27
928.416	5952.1
928.725	5923.18
929.034	5874.14
929.344	5866.46
929.653	5867.13
929.962	5844.76
930.271	5777.19
930.581	5731.09
930.89	5760.24
931.199	5685.67
931.508	5664.88
931.817	5707.82
932.125	5646.35
932.434	5619
932.743	5598.89
933.051	5532.45
933.36	5480.7
933.669	5501.49
933.977	5467.37
934.286	5438.9
934.594	5478.9
934.902	5443.87
935.21	5400.48
935.519	5403.64
935.827	5361.16
936.135	5344.89
936.443	5303.98
936.751	5247.04
937.059	5280.26
937.367	5285.91
937.674	5209.98
937.982	5229.64
938.29	5200.26
938.597	5157.1
938.905	5110.09
939.213	5107.61
939.52	5088.4
939.827	5065.8
940.135	5049.98
940.442	5000.94
940.749	5003.88
941.056	5022.18
941.363	4902.64
941.67	4955.52
941.977	4880.04
942.284	4904.67
942.591	4916.2
942.898	4871.91
943.205	4832.81
943.511	4784.45
943.818	4794.17
944.125	4760.27
944.431	4773.83
944.738	4725.47
945.044	4673.72
945.35	4730.44
945.657	4632.14
945.963	4632.36
946.269	4627.84
946.575	4614.29
946.881	4567.06
947.187	4600.05
947.493	4555.98
947.799	4523.21
948.105	4534.06
948.41	4514.85
948.716	4525.47
949.022	4482.54
949.327	4434.4
949.633	4405.03
949.938	4430.34
950.244	4393.95
950.549	4352.6
950.854	4327.97
951.16	4305.37
951.465	4280.28
951.77	4284.12
952.075	4288.42
952.38	4211.36
952.685	4263.79
952.99	4224.69
953.294	4224.01
953.599	4136.33
953.904	4136.33
954.209	4112.15
954.513	4144.69
954.818	4137.01
955.122	4075.09
955.426	4071.47
955.731	4044.81
956.035	4046.16
956.339	3985.83
956.643	3995.32
956.948	3951.03
957.252	3949.9
957.556	3971.82
957.86	3930.91
958.163	3933.17
958.467	3884.81
958.771	3904.93
959.075	3857.47
959.378	3821.99
959.682	3868.09
959.985	3805.72
960.289	3776.79
960.592	3769.34
960.896	3706.96
961.199	3719.62
961.502	3734.08
961.805	3670.13
962.108	3667.42
962.411	3666.51
962.714	3681.43
963.017	3641.43
963.32	3603.92
963.623	3622.45
963.926	3590.81
964.228	3562.11
964.531	3593.97
964.833	3603.69
965.136	3496.35
965.438	3532.51
965.741	3506.29
966.043	3510.13
966.345	3446.63
966.648	3503.58
966.95	3402.11
967.252	3414.54
967.554	3419.51
967.856	3391.49
968.158	3332.06
968.46	3370.7
968.761	3368.44
969.063	3341.32
969.365	3311.27
969.666	3291.16
969.968	3286.18
970.269	3282.12
970.571	3275.56
970.872	3247.77
971.174	3226.75
971.475	3199.41
971.776	3215.23
972.077	3192.85
972.378	3216.58
972.679	3164.61
972.98	3201.89
973.281	3149.01
973.582	3128.22
973.883	3074.44
974.183	3076.25
974.484	3093.2
974.785	3101.33
975.085	3078.51
975.386	3085.29
975.686	3026.3
975.986	3048
976.287	3003.03
976.587	2949.7
976.887	2935.01
977.187	2972.52
977.487	2961
977.787	2920.09
978.087	2934.1
978.387	2947.89
978.687	2905.4
978.987	2876.93
979.286	2884.61
979.586	2872.41
979.885	2870.38
980.185	2823.37
980.484	2816.82
980.784	2836.71
981.083	2821.56
981.382	2789.47
981.682	2779.31
981.981	2790.83
982.28	2770.27
982.579	2724.84
982.878	2724.17
983.177	2717.16
983.475	2738.18
983.774	2701.34
984.073	2678.07
984.372	2680.78
984.67	2653.66
984.969	2675.81
985.267	2666.54
985.566	2633.09
985.864	2593.1
986.162	2617.95
986.461	2589.25
986.759	2544.06
987.057	2536.6
987.355	2554
987.653	2562.36
987.951	2526.88
988.249	2530.72
988.547	2525.75
988.844	2474
989.142	2490.73
989.44	2487.11
989.737	2447.79
990.035	2430.16
990.332	2461.8
990.63	2427.45
990.927	2406.89
991.224	2412.99
991.521	2404.63
991.819	2384.06
992.116	2361.46
992.413	2338.19
992.71	2339.32
993.006	2395.13
993.303	2348.81
993.6	2311.07
993.897	2283.05
994.193	2283.73
994.49	2300.9
994.787	2256.61
995.083	2271.75
995.379	2271.3
995.676	2242.14
995.972	2238.98
996.268	2217.06
996.565	2213.44
996.861	2211.18
997.157	2200.79
997.453	2172.09
997.749	2156.5
998.044	2143.62
998.34	2136.38
998.636	2102.26
998.932	2121.24
999.227	2129.38
999.523	2097.06
999.818	2064.07
1000.114	2071.3
1000.409	2094.13
1000.704	2074.24
1001	2090.74
1001.295	2055.48
1001.59	2012.55
1001.885	2018.87
1002.18	1996.05
1002.475	2011.19
1002.77	1979.33
1003.065	1949.27
1003.359	1956.05
1003.654	1965.77
1003.949	1939.33
1004.243	1930.51
1004.538	1906.33
1004.832	1936.39
1005.127	1907.92
1005.421	1857.52
1005.715	1895.49
1006.009	1863.85
1006.304	1889.16
1006.598	1840.35
1006.892	1813.23
1007.186	1822.27
1007.48	1809.84
1007.773	1826.79
1008.067	1822.27
1008.361	1805.32
1008.655	1786.56
1008.948	1752.44
1009.242	1733.23
1009.535	1753.57
1009.829	1743.85
1010.122	1764.64
1010.415	1742.04
1010.708	1731.42
1011.001	1701.14
1011.295	1706.57
1011.588	1677.41
1011.881	1646.68
1012.173	1664.08
1012.466	1664.98
1012.759	1671.54
1013.052	1643.06
1013.344	1629.96
1013.637	1605.55
1013.93	1621.14
1014.222	1592.9
1014.514	1595.61
1014.807	1575.27
1015.099	1550.86
1015.391	1543.86
1015.683	1563.74
1015.976	1552.22
1016.268	1533.24
1016.56	1510.41
1016.851	1521.26
1017.143	1522.16
1017.435	1508.15
1017.727	1492.33
1018.018	1484.2
1018.31	1436.29
1018.602	1489.4
1018.893	1441.71
1019.185	1432
1019.476	1413.69
1019.767	1424.54
1020.058	1426.57
1020.35	1409.62
1020.641	1420.25
1020.932	1388.16
1021.223	1409.17
1021.514	1350.19
1021.804	1359.91
1022.095	1347.7
1022.386	1347.48
1022.677	1330.08
1022.967	1315.39
1023.258	1323.75
1023.548	1314.26
1023.839	1288.72
1024.129	1270.19
1024.419	1298.21
1024.709	1299.57
1025	1243.3
1025.29	1257.99
1025.58	1239.23
1025.87	1232.91
1026.16	1239.01
1026.449	1218.22
1026.739	1236.75
1027.029	1210.76
1027.319	1205.56
1027.608	1203.75
1027.898	1184.32
1028.187	1219.35
1028.477	1179.35
1028.766	1147.71
1029.055	1162.17
1029.344	1147.94
1029.634	1121.27
1029.923	1138.67
1030.212	1114.26
1030.501	1120.37
1030.79	1110.87
1031.078	1133.25
1031.367	1084.21
1031.656	1076.3
1031.945	1085.56
1032.233	1076.3
1032.522	1062.29
1032.81	1060.71
1033.099	1050.31
1033.387	1059.35
1033.675	1037.43
1033.963	1031.1
1034.251	1036.3
1034.54	1023.19
1034.828	1004.44
1035.116	999.92
1035.403	1014.15
1035.691	969.41
1035.979	1006.92
1036.267	985
1036.554	965.79
1036.842	960.14
1037.129	951.78
1037.417	981.39
1037.704	966.92
1037.992	919.24
1038.279	929.18
1038.566	946.36
1038.853	946.36
1039.14	946.36
