Data from hue_80_FLMS001491_19.txt Node
Date: Mon Feb 06 15:22:34 GMT 2017
User: dcchb
Spectrometer: FLMS00149
Trigger mode: 0
Integration Time (sec): 2.000000E-2
Scans to average: 10
Electric dark correction enabled: true
Nonlinearity correction enabled: false
Boxcar width: 0
XAxis mode: Wavelengths
Number of Pixels in Spectrum: 2048
>>>>>Begin Spectral Data<<<<<
341.393	7.19
341.776	7.19
342.16	7.19
342.543	-53.6
342.927	-85.46
343.31	-66.48
343.693	-66.93
344.077	-65.8
344.46	-65.8
344.843	-49.98
345.226	-35.75
345.61	-40.95
345.993	-8.63
346.376	-19.48
346.759	4.7
347.142	23.23
347.525	39.73
347.908	60.07
348.291	89.67
348.674	99.62
349.057	102.78
349.44	133.74
349.823	137.36
350.206	171.93
350.588	183
350.971	207.64
351.354	216
351.737	247.18
352.119	243.34
352.502	271.81
352.884	270.46
353.267	271.81
353.65	274.07
354.032	275.66
354.414	303.9
354.797	307.29
355.179	305.03
355.562	303.9
355.944	311.36
356.326	311.59
356.709	344.81
357.091	336.45
357.473	332.38
357.855	331.93
358.238	345.03
358.62	320.4
359.002	347.07
359.384	337.35
359.766	345.03
360.148	325.82
360.53	344.81
360.912	342.32
361.294	337.8
361.676	337.12
362.057	306.84
362.439	330.57
362.821	325.82
363.203	324.69
363.584	318.14
363.966	329.44
364.348	320.85
364.729	309.33
365.111	321.98
365.493	309.33
365.874	322.66
366.256	327.86
366.637	301.87
367.019	298.03
367.4	314.3
367.781	321.31
368.163	310.23
368.544	309.55
368.925	312.49
369.306	328.08
369.688	288.54
370.069	319.5
370.45	335.54
370.831	319.95
371.212	324.47
371.593	309.78
371.974	305.26
372.355	329.44
372.736	325.15
373.117	304.81
373.498	321.08
373.879	317.01
374.26	317.01
374.641	316.33
375.021	309.78
375.402	331.47
375.783	316.33
376.163	305.49
376.544	336.67
376.925	317.01
377.305	275.88
377.686	327.41
378.066	338.25
378.447	328.31
378.827	334.19
379.208	331.47
379.588	329.89
379.968	324.02
380.349	354.07
380.729	339.38
381.109	344.36
381.489	359.72
381.87	330.57
382.25	324.47
382.63	322.66
383.01	332.38
383.39	331.25
383.77	346.16
384.15	335.77
384.53	325.6
384.91	350.91
385.29	329.67
385.67	332.83
386.049	350
386.429	338.03
386.809	337.58
387.189	342.1
387.568	341.19
387.948	367.18
388.328	340.06
388.707	345.71
389.087	341.64
389.466	347.07
389.846	354.98
390.225	364.47
390.605	349.78
390.984	380.96
391.363	366.5
391.743	356.56
392.122	352.94
392.501	367.18
392.881	345.49
393.26	356.33
393.639	362.66
394.018	366.05
394.397	358.82
394.776	358.59
395.155	373.51
395.534	377.57
395.913	364.69
396.292	373.96
396.671	358.14
397.05	374.19
397.429	388.87
397.808	365.37
398.186	383.9
398.565	385.71
398.944	385.94
399.323	383.9
399.701	377.12
400.08	386.84
400.458	384.58
400.837	376.22
401.215	388.42
401.594	388.87
401.972	403.56
402.351	381.64
402.729	396.56
403.107	411.25
403.486	407.86
403.864	403.34
404.242	393.85
404.62	399.5
404.999	385.03
405.377	399.95
405.755	394.98
406.133	415.77
406.511	404.69
406.889	398.59
407.267	406.95
407.645	414.86
408.023	418.03
408.401	426.61
408.779	409.21
409.156	443.79
409.534	448.53
409.912	420.51
410.29	416.9
410.667	433.39
411.045	443.79
411.422	433.39
411.8	436.56
412.178	447.86
412.555	431.81
412.933	456.22
413.31	460.28
413.687	464.35
414.065	482.66
414.442	460.06
414.819	460.74
415.197	462.77
415.574	465.26
415.951	495.99
416.328	465.93
416.705	469.32
417.082	468.87
417.46	492.15
417.837	485.59
418.214	497.57
418.591	485.59
418.967	524.01
419.344	516.33
419.721	501.41
420.098	487.63
420.475	521.98
420.852	505.48
421.228	503.22
421.605	510
421.982	518.81
422.358	527.18
422.735	515.42
423.111	541.41
423.488	546.38
423.864	529.44
424.241	537.34
424.617	514.75
424.994	545.03
425.37	527.4
425.746	543.22
426.123	548.19
426.499	531.24
426.875	539.38
427.251	583.9
427.627	556.55
428.003	565.37
428.379	585.93
428.756	582.32
429.132	593.84
429.507	552.94
429.883	591.81
430.259	601.75
430.635	574.86
431.011	607.4
431.387	596.1
431.763	619.83
432.138	589.77
432.514	626.38
432.89	612.82
433.265	627.06
433.641	635.42
434.016	625.03
434.392	647.17
434.767	660.96
435.143	613.95
435.518	696.44
435.894	689.66
436.269	666.38
436.644	716.1
437.02	671.13
437.395	675.19
437.77	679.26
438.145	688.75
438.52	713.39
438.895	688.98
439.271	686.27
439.646	710.67
440.021	727.4
440.395	726.72
440.77	728.07
441.145	729.2
441.52	745.02
441.895	718.58
442.27	730.79
442.645	726.49
443.019	770.33
443.394	727.85
443.769	732.59
444.143	755.42
444.518	772.82
444.892	768.07
445.267	789.54
445.641	768.07
446.016	790.67
446.39	784.57
446.764	802.87
447.139	805.13
447.513	800.61
447.887	820.73
448.262	824.79
448.636	804.23
449.01	802.42
449.384	833.83
449.758	841.29
450.132	834.74
450.506	842.65
450.88	838.35
451.254	840.84
451.628	870.67
452.002	864.34
452.376	869.09
452.75	883.78
453.123	865.25
453.497	886.04
453.871	892.82
454.244	915.64
454.618	910.67
454.992	934.62
455.365	944.11
455.739	924
456.112	944.79
456.486	947.5
456.859	973.49
457.232	1004.45
457.606	992.93
457.979	987.95
458.352	1040.16
458.725	1013.04
459.099	1008.07
459.472	1036.54
459.845	1062.08
460.218	1057.78
460.591	1070.44
460.964	1078.8
461.337	1068.86
461.71	1102.08
462.083	1118.57
462.456	1159.93
462.829	1168.51
463.201	1149.08
463.574	1192.69
463.947	1165.8
464.32	1200.15
464.692	1207.38
465.065	1238.57
465.438	1250.09
465.81	1258
466.183	1281.28
466.555	1286.25
466.928	1334.84
467.3	1277.44
467.672	1364.44
468.045	1372.35
468.417	1360.37
468.789	1419.58
469.161	1436.76
469.534	1443.31
469.906	1459.81
470.278	1490.99
470.65	1536.87
471.022	1533.48
471.394	1604.66
471.766	1609.18
472.138	1666.81
472.51	1667.26
472.882	1673.36
473.253	1728.73
473.625	1801.27
473.997	1825.45
474.369	1852.79
474.74	1872
475.112	1922.17
475.484	1954.93
475.855	2012.11
476.227	2052.79
476.598	2089.62
476.97	2128.72
477.341	2192.22
477.713	2250.97
478.084	2287.36
478.455	2336.62
478.827	2432.44
479.198	2502.04
479.569	2502.72
479.94	2632.66
480.311	2670.62
480.682	2769.83
481.053	2863.16
481.424	2924.63
481.795	2998.07
482.166	3078.97
482.537	3149.93
482.908	3257.95
483.279	3304.28
483.65	3400.55
484.021	3521.22
484.391	3646.87
484.762	3648.22
485.133	3763.93
485.503	3884.83
485.874	4025.61
486.244	4093.86
486.615	4273.52
486.985	4340.41
487.356	4490.24
487.726	4536.11
488.097	4650.23
488.467	4746.05
488.837	4930.9
489.207	5030.33
489.578	5160.5
489.948	5273.04
490.318	5393.04
490.688	5481.62
491.058	5646.36
491.428	5778.56
491.798	5922.29
492.168	6101.72
492.538	6182.39
492.908	6299.9
493.278	6461.71
493.648	6512.1
494.017	6652.44
494.387	6803.39
494.757	6959.32
495.126	7024.63
495.496	7169.03
495.866	7329.03
496.235	7424.17
496.605	7564.96
496.974	7734.67
497.344	7835.68
497.713	7939.18
498.082	8133.98
498.452	8258.05
498.821	8362
499.19	8412.39
499.559	8591.82
499.928	8651.03
500.298	8736.68
500.667	8907.97
501.036	8972.6
501.405	9073.39
501.774	9180.96
502.143	9298.7
502.512	9420.27
502.88	9579.14
503.249	9656.88
503.618	9748.85
503.987	9788.17
504.356	9978.45
504.724	10025.46
505.093	10118.34
505.462	10186.13
505.83	10266.81
506.199	10329.4
506.567	10546.8
506.936	10535.5
507.304	10751.31
507.672	10811.65
508.041	10911.54
508.409	10959.9
508.777	11135.71
509.145	11132.55
509.514	11198.76
509.882	11363.73
510.25	11434.91
510.618	11476.04
510.986	11570.27
511.354	11720.1
511.722	11784.51
512.09	11832.19
512.458	11819.08
512.826	12003.26
513.193	12011.62
513.561	12059.08
513.929	12202.12
514.297	12384.26
514.664	12371.61
515.032	12456.81
515.4	12504.26
515.767	12640.08
516.135	12691.6
516.502	12597.37
516.869	12913.97
517.237	12873.29
517.604	12882.56
517.972	12931.37
518.339	13051.37
518.706	13080.97
519.073	13125.04
519.44	13175.2
519.808	13312.83
520.175	13285.71
520.542	13449.1
520.909	13531.35
521.276	13520.51
521.643	13597.34
522.009	13606.38
522.376	13817.67
522.743	13843.44
523.11	13946.48
523.477	13989.42
523.843	14085.91
524.21	14174.73
524.577	14221.96
524.943	14258.11
525.31	14392.35
525.676	14360.26
526.043	14427.37
526.409	14468.28
526.776	14698.78
527.142	14609.97
527.508	14667.59
527.874	14724.09
528.241	14746.46
528.607	14766.58
528.973	14877.53
529.339	14928.6
529.705	14990.75
530.071	14968.6
530.437	15147.36
530.803	15062.39
531.169	15187.58
531.535	15146.23
531.901	15117.98
532.267	15135.83
532.632	15238.2
532.998	15293.57
533.364	15264.42
533.73	15361.36
534.095	15392.77
534.461	15364.07
534.826	15404.75
535.192	15461.25
535.557	15506.89
535.923	15449.04
536.288	15482.49
536.653	15494.69
537.019	15408.59
537.384	15507.8
537.749	15469.83
538.114	15504.41
538.479	15460.79
538.845	15565.88
539.21	15482.26
539.575	15456.95
539.94	15407.46
540.305	15599.32
540.67	15518.42
541.034	15471.87
541.399	15513.9
541.764	15450.62
542.129	15536.95
542.494	15550.51
542.858	15505.54
543.223	15521.58
543.587	15484.75
543.952	15439.55
544.316	15484.3
544.681	15442.72
545.045	15450.62
545.41	15614.46
545.774	15552.54
546.138	15504.63
546.503	15521.81
546.867	15446.56
547.231	15520.45
547.595	15512.54
547.959	15579.89
548.324	15462.6
548.688	15464.86
549.052	15492.21
549.416	15504.18
549.779	15498.76
550.143	15470.29
550.507	15522.71
550.871	15458.31
551.235	15379.44
551.599	15568.14
551.962	15539.44
552.326	15536.95
552.689	15542.15
553.053	15448.36
553.417	15461.25
553.78	15674.12
554.143	15476.39
554.507	15495.14
554.87	15608.81
555.234	15631.64
555.597	15527.01
555.96	15462.6
556.323	15621.69
556.686	15557.29
557.05	15600.9
557.413	15607.68
557.776	15609.04
558.139	15642.71
558.502	15687.68
558.865	15694.23
559.228	15652.43
559.59	15779.66
559.953	15677.06
560.316	15839.32
560.679	15782.82
561.041	15856.49
561.404	15842.48
561.767	15993.21
562.129	15821.46
562.492	15971.52
562.854	15950.05
563.217	15927.45
563.579	15952.76
563.941	15988.46
564.304	16023.49
564.666	16127.44
565.028	16050.16
565.39	16149.14
565.753	16176.93
566.115	16190.04
566.477	16340.32
566.839	16191.4
567.201	16306.65
567.563	16282.24
567.925	16358.85
568.287	16358.17
568.648	16423.03
569.01	16407.66
569.372	16534.66
569.734	16457.6
570.095	16574.66
570.457	16564.72
570.819	16659.18
571.18	16637.94
571.542	16626.19
571.903	16654.89
572.265	16616.7
572.626	16773.08
572.987	16706.19
573.349	16734.43
573.71	16938.95
574.071	16809.69
574.432	16884.94
574.794	17026.4
575.155	16909.34
575.516	16947.53
575.877	16884.26
576.238	16986.18
576.599	17046.06
576.96	17016.46
577.32	16906.86
577.681	16982.79
578.042	17012.62
578.403	17023.01
578.763	17035.89
579.124	17057.14
579.485	17087.42
579.845	17109.79
580.206	17067.53
580.566	17006.97
580.927	17071.37
581.287	17156.79
581.648	17077.47
582.008	17099.17
582.368	17023.69
582.728	17114.31
583.089	17033.86
583.449	17034.31
583.809	16992.73
584.169	17061.2
584.529	17007.42
584.889	17187.53
585.249	17033.86
585.609	17054.42
585.969	17058.72
586.329	17053.52
586.688	16995.44
587.048	17027.08
587.408	17026.18
587.768	17005.39
588.127	17027.31
588.487	16984.37
588.846	17105.5
589.206	16886.97
589.565	16935.11
589.925	16990.47
590.284	16917.7
590.643	16941.66
591.003	17016.23
591.362	16967.42
591.721	16952.28
592.08	16986.86
592.44	17022.56
592.799	17005.16
593.158	16929.46
593.517	16987.08
593.876	17016.01
594.235	16856.24
594.593	16940.76
594.952	17020.98
595.311	16867.99
595.67	16889.01
596.029	16950.7
596.387	16959.29
596.746	16992.28
597.104	16892.85
597.463	16936.46
597.822	16977.36
598.18	16854.66
598.538	16878.38
598.897	16978.95
599.255	16846.52
599.613	17028.44
599.972	16885.84
600.33	17011.04
600.688	16888.1
601.046	16932.85
601.404	17077.25
601.762	17004.26
602.12	17005.16
602.478	17008.55
602.836	16979.85
603.194	16911.6
603.552	16988.66
603.91	16868.44
604.268	16949.57
604.625	17042.9
604.983	16985.73
605.341	16948.89
605.698	17011.04
606.056	16995.89
606.413	17001.77
606.771	17092.16
607.128	17101.88
607.485	17036.8
607.843	17027.76
608.2	17073.86
608.557	17198.38
608.914	17123.12
609.272	17216
609.629	17181.43
609.986	17279.05
610.343	17097.36
610.7	17315.21
611.057	17323.34
611.414	17168.32
611.771	17214.65
612.127	17340.07
612.484	17326.51
612.841	17271.59
613.198	17310.01
613.554	17298.26
613.911	17394.98
614.267	17377.13
614.624	17394.08
614.98	17416.67
615.337	17476.33
615.693	17405.83
616.05	17469.78
616.406	17561.3
616.762	17495.09
617.118	17512.49
617.475	17502.1
617.831	17500.51
618.187	17533.28
618.543	17519.5
618.899	17647.4
619.255	17639.27
619.611	17611.92
619.967	17618.48
620.323	17705.25
620.678	17679.94
621.034	17575.77
621.39	17603.34
621.746	17625.71
622.101	17771.47
622.457	17644.24
622.812	17672.71
623.168	17692.83
623.523	17626.16
623.879	17768.3
624.234	17644.69
624.589	17708.19
624.945	17824.35
625.3	17812.37
625.655	17801.98
626.01	17705.25
626.365	17841.97
626.72	17778.02
627.075	17686.5
627.43	17710
627.785	17668.65
628.14	17839.94
628.495	17771.47
628.85	17625.03
629.205	17545.48
629.559	17784.35
629.914	17628.42
630.269	17722.66
630.623	17608.08
630.978	17641.08
631.332	17691.7
631.687	17567.63
632.041	17606.5
632.396	17559.5
632.75	17525.82
633.104	17512.72
633.459	17428.43
633.813	17497.12
634.167	17463.68
634.521	17497.35
634.875	17362.89
635.229	17427.3
635.583	17363.12
635.937	17413.06
636.291	17386.62
636.645	17339.39
636.999	17342.1
637.352	17346.62
637.706	17290.12
638.06	17346.39
638.413	17213.52
638.767	17250.13
639.121	17231.82
639.474	17178.94
639.828	17227.75
640.181	17160.86
640.534	17206.06
640.888	17196.12
641.241	16980.75
641.594	17133.29
641.947	17263.46
642.301	17013.07
642.654	17126.74
643.007	17162.67
643.36	17047.19
643.713	17116.8
644.066	17160.18
644.419	16989.57
644.771	16943.69
645.124	16656.47
645.477	16688.78
645.83	16575.57
646.182	16578.73
646.535	16462.58
646.888	16571.05
647.24	16439.53
647.593	16562.01
647.945	16499.41
648.298	16447.89
648.65	16360.21
649.002	16373.54
649.355	16451.5
649.707	16457.38
650.059	16493.31
650.411	16698.05
650.763	16653.53
651.115	16914.09
651.467	16890.36
651.819	16836.35
652.171	16898.72
652.523	16759.29
652.875	16849.91
653.227	16720.2
653.578	16867.99
653.93	16835.22
654.282	16868.44
654.633	16692.85
654.985	16700.99
655.337	16785.96
655.688	16768.56
656.039	16848.55
656.391	16751.83
656.742	16697.6
657.094	16851.04
657.445	16799.52
657.796	16707.77
658.147	16738.73
658.498	16647.2
658.849	16752.06
659.2	16700.31
659.551	16667.32
659.902	16827.09
660.253	16714.09
660.604	16764.26
660.955	16705.51
661.306	16776.24
661.656	16733.3
662.007	16822.11
662.358	16879.74
662.708	16743.47
663.059	16836.35
663.409	16755
663.76	16864.37
664.11	16849.01
664.461	16903.92
664.811	16878.38
665.161	16739.63
665.511	16852.62
665.862	16762.23
666.212	16988.89
666.562	16945.5
666.912	16934.65
667.262	16816.46
667.612	16858.72
667.962	16857.14
668.312	16885.16
668.662	16860.53
669.011	16881.55
669.361	16838.61
669.711	16743.92
670.06	16783.25
670.41	16788.89
670.76	16751.83
671.109	16928.33
671.459	16813.75
671.808	16750.7
672.157	16760.87
672.507	16583.02
672.856	16694.21
673.205	16634.77
673.554	16812.62
673.904	16646.98
674.253	16731.04
674.602	16704.83
674.951	16413.31
675.3	16423.93
675.649	16632.97
675.998	16611.5
676.346	16564.49
676.695	16650.82
677.044	16571.27
677.393	16601.1
677.741	16622.57
678.09	16559.52
678.438	16505.96
678.787	16594.78
679.135	16516.13
679.484	16389.81
679.832	16496.47
680.181	16341
680.529	16445.17
680.877	16352.52
681.225	16364.73
681.573	16413.76
681.922	16241.79
682.27	16264.61
682.618	16255.35
682.966	16259.19
683.314	16217.38
683.661	16138.97
684.009	16099.87
684.357	16044.51
684.705	16027.11
685.053	16029.37
685.4	16034.56
685.748	15852.2
686.095	15962.7
686.443	15807.68
686.79	15807
687.138	15764.51
687.485	15781.46
687.832	15703.73
688.18	15699.21
688.527	15671.18
688.874	15649.94
689.221	15536.95
689.568	15513.67
689.915	15505.31
690.262	15510.28
690.609	15439.78
690.956	15393.23
691.303	15359.33
691.65	15259.9
691.997	15314.13
692.344	15165.43
692.69	15197.3
693.037	15136.73
693.383	15077.98
693.73	15119.33
694.077	14952.33
694.423	14957.3
694.769	14991.88
695.116	14799.57
695.462	14864.88
695.808	14786.69
696.155	14793.24
696.501	14695.16
696.847	14571.33
697.193	14484.77
697.539	14538.33
697.885	14492.23
698.231	14417.43
698.577	14380.14
698.923	14344.44
699.269	14349.41
699.614	14237.32
699.96	14179.47
700.306	14161.17
700.651	14057.22
700.997	14086.59
701.342	14003.43
701.688	13962.53
702.033	13934.05
702.379	13942.64
702.724	13863.1
703.069	13843.89
703.415	13677.34
703.76	13732.48
704.105	13696.55
704.45	13632.82
704.795	13532.03
705.14	13522.77
705.485	13492.94
705.83	13374.07
706.175	13447.29
706.52	13407.97
706.865	13391.02
707.209	13278.25
707.554	13266.5
707.899	13335.43
708.243	13198.93
708.588	13121.19
708.932	13112.38
709.277	13047.98
709.621	13104.92
709.966	12993.74
710.31	13003.91
710.654	12915.1
710.998	12920.75
711.342	12943.35
711.687	12763.92
712.031	12753.29
712.375	12669.68
712.719	12742.45
713.063	12678.72
713.407	12742.45
713.75	12748.55
714.094	12645.05
714.438	12671.94
714.782	12631.94
715.125	12493.19
715.469	12623.81
715.812	12494.32
716.156	12512.4
716.499	12512.4
716.843	12493.19
717.186	12483.25
717.53	12434.66
717.873	12455.45
718.216	12365.28
718.559	12389.91
718.902	12218.85
719.246	12276.92
719.589	12224.04
719.932	12200.54
720.275	12234.89
720.617	12233.76
720.96	12261.78
721.303	12175.23
721.646	12224.04
721.989	12116.25
722.331	12159.19
722.674	12101.33
723.016	12137.27
723.359	12063.14
723.701	12074.89
724.044	12022.01
724.386	11999.87
724.729	12007.55
725.071	11956.71
725.413	11940.66
725.755	11891.62
726.097	11959.42
726.439	11945.18
726.782	11834
727.124	11973.43
727.465	11845.3
727.807	11919.19
728.149	11866.99
728.491	11866.09
728.833	11831.06
729.175	11859.76
729.516	11797.16
729.858	11893.2
730.199	11868.8
730.541	11704.28
730.882	11781.57
731.224	11788.35
731.565	11734.79
731.906	11724.4
732.248	11780.44
732.589	11757.16
732.93	11722.59
733.271	11732.76
733.612	11742.02
733.953	11725.75
734.294	11650.95
734.635	11678.75
734.976	11716.71
735.317	11635.13
735.658	11714.68
735.999	11696.83
736.339	11706.77
736.68	11722.59
737.021	11685.75
737.361	11689.82
737.702	11785.41
738.042	11758.97
738.383	11754.68
738.723	11803.94
739.063	11827.22
739.404	11774.79
739.744	11835.35
740.084	11785.64
740.424	11808.46
740.764	11744.06
741.104	11825.86
741.444	11840.55
741.784	11706.77
742.124	11928.23
742.464	11808.46
742.804	11842.81
743.143	11836.26
743.483	11910.6
743.823	11866.09
744.162	11934.33
744.502	11973.2
744.841	11922.58
745.181	11984.28
745.52	12014.11
745.86	11976.37
746.199	12050.26
746.538	12086.42
746.877	12197.38
747.216	12243.03
747.556	12231.5
747.895	12297.71
748.234	12255
748.573	12294.32
748.911	12393.76
749.25	12489.8
749.589	12440.08
749.928	12574.09
750.267	12743.58
750.605	12661.09
750.944	12693.41
751.283	12699.51
751.621	12880.07
751.96	12908.32
752.298	12991.25
752.636	13130.23
752.975	13124.81
753.313	13156.67
753.651	13332.49
753.989	13417.91
754.327	13505.14
754.666	13517.57
755.004	13684.57
755.342	13811.57
755.679	13792.36
756.017	13866.26
756.355	14024.22
756.693	14059.93
757.031	14235.29
757.368	14364.33
757.706	14365.46
758.044	14481.38
758.381	14631.89
758.719	14764.99
759.056	14826.01
759.394	14976.51
759.731	14934.48
760.068	15120.24
760.405	15211.31
760.743	15252.44
761.08	15442.49
761.417	15503.05
761.754	15548.02
762.091	15659.88
762.428	15746.44
762.765	15729.26
763.102	16003.6
763.438	15998.18
763.775	16175.58
764.112	16295.57
764.449	16383.93
764.785	16327.44
765.122	16473.2
765.458	16539.41
765.795	16606.53
766.131	16697.82
766.467	16743.25
766.804	16703.93
767.14	16887.2
767.476	17001.54
767.812	17004.48
768.148	17099.85
768.485	17141.2
768.821	17113.41
769.157	17256.91
769.492	17200.41
769.828	17319.5
770.164	17286.28
770.5	17369.22
770.836	17378.48
771.171	17284.25
771.507	17426.84
771.842	17441.98
772.178	17464.81
772.513	17426.39
772.849	17460.29
773.184	17526.95
773.519	17513.17
773.855	17552.94
774.19	17517.46
774.525	17465.26
774.86	17476.79
775.195	17514.53
775.53	17460.52
775.865	17479.27
776.2	17431.36
776.535	17457.8
776.87	17411.48
777.205	17467.97
777.539	17258.26
777.874	17456
778.209	17333.51
778.543	17347.07
778.878	17260.75
779.212	17339.84
779.547	17239.05
779.881	17277.24
780.215	17257.13
780.55	17314.53
780.884	17155.21
781.218	17161.09
781.552	17206.74
781.886	17148.43
782.22	17088.55
782.554	17009.91
782.888	16927.65
783.222	16836.8
783.556	16818.95
783.889	16836.13
784.223	16681.1
784.557	16641.78
784.89	16740.99
785.224	16625.74
785.557	16558.84
785.891	16613.08
786.224	16522.91
786.558	16471.84
786.891	16454.21
787.224	16410.6
787.557	16400.43
787.891	16418.06
788.224	16396.81
788.557	16315.69
788.89	16243.82
789.223	16324.5
789.556	16170.15
789.888	16086.99
790.221	16162.92
790.554	16069.14
790.887	16020.1
791.219	16008.35
791.552	15945.53
791.884	15887.9
792.217	15798.64
792.549	15788.7
792.882	15700.11
793.214	15619.89
793.546	15736.27
793.879	15647.68
794.211	15514.8
794.543	15610.17
794.875	15538.08
795.207	15535.82
795.539	15395.49
795.871	15456.95
796.203	15317.75
796.535	15209.95
796.867	15287.24
797.198	15157.98
797.53	15268.93
797.862	15073.69
798.193	15051.77
798.525	15071.2
798.856	15057.87
799.188	14873.92
799.519	14802.28
799.85	14864.2
800.182	14895.16
800.513	14875.27
800.844	14573.13
801.175	14738.55
801.506	14783.98
801.837	14579.46
802.168	14611.32
802.499	14652.45
802.83	14456.53
803.161	14443.65
803.491	14522.74
803.822	14413.82
804.153	14361.39
804.483	14310.32
804.814	14198.68
805.145	14340.6
805.475	14281.62
805.805	14199.13
806.136	14207.49
806.466	14106.93
806.796	14130.66
807.126	14056.31
807.457	13987.84
807.787	13988.06
808.117	13889.76
808.447	13882.3
808.777	13926.82
809.107	13842.31
809.436	13903.09
809.766	13755.53
810.096	13788.97
810.426	13690.45
810.755	13706.72
811.085	13579.49
811.414	13628.98
811.744	13574.29
812.073	13487.51
812.403	13509.21
812.732	13446.16
813.061	13408.87
813.39	13354.41
813.719	13295.65
814.049	13353.05
814.378	13372.94
814.707	13303.79
815.036	13226.5
815.365	13157.35
815.693	13084.59
816.022	13024.47
816.351	13056.34
816.68	13025.15
817.008	13010.24
817.337	12932.5
817.665	12950.8
817.994	12936.11
818.322	12933.63
818.651	12869.22
818.979	12758.49
819.307	12885.72
819.636	12795.1
819.964	12736.57
820.292	12726.4
820.62	12706.74
820.948	12683.92
821.276	12771.83
821.604	12761.2
821.932	12711.94
822.259	12800.07
822.587	12713.75
822.915	12640.08
823.243	12719.17
823.57	12644.37
823.898	12707.19
824.225	12593.75
824.553	12673.07
824.88	12693.64
825.207	12708.78
825.535	12650.25
825.862	12718.04
826.189	12686.18
826.516	12684.82
826.843	12755.33
827.17	12754.65
827.497	12789.45
827.824	12729.79
828.151	12704.93
828.478	12760.98
828.805	12789.45
829.131	12638.72
829.458	12654.31
829.785	12606.18
830.111	12699.28
830.438	12745.39
830.764	12728.44
831.09	12672.39
831.417	12700.41
831.743	12734.76
832.069	12692.05
832.395	12668.78
832.722	12650.25
833.048	12556.92
833.374	12560.53
833.7	12526.86
834.026	12652.05
834.351	12574.77
834.677	12552.17
835.003	12640.3
835.329	12549.68
835.654	12546.07
835.98	12452.06
836.306	12404.83
836.631	12459.29
836.956	12499.29
837.282	12469.69
837.607	12397.15
837.932	12339.29
838.258	12412.96
838.583	12404.38
838.908	12392.85
839.233	12211.84
839.558	12343.59
839.883	12223.82
840.208	12245.06
840.533	12219.52
840.858	12198.96
841.182	12179.3
841.507	12161.67
841.832	12123.48
842.156	12156.02
842.481	12078.51
842.805	12022.01
843.13	11933.43
843.454	12050.49
843.778	11989.25
844.103	11924.39
844.427	11913.99
844.751	11932.98
845.075	11836.93
845.399	11824.96
845.723	11803.94
846.047	11809.14
846.371	11772.76
846.695	11664.51
847.019	11665.64
847.343	11612.99
847.666	11549.71
847.99	11512.88
848.313	11475.14
848.637	11429.26
848.96	11367.79
849.284	11279.89
849.607	11193.34
849.931	11303.39
850.254	11146.11
850.577	11110.17
850.9	11027.69
851.223	10961.03
851.546	10900.46
851.869	10800.8
852.192	10866.34
852.515	10806.91
852.838	10767.36
853.161	10854.59
853.483	10718.55
853.806	10733.91
854.129	10646.23
854.451	10646.68
854.774	10517.65
855.096	10622.05
855.419	10495.95
855.741	10459.57
856.063	10473.81
856.385	10404.2
856.708	10424.09
857.03	10336.63
857.352	10329.63
857.674	10248.73
857.996	10276.3
858.318	10204.66
858.64	10210.31
858.961	10175.96
859.283	10139.58
859.605	10064.33
859.926	10207.6
860.248	10095.51
860.57	10012.12
860.891	10057.55
861.212	9956.31
861.534	9910.21
861.855	9881.96
862.176	9968.74
862.498	9929.41
862.819	9899.58
863.14	9858.23
863.461	9867.27
863.782	9818.68
864.103	9821.39
864.424	9803.54
864.745	9845.57
865.065	9720.61
865.386	9759.02
865.707	9703.21
866.027	9741.17
866.348	9731.23
866.668	9629.08
866.989	9624.56
867.309	9563.32
867.63	9648.74
867.95	9608.74
868.27	9570.78
868.59	9580.95
868.91	9561.97
869.23	9537.11
869.55	9517.22
869.87	9485.36
870.19	9497.34
870.51	9507.28
870.83	9474.96
871.15	9447.17
871.469	9385.47
871.789	9412.82
872.109	9476.77
872.428	9435.42
872.748	9391.8
873.067	9387.51
873.386	9378.47
873.706	9389.54
874.025	9303.22
874.344	9244.23
874.663	9282.65
874.982	9289.66
875.301	9208.08
875.62	9230
875.939	9238.36
876.258	9260.05
876.577	9128.76
876.896	9187.29
877.214	9131.92
877.533	9148.64
877.852	9154.97
878.17	9150.9
878.489	9136.67
878.807	9098.7
879.125	9093.28
879.444	9060.74
879.762	9016.9
880.08	9013.73
880.398	9037.46
880.716	8945.26
881.034	8888.09
881.352	8911.81
881.67	8926.5
881.988	8902.32
882.306	8895.09
882.624	8846.96
882.941	8834.75
883.259	8850.8
883.577	8844.02
883.894	8732.84
884.212	8754.76
884.529	8773.51
884.846	8736.68
885.164	8705.72
885.481	8715.43
885.798	8699.16
886.115	8647.19
886.432	8693.06
886.75	8592.27
887.067	8605.83
887.383	8518.83
887.7	8579.85
888.017	8492.39
888.334	8542.56
888.651	8467.76
888.967	8448.32
889.284	8410.13
889.6	8359.51
889.917	8383.69
890.233	8307.99
890.55	8303.24
890.866	8340.76
891.182	8303.24
891.498	8244.71
891.815	8267.54
892.131	8202.45
892.447	8219.18
892.763	8178.27
893.079	8151.83
893.395	8143.25
893.71	8079.07
894.026	8096.69
894.342	8081.78
894.657	8002.69
894.973	7992.06
895.289	8004.04
895.604	8018.28
895.92	7918.17
896.235	7855.12
896.55	7852.63
896.865	7841.56
897.181	7789.13
897.496	7829.58
897.811	7701
898.126	7749.58
898.441	7811.5
898.756	7667.55
899.071	7609.7
899.386	7651.06
899.7	7656.93
900.015	7592.07
900.33	7573.54
900.644	7516.82
900.959	7521.57
901.273	7446.99
901.588	7471.4
901.902	7396.6
902.216	7355.24
902.531	7346.43
902.845	7289.48
903.159	7335.58
903.473	7288.58
903.787	7261.46
904.101	7209.71
904.415	7198.86
904.729	7212.88
905.042	7124.97
905.356	7092.65
905.67	7044.74
905.984	7084.74
906.297	7028.47
906.611	7026.44
906.924	6985.08
907.237	6958.19
907.551	6941.24
907.864	6904.63
908.177	6886.56
908.491	6860.57
908.804	6823.06
909.117	6760.01
909.43	6772.43
909.743	6710.29
910.056	6713.68
910.368	6645.21
910.681	6600.91
910.994	6616.05
911.307	6649.5
911.619	6563.17
911.932	6548.26
912.244	6504.19
912.557	6479.34
912.869	6429.17
913.181	6408.38
913.494	6437.08
913.806	6383.29
914.118	6375.61
914.43	6334.48
914.742	6256.06
915.054	6277.98
915.366	6256.74
915.678	6285.22
915.99	6178.33
916.302	6196.86
916.613	6179
916.925	6168.16
917.236	6165.45
917.548	6126.35
917.859	6112.34
918.171	6060.59
918.482	6024.88
918.794	5985.79
919.105	5984.66
919.416	5918.22
919.727	5955.73
920.038	5875.06
920.349	5868.05
920.66	5824.66
920.971	5860.37
921.282	5840.26
921.593	5780.37
921.903	5728.17
922.214	5730.43
922.525	5736.98
922.835	5670.99
923.146	5641.17
923.456	5687.49
923.767	5633.93
924.077	5625.8
924.387	5562.98
924.697	5492.47
925.008	5511.68
925.318	5529.98
925.628	5469.19
925.938	5448.85
926.248	5412.7
926.558	5363.66
926.867	5345.58
927.177	5350.33
927.487	5330.89
927.796	5296.77
928.106	5294.51
928.416	5291.12
928.725	5247.96
929.034	5226.03
929.344	5184.91
929.653	5238.92
929.962	5128.18
930.271	5163.44
930.581	5117.11
930.89	5066.94
931.199	5073.5
931.508	5050.67
931.817	5050.9
932.125	5027.17
932.434	4975.42
932.743	4953.95
933.051	4946.49
933.36	4904.91
933.669	4885.48
933.977	4889.77
934.286	4868.76
934.594	4825.59
934.902	4802.77
935.21	4789.44
935.519	4850.45
935.827	4796.44
936.135	4776.33
936.443	4702.66
936.751	4685.26
937.059	4686.61
937.367	4672.6
937.674	4671.7
937.982	4647.52
938.29	4631.7
938.597	4565.49
938.905	4598.93
939.213	4546.05
939.52	4544.7
939.827	4570.01
940.135	4492.49
940.442	4465.6
940.749	4410.92
941.056	4462.67
941.363	4429.45
941.67	4398.26
941.977	4370.24
942.284	4382.67
942.591	4344.25
942.898	4317.58
943.205	4283.23
943.511	4299.51
943.818	4237.36
944.125	4258.6
944.431	4227.64
944.738	4200.75
945.044	4184.93
945.35	4205.5
945.657	4170.92
945.963	4197.14
946.269	4124.14
946.575	4084.37
946.881	4118.04
947.187	4093.41
947.493	4045.95
947.799	4023.35
948.105	4037.82
948.41	4033.3
948.716	3999.63
949.022	3956.24
949.327	3982
949.633	3904.71
949.938	3944.71
950.244	3913.98
950.549	3908.33
950.854	3833.3
951.16	3882.79
951.465	3852.06
951.77	3787.43
952.075	3782.91
952.38	3753.98
952.685	3773.42
952.99	3757.15
953.294	3733.87
953.599	3767.99
953.904	3683.02
954.209	3720.99
954.513	3685.96
954.818	3628.34
955.122	3636.92
955.426	3644.38
955.731	3583.37
956.035	3597.38
956.339	3636.47
956.643	3602.35
956.948	3563.03
957.252	3511.73
957.556	3542.24
957.86	3503.59
958.163	3481.22
958.467	3516.02
958.771	3477.83
959.075	3499.07
959.378	3451.17
959.682	3437.61
959.985	3439.19
960.289	3419.53
960.592	3387.89
960.896	3357.84
961.199	3359.19
961.502	3319.64
961.805	3264.5
962.108	3296.59
962.411	3304.5
962.714	3278.29
963.017	3285.97
963.32	3255.92
963.623	3236.03
963.926	3226.99
964.228	3250.04
964.531	3200.55
964.833	3175.69
965.136	3156.03
965.438	3104.06
965.741	3156.26
966.043	3159.87
966.345	3114.9
966.648	3103.83
966.95	3074.23
967.252	3083.72
967.554	3076.94
967.856	3055.47
968.158	3038.97
968.46	3057.73
968.761	3000.33
969.063	3035.58
969.365	2998.52
969.666	2969.15
969.968	2918.07
970.269	2947.9
970.571	2932.08
970.872	2977.51
971.174	2867.45
971.475	2931.18
971.776	2893.44
972.077	2857.96
972.378	2876.27
972.679	2831.75
972.98	2855.48
973.281	2852.76
973.582	2834.91
973.883	2771.86
974.183	2805.99
974.484	2758.08
974.785	2785.87
975.085	2768.47
975.386	2775.93
975.686	2721.47
975.986	2701.81
976.287	2716.27
976.587	2651.19
976.887	2692.77
977.187	2669.27
977.487	2681.7
977.787	2618.19
978.087	2645.76
978.387	2633.56
978.687	2631.75
978.987	2580.45
979.286	2574.13
979.586	2602.15
979.885	2587.01
980.185	2595.14
980.484	2533.22
980.784	2559.66
981.083	2549.95
981.382	2516.5
981.682	2493.45
981.981	2488.71
982.28	2520.34
982.579	2448.03
982.878	2464.98
983.177	2463.85
983.475	2419.33
983.774	2431.53
984.073	2421.81
984.372	2415.71
984.67	2410.29
984.969	2391.53
985.267	2401.25
985.566	2363.06
985.864	2382.04
986.162	2344.53
986.461	2361.7
986.759	2340.91
987.057	2346.79
987.355	2302.04
987.653	2287.36
987.951	2301.37
988.249	2297.07
988.547	2277.64
988.844	2247.36
989.142	2203.52
989.44	2242.38
989.737	2225.44
990.035	2215.72
990.332	2198.77
990.63	2172.56
990.927	2185.21
991.224	2201.03
991.521	2181.6
991.819	2134.59
992.116	2179.56
992.413	2124.65
992.71	2147.02
993.006	2083.97
993.303	2121.94
993.6	2087.13
993.897	2090.3
994.193	2056.17
994.49	2093.24
994.787	2057.3
995.083	2055.72
995.379	2035.38
995.676	2039.23
995.972	2046.91
996.268	2014.14
996.565	2015.27
996.861	2016.4
997.157	1982.73
997.453	1978.89
997.749	1948.83
998.044	1960.58
998.34	1942.05
998.636	1931.88
998.932	1894.15
999.227	1880.81
999.523	1874.94
999.818	1892.79
1000.114	1889.85
1000.409	1900.92
1000.704	1881.72
1001	1865.9
1001.295	1847.59
1001.59	1861.15
1001.885	1838.55
1002.18	1811.89
1002.475	1794.03
1002.77	1779.8
1003.065	1768.95
1003.359	1804.43
1003.654	1765.11
1003.949	1744.32
1004.243	1748.39
1004.538	1743.64
1004.832	1745.22
1005.127	1714.04
1005.421	1708.39
1005.715	1708.61
1006.009	1702.96
1006.304	1693.47
1006.598	1706.13
1006.892	1659.35
1007.186	1626.36
1007.48	1634.26
1007.773	1633.81
1008.067	1644.43
1008.361	1610.54
1008.655	1634.72
1008.948	1615.96
1009.242	1600.37
1009.535	1600.37
1009.829	1563.76
1010.122	1536.41
1010.415	1546.81
1010.708	1560.59
1011.001	1533.7
1011.295	1522.18
1011.588	1542.97
1011.881	1482.86
1012.173	1470.65
1012.466	1506.58
1012.759	1495.96
1013.052	1469.98
1013.344	1471.78
1013.637	1477.21
1013.93	1461.16
1014.222	1440.6
1014.514	1458.9
1014.807	1454.61
1015.099	1439.47
1015.391	1436.76
1015.683	1419.81
1015.976	1423.65
1016.268	1382.75
1016.56	1365.12
1016.851	1387.72
1017.143	1367.61
1017.435	1364.44
1017.727	1362.86
1018.018	1360.37
1018.31	1342.52
1018.602	1335.97
1018.893	1324.44
1019.185	1310.66
1019.476	1281.51
1019.767	1295.74
1020.058	1295.06
1020.35	1285.12
1020.641	1264.11
1020.932	1272.01
1021.223	1282.41
1021.514	1231.34
1021.804	1254.16
1022.095	1249.64
1022.386	1245.57
1022.677	1215.52
1022.967	1198.57
1023.258	1214.61
1023.548	1213.26
1023.839	1195.18
1024.129	1185.92
1024.419	1174.16
1024.709	1145.01
1025	1148.63
1025.29	1174.84
1025.58	1148.18
1025.87	1110.21
1026.16	1115.63
1026.449	1132.36
1026.739	1125.8
1027.029	1125.35
1027.319	1120.38
1027.608	1105.47
1027.898	1108.86
1028.187	1077.67
1028.477	1098.91
1028.766	1055.98
1029.055	1086.26
1029.344	1056.2
1029.634	1041.06
1029.923	1056.65
1030.212	1058.69
1030.501	1038.8
1030.79	1014.85
1031.078	1014.62
1031.367	1026.15
1031.656	1015.75
1031.945	997.9
1032.233	995.64
1032.522	987.05
1032.81	1011.46
1033.099	972.36
1033.387	968.75
1033.675	990.89
1033.963	950.44
1034.251	985.02
1034.54	940.72
1034.828	951.57
1035.116	909.31
1035.403	947.28
1035.691	943.44
1035.979	929.2
1036.267	889.2
1036.554	915.87
1036.842	935.53
1037.129	879.26
1037.417	899.14
1037.704	874.96
1037.992	879.93
1038.279	860.05
1038.566	866.6
1038.853	866.6
1039.14	866.6
