Data from hue_140_FLMS001491_00070.txt Node
Date: Tue Feb 07 16:56:16 GMT 2017
User: dcchb
Spectrometer: FLMS00149
Trigger mode: 0
Integration Time (sec): 2.000000E-2
Scans to average: 10
Electric dark correction enabled: true
Nonlinearity correction enabled: false
Boxcar width: 0
XAxis mode: Wavelengths
Number of Pixels in Spectrum: 2048
>>>>>Begin Spectral Data<<<<<
341.393	-14.8
341.776	-14.8
342.16	-14.8
342.543	-62.94
342.927	-62.26
343.31	-59.32
343.693	-65.42
344.077	-49.6
344.46	-63.84
344.843	-44.18
345.226	-50.73
345.61	-24.97
345.993	-25.2
346.376	3.05
346.759	0.34
347.142	20
347.525	42.82
347.908	58.87
348.291	78.53
348.674	71.07
349.057	108.58
349.44	130.28
349.823	139.54
350.206	157.17
350.588	186.32
350.971	219.54
351.354	232.2
351.737	235.36
352.119	262.03
352.502	259.09
352.884	282.59
353.267	285.3
353.65	299.09
354.032	276.26
354.414	313.78
354.797	305.19
355.179	316.04
355.562	321.01
355.944	343.15
356.326	340.22
356.709	341.12
357.091	328.01
357.473	355.36
357.855	337.96
358.238	340.22
358.62	326.21
359.002	332.31
359.384	345.41
359.766	340.44
360.148	356.49
360.53	322.36
360.912	351.52
361.294	345.64
361.676	330.73
362.057	320.78
362.439	335.02
362.821	332.31
363.203	339.31
363.584	335.47
363.966	338.18
364.348	334.57
364.729	321.23
365.111	322.59
365.493	317.62
365.874	317.62
366.256	319.2
366.637	320.56
367.019	310.39
367.4	314.91
367.781	331.18
368.163	316.26
368.544	324.4
368.925	335.92
369.306	321.69
369.688	299.31
370.069	321.23
370.45	301.12
370.831	320.33
371.212	309.94
371.593	318.3
371.974	302.48
372.355	295.25
372.736	321.23
373.117	314.46
373.498	329.82
373.879	319.43
374.26	321.01
374.641	323.04
375.021	304.06
375.402	297.96
375.783	306.77
376.163	318.07
376.544	343.61
376.925	340.44
377.305	330.73
377.686	319.2
378.066	333.89
378.447	315.81
378.827	320.33
379.208	330.73
379.588	349.93
379.968	324.17
380.349	324.85
380.729	321.69
381.109	345.64
381.489	330.73
381.87	330.73
382.25	329.6
382.63	319.88
383.01	334.12
383.39	338.18
383.77	346.32
384.15	344.06
384.53	363.95
384.91	357.17
385.29	343.83
385.67	369.37
386.049	349.03
386.429	345.64
386.809	344.96
387.189	347
387.568	339.54
387.948	358.3
388.328	349.71
388.707	345.87
389.087	355.58
389.466	360.56
389.846	359.88
390.225	343.15
390.605	359.2
390.984	367.56
391.363	358.3
391.743	373.89
392.122	380.89
392.501	355.81
392.881	372.53
393.26	366.66
393.639	378.63
394.018	403.72
394.397	391.97
394.776	372.08
395.155	380.67
395.534	376.37
395.913	361.01
396.292	388.58
396.671	386.54
397.05	380.22
397.429	382.93
397.808	384.28
398.186	392.87
398.565	375.02
398.944	369.82
399.323	377.5
399.701	417.05
400.08	380.44
400.458	391.29
400.837	415.7
401.215	391.52
401.594	399.88
401.972	403.04
402.351	417.73
402.729	403.72
403.107	419.31
403.486	418.63
403.864	409.37
404.242	406.66
404.62	440.1
404.999	421.12
405.377	422.47
405.755	420.21
406.133	429.03
406.511	429.93
406.889	443.27
407.267	433.1
407.645	439.88
408.023	410.95
408.401	416.6
408.779	439.2
409.156	445.3
409.534	438.29
409.912	461.57
410.29	461.57
410.667	454.79
411.045	469.48
411.422	458.41
411.8	457.05
412.178	467.67
412.555	462.02
412.933	471.29
413.31	453.43
413.687	477.84
414.065	469.71
414.442	475.35
414.819	497.95
415.197	478.29
415.574	487.78
415.951	498.18
416.328	502.02
416.705	500.21
417.082	496.15
417.46	511.29
417.837	518.97
418.214	511.51
418.591	511.74
418.967	508.35
419.344	524.62
419.721	519.87
420.098	510.83
420.475	535.69
420.852	553.32
421.228	547.22
421.605	530.49
421.982	553.77
422.358	563.04
422.735	549.03
423.111	547.22
423.488	560.55
423.864	538.18
424.241	570.27
424.617	554.9
424.994	565.3
425.37	546.77
425.746	578.85
426.123	571.62
426.499	565.07
426.875	575.47
427.251	573.88
427.627	604.39
428.003	596.71
428.379	607.78
428.756	626.76
429.132	604.84
429.507	643.03
429.883	652.98
430.259	635.58
430.635	629.7
431.011	633.32
431.387	631.73
431.763	663.37
432.138	649.14
432.514	654.11
432.89	673.77
433.265	668.12
433.641	668.12
434.016	684.39
434.392	686.65
434.767	695.01
435.143	676.93
435.518	706.99
435.894	703.82
436.269	711.51
436.644	717.83
437.02	722.13
437.395	725.07
437.77	732.75
438.145	753.54
438.52	760.32
438.895	739.75
439.271	739.3
439.646	755.12
440.021	772.75
440.395	781.11
440.77	754.22
441.145	775.23
441.52	807.32
441.895	779.75
442.27	802.13
442.645	812.75
443.019	787.21
443.394	815.23
443.769	819.53
444.143	818.4
444.518	830.6
444.892	829.92
445.267	848.68
445.641	841.67
446.016	833.54
446.39	853.65
446.764	861.11
447.139	859.53
447.513	876.25
447.887	865.85
448.262	872.86
448.636	870.37
449.01	900.88
449.384	891.16
449.758	907.21
450.132	888.45
450.506	915.12
450.88	924.83
451.254	933.2
451.628	946.98
452.002	932.07
452.376	931.61
452.75	972.29
453.123	960.09
453.497	970.03
453.871	1005.96
454.244	997.15
454.618	993.99
454.992	1020.65
455.365	1042.12
455.739	1051.84
456.112	1052.51
456.486	1044.38
456.859	1076.69
457.232	1049.8
457.606	1069.69
457.979	1081.89
458.352	1127.99
458.725	1129.57
459.099	1155.34
459.472	1149.91
459.845	1160.99
460.218	1190.14
460.591	1193.08
460.964	1203.25
461.337	1198.27
461.71	1217.26
462.083	1267.2
462.456	1273.3
462.829	1257.93
463.201	1295.67
463.574	1310.14
463.947	1287.76
464.32	1369.34
464.692	1392.62
465.065	1364.14
465.438	1397.59
465.81	1426.06
466.183	1476.01
466.555	1452.73
466.928	1473.29
467.3	1474.2
467.672	1496.34
468.045	1519.85
468.417	1558.49
468.789	1576.79
469.161	1617.92
469.534	1625.38
469.906	1651.37
470.278	1686.17
470.65	1721.65
471.022	1725.72
471.394	1786.73
471.766	1827.18
472.138	1832.38
472.51	1877.58
472.882	1891.81
473.253	1953.51
473.625	2011.13
473.997	2024.92
474.369	2069.89
474.74	2104.92
475.112	2164.8
475.484	2209.77
475.855	2273.73
476.227	2294.74
476.598	2369.09
476.97	2394.63
477.341	2493.15
477.713	2547.84
478.084	2594.85
478.455	2695.64
478.827	2748.06
479.198	2824.67
479.569	2860.83
479.94	2939.92
480.311	3036.42
480.682	3122.74
481.053	3195.51
481.424	3294.04
481.795	3404.54
482.166	3435.73
482.537	3532
482.908	3661.26
483.279	3739.9
483.65	3826.68
484.021	3978.99
484.391	4023.28
484.762	4148.93
485.133	4219.44
485.503	4297.4
485.874	4501.01
486.244	4546.89
486.615	4705.07
486.985	4781.91
487.356	4934.9
487.726	5024.39
488.097	5187.1
488.467	5259.41
488.837	5439.74
489.207	5541.44
489.578	5707.53
489.948	5791.37
490.318	5910.24
490.688	5983.91
491.058	6142.32
491.428	6252.6
491.798	6404.92
492.168	6564.46
492.538	6750.67
492.908	6807.62
493.278	6919.25
493.648	7029.76
494.017	7205.35
494.387	7329.86
494.757	7476.53
495.126	7493.02
495.496	7631.32
495.866	7802.17
496.235	7920.13
496.605	8068.6
496.974	8137.75
497.344	8267.47
497.713	8380.23
498.082	8464.52
498.452	8611.41
498.821	8706.1
499.19	8736.83
499.559	8947
499.928	9045.07
500.298	9065.64
500.667	9193.09
501.036	9258.17
501.405	9403.71
501.774	9421.11
502.143	9581.78
502.512	9577.94
502.88	9712.63
503.249	9822
503.618	9888.21
503.987	9974.31
504.356	10022.9
504.724	10140.64
505.093	10172.27
505.462	10268.54
505.83	10309.22
506.199	10423.34
506.567	10487.52
506.936	10599.16
507.304	10758.93
507.672	10750.79
508.041	10828.3
508.409	10833.95
508.777	10917.11
509.145	11058.58
509.514	11030.78
509.882	11158.46
510.25	11130.67
510.618	11220.38
510.986	11239.59
511.354	11318.46
511.722	11344.67
512.09	11496.31
512.458	11558
512.826	11611.33
513.193	11602.52
513.561	11585.57
513.929	11610.66
514.297	11804.77
514.664	11893.81
515.032	11858.56
515.4	11884.77
515.767	11947.14
516.135	12021.94
516.502	11865.56
516.869	12130.87
517.237	12103.52
517.604	12083.19
517.972	12222.62
518.339	12216.51
518.706	12236.4
519.073	12287.47
519.44	12320.47
519.808	12294.48
520.175	12308.04
520.542	12435.94
520.909	12528.6
521.276	12435.94
521.643	12558.88
522.009	12575.38
522.376	12561.36
522.743	12641.59
523.11	12692.43
523.477	12782.6
523.843	12842.71
524.21	12786.44
524.577	12834.35
524.943	12844.3
525.31	12888.14
525.676	12969.04
526.043	13023.5
526.409	13009.49
526.776	13104.4
527.142	13068.92
527.508	13062.82
527.874	13154.8
528.241	13077.51
528.607	13157.51
528.973	13181.24
529.339	13103.5
529.705	13222.36
530.071	13289.93
530.437	13165.64
530.803	13230.95
531.169	13198.86
531.535	13193.66
531.901	13227.79
532.267	13135.59
532.632	13166.09
532.998	13190.5
533.364	13119.77
533.73	13166.77
534.095	13187.79
534.461	13219.43
534.826	13232.53
535.192	13135.36
535.557	13211.52
535.923	13100.56
536.288	13145.08
536.653	13095.59
537.019	12938.76
537.384	13117.28
537.749	13059.88
538.114	13025.99
538.479	12931.52
538.845	12995.93
539.21	12915.25
539.575	12917.74
539.94	12854.92
540.305	12857.18
540.67	12786.22
541.034	12782.38
541.399	12728.82
541.764	12649.95
542.129	12719.33
542.494	12678.42
542.858	12671.19
543.223	12592.32
543.587	12671.64
543.952	12570.63
544.316	12581.25
544.681	12557.75
545.045	12497.86
545.41	12432.55
545.774	12557.97
546.138	12451.76
546.503	12404.76
546.867	12376.06
547.231	12387.13
547.595	12362.5
547.959	12285.89
548.324	12299.68
548.688	12327.02
549.052	12282.95
549.416	12246.12
549.779	12091.32
550.143	12184.43
550.507	12192.56
550.871	12190.98
551.235	12040.02
551.599	12103.3
551.962	12017.2
552.326	12049.74
552.689	12127.25
553.053	11871.89
553.417	11939.69
553.78	12086.8
554.143	11950.99
554.507	12001.83
554.87	11930.87
555.234	11982.17
555.597	11815.62
555.96	11867.6
556.323	11893.81
556.686	11783.98
557.05	11883.87
557.413	11842.29
557.776	11835.06
558.139	11811.33
558.502	11881.61
558.865	11794.38
559.228	11796.64
559.59	11854.04
559.953	11796.19
560.316	11904.21
560.679	11851.1
561.041	11812.46
561.404	11903.3
561.767	11879.35
562.129	11831.67
562.492	11930.87
562.854	11940.59
563.217	11884.55
563.579	11889.97
563.941	11873.7
564.304	11885.22
564.666	11972.23
565.028	11947.82
565.39	11941.95
565.753	11927.93
566.115	12015.39
566.477	12027.37
566.839	12017.42
567.201	11988.72
567.563	11992.11
567.925	12120.92
568.287	12052.23
568.648	12069.17
569.01	12096.07
569.372	12121.83
569.734	12090.87
570.095	12111.21
570.457	12146.23
570.819	12141.49
571.18	12152.56
571.542	12198.89
571.903	12177.87
572.265	12185.33
572.626	12170.64
572.987	12195.95
573.349	12226.01
573.71	12297.19
574.071	12241.83
574.432	12270.98
574.794	12369.51
575.155	12270.07
575.516	12217.19
575.877	12222.62
576.238	12301.48
576.599	12313.24
576.96	12279.11
577.32	12329.28
577.681	12302.16
578.042	12403.63
578.403	12353.23
578.763	12367.25
579.124	12389.17
579.485	12395.04
579.845	12456.96
580.206	12326.34
580.566	12381.03
580.927	12443.18
581.287	12364.53
581.648	12259.23
582.008	12409.05
582.368	12333.57
582.728	12353.23
583.089	12291.99
583.449	12336.06
583.809	12320.69
584.169	12381.03
584.529	12316.4
584.889	12328.38
585.249	12308.72
585.609	12230.07
585.969	12409.96
586.329	12248.38
586.688	12348.26
587.048	12285.89
587.408	12276.63
587.768	12193.01
588.127	12288.6
588.487	12266.46
588.846	12262.62
589.206	12262.62
589.565	12174.48
589.925	12165.44
590.284	12198.89
590.643	12208.61
591.003	12246.12
591.362	12200.7
591.721	12167.93
592.08	12205.44
592.44	12207.02
592.799	12203.18
593.158	12109.63
593.517	12244.31
593.876	12151.43
594.235	12141.04
594.593	12188.49
594.952	12180.81
595.311	12114.37
595.67	12149.62
596.029	12225.78
596.387	12214.71
596.746	12181.04
597.104	12145.56
597.463	12123.86
597.822	12138.55
598.18	12049.06
598.538	12165.89
598.897	12200.7
599.255	12030.08
599.613	12243.41
599.972	12182.39
600.33	12077.54
600.688	12060.81
601.046	12007.48
601.404	12179.91
601.762	12080.93
602.12	12146.91
602.478	12224.2
602.836	12192.33
603.194	12060.81
603.552	12153.01
603.91	12057.88
604.268	12196.85
604.625	12035.28
604.983	12218.32
605.341	12129.51
605.698	12126.35
606.056	12250.41
606.413	12082.06
606.771	12155.05
607.128	12210.41
607.485	12111.21
607.843	12132.9
608.2	12198.66
608.557	12303.97
608.914	12191.88
609.272	12287.47
609.629	12262.16
609.986	12227.81
610.343	12198.66
610.7	12275.27
611.057	12232.33
611.414	12238.21
611.771	12281.15
612.127	12321.6
612.484	12357.08
612.841	12339.22
613.198	12220.36
613.554	12301.03
613.911	12393.46
614.267	12402.05
614.624	12301.48
614.98	12384.65
615.337	12390.97
615.693	12397.08
616.05	12431.88
616.406	12454.7
616.762	12374.7
617.118	12404.53
617.475	12440.69
617.831	12457.41
618.187	12520.24
618.543	12524.98
618.899	12576.51
619.255	12422.61
619.611	12548.48
619.967	12578.99
620.323	12531.76
620.678	12424.87
621.034	12501.93
621.39	12529.5
621.746	12470.75
622.101	12639.78
622.457	12515.94
622.812	12582.16
623.168	12539.67
623.523	12603.4
623.879	12549.16
624.234	12471.65
624.589	12571.31
624.945	12592.1
625.3	12523.63
625.655	12541.25
626.01	12478.43
626.365	12555.04
626.72	12497.19
627.075	12488.37
627.43	12473.46
627.785	12419
628.14	12467.36
628.495	12553.23
628.85	12529.73
629.205	12449.5
629.559	12502.61
629.914	12448.15
630.269	12481.59
630.623	12454.25
630.978	12381.48
631.332	12474.14
631.687	12484.3
632.041	12440.69
632.396	12421.93
632.75	12369.51
633.104	12359.11
633.459	12330.86
633.813	12277.08
634.167	12231.43
634.521	12260.36
634.875	12287.7
635.229	12205.67
635.583	12259.23
635.937	12243.18
636.291	12175.39
636.645	12187.36
636.999	12222.84
637.352	12157.53
637.706	12151.88
638.06	12125.44
638.413	12033.24
638.767	12087.7
639.121	12087.7
639.474	12044.77
639.828	12054.94
640.181	12037.54
640.534	12059
640.888	11981.94
641.241	11974.26
641.594	12114.37
641.947	12183.97
642.301	12042.28
642.654	12007.25
643.007	12016.97
643.36	12015.84
643.713	11977.43
644.066	12069.4
644.419	12038.67
644.771	11891.33
645.124	11760.93
645.477	11826.02
645.83	11733.82
646.182	11678
646.535	11593.48
646.888	11619.02
647.24	11554.39
647.593	11651.11
647.945	11577.21
648.298	11561.62
648.65	11569.75
649.002	11468.74
649.355	11575.18
649.707	11593.48
650.059	11655.63
650.411	11815.4
650.763	11802.06
651.115	11943.08
651.467	11844.32
651.819	11799.12
652.171	11796.64
652.523	11832.8
652.875	11774.04
653.227	11694.04
653.578	11807.94
653.93	11779.92
654.282	11791.22
654.633	11778.79
654.985	11775.4
655.337	11742.86
655.688	11783.98
656.039	11819.92
656.391	11796.86
656.742	11799.58
657.094	11788.28
657.445	11821.05
657.796	11802.06
658.147	11776.75
658.498	11778.56
658.849	11891.33
659.2	11788.28
659.551	11773.14
659.902	11856.52
660.253	11803.42
660.604	11903.75
660.955	11811.33
661.306	11830.76
661.656	11804.1
662.007	11880.03
662.358	11842.74
662.708	11858.33
663.059	11844.32
663.409	11760.93
663.76	11858.11
664.11	11807.03
664.461	11919.12
664.811	11885
665.161	11839.12
665.511	11854.49
665.862	11903.3
666.212	11872.8
666.562	11929.97
666.912	11845.45
667.262	11843.87
667.612	11830.31
667.962	11811.55
668.312	11847.03
668.662	11904.88
669.011	11879.35
669.361	11789.41
669.711	11808.62
670.06	11771.78
670.41	11704.21
670.76	11726.81
671.109	11856.07
671.459	11752.35
671.808	11724.78
672.157	11847.03
672.507	11676.87
672.856	11676.64
673.205	11758.9
673.554	11698.56
673.904	11727.49
674.253	11819.01
674.602	11713.7
674.951	11572.24
675.3	11471.22
675.649	11681.16
675.998	11675.74
676.346	11715.51
676.695	11671.67
677.044	11586.48
677.393	11629.64
677.741	11684.78
678.09	11530.88
678.438	11591.22
678.787	11637.1
679.135	11592.8
679.484	11454.5
679.832	11515.29
680.181	11498.57
680.529	11534.95
680.877	11512.13
681.225	11465.57
681.573	11490.21
681.922	11430.32
682.27	11445.01
682.618	11392.13
682.966	11369.98
683.314	11405.91
683.661	11308.29
684.009	11362.75
684.357	11278.46
684.705	11258.8
685.053	11341.74
685.4	11217.45
685.748	11164.11
686.095	11268.52
686.443	11173.83
686.79	11080.95
687.138	11164.79
687.485	11119.59
687.832	11152.59
688.18	11146.49
688.527	11030.33
688.874	11067.84
689.221	10988.75
689.568	10940.39
689.915	10872.82
690.262	10909.66
690.609	10871.47
690.956	10779.26
691.303	10816.33
691.65	10696.78
691.997	10706.27
692.344	10644.58
692.69	10683.45
693.037	10677.8
693.383	10511.7
693.73	10558.48
694.077	10467.41
694.423	10502.89
694.769	10434.41
695.116	10447.75
695.462	10408.2
695.808	10300.18
696.155	10367.98
696.501	10293.4
696.847	10317.58
697.193	10153.97
697.539	10254.98
697.885	10161.65
698.231	10115.78
698.577	10111.49
698.923	10069.23
699.269	10041.2
699.614	9982.45
699.96	9974.99
700.306	9918.72
700.651	9852.96
700.997	9792.85
701.342	9855
701.688	9817.93
702.033	9784.04
702.379	9743.81
702.724	9664.27
703.069	9684.6
703.415	9629.24
703.76	9583.36
704.105	9614.32
704.45	9536.36
704.795	9480.77
705.14	9471.95
705.485	9432.18
705.83	9388.57
706.175	9390.83
706.52	9394.89
706.865	9348.12
707.209	9328.91
707.554	9326.2
707.899	9335.01
708.243	9295.01
708.588	9306.53
708.932	9120.33
709.277	9163.94
709.621	9221.79
709.966	9155.13
710.31	9102.25
710.654	9048.01
710.998	9025.64
711.342	9007.33
711.687	9027.45
712.031	9026.54
712.375	8914.23
712.719	8999.65
713.063	8909.03
713.407	8901.57
713.75	8842.59
714.094	8882.37
714.438	8834.46
714.782	8880.33
715.125	8799.43
715.469	8767.34
715.812	8778.64
716.156	8700.68
716.499	8718.98
716.843	8793.1
717.186	8678.98
717.53	8728.47
717.873	8682.14
718.216	8668.13
718.559	8665.42
718.902	8605.99
719.246	8643.28
719.589	8594.24
719.932	8598.3
720.275	8580
720.617	8643.5
720.96	8524.18
721.303	8608.47
721.646	8569.38
721.989	8502.71
722.331	8540.68
722.674	8492.77
723.016	8516.27
723.359	8517.86
723.701	8522.15
724.044	8477.63
724.386	8460.91
724.729	8450.06
725.071	8417.97
725.413	8426.78
725.755	8417.97
726.097	8398.31
726.439	8382.94
726.782	8423.39
727.124	8461.13
727.465	8391.3
727.807	8373.23
728.149	8376.84
728.491	8343.85
728.833	8384.98
729.175	8333
729.516	8308.82
729.858	8337.97
730.199	8336.84
730.541	8345.66
730.882	8321.48
731.224	8356.96
731.565	8279.9
731.906	8300.91
732.248	8363.51
732.589	8353.34
732.93	8254.13
733.271	8313.57
733.612	8328.26
733.953	8330.74
734.294	8285.54
734.635	8340.68
734.976	8266.79
735.317	8199.22
735.658	8273.57
735.999	8245.32
736.339	8255.72
736.68	8253.91
737.021	8277.64
737.361	8362.38
737.702	8327.35
738.042	8308.37
738.383	8333.68
738.723	8402.38
739.063	8261.36
739.404	8356.28
739.744	8382.04
740.084	8326
740.424	8420
740.764	8337.75
741.104	8347.24
741.444	8390.63
741.784	8333.91
742.124	8366.22
742.464	8410.51
742.804	8375.03
743.143	8420
743.483	8526.67
743.823	8469.49
744.162	8520.34
744.502	8524.41
744.841	8563.05
745.181	8591.75
745.52	8609.6
745.86	8688.47
746.199	8672.43
746.538	8723.05
746.877	8819.77
747.216	8732.54
747.556	8826.1
747.895	8860.44
748.234	9015.02
748.573	8897.51
748.911	9009.14
749.25	9072.64
749.589	9071.51
749.928	9154.67
750.267	9268.57
750.605	9249.59
750.944	9349.92
751.283	9420.88
751.621	9452.52
751.96	9554.66
752.298	9611.61
752.636	9724.15
752.975	9821.55
753.313	9817.48
753.651	9963.47
753.989	10067.64
754.327	10165.04
754.666	10305.83
755.004	10363.23
755.342	10569.33
755.679	10655.65
756.017	10705.37
756.355	10829.21
756.693	10940.62
757.031	11056.09
757.368	11222.87
757.706	11301.74
758.044	11456.99
758.381	11640.48
758.719	11721.84
759.056	11982.62
759.394	12015.62
759.731	12089.74
760.068	12258.32
760.405	12492.21
760.743	12557.3
761.08	12810.85
761.417	12878.64
761.754	13095.36
762.091	13251.52
762.428	13370.61
762.765	13457.61
763.102	13748.45
763.438	13850.6
763.775	13970.37
764.112	14101.66
764.449	14295.33
764.785	14397.93
765.122	14494.2
765.458	14611.25
765.795	14743.23
766.131	15004.69
766.467	15045.59
766.804	15220.05
767.14	15350.22
767.476	15420.72
767.812	15551.57
768.148	15684.45
768.485	15799.25
768.821	15831.11
769.157	15999.92
769.492	16152.46
769.828	16297.31
770.164	16347.93
770.5	16422.96
770.836	16661.37
771.171	16624.53
771.507	16729.39
771.842	16655.95
772.178	16893.68
772.513	16972.1
772.849	17093
773.184	17113.34
773.519	17275.36
773.855	17201.92
774.19	17342.48
774.525	17365.31
774.86	17439.2
775.195	17545.64
775.53	17490.95
775.865	17643.72
776.2	17515.81
776.535	17509.71
776.87	17679.42
777.205	17732.3
777.539	17680.1
777.874	17746.31
778.209	17754
778.543	17842.81
778.878	17717.16
779.212	17868.57
779.547	17825.41
779.881	17921.9
780.215	17890.26
780.55	17993.76
780.884	17823.83
781.218	17905.18
781.552	18012.29
781.886	17966.65
782.22	17977.04
782.554	17897.72
782.888	17844.62
783.222	17744.96
783.556	17779.08
783.889	17863.37
784.223	17717.16
784.557	17785.41
784.89	17823.37
785.224	17722.58
785.557	17708.12
785.891	17788.12
786.224	17819.08
786.558	17763.94
786.891	17693.89
787.224	17653.43
787.557	17615.02
787.891	17665.41
788.224	17638.07
788.557	17639.88
788.89	17566.66
789.223	17717.16
789.556	17536.38
789.888	17434.46
790.221	17536.83
790.554	17430.39
790.887	17447.56
791.219	17363.5
791.552	17320.11
791.884	17254.35
792.217	17195.37
792.549	17234.46
792.882	17158.53
793.214	17139.55
793.546	17165.54
793.879	17044.86
794.211	17076.95
794.543	17115.37
794.875	16979.33
795.207	17062.72
795.539	16931.65
795.871	16987.69
796.203	16872.66
796.535	16781.59
796.867	16799.67
797.198	16771.42
797.53	16785.21
797.862	16649.39
798.193	16697.53
798.525	16567.59
798.856	16607.13
799.188	16425.22
799.519	16436.29
799.85	16325.79
800.182	16384.31
800.513	16395.39
800.844	16232.68
801.175	16344.32
801.506	16347.48
801.837	16205.79
802.168	16217.54
802.499	16120.59
802.83	16052.8
803.161	16005.79
803.491	16022.97
803.822	16117.66
804.153	16001.05
804.483	15892.12
804.814	15863.65
805.145	15801.51
805.475	15825.91
805.805	15813.26
806.136	15794.27
806.466	15802.41
806.796	15751.79
807.126	15652.81
807.457	15553.38
807.787	15588.63
808.117	15606.03
808.447	15486.49
808.777	15521.96
809.107	15455.3
809.436	15317
809.766	15351.57
810.096	15384.79
810.426	15291.69
810.755	15296.43
811.085	15201.3
811.414	15191.8
811.744	15140.28
812.073	15121.98
812.403	15197.23
812.732	15003.33
813.061	14994.75
813.39	14905.94
813.719	14922.66
814.049	14974.18
814.378	14938.48
814.707	14933.05
815.036	14884.24
815.365	14863.23
815.693	14642.44
816.022	14705.04
816.351	14682.89
816.68	14612.16
817.008	14649.67
817.337	14547.08
817.665	14489.22
817.994	14552.95
818.322	14513.18
818.651	14458.49
818.979	14496.68
819.307	14618.71
819.636	14446.29
819.964	14472.95
820.292	14495.33
820.62	14493.52
820.948	14360.64
821.276	14413.07
821.604	14303.47
821.932	14434.08
822.259	14443.12
822.587	14370.58
822.915	14416.01
823.243	14359.74
823.57	14320.19
823.898	14357.7
824.225	14322.67
824.553	14270.25
824.88	14321.54
825.207	14405.16
825.535	14348.66
825.862	14430.92
826.189	14329.45
826.516	14314.99
826.843	14486.51
827.17	14463.69
827.497	14387.53
827.824	14365.16
828.151	14391.37
828.478	14480.64
828.805	14457.36
829.131	14407.64
829.458	14328.55
829.785	14245.84
830.111	14334.2
830.438	14487.64
830.764	14358.83
831.09	14460.3
831.417	14252.39
831.743	14375.55
832.069	14288.1
832.395	14239.06
832.722	14322.22
833.048	14231.15
833.374	14301.43
833.7	14201.55
834.026	14259.63
834.351	14246.07
834.677	14330.81
835.003	14358.83
835.329	14291.26
835.654	14289.91
835.98	14210.81
836.306	14222.11
836.631	14147.31
836.956	14263.24
837.282	14217.82
837.607	14065.28
837.932	14075.22
838.258	14156.12
838.583	14029.8
838.908	13990.71
839.233	14043.59
839.558	13973.3
839.883	13879.52
840.208	13840.2
840.533	13864.61
840.858	13845.17
841.182	13880.88
841.507	13799.75
841.832	13760.2
842.156	13780.32
842.481	13745.29
842.805	13656.03
843.13	13679.08
843.454	13760.66
843.778	13617.61
844.103	13527.44
844.427	13626.2
844.751	13517.72
845.075	13543.26
845.399	13422.81
845.723	13438.63
846.047	13353.89
846.371	13307.33
846.695	13345.3
847.019	13164.51
847.343	13142.37
847.666	13092.42
847.99	13065.98
848.313	13083.61
848.637	12975.82
848.96	12914.58
849.284	12952.31
849.607	12714.58
849.931	12733.56
850.254	12697.18
850.577	12654.24
850.9	12528.15
851.223	12574.02
851.546	12509.84
851.869	12386.68
852.192	12515.94
852.515	12316.17
852.838	12259.68
853.161	12361.37
853.483	12200.24
853.806	12161.38
854.129	12246.12
854.451	12070.76
854.774	12022.62
855.096	12026.01
855.419	11960.02
855.741	11992.11
856.063	11900.82
856.385	11873.02
856.708	11910.31
857.03	11765
857.352	11744.21
857.674	11697.21
857.996	11707.15
858.318	11577.89
858.64	11592.35
858.961	11562.29
859.283	11491.11
859.605	11492.92
859.926	11560.49
860.248	11397.78
860.57	11389.42
860.891	11395.29
861.212	11386.03
861.534	11365.92
861.855	11355.29
862.176	11347.61
862.498	11312.36
862.819	11298.12
863.14	11322.75
863.461	11308.97
863.782	11218.35
864.103	11228.97
864.424	11168.63
864.745	11211.34
865.065	11085.92
865.386	11070.1
865.707	11025.36
866.027	11083.89
866.348	11006.38
866.668	10997.79
866.989	10996.43
867.309	10934.29
867.63	10951.69
867.95	10998.02
868.27	10799.38
868.59	10920.96
868.91	10854.29
869.23	10844.57
869.55	10840.28
869.87	10881.41
870.19	10826.04
870.51	10879.6
870.83	10850.68
871.15	10781.98
871.469	10770.68
871.789	10825.37
872.109	10787.85
872.428	10694.52
872.748	10725.48
873.067	10689.32
873.386	10734.29
873.706	10628.53
874.025	10593.96
874.344	10605.71
874.663	10612.72
874.982	10645.48
875.301	10567.29
875.62	10542.66
875.939	10506.96
876.258	10524.13
876.577	10499.5
876.896	10445.94
877.214	10454.53
877.533	10421.99
877.852	10440.52
878.17	10383.79
878.489	10338.37
878.807	10371.37
879.125	10376.34
879.444	10365.72
879.762	10274.65
880.08	10281.88
880.398	10200.52
880.716	10263.12
881.034	10231.26
881.352	10234.19
881.67	10215.44
881.988	10198.26
882.306	10150.35
882.624	10171.6
882.941	10096.8
883.259	10012.73
883.577	10010.02
883.894	10045.95
884.212	10028.78
884.529	10062
884.846	9918.95
885.164	9986.52
885.481	9952.39
885.798	9925.28
886.115	9849.57
886.432	9883.92
886.75	9862.45
887.067	9844.83
887.383	9726.18
887.7	9789.91
888.017	9744.49
888.334	9731.16
888.651	9694.55
888.967	9719.18
889.284	9618.17
889.6	9620.2
889.917	9522.8
890.233	9523.25
890.55	9516.47
890.866	9470.82
891.182	9441.9
891.498	9475.12
891.815	9361.67
892.131	9332.97
892.447	9321.22
892.763	9331.85
893.079	9271.28
893.395	9287.78
893.71	9273.54
894.026	9226.31
894.342	9204.39
894.657	9160.78
894.973	9130.27
895.289	9097.27
895.604	9046.2
895.92	9002.81
896.235	8970.72
896.55	8987.22
896.865	8961.46
897.181	8969.37
897.496	8921.69
897.811	8864.51
898.126	8815.7
898.441	8748.58
898.756	8777.96
899.071	8772.76
899.386	8693.9
899.7	8618.64
900.015	8658.64
900.33	8557.18
900.644	8553.11
900.959	8533
901.273	8536.61
901.588	8468.82
901.902	8419.55
902.216	8436.95
902.531	8407.35
902.845	8370.97
903.159	8296.39
903.473	8291.19
903.787	8269.95
904.101	8195.6
904.415	8204.64
904.729	8205.77
905.042	8121.03
905.356	8097.98
905.67	8082.39
905.984	8028.38
906.297	8033.35
906.611	7988.38
906.924	7989.73
907.237	7879.45
907.551	7890.98
907.864	7841.71
908.177	7865.89
908.491	7799.91
908.804	7770.3
909.117	7729.85
909.43	7680.81
909.743	7659.8
910.056	7582.74
910.368	7596.75
910.681	7527.37
910.994	7500.48
911.307	7513.81
911.619	7445.34
911.932	7510.42
912.244	7467.04
912.557	7391.56
912.869	7274.05
913.181	7338.23
913.494	7293.48
913.806	7258
914.118	7272.01
914.43	7223.2
914.742	7165.35
915.054	7142.98
915.366	7088.97
915.678	7050.78
915.99	7031.34
916.302	6989.99
916.613	6931.23
916.925	7005.8
917.236	6962.19
917.548	6935.52
917.859	6911.57
918.171	6833.15
918.482	6852.59
918.794	6817.11
919.105	6784.34
919.416	6711.35
919.727	6761.07
920.038	6672.48
920.349	6662.54
920.66	6601.3
920.971	6655.53
921.282	6608.98
921.593	6559.49
921.903	6483.78
922.214	6531.47
922.525	6473.84
922.835	6496.21
923.146	6445.59
923.456	6441.3
923.767	6396.1
924.077	6352.71
924.387	6359.49
924.697	6295.31
925.008	6279.5
925.318	6230.23
925.628	6218.71
925.938	6235.88
926.248	6174.64
926.558	6094.87
926.867	6129.9
927.177	6102.55
927.487	6121.31
927.796	6024.59
928.106	6037.24
928.416	5961.31
928.725	6032.04
929.034	5924.7
929.344	5946.4
929.653	5925.15
929.962	5896
930.271	5847.64
930.581	5805.38
930.89	5776.91
931.199	5783.92
931.508	5774.88
931.817	5684.94
932.125	5739.17
932.434	5756.12
932.743	5658.95
933.051	5671.83
933.36	5606.75
933.669	5611.94
933.977	5576.69
934.286	5600.19
934.594	5560.19
934.902	5526.07
935.21	5464.83
935.519	5452.4
935.827	5443.59
936.135	5419.63
936.443	5338.96
936.751	5337.6
937.059	5361.1
937.367	5302.12
937.674	5290.6
937.982	5307.09
938.29	5287.88
938.597	5293.76
938.905	5210.37
939.213	5186.19
939.52	5186.64
939.827	5216.25
940.135	5188.45
940.442	5152.97
940.749	5128.34
941.056	5097.15
941.363	5028
941.67	5020.09
941.977	5012.64
942.284	4967.44
942.591	4988.23
942.898	4936.93
943.205	4902.58
943.511	4854
943.818	4834.56
944.125	4812.42
944.431	4840.21
944.738	4852.19
945.044	4786.2
945.35	4767.45
945.657	4723.15
945.963	4713.21
946.269	4692.87
946.575	4658.97
946.881	4669.37
947.187	4702.14
947.493	4633.89
947.799	4584.4
948.105	4577.39
948.41	4559.77
948.716	4544.63
949.022	4519.32
949.327	4526.32
949.633	4464.4
949.938	4458.07
950.244	4476.83
950.549	4443.16
950.854	4415.14
951.16	4440.45
951.465	4384.63
951.77	4388.25
952.075	4347.12
952.38	4317.97
952.685	4315.71
952.99	4267.12
953.294	4285.2
953.599	4212.88
953.904	4231.64
954.209	4221.24
954.513	4222.83
954.818	4179.89
955.122	4175.82
955.426	4122.04
955.731	4128.14
956.035	4103.06
956.339	4086.56
956.643	4059.89
956.948	4021.48
957.252	4034.36
957.556	3986.45
957.86	4002.04
958.163	3967.24
958.467	3980.35
958.771	3997.52
959.075	3933.79
959.378	3921.14
959.682	3962.04
959.985	3905.32
960.289	3852.89
960.592	3802.72
960.896	3831.2
961.199	3834.59
961.502	3793.69
961.805	3801.82
962.108	3781.71
962.411	3781.48
962.714	3746.91
963.017	3706.46
963.32	3679.11
963.623	3677.53
963.926	3691.09
964.228	3636.4
964.531	3607.7
964.833	3617.87
965.136	3596.63
965.438	3578.32
965.741	3574.71
966.043	3557.08
966.345	3551.43
966.648	3561.15
966.95	3539.91
967.252	3503.52
967.554	3466.24
967.856	3509.85
968.158	3429.63
968.46	3454.49
968.761	3425.11
969.063	3410.64
969.365	3389.63
969.666	3393.7
969.968	3343.08
970.269	3301.5
970.571	3328.84
970.872	3306.47
971.174	3286.58
971.475	3290.42
971.776	3267.82
972.077	3275.96
972.378	3251.33
972.679	3234.15
972.98	3227.82
973.281	3203.64
973.582	3215.85
973.883	3191.89
974.183	3145.34
974.484	3141.05
974.785	3150.99
975.085	3120.03
975.386	3146.02
975.686	3129.97
975.986	3108.96
976.287	3112.12
976.587	3040.26
976.887	3049.07
977.187	3061.05
977.487	3019.24
977.787	2990.77
978.087	3000.26
978.387	2983.76
978.687	2965.68
978.987	2967.49
979.286	2955.74
979.586	2918.68
979.885	2920.94
980.185	2935.4
980.484	2907.83
980.784	2871.9
981.083	2832.81
981.382	2862.18
981.682	2846.59
981.981	2862.86
982.28	2811.11
982.579	2781.28
982.878	2799.14
983.177	2733.83
983.475	2749.65
983.774	2730.89
984.073	2742.87
984.372	2740.83
984.67	2735.18
984.969	2687.73
985.267	2709.42
985.566	2683.21
985.864	2669.42
986.162	2621.06
986.461	2609.31
986.759	2598.01
987.057	2604.34
987.355	2584.23
987.653	2595.3
987.951	2558.69
988.249	2590.78
988.547	2557.11
988.844	2537
989.142	2522.76
989.44	2532.48
989.737	2506.26
990.035	2496.77
990.332	2519.82
990.63	2485.92
990.927	2471.69
991.224	2456.32
991.521	2454.29
991.819	2432.37
992.116	2437.56
992.413	2413.83
992.71	2399.37
993.006	2408.86
993.303	2376.1
993.6	2357.11
993.897	2359.6
994.193	2321.86
994.49	2328.64
994.787	2299.49
995.083	2316.66
995.379	2301.97
995.676	2290
995.972	2266.95
996.268	2268.08
996.565	2266.04
996.861	2247.74
997.157	2250.45
997.453	2229.88
997.749	2213.61
998.044	2182.2
998.34	2196.21
998.636	2140.4
998.932	2167.97
999.227	2152.82
999.523	2133.16
999.818	2158.93
1000.114	2142.2
1000.409	2131.58
1000.704	2096.78
1001	2104.46
1001.295	2083.67
1001.59	2047.29
1001.885	2093.62
1002.18	2034.41
1002.475	2021.75
1002.77	1989.67
1003.065	2031.25
1003.359	1993.96
1003.654	1993.73
1003.949	1995.54
1004.243	1969.1
1004.538	1956.67
1004.832	1941.98
1005.127	1944.02
1005.421	1918.03
1005.715	1888.88
1006.009	1938.14
1006.304	1894.75
1006.598	1871.02
1006.892	1877.8
1007.186	1852.95
1007.48	1837.13
1007.773	1843.23
1008.067	1835.32
1008.361	1795.77
1008.655	1798.94
1008.948	1771.59
1009.242	1786.28
1009.535	1797.58
1009.829	1779.28
1010.122	1774.53
1010.415	1759.16
1010.708	1710.8
1011.001	1722.1
1011.295	1744.47
1011.588	1709.67
1011.881	1672.16
1012.173	1687.98
1012.466	1678.26
1012.759	1671.71
1013.052	1620.64
1013.344	1645.04
1013.637	1629.22
1013.93	1646.17
1014.222	1623.35
1014.514	1619.96
1014.807	1607.98
1015.099	1605.04
1015.391	1588.32
1015.683	1564.82
1015.976	1544.03
1016.268	1568.89
1016.56	1542.67
1016.851	1567.53
1017.143	1517.59
1017.435	1514.2
1017.727	1539.73
1018.018	1505.84
1018.31	1505.38
1018.602	1488.44
1018.893	1449.34
1019.185	1459.51
1019.476	1440.08
1019.767	1449.34
1020.058	1459.06
1020.35	1399.17
1020.641	1380.42
1020.932	1386.52
1021.223	1403.69
1021.514	1375.67
1021.804	1386.29
1022.095	1401.88
1022.386	1356.01
1022.677	1360.08
1022.967	1328.44
1023.258	1316.69
1023.548	1310.14
1023.839	1341.09
1024.129	1297.03
1024.419	1284.15
1024.709	1306.52
1025	1293.41
1025.29	1264.71
1025.58	1280.31
1025.87	1270.14
1026.16	1245.73
1026.449	1231.27
1026.739	1234.66
1027.029	1219.29
1027.319	1184.94
1027.608	1207.76
1027.898	1221.55
1028.187	1211.15
1028.477	1199.63
1028.766	1188.56
1029.055	1170.7
1029.344	1196.69
1029.634	1174.32
1029.923	1152.85
1030.212	1165.28
1030.501	1136.13
1030.79	1117.15
1031.078	1124.38
1031.367	1121.89
1031.656	1113.3
1031.945	1101.55
1032.233	1090.93
1032.522	1102.91
1032.81	1084.6
1033.099	1054.32
1033.387	1039.86
1033.675	1044.38
1033.963	1057.49
1034.251	1041.89
1034.54	1022.01
1034.828	1029.24
1035.116	1015.68
1035.403	1010.03
1035.691	1005.51
1035.979	1014.1
1036.267	1011.39
1036.554	974.78
1036.842	990.6
1037.129	979.07
1037.417	993.76
1037.704	996.47
1037.992	964.83
1038.279	976.58
1038.566	937.72
1038.853	937.72
1039.14	937.72
