Data from hue_220_FLMS001491_00006.txt Node
Date: Tue Feb 07 16:38:27 GMT 2017
User: dcchb
Spectrometer: FLMS00149
Trigger mode: 0
Integration Time (sec): 2.000000E-2
Scans to average: 10
Electric dark correction enabled: true
Nonlinearity correction enabled: false
Boxcar width: 0
XAxis mode: Wavelengths
Number of Pixels in Spectrum: 2048
>>>>>Begin Spectral Data<<<<<
341.393	-18.33
341.776	-18.33
342.16	-18.33
342.543	-68.28
342.927	-72.34
343.31	-73.7
343.693	-83.42
344.077	-87.94
344.46	-55.62
344.843	-53.59
345.226	-54.49
345.61	-20.37
345.993	-15.62
346.376	-6.36
346.759	13.76
347.142	33.64
347.525	32.74
347.908	49.91
348.291	86.3
348.674	115.45
349.057	119.29
349.44	124.94
349.823	146.41
350.206	154.77
350.588	179.63
350.971	211.04
351.354	223.24
351.737	237.03
352.119	246.29
352.502	268.89
352.884	264.6
353.267	274.54
353.65	303.47
354.032	309.34
354.414	303.47
354.797	318.61
355.179	305.5
355.562	344.6
355.944	324.93
356.326	310.7
356.709	344.37
357.091	332.39
357.473	337.59
357.855	338.04
358.238	338.04
358.62	341.66
359.002	339.62
359.384	346.4
359.766	332.62
360.148	338.72
360.53	342.79
360.912	325.61
361.294	348.66
361.676	345.73
362.057	328.1
362.439	324.26
362.821	335.1
363.203	317.7
363.584	313.18
363.966	313.86
364.348	322.45
364.729	308.66
365.111	328.55
365.493	344.82
365.874	314.54
366.256	303.92
366.637	319.96
367.019	303.01
367.4	331.26
367.781	306.4
368.163	321.09
368.544	320.19
368.925	324.71
369.306	306.4
369.688	300.3
370.069	317.7
370.45	314.99
370.831	320.64
371.212	315.9
371.593	307.08
371.974	305.95
372.355	327.87
372.736	317.25
373.117	326.97
373.498	329.91
373.879	310.92
374.26	308.44
374.641	344.37
375.021	304.82
375.402	316.8
375.783	319.51
376.163	316.12
376.544	322.9
376.925	336.23
377.305	329.91
377.686	322.22
378.066	335.1
378.447	336.23
378.827	345.95
379.208	373.07
379.588	329.23
379.968	334.88
380.349	350.7
380.729	336.69
381.109	348.44
381.489	335.33
381.87	342.56
382.25	354.09
382.63	340.53
383.01	344.6
383.39	336.23
383.77	360.64
384.15	333.75
384.53	359.06
384.91	347.53
385.29	345.5
385.67	353.86
386.049	373.3
386.429	339.85
386.809	356.8
387.189	376.91
387.568	367.19
387.948	377.81
388.328	351.6
388.707	357.93
389.087	366.06
389.466	367.19
389.846	363.13
390.225	379.85
390.605	386.85
390.984	376.46
391.363	364.26
391.743	376.91
392.122	392.73
392.501	387.08
392.881	391.83
393.26	362.22
393.639	389.79
394.018	383.24
394.397	371.26
394.776	370.58
395.155	391.83
395.534	397.48
395.913	390.47
396.292	404.93
396.671	406.51
397.05	399.06
397.429	405.16
397.808	379.62
398.186	412.62
398.565	406.29
398.944	409.45
399.323	417.14
399.701	423.92
400.08	436.34
400.458	412.84
400.837	441.54
401.215	427.31
401.594	418.49
401.972	430.02
402.351	439.06
402.729	430.47
403.107	434.76
403.486	465.27
403.864	448.55
404.242	446.29
404.62	441.77
404.999	472.95
405.377	460.75
405.755	453.75
406.133	471.82
406.511	472.05
406.889	485.38
407.267	477.02
407.645	511.82
408.023	477.93
408.401	499.85
408.779	503.91
409.156	524.93
409.534	526.74
409.912	520.18
410.29	541.43
410.667	542.56
411.045	544.59
411.422	556.79
411.8	563.8
412.178	591.37
412.555	591.59
412.933	593.18
413.31	597.24
413.687	598.6
414.065	598.83
414.442	601.54
414.819	638.37
415.197	635.21
415.574	656.23
415.951	649.67
416.328	667.07
416.705	677.47
417.082	702.33
417.46	680.41
417.837	698.26
418.214	700.74
418.591	709.56
418.967	753.17
419.344	716.56
419.721	726.51
420.098	731.03
420.475	765.6
420.852	768.99
421.228	791.14
421.605	799.72
421.982	797.24
422.358	824.36
422.735	849.21
423.111	829.55
423.488	870.91
423.864	874.3
424.241	914.07
424.617	918.37
424.994	926.28
425.37	947.74
425.746	931.47
426.123	947.52
426.499	974.86
426.875	1003.79
427.251	964.01
427.627	1008.08
428.003	1008.76
428.379	1027.06
428.756	1025.03
429.132	1055.54
429.507	1058.25
429.883	1093.73
430.259	1087.85
430.635	1108.19
431.011	1111.35
431.387	1141.18
431.763	1153.16
432.138	1166.49
432.514	1170.79
432.89	1210.56
433.265	1244.46
433.641	1222.09
434.016	1277.9
434.392	1281.07
434.767	1293.27
435.143	1312.25
435.518	1293.05
435.894	1354.51
436.269	1391.8
436.644	1414.17
437.02	1411.91
437.395	1473.83
437.77	1465.02
438.145	1492.14
438.52	1504.56
438.895	1545.24
439.271	1584.79
439.646	1597.9
440.021	1619.36
440.395	1603.32
440.77	1618.46
441.145	1661.17
441.52	1669.53
441.895	1693.03
442.27	1730.32
442.645	1688.29
443.019	1759.02
443.394	1740.72
443.769	1781.17
444.143	1796.08
444.518	1803.99
444.892	1817.55
445.267	1836.99
445.641	1842.64
446.016	1839.02
446.39	1907.72
446.764	1876.31
447.139	1871.56
447.513	1908.4
447.887	1954.72
448.262	1925.12
448.636	1936.42
449.01	1997.21
449.384	1994.5
449.758	2034.27
450.132	2017.32
450.506	2031.78
450.88	2025.23
451.254	2043.99
451.628	2095.06
452.002	2107.94
452.376	2111.78
452.75	2142.51
453.123	2168.95
453.497	2159.46
453.871	2192.46
454.244	2262.51
454.618	2225
454.992	2284.66
455.365	2278.56
455.739	2329.85
456.112	2353.81
456.486	2364.2
456.859	2406.91
457.232	2432.68
457.606	2446.46
457.979	2445.56
458.352	2501.15
458.725	2493.92
459.099	2519.45
459.472	2600.36
459.845	2604.88
460.218	2622.05
460.591	2626.57
460.964	2658.66
461.337	2697.98
461.71	2693.69
462.083	2792.67
462.456	2773.01
462.829	2754.48
463.201	2836.28
463.574	2825.66
463.947	2899.1
464.32	2967.35
464.692	2954.02
465.065	2985.66
465.438	3052.55
465.81	3036.05
466.183	3085.99
466.555	3150.62
466.928	3170.28
467.3	3123.51
467.672	3229.27
468.045	3229.27
468.417	3288.7
468.789	3309.94
469.161	3348.36
469.534	3389.94
469.906	3462.48
470.278	3495.02
470.65	3494.8
471.022	3520.78
471.394	3627.9
471.766	3655.47
472.138	3696.37
472.51	3748.35
472.882	3845.97
473.253	3843.94
473.625	3866.54
473.997	3943.82
474.369	3921.45
474.74	3993.77
475.112	4069.7
475.484	4116.25
475.855	4175.46
476.227	4196.92
476.598	4323.47
476.97	4340.2
477.341	4433.3
477.713	4477.82
478.084	4484.37
478.455	4556.69
478.827	4645.95
479.198	4744.03
479.569	4760.3
479.94	4837.36
480.311	4920.07
480.682	4992.38
481.053	5109.89
481.424	5144.24
481.795	5184.47
482.166	5248.2
482.537	5279.83
482.908	5372.94
483.279	5428.98
483.65	5530.45
484.021	5647.51
484.391	5656.32
484.762	5721.4
485.133	5703.78
485.503	5811.12
485.874	5923.88
486.244	5946.71
486.615	6047.95
486.985	6108.96
487.356	6237.1
487.726	6227.15
488.097	6387.15
488.467	6337.43
488.837	6460.37
489.207	6494.49
489.578	6589.4
489.948	6642.28
490.318	6741.26
490.688	6726.8
491.058	6863.29
491.428	6878.21
491.798	6958.43
492.168	7063.74
492.538	7025.55
492.908	7095.83
493.278	7188.03
493.648	7189.84
494.017	7234.36
494.387	7351.19
494.757	7343.28
495.126	7417.63
495.496	7481.36
495.866	7458.31
496.235	7537.85
496.605	7561.58
496.974	7617.17
497.344	7711.86
497.713	7751.63
498.082	7760.67
498.452	7867.11
498.821	7893.32
499.19	7877.5
499.559	7943.49
499.928	7959.08
500.298	8018.74
500.667	7999.99
501.036	8025.75
501.405	8097.16
501.774	8089.25
502.143	8179.64
502.512	8182.13
502.88	8234.33
503.249	8258.74
503.618	8268
503.987	8254.22
504.356	8252.64
504.724	8289.92
505.093	8371.73
505.462	8332.63
505.83	8430.03
506.199	8398.85
506.567	8502.35
506.936	8481.56
507.304	8593.64
507.672	8535.57
508.041	8572.85
508.409	8634.77
508.777	8714.09
509.145	8727.43
509.514	8712.96
509.882	8703.92
510.25	8675.45
510.618	8746.63
510.986	8739.85
511.354	8777.82
511.722	8832.51
512.09	8886.29
512.458	8819.63
512.826	8930.81
513.193	8899.85
513.561	8907.53
513.929	8915.67
514.297	8952.73
514.664	9060.98
515.032	8954.54
515.4	8988.44
515.767	9059.17
516.135	8994.76
516.502	8971.26
516.869	9116.34
517.237	9074.31
517.604	9052.16
517.972	9111.6
518.339	9096
518.706	9061.43
519.073	9051.49
519.44	9130.58
519.808	9154.31
520.175	9143.01
520.542	9188.43
520.909	9195.66
521.276	9178.71
521.643	9236.34
522.009	9240.41
522.376	9233.4
522.743	9252.16
523.11	9257.36
523.477	9349.56
523.843	9335.09
524.21	9377.13
524.577	9426.39
524.943	9387.3
525.31	9384.36
525.676	9465.71
526.043	9390.01
526.409	9463
526.776	9572.6
527.142	9477.91
527.508	9461.87
527.874	9493.06
528.241	9523.79
528.607	9500.51
528.973	9553.17
529.339	9596.33
529.705	9554.3
530.071	9607.63
530.437	9559.27
530.803	9596.33
531.169	9602.43
531.535	9551.13
531.901	9587.06
532.267	9527.18
532.632	9560.62
532.998	9599.27
533.364	9538.93
533.73	9522.66
534.095	9604.92
534.461	9547.97
534.826	9572.15
535.192	9530.12
535.557	9582.09
535.923	9522.21
536.288	9485.82
536.653	9485.37
537.019	9455.32
537.384	9459.61
537.749	9449.89
538.114	9404.47
538.479	9480.63
538.845	9464.81
539.21	9286.06
539.575	9265.04
539.94	9356.11
540.305	9349.78
540.67	9435.88
541.034	9370.35
541.399	9330.12
541.764	9303
542.129	9266.17
542.494	9224.81
542.858	9228.2
543.223	9163.57
543.587	9257.13
543.952	9154.53
544.316	9231.59
544.681	9102.33
545.045	9166.06
545.41	9175.55
545.774	9140.52
546.138	9132.39
546.503	9100.75
546.867	9096.91
547.231	9117.7
547.595	9027.31
547.959	9061.43
548.324	9025.05
548.688	9044.03
549.052	8983.69
549.416	8983.69
549.779	8916.12
550.143	8947.53
550.507	8952.73
550.871	8926.74
551.235	8952.73
551.599	8907.31
551.962	8807.2
552.326	8920.87
552.689	8859.4
553.053	8754.09
553.417	8696.47
553.78	8809.23
554.143	8751.38
554.507	8779.85
554.87	8863.02
555.234	8751.83
555.597	8725.17
555.96	8732.85
556.323	8729.91
556.686	8722.23
557.05	8787.76
557.413	8767.65
557.776	8703.7
558.139	8826.18
558.502	8757.26
558.865	8764.49
559.228	8747.31
559.59	8781.66
559.953	8739.18
560.316	8849.91
560.679	8721.32
561.041	8808.78
561.404	8749.57
561.767	8821.66
562.129	8801.77
562.492	8839.51
562.854	8797.25
563.217	8810.36
563.579	8761.1
563.941	8809.46
564.304	8830.93
564.666	8899.17
565.028	8878.38
565.39	8877.48
565.753	8919.29
566.115	8893.52
566.477	8937.82
566.839	8949.34
567.201	8968.78
567.563	8964.48
567.925	9002.9
568.287	8953.18
568.648	9015.78
569.01	9063.91
569.372	9086.06
569.734	8987.53
570.095	9081.31
570.457	9070.24
570.819	9115.89
571.18	9164.25
571.542	9176.68
571.903	9194.98
572.265	9179.39
572.626	9234.53
572.987	9229.11
573.349	9264.13
573.71	9314.98
574.071	9237.69
574.432	9276.56
574.794	9281.08
575.155	9300.52
575.516	9332.83
575.877	9325.83
576.238	9449.67
576.599	9462.77
576.96	9472.04
577.32	9403.79
577.681	9478.14
578.042	9503.45
578.403	9491.93
578.763	9532.15
579.124	9540.51
579.485	9540.96
579.845	9535.31
580.206	9606.95
580.566	9626.16
580.927	9644.92
581.287	9651.24
581.648	9617.12
582.008	9670.9
582.368	9633.16
582.728	9733.28
583.089	9694.86
583.449	9696.89
583.809	9813.27
584.169	9772.14
584.529	9690.11
584.889	9827.51
585.249	9774.63
585.609	9720.62
585.969	9874.51
586.329	9881.52
586.688	9874.06
587.048	9890.11
587.408	9868.19
587.768	9888.3
588.127	9918.58
588.487	9908.41
588.846	9967.17
589.206	9977.34
589.565	9952.93
589.925	9987.96
590.284	9970.56
590.643	10046.94
591.003	10057.79
591.362	10132.81
591.721	10087.62
592.08	10031.57
592.44	10056.88
592.799	10025.47
593.158	10129.87
593.517	10116.77
593.876	10037.45
594.235	10101.4
594.593	10148.86
594.952	10154.28
595.311	10147.95
595.67	10144.79
596.029	10260.72
596.387	10166.71
596.746	10165.13
597.104	10199.25
597.463	10168.29
597.822	10265.69
598.18	10226.37
598.538	10207.39
598.897	10264.11
599.255	10223.66
599.613	10318.57
599.972	10235.86
600.33	10265.69
600.688	10223.88
601.046	10290.77
601.404	10362.64
601.762	10335.52
602.12	10363.77
602.478	10339.36
602.836	10332.36
603.194	10241.28
603.552	10343.43
603.91	10289.42
604.268	10389.3
604.625	10259.81
604.983	10400.83
605.341	10269.53
605.698	10324.67
606.056	10405.35
606.413	10407.38
606.771	10390.66
607.128	10457.32
607.485	10414.39
607.843	10367.16
608.2	10449.19
608.557	10506.36
608.914	10480.6
609.272	10475.63
609.629	10481.28
609.986	10507.27
610.343	10528.96
610.7	10572.58
611.057	10587.04
611.414	10551.33
611.771	10526.02
612.127	10593.59
612.484	10570.32
612.841	10498.68
613.198	10593.82
613.554	10491.9
613.911	10597.89
614.267	10561.28
614.624	10564.89
614.98	10639.01
615.337	10700.26
615.693	10639.01
616.05	10662.06
616.406	10701.16
616.762	10689.63
617.118	10639.69
617.475	10639.69
617.831	10735.73
618.187	10796.75
618.543	10747.49
618.899	10772.57
619.255	10722.85
619.611	10742.06
619.967	10807.82
620.323	10774.15
620.678	10806.02
621.034	10739.12
621.39	10679.92
621.746	10679.46
622.101	10868.61
622.457	10727.83
622.812	10691.44
623.168	10766.69
623.523	10793.59
623.879	10817.54
624.234	10672.46
624.589	10796.3
624.945	10739.12
625.3	10786.81
625.655	10765.56
626.01	10789.74
626.365	10750.42
626.72	10780.71
627.075	10715.17
627.43	10776.86
627.785	10744.32
628.14	10763.08
628.495	10825
628.85	10748.84
629.205	10697.54
629.559	10726.7
629.914	10764.43
630.269	10725.79
630.623	10647.83
630.978	10579.13
631.332	10715.62
631.687	10669.75
632.041	10590.88
632.396	10734.38
632.75	10620.71
633.104	10671.56
633.459	10569.41
633.813	10569.86
634.167	10625.23
634.521	10584.1
634.875	10638.11
635.229	10605.79
635.583	10552.01
635.937	10504.78
636.291	10569.64
636.645	10473.14
636.999	10436.53
637.352	10458.91
637.706	10377.55
638.06	10449.87
638.413	10498.23
638.767	10421.17
639.121	10500.03
639.474	10420.49
639.828	10396.76
640.181	10385.24
640.534	10395.63
640.888	10356.76
641.241	10306.37
641.594	10314.28
641.947	10378.46
642.301	10392.92
642.654	10249.87
643.007	10372.81
643.36	10356.54
643.713	10258.91
644.066	10397.66
644.419	10266.37
644.771	10301.85
645.124	10098.46
645.477	10115.86
645.83	10079.25
646.182	10011.69
646.535	10007.39
646.888	10004.45
647.24	10008.52
647.593	10011.23
647.945	9948.41
648.298	9919.48
648.65	9945.02
649.002	9940.05
649.355	10014.4
649.707	9941.18
650.059	10014.17
650.411	10130.78
650.763	10138.46
651.115	10210.32
651.467	10078.58
651.819	10100.27
652.171	10154.73
652.523	10178.01
652.875	10171.68
653.227	10164
653.578	10202.64
653.93	10212.81
654.282	10192.47
654.633	10127.62
654.985	10140.95
655.337	10166.94
655.688	10151.34
656.039	10219.59
656.391	10158.35
656.742	10144.34
657.094	10115.64
657.445	10199.48
657.796	10158.12
658.147	10167.84
658.498	10093.72
658.849	10121.97
659.2	10101.4
659.551	10168.74
659.902	10094.4
660.253	10182.53
660.604	10173.04
660.955	10138.91
661.306	10213.94
661.656	10175.75
662.007	10176.65
662.358	10232.25
662.708	10226.82
663.059	10206.71
663.409	10155.64
663.76	10222.75
664.11	10214.17
664.461	10210.32
664.811	10282.87
665.161	10253.49
665.511	10261.85
665.862	10242.41
666.212	10267.95
666.562	10233.6
666.912	10254.84
667.262	10285.58
667.612	10223.21
667.962	10283.09
668.312	10197.22
668.662	10260.94
669.011	10206.26
669.361	10201.96
669.711	10230.21
670.06	10198.12
670.41	10168.07
670.76	10095.53
671.109	10168.74
671.459	10185.24
671.808	10260.94
672.157	10137.33
672.507	10129.65
672.856	10071.8
673.205	10129.65
673.554	10128.07
673.904	10165.35
674.253	10197.67
674.602	10059.82
674.951	9959.26
675.3	9935.76
675.649	10034.06
675.998	10007.84
676.346	9983.89
676.695	10079.93
677.044	10003.32
677.393	10026.15
677.741	10065.47
678.09	10008.07
678.438	9975.53
678.787	10042.42
679.135	10049.65
679.484	9951.12
679.832	9965.36
680.181	9902.31
680.529	9914.29
680.877	9961.97
681.225	9909.32
681.573	9949.31
681.922	9903.44
682.27	9774.4
682.618	9815.98
682.966	9765.14
683.314	9791.13
683.661	9825.7
684.009	9712.71
684.357	9728.98
684.705	9732.82
685.053	9745.25
685.4	9716.55
685.748	9653.5
686.095	9670.45
686.443	9517.24
686.79	9514.98
687.138	9648.76
687.485	9551.81
687.832	9512.26
688.18	9600.17
688.527	9446.5
688.874	9486.73
689.221	9445.15
689.568	9408.09
689.915	9345.26
690.262	9380.74
690.609	9340.52
690.956	9283.12
691.303	9302.33
691.65	9339.61
691.997	9239.5
692.344	9227.3
692.69	9160.63
693.037	9136.91
693.383	9088.09
693.73	9124.25
694.077	9078.38
694.423	9010.81
694.769	8984.37
695.116	8914.99
695.462	8923.35
695.808	8892.39
696.155	8880.87
696.501	8808.78
696.847	8790.02
697.193	8758.39
697.539	8770.59
697.885	8686.3
698.231	8662.79
698.577	8612.63
698.923	8687.2
699.269	8573.53
699.614	8511.84
699.96	8538.28
700.306	8474.1
700.651	8491.27
700.997	8460.99
701.342	8367.21
701.688	8355.01
702.033	8315.01
702.379	8318.4
702.724	8337.83
703.069	8295.35
703.415	8190.04
703.76	8177.38
704.105	8212.19
704.45	8176.93
704.795	8112.53
705.14	8196.37
705.485	8139.87
705.83	8077.95
706.175	8085.63
706.52	8012.64
706.865	7985.3
707.209	7985.07
707.554	7952.76
707.899	7951.18
708.243	7946.88
708.588	7923.61
708.932	7881.35
709.277	7847.45
709.621	7845.87
709.966	7769.94
710.31	7772.65
710.654	7673.89
710.998	7769.03
711.342	7701.24
711.687	7684.06
712.031	7683.61
712.375	7655.36
712.719	7613.1
713.063	7690.39
713.407	7655.36
713.75	7642.48
714.094	7630.96
714.438	7519.1
714.782	7557.74
715.125	7528.36
715.469	7545.54
715.812	7485.88
716.156	7422.15
716.499	7508.02
716.843	7491.07
717.186	7383.05
717.53	7486.78
717.873	7438.87
718.216	7406.33
718.559	7462.6
718.902	7362.26
719.246	7324.52
719.589	7364.98
719.932	7331.76
720.275	7320.68
720.617	7304.86
720.96	7289.05
721.303	7246.11
721.646	7323.17
721.989	7284.75
722.331	7292.44
722.674	7290.85
723.016	7316.39
723.359	7266
723.701	7322.04
724.044	7220.35
724.386	7174.47
724.729	7291.53
725.071	7208.14
725.413	7209.73
725.755	7213.79
726.097	7224.64
726.439	7190.29
726.782	7160.69
727.124	7199.1
727.465	7146
727.807	7162.27
728.149	7195.49
728.491	7197.52
728.833	7228.93
729.175	7108.03
729.516	7139.22
729.858	7184.42
730.199	7166.79
730.541	7154.36
730.882	7147.81
731.224	7182.38
731.565	7116.17
731.906	7111.2
732.248	7174.02
732.589	7099.22
732.93	7111.42
733.271	7105.55
733.612	7106.68
733.953	7189.16
734.294	7108.49
734.635	7127.02
734.976	7077.98
735.317	7112.1
735.658	7107.81
735.999	7125.43
736.339	7141.03
736.68	7135.6
737.021	7167.47
737.361	7108.03
737.702	7174.25
738.042	7195.26
738.383	7195.94
738.723	7149.16
739.063	7137.86
739.404	7243.85
739.744	7186.22
740.084	7191.2
740.424	7190.29
740.764	7250.4
741.104	7268.93
741.444	7247.46
741.784	7260.8
742.124	7331.08
742.464	7301.7
742.804	7298.54
743.143	7300.57
743.483	7270.97
743.823	7335.15
744.162	7341.7
744.502	7469.38
744.841	7416.5
745.181	7482.26
745.52	7484.97
745.86	7552.32
746.199	7551.86
746.538	7578.3
746.877	7596.38
747.216	7695.36
747.556	7732.88
747.895	7832.53
748.234	7814.68
748.573	7872.99
748.911	7894.45
749.25	7991.4
749.589	8000.21
749.928	8071.4
750.267	8195.01
750.605	8254.22
750.944	8353.42
751.283	8360.2
751.621	8474.1
751.96	8554.1
752.298	8602.46
752.636	8688.33
752.975	8789.35
753.313	8827.31
753.651	8946.86
753.989	9067.76
754.327	9140.07
754.666	9250.35
755.004	9397.46
755.342	9558.14
755.679	9637.01
756.017	9746.38
756.355	9993.61
756.693	10023.44
757.031	10097.79
757.368	10317.44
757.706	10444.44
758.044	10581.61
758.381	10699.13
758.719	10936.18
759.056	11120.58
759.394	11200.81
759.731	11355.38
760.068	11542.95
760.405	11649.38
760.743	11842.37
761.08	12015.25
761.417	12230.38
761.754	12416.59
762.091	12563.71
762.428	12772.52
762.765	12862.68
763.102	13113.3
763.438	13247.31
763.775	13388.09
764.112	13587.64
764.449	13794.86
764.785	13900.17
765.122	14110.34
765.458	14243.67
765.795	14411.8
766.131	14752.8
766.467	14747.61
766.804	14881.16
767.14	15156.18
767.476	15272.34
767.812	15314.82
768.148	15603.18
768.485	15648.15
768.821	15698.09
769.157	15939.89
769.492	16080.9
769.828	16187.12
770.164	16257.85
770.5	16419.65
770.836	16611.51
771.171	16633.66
771.507	16729.93
771.842	16822.58
772.178	16961.11
772.513	17148.9
772.849	17171.72
773.184	17170.82
773.519	17446.74
773.855	17426.63
774.19	17606.29
774.525	17562.45
774.86	17751.14
775.195	17828.2
775.53	17833.85
775.865	17887.86
776.2	17875.43
776.535	17876.34
776.87	17958.37
777.205	17996.11
777.539	18092.15
777.874	18227.74
778.209	18175.99
778.543	18264.35
778.878	18169.44
779.212	18374.86
779.547	18233.16
779.881	18437.23
780.215	18361.97
780.55	18462.99
780.884	18419.15
781.218	18483.78
781.552	18568.98
781.886	18473.84
782.22	18569.65
782.554	18548.41
782.888	18448.3
783.222	18429.77
783.556	18467.28
783.889	18523.55
784.223	18321.98
784.557	18425.48
784.89	18497.56
785.224	18465.25
785.557	18439.03
785.891	18301.19
786.224	18473.84
786.558	18493.72
786.891	18374.4
787.224	18294.63
787.557	18383.22
787.891	18369.66
788.224	18368.98
788.557	18482.2
788.89	18347.96
789.223	18332.82
789.556	18310.68
789.888	18207.4
790.221	18220.06
790.554	18120.63
790.887	18277.01
791.219	18129.66
791.552	18161.75
791.884	18025.26
792.217	18090.34
792.549	18096.45
792.882	17967.63
793.214	17876.56
793.546	17940.52
793.879	17888.54
794.211	17797.24
794.543	17882.44
794.875	17888.77
795.207	17940.74
795.539	17826.4
795.871	17874.98
796.203	17694.65
796.535	17625.05
796.867	17612.62
797.198	17640.41
797.53	17580.07
797.862	17522.22
798.193	17537.82
798.525	17374.2
798.856	17379.18
799.188	17238.16
799.519	17229.58
799.85	17164.27
800.182	17242.91
800.513	17128.33
800.844	17055.57
801.175	17150.03
801.506	17175.57
801.837	17104.61
802.168	16969.47
802.499	17007.43
802.83	16856.7
803.161	16896.25
803.491	16962.69
803.822	16889.92
804.153	16800.43
804.483	16638.4
804.814	16745.29
805.145	16784.39
805.475	16661.91
805.805	16479.54
806.136	16632.3
806.466	16681.79
806.796	16533.55
807.126	16501.23
807.457	16358.41
807.787	16424.62
808.117	16357.06
808.447	16354.34
808.777	16390.5
809.107	16295.59
809.436	16264.4
809.766	16282.26
810.096	16168.59
810.426	16067.57
810.755	16149.83
811.085	16049.72
811.414	16011.98
811.744	15981.02
812.073	15917.52
812.403	15946.67
812.732	15912.55
813.061	15931.53
813.39	15843.17
813.719	15838.88
814.049	15835.94
814.378	15751.65
814.707	15653.35
815.036	15684.76
815.365	15697.41
815.693	15510.3
816.022	15483.86
816.351	15547.81
816.68	15508.94
817.008	15545.78
817.337	15364.31
817.665	15393.01
817.994	15421.26
818.322	15306.91
818.651	15368.38
818.979	15281.83
819.307	15270.53
819.636	15259.68
819.964	15189.18
820.292	15319.57
820.62	15258.1
820.948	15214.26
821.276	15261.49
821.604	15254.71
821.932	15241.6
822.259	15192.79
822.587	15153.25
822.915	15174.26
823.243	15144.88
823.57	15178.1
823.898	15188.05
824.225	15179.91
824.553	15163.19
824.88	15150.31
825.207	15294.48
825.535	15115.73
825.862	15213.13
826.189	15157.54
826.516	15229.85
826.843	15300.36
827.17	15268.5
827.497	15237.99
827.824	15200.02
828.151	15245.67
828.478	15215.39
828.805	15290.42
829.131	15167.03
829.458	15286.12
829.785	15232.57
830.111	15174.04
830.438	15281.15
830.764	15276.63
831.09	15297.65
831.417	15131.78
831.743	15162.74
832.069	15225.33
832.395	15133.13
832.722	15098.56
833.048	15113.92
833.374	15211.55
833.7	15088.84
834.026	15141.95
834.351	15177.43
834.677	15094.49
835.003	15123.42
835.329	15142.17
835.654	15015.4
835.98	14971.56
836.306	15055.62
836.631	14944.21
836.956	15065.56
837.282	15006.13
837.607	14972.91
837.932	14919.81
838.258	14899.02
838.583	14876.87
838.908	14883.42
839.233	14846.36
839.558	14906.92
839.883	14749.19
840.208	14746.7
840.533	14728.17
840.858	14726.36
841.182	14761.39
841.507	14669.42
841.832	14630.1
842.156	14610.89
842.481	14633.49
842.805	14566.59
843.13	14551.23
843.454	14513.04
843.778	14473.72
844.103	14434.62
844.427	14350.78
844.751	14382.42
845.075	14384.68
845.399	14276.43
845.723	14212.03
846.047	14265.36
846.371	14138.36
846.695	14179.94
847.019	14045.93
847.343	13901.98
847.666	13861.3
847.99	13835.54
848.313	13877.57
848.637	13730.01
848.96	13684.81
849.284	13680.29
849.607	13529.11
849.931	13480.75
850.254	13427.19
850.577	13493.4
850.9	13292.28
851.223	13323.69
851.546	13302.45
851.869	13172.28
852.192	13247.08
852.515	13131.83
852.838	13070.59
853.161	13062.91
853.483	13021.1
853.806	12919.18
854.129	12935.22
854.451	12812.52
854.774	12787.66
855.096	12772.52
855.419	12699.98
855.741	12781.1
856.063	12641.45
856.385	12573.2
856.708	12614.78
857.03	12501.79
857.352	12539.98
857.674	12450.94
857.996	12465.86
858.318	12263.83
858.64	12393.77
858.961	12288.01
859.283	12231.06
859.605	12200.78
859.926	12257.5
860.248	12224.74
860.57	12175.24
860.891	12195.58
861.212	12026.77
861.534	12046.21
861.855	12026.1
862.176	11980.45
862.498	12000.79
862.819	11953.56
863.14	12024.29
863.461	11945.87
863.782	11867.91
864.103	11910.85
864.424	11871.3
864.745	11857.29
865.065	11827.46
865.386	11756.27
865.707	11790.4
866.027	11815.71
866.348	11702.26
866.668	11760.79
866.989	11704.52
867.309	11625.65
867.63	11671.53
867.95	11680.34
868.27	11574.13
868.59	11601.02
868.91	11582.72
869.23	11536.39
869.55	11502.95
869.87	11563.06
870.19	11523.51
870.51	11530.52
870.83	11467.69
871.15	11509.05
871.469	11467.92
871.789	11409.39
872.109	11438.77
872.428	11324.87
872.748	11340.01
873.067	11406.45
873.386	11368.26
873.706	11303.18
874.025	11250.07
874.344	11240.81
874.663	11266.12
874.982	11314.93
875.301	11266.34
875.62	11146.57
875.939	11145.22
876.258	11124.65
876.577	11112.22
876.896	11086.69
877.214	11071.77
877.533	11067.93
877.852	11096.4
878.17	11050.3
878.489	11098.89
878.807	11061.6
879.125	11036.52
879.444	10996.29
879.762	10969.17
880.08	10980.02
880.398	10946.35
880.716	10892.34
881.034	10939.57
881.352	10911.55
881.67	10824.77
881.988	10781.16
882.306	10781.16
882.624	10696.19
882.941	10750.42
883.259	10706.58
883.577	10638.56
883.894	10578.22
884.212	10624.1
884.529	10605.57
884.846	10593.14
885.164	10493.26
885.481	10554.27
885.798	10487.15
886.115	10411.9
886.432	10432.01
886.75	10420.49
887.067	10459.13
887.383	10367.16
887.7	10399.47
888.017	10332.81
888.334	10316.76
888.651	10307.5
888.967	10272.7
889.284	10216.2
889.6	10122.64
889.917	10161.74
890.233	10168.52
890.55	10099.14
890.866	10088.52
891.182	10038.13
891.498	9978.24
891.815	9966.94
892.131	9978.01
892.447	9944.12
892.763	9889.88
893.079	9874.29
893.395	9866.83
893.71	9786.83
894.026	9725.37
894.342	9647.63
894.657	9673.84
894.973	9647.18
895.289	9607.4
895.604	9719.94
895.92	9551.13
896.235	9522.89
896.55	9555.65
896.865	9508.87
897.181	9477.24
897.496	9494.19
897.811	9354.98
898.126	9384.13
898.441	9362.44
898.756	9268.2
899.071	9206.28
899.386	9223.23
899.7	9182.56
900.015	9112.95
900.33	9081.99
900.644	9079.73
900.959	9048.32
901.273	9077.47
901.588	8971.71
901.902	8957.25
902.216	8930.58
902.531	8908.89
902.845	8906.86
903.159	8788.22
903.473	8795.67
903.787	8774.88
904.101	8715.9
904.415	8703.25
904.729	8680.42
905.042	8584.83
905.356	8578.73
905.67	8559.52
905.984	8502.8
906.297	8531.95
906.611	8497.83
906.924	8485.17
907.237	8477.04
907.551	8405.63
907.864	8339.41
908.177	8249.47
908.491	8296.02
908.804	8211.73
909.117	8234.56
909.43	8148.23
909.743	8094.22
910.056	8126.54
910.368	8067.1
910.681	7982.81
910.994	8052.87
911.307	8016.03
911.619	7966.99
911.932	7938.97
912.244	7857.84
912.557	7847
912.869	7751.63
913.181	7731.29
913.494	7723.16
913.806	7670.5
914.118	7709.15
914.43	7631.18
914.742	7658.98
915.054	7639.54
915.366	7491.3
915.678	7501.24
915.99	7488.81
916.302	7423.73
916.613	7397.52
916.925	7373.56
917.236	7357.07
917.548	7315.94
917.859	7359.1
918.171	7270.52
918.482	7217.64
918.794	7209.5
919.105	7161.59
919.416	7108.94
919.727	7103.97
920.038	7070.75
920.349	7012.44
920.66	7085.44
920.971	7017.41
921.282	6981.03
921.593	6927.7
921.903	6890.86
922.214	6932.67
922.525	6876.4
922.835	6859.45
923.146	6822.39
923.456	6788.95
923.767	6752.56
924.077	6663.75
924.387	6687.71
924.697	6645.45
925.008	6572.91
925.318	6582.85
925.628	6569.52
925.938	6542.85
926.248	6486.13
926.558	6525.9
926.867	6528.39
927.177	6478.45
927.487	6444.32
927.796	6408.62
928.106	6405.68
928.416	6346.7
928.725	6319.58
929.034	6273.48
929.344	6242.07
929.653	6198.68
929.962	6220.15
930.271	6173.37
930.581	6139.47
930.89	6136.08
931.199	6078.23
931.508	6117.55
931.817	6086.82
932.125	6056.08
932.434	6022.19
932.743	5965.92
933.051	5942.19
933.36	5945.58
933.669	5893.38
933.977	5914.62
934.286	5894.96
934.594	5839.59
934.902	5784.9
935.21	5762.31
935.519	5753.72
935.827	5798.24
936.135	5772.48
936.443	5673.04
936.751	5692.7
937.059	5667.39
937.367	5680.95
937.674	5664.68
937.982	5613.38
938.29	5594.4
938.597	5603.21
938.905	5485.7
939.213	5493.39
939.52	5422.2
939.827	5467.62
940.135	5397.8
940.442	5400.96
940.749	5417.46
941.056	5369.1
941.363	5319.83
941.67	5318.48
941.977	5271.7
942.284	5195.54
942.591	5212.04
942.898	5182.21
943.205	5170.46
943.511	5132.49
943.818	5150.12
944.125	5117.58
944.431	5055.88
944.738	5110.8
945.044	5065.6
945.35	5031.03
945.657	4985.15
945.963	4980.63
946.269	4935.89
946.575	4963.68
946.881	4910.13
947.187	4977.24
947.493	4879.17
947.799	4846.4
948.105	4856.79
948.41	4809.11
948.716	4772.73
949.022	4765.72
949.327	4764.59
949.633	4761.2
949.938	4765.95
950.244	4746.74
950.549	4710.58
950.854	4650.02
951.16	4674.2
951.465	4647.31
951.77	4596.69
952.075	4600.75
952.38	4584.03
952.685	4505.39
952.99	4515.11
953.294	4478.95
953.599	4490.02
953.904	4466.75
954.209	4443.02
954.513	4471.94
954.818	4419.74
955.122	4410.93
955.426	4396.01
955.731	4362.34
956.035	4340.65
956.339	4293.19
956.643	4267.88
956.948	4240.76
957.252	4240.09
957.556	4271.5
957.86	4193.76
958.163	4240.54
958.467	4185.4
958.771	4155.34
959.075	4176.36
959.378	4106.76
959.682	4129.58
959.985	4085.74
960.289	4075.12
960.592	4012.75
960.896	4055.46
961.199	4042.58
961.502	4034.89
961.805	3996.48
962.108	3969.36
962.411	3945.4
962.714	3921.68
963.017	3902.69
963.32	3900.21
963.623	3862.24
963.926	3894.11
964.228	3885.29
964.531	3871.28
964.833	3834.22
965.136	3791.96
965.438	3798.06
965.741	3775.92
966.043	3744.28
966.345	3729.37
966.648	3703.83
966.95	3690.04
967.252	3719.65
967.554	3694.56
967.856	3634.45
968.158	3635.81
968.46	3621.12
968.761	3643.04
969.063	3605.07
969.365	3580.89
969.666	3547.45
969.968	3536.38
970.269	3518.07
970.571	3549.03
970.872	3510.16
971.174	3461.8
971.475	3515.81
971.776	3476.94
972.077	3415.25
972.378	3424.29
972.679	3434.46
972.98	3415.25
973.281	3416.38
973.582	3364.63
973.883	3367.57
974.183	3317.4
974.484	3369.6
974.785	3321.47
975.085	3288.92
975.386	3296.83
975.686	3294.12
975.986	3251.64
976.287	3245.54
976.587	3197.85
976.887	3215.48
977.187	3229.72
977.487	3176.61
977.787	3141.58
978.087	3181.36
978.387	3126.22
978.687	3161.7
978.987	3111.75
979.286	3090.29
979.586	3139.55
979.885	3048.03
980.185	3053.9
980.484	3033.11
980.784	3029.72
981.083	3042.83
981.382	3020.68
981.682	3020.23
981.981	2987.69
982.28	2966.67
982.579	2978.42
982.878	2945.43
983.177	2933.91
983.475	2954.7
983.774	2889.61
984.073	2882.83
984.372	2879.9
984.67	2851.65
984.969	2871.31
985.267	2838.32
985.566	2843.51
985.864	2783.18
986.162	2808.71
986.461	2773.91
986.759	2766.9
987.057	2748.83
987.355	2719.45
987.653	2701.82
987.951	2707.25
988.249	2674.93
988.547	2684.87
988.844	2685.55
989.142	2668.38
989.44	2665.21
989.737	2636.74
990.035	2644.42
990.332	2614.59
990.63	2569.17
990.927	2597.87
991.224	2577.31
991.521	2550.41
991.819	2539.34
992.116	2516.74
992.413	2506.8
992.71	2514.26
993.006	2494.6
993.303	2528.04
993.6	2488.04
993.897	2460.47
994.193	2467.93
994.49	2442.62
994.787	2442.39
995.083	2387.71
995.379	2404.65
995.676	2408.04
995.972	2395.84
996.268	2373.92
996.565	2342.74
996.861	2343.64
997.157	2338.44
997.453	2368.5
997.749	2344.32
998.044	2303.19
998.34	2302.28
998.636	2269.52
998.932	2225.45
999.227	2271.55
999.523	2265.45
999.818	2231.55
1000.114	2249.63
1000.409	2193.36
1000.704	2197.2
1001	2177.54
1001.295	2190.42
1001.59	2189.74
1001.885	2210.31
1002.18	2128.05
1002.475	2128.05
1002.77	2122.63
1003.065	2099.35
1003.359	2097.09
1003.654	2074.04
1003.949	2066.58
1004.243	2056.87
1004.538	2030.43
1004.832	2061.84
1005.127	2036.08
1005.421	2027.72
1005.715	2013.7
1006.009	2015.51
1006.304	1992.69
1006.598	1980.03
1006.892	1965.57
1007.186	1954.5
1007.48	1928.96
1007.773	1960.15
1008.067	1925.34
1008.361	1877.44
1008.655	1874.5
1008.948	1872.92
1009.242	1842.86
1009.535	1906.36
1009.829	1844.44
1010.122	1858.45
1010.415	1838.12
1010.708	1810.32
1011.001	1816.87
1011.295	1757.67
1011.588	1807.16
1011.881	1765.12
1012.173	1763.99
1012.466	1774.84
1012.759	1774.39
1013.052	1737.33
1013.344	1754.05
1013.637	1731.45
1013.93	1683.77
1014.222	1732.58
1014.514	1676.76
1014.807	1700.49
1015.099	1655.52
1015.391	1673.83
1015.683	1655.52
1015.976	1606.26
1016.268	1639.93
1016.56	1617.56
1016.851	1569.42
1017.143	1608.07
1017.435	1598.35
1017.727	1566.71
1018.018	1561.74
1018.31	1573.26
1018.602	1549.54
1018.893	1529.42
1019.185	1532.13
1019.476	1511.57
1019.767	1498.01
1020.058	1493.49
1020.35	1455.75
1020.641	1468.86
1020.932	1473.61
1021.223	1405.81
1021.514	1460.27
1021.804	1413.72
1022.095	1420.05
1022.386	1432.48
1022.677	1421.63
1022.967	1389.54
1023.258	1387.51
1023.548	1372.59
1023.839	1360.84
1024.129	1388.18
1024.419	1381.18
1024.709	1368.07
1025	1336.21
1025.29	1342.31
1025.58	1322.65
1025.87	1304.12
1026.16	1307.96
1026.449	1295.3
1026.739	1298.02
1027.029	1300.28
1027.319	1247.62
1027.608	1259.6
1027.898	1253.5
1028.187	1236.55
1028.477	1225.7
1028.766	1234.29
1029.055	1215.76
1029.344	1217.57
1029.634	1212.6
1029.923	1208.53
1030.212	1201.75
1030.501	1185.48
1030.79	1206.95
1031.078	1196.1
1031.367	1158.13
1031.656	1157.68
1031.945	1161.52
1032.233	1124.24
1032.522	1116.1
1032.81	1119.04
1033.099	1105.93
1033.387	1106.16
1033.675	1105.48
1033.963	1095.76
1034.251	1092.37
1034.54	1077.46
1034.828	1067.29
1035.116	1080.17
1035.403	1044.69
1035.691	1032.94
1035.979	1036.1
1036.267	1019.38
1036.554	1029.78
1036.842	1023.45
1037.129	1026.39
1037.417	1035.88
1037.704	1002.43
1037.992	1016.67
1038.279	986.16
1038.566	951.59
1038.853	951.59
1039.14	951.59
