Data from hue_260_FLMS001491_00097.txt Node
Date: Tue Feb 07 15:59:54 GMT 2017
User: dcchb
Spectrometer: FLMS00149
Trigger mode: 0
Integration Time (sec): 2.000000E-2
Scans to average: 10
Electric dark correction enabled: true
Nonlinearity correction enabled: false
Boxcar width: 0
XAxis mode: Wavelengths
Number of Pixels in Spectrum: 2048
>>>>>Begin Spectral Data<<<<<
341.393	-19.28
341.776	-19.28
342.16	-19.28
342.543	-74.42
342.927	-70.8
343.31	-57.47
343.693	-59.73
344.077	-74.64
344.46	-63.8
344.843	-65.15
345.226	-42.1
345.61	-15.66
345.993	-35.78
346.376	-12.05
346.759	14.84
347.142	25.24
347.525	26.14
347.908	51
348.291	85.8
348.674	91.23
349.057	132.13
349.44	119.25
349.823	166.48
350.206	158.8
350.588	178.68
350.971	203.54
351.354	208.74
351.737	213.71
352.119	233.14
352.502	246.25
352.884	243.31
353.267	269.98
353.65	272.24
354.032	300.49
354.414	288.06
354.797	281.05
355.179	314.5
355.562	293.03
355.944	330.77
356.326	316.98
356.709	313.82
357.091	313.82
357.473	346.59
357.855	327.83
358.238	332.12
358.62	334.16
359.002	313.59
359.384	315.18
359.766	332.58
360.148	331.67
360.53	316.76
360.912	341.39
361.294	313.59
361.676	331.67
362.057	351.56
362.439	295.97
362.821	311.56
363.203	314.95
363.584	341.84
363.966	323.31
364.348	324.21
364.729	302.75
365.111	313.82
365.493	296.42
365.874	314.95
366.256	314.27
366.637	295.06
367.019	318.57
367.4	300.94
367.781	305.91
368.163	304.1
368.544	306.59
368.925	324.89
369.306	318.11
369.688	310.66
370.069	321.95
370.45	291.45
370.831	324.67
371.212	300.94
371.593	292.13
371.974	304.55
372.355	303.42
372.736	314.95
373.117	305.01
373.498	316.08
373.879	305.01
374.26	337.32
374.641	320.6
375.021	319.69
375.402	293.48
375.783	316.76
376.163	299.36
376.544	323.76
376.925	313.59
377.305	312.01
377.686	319.69
378.066	306.59
378.447	316.31
378.827	322.86
379.208	325.57
379.588	296.87
379.968	328.96
380.349	334.38
380.729	333.93
381.109	318.57
381.489	327.38
381.87	314.72
382.25	337.32
382.63	306.81
383.01	322.86
383.39	352.01
383.77	326.93
384.15	347.94
384.53	325.12
384.91	314.72
385.29	321.95
385.67	350.88
386.049	349.52
386.429	355.17
386.809	329.41
387.189	348.62
387.568	354.95
387.948	352.69
388.328	348.85
388.707	356.98
389.087	357.66
389.466	348.17
389.846	347.04
390.225	364.21
390.605	349.75
390.984	349.3
391.363	374.83
391.743	370.99
392.122	380.48
392.501	353.82
392.881	361.95
393.26	385.68
393.639	384.55
394.018	366.7
394.397	395.63
394.776	372.8
395.155	377.77
395.534	382.97
395.913	403.53
396.292	370.09
396.671	383.65
397.05	396.76
397.429	376.19
397.808	379.58
398.186	392.91
398.565	392.69
398.944	354.72
399.323	405.57
399.701	402.63
400.08	415.96
400.458	414.61
400.837	410.31
401.215	402.86
401.594	416.64
401.972	429.07
402.351	426.13
402.729	419.58
403.107	415.51
403.486	426.58
403.864	436.3
404.242	437.21
404.62	435.4
404.999	418.9
405.377	474.27
405.755	463.65
406.133	461.61
406.511	480.82
406.889	460.93
407.267	461.61
407.645	461.61
408.023	466.13
408.401	469.07
408.779	488.28
409.156	479.24
409.534	498.67
409.912	511.55
410.29	505.68
410.667	516.53
411.045	516.53
411.422	523.53
411.8	514.04
412.178	552.46
412.555	546.13
412.933	561.27
413.31	559.46
413.687	548.39
414.065	570.76
414.442	579.8
414.819	575.73
415.197	583.19
415.574	599.01
415.951	609.18
416.328	609.18
416.705	620.03
417.082	603.08
417.46	642.85
417.837	657.54
418.214	652.57
418.591	645.34
418.967	629.97
419.344	683.08
419.721	673.36
420.098	690.53
420.475	692.34
420.852	712
421.228	706.35
421.605	741.15
421.982	722.4
422.358	741.83
422.735	768.5
423.111	745.67
423.488	766.91
423.864	763.3
424.241	795.61
424.617	817.08
424.994	785.45
425.37	825.67
425.746	864.54
426.123	862.96
426.499	850.08
426.875	853.24
427.251	862.51
427.627	886.23
428.003	891.88
428.379	884.65
428.756	914.26
429.132	928.27
429.507	946.12
429.883	943.86
430.259	948.38
430.635	970.75
431.011	984.31
431.387	978.89
431.763	996.51
432.138	1019.11
432.514	1002.84
432.89	1036.06
433.265	1079
433.641	1073.8
434.016	1092.1
434.392	1104.08
434.767	1125.55
435.143	1140.01
435.518	1136.85
435.894	1144.98
436.269	1181.37
436.644	1216.39
437.02	1221.37
437.395	1242.83
437.77	1257.98
438.145	1283.51
438.52	1304.75
438.895	1319.67
439.271	1328.26
439.646	1335.94
440.021	1373.68
440.395	1359.22
440.77	1379.1
441.145	1387.92
441.52	1419.1
441.895	1403.06
442.27	1423.85
442.645	1448.48
443.019	1470.17
443.394	1472.21
443.769	1464.3
444.143	1489.38
444.518	1511.3
444.892	1476.27
445.267	1532.77
445.641	1553.11
446.016	1568.48
446.39	1538.87
446.764	1595.14
447.139	1554.69
447.513	1590.62
447.887	1598.76
448.262	1619.77
448.636	1633.33
449.01	1657.29
449.384	1663.61
449.758	1635.14
450.132	1659.32
450.506	1704.29
450.88	1732.99
451.254	1710.62
451.628	1730.73
452.002	1761.46
452.376	1758.08
452.75	1792.42
453.123	1752.2
453.497	1808.92
453.871	1820.9
454.244	1851.41
454.618	1884.63
454.992	1872.2
455.365	1891.86
455.739	1941.57
456.112	1961.69
456.486	1957.62
456.859	1981.35
457.232	2017.96
457.606	2003.27
457.979	2017.73
458.352	2063.6
458.725	2061.12
459.099	2103.38
459.472	2133.21
459.845	2149.48
460.218	2178.63
460.591	2199.42
460.964	2179.31
461.337	2218.18
461.71	2257.5
462.083	2311.96
462.456	2274.67
462.829	2310.38
463.201	2357.38
463.574	2351.96
463.947	2380.21
464.32	2471.5
464.692	2441.45
465.065	2488.23
465.438	2525.06
465.81	2515.34
466.183	2555.79
466.555	2642.8
466.928	2599.41
467.3	2605.06
467.672	2624.27
468.045	2689.12
468.417	2751.5
468.789	2747.43
469.161	2762.12
469.534	2815.22
469.906	2860.87
470.278	2914.66
470.65	2913.07
471.022	2970.47
471.394	2984.71
471.766	3016.57
472.138	2999.62
472.51	3111.71
472.882	3109.23
473.253	3171.6
473.625	3193.52
473.997	3278.49
474.369	3247.3
474.74	3332.27
475.112	3401.65
475.484	3426.51
475.855	3430.57
476.227	3460.63
476.598	3534.53
476.97	3602.55
477.341	3682.54
477.713	3685.93
478.084	3737.91
478.455	3807.29
478.827	3841.18
479.198	3928.87
479.569	3910.56
479.94	4046.6
480.311	4041.41
480.682	4088.18
481.053	4158.24
481.424	4220.38
481.795	4253.6
482.166	4330.66
482.537	4391.68
482.908	4475.97
483.279	4497.44
483.65	4569.75
484.021	4691.33
484.391	4684.55
484.762	4739.01
485.133	4722.52
485.503	4815.85
485.874	4878.22
486.244	4921.38
486.615	5011.55
486.985	5047.48
487.356	5168.61
487.726	5155.05
488.097	5301.48
488.467	5266.01
488.837	5332.9
489.207	5394.36
489.578	5471.65
489.948	5548.48
490.318	5560.91
490.688	5618.54
491.058	5689.95
491.428	5729.72
491.798	5765.88
492.168	5881.36
492.538	5903.73
492.908	5945.99
493.278	5976.95
493.648	6014.23
494.017	6025.31
494.387	6096.27
494.757	6154.57
495.126	6200.44
495.496	6210.16
495.866	6226.66
496.235	6323.6
496.605	6317.5
496.974	6374.9
497.344	6401.57
497.713	6432.98
498.082	6522.02
498.452	6549.36
498.821	6583.03
499.19	6555.46
499.559	6645.63
499.928	6649.47
500.298	6646.08
500.667	6716.81
501.036	6708.45
501.405	6747.77
501.774	6791.16
502.143	6835
502.512	6814.89
502.88	6850.82
503.249	6870.71
503.618	6859.18
503.987	6940.31
504.356	6976.02
504.724	7013.08
505.093	7030.93
505.462	7043.36
505.83	7051.95
506.199	7119.29
506.567	7182.79
506.936	7223.02
507.304	7234.77
507.672	7246.97
508.041	7248.78
508.409	7231.38
508.777	7327.65
509.145	7299.17
509.514	7327.42
509.882	7301.88
510.25	7341.88
510.618	7455.55
510.986	7356.8
511.354	7477.47
511.722	7473.41
512.09	7519.51
512.458	7434.54
512.826	7492.61
513.193	7562.22
513.561	7631.14
513.929	7617.13
514.297	7671.59
514.664	7650.8
515.032	7666.62
515.4	7713.17
515.767	7743.23
516.135	7776.22
516.502	7630.92
516.869	7790.46
517.237	7780.06
517.604	7704.59
517.972	7804.7
518.339	7874.07
518.706	7830.23
519.073	7843.79
519.44	7834.53
519.808	7920.63
520.175	7848.99
520.542	7943
520.909	7938.7
521.276	7945.03
521.643	7945.71
522.009	7972.6
522.376	8000.4
522.743	8047.18
523.11	8075.65
523.477	8122.88
523.843	8137.12
524.21	8183.22
524.577	8169.88
524.943	8258.24
525.31	8195.87
525.676	8320.39
526.043	8325.59
526.409	8331.69
526.776	8318.58
527.142	8326.04
527.508	8326.04
527.874	8342.08
528.241	8372.59
528.607	8377.79
528.973	8385.02
529.339	8383.89
529.705	8389.99
530.071	8461.85
530.437	8434.51
530.803	8472.47
531.169	8516.99
531.535	8495.3
531.901	8469.09
532.267	8480.38
532.632	8457.79
532.998	8417.11
533.364	8497.11
533.73	8468.63
534.095	8504.79
534.461	8476.99
534.826	8494.85
535.192	8444.68
535.557	8513.15
535.923	8516.54
536.288	8528.29
536.653	8525.35
537.019	8393.16
537.384	8494.4
537.749	8475.86
538.114	8459.59
538.479	8471.8
538.845	8463.89
539.21	8439.26
539.575	8491.46
539.94	8402.87
540.305	8455.53
540.67	8469.09
541.034	8464.11
541.399	8481.29
541.764	8419.37
542.129	8407.17
542.494	8437.67
542.858	8424.79
543.223	8342.08
543.587	8444.68
543.952	8375.53
544.316	8397.22
544.681	8411.69
545.045	8415.3
545.41	8371.91
545.774	8372.59
546.138	8358.81
546.503	8329.43
546.867	8397.9
547.231	8356.09
547.595	8343.66
547.959	8384.12
548.324	8376.43
548.688	8327.39
549.052	8361.29
549.416	8293.72
549.779	8330.78
550.143	8309.99
550.507	8345.02
550.871	8303.21
551.235	8293.72
551.599	8336.89
551.962	8281.97
552.326	8285.14
552.689	8296.89
553.053	8209.21
553.417	8267.96
553.78	8282.65
554.143	8235.42
554.507	8300.95
554.87	8302.76
555.234	8342.08
555.597	8262.76
555.96	8315.19
556.323	8317.22
556.686	8348.86
557.05	8379.82
557.413	8376.88
557.776	8259.15
558.139	8374.85
558.502	8266.38
558.865	8310.45
559.228	8396.77
559.59	8437
559.953	8351.57
560.316	8400.84
560.679	8359.94
561.041	8379.14
561.404	8444.23
561.767	8447.62
562.129	8379.14
562.492	8423.44
562.854	8476.54
563.217	8435.19
563.579	8478.35
563.941	8516.32
564.304	8537.33
564.666	8624.34
565.028	8508.41
565.39	8538.69
565.753	8574.17
566.115	8599.7
566.477	8561.96
566.839	8638.35
567.201	8702.07
567.563	8714.73
567.925	8718.57
568.287	8693.71
568.648	8773.94
569.01	8785.46
569.372	8779.13
569.734	8723.54
570.095	8844.22
570.457	8867.72
570.819	8856.87
571.18	8878.57
571.542	8921.28
571.903	8892.58
572.265	8886.25
572.626	8955.4
572.987	8907.72
573.349	8904.33
573.71	9019.58
574.071	9044.44
574.432	9070.88
574.794	9115.85
575.155	9076.3
575.516	9083.31
575.877	9099.8
576.238	9121.05
576.599	9169.18
576.96	9196.3
577.32	9189.07
577.681	9255.28
578.042	9302.51
578.403	9213.02
578.763	9293.92
579.124	9280.36
579.485	9353.81
579.845	9331.44
580.206	9371.21
580.566	9317.65
580.927	9391.77
581.287	9429.06
581.648	9389.29
582.008	9453.69
582.368	9443.75
582.728	9458.89
583.089	9476.74
583.449	9480.81
583.809	9554.93
584.169	9562.84
584.529	9518.1
584.889	9537.76
585.249	9480.36
585.609	9579.34
585.969	9619.34
586.329	9683.97
586.688	9622.73
587.048	9705.66
587.408	9660.24
587.768	9603.07
588.127	9556.06
588.487	9611.2
588.846	9722.61
589.206	9713.35
589.565	9727.58
589.925	9794.7
590.284	9748.37
590.643	9763.97
591.003	9844.87
591.362	9830.41
591.721	9858.65
592.08	9757.86
592.44	9822.5
592.799	9856.17
593.158	9791.31
593.517	9878.09
593.876	9817.07
594.235	9834.7
594.593	9910.4
594.952	9923.96
595.311	9852.33
595.67	9877.18
596.029	9937.52
596.387	9979.33
596.746	10084.18
597.104	9992.21
597.463	9929.16
597.822	10025.43
598.18	10032.21
598.538	10011.87
598.897	10045.54
599.255	9936.39
599.613	10136.16
599.972	10095.03
600.33	10088.7
600.688	9981.14
601.046	10087.57
601.404	10122.83
601.762	10107.23
602.12	10184.75
602.478	10109.49
602.836	10115.82
603.194	10031.08
603.552	10102.26
603.91	10041.02
604.268	10115.6
604.625	10088.48
604.983	10121.92
605.341	10107.91
605.698	10127.8
606.056	10141.58
606.413	10147.69
606.771	10085.09
607.128	10122.38
607.485	10158.08
607.843	10180
608.2	10205.99
608.557	10297.74
608.914	10293.9
609.272	10233.78
609.629	10269.26
609.986	10227.23
610.343	10274.01
610.7	10300.9
611.057	10315.36
611.414	10335.7
611.771	10316.95
612.127	10345.19
612.484	10325.08
612.841	10371.86
613.198	10378.64
613.554	10338.41
613.911	10349.49
614.267	10352.43
614.624	10450.73
614.98	10324.18
615.337	10480.33
615.693	10441.91
616.05	10406.66
616.406	10460.9
616.762	10515.59
617.118	10441.69
617.475	10392.2
617.831	10527.11
618.187	10466.77
618.543	10507
618.899	10582.02
619.255	10508.58
619.611	10469.71
619.967	10647.11
620.323	10529.37
620.678	10531.18
621.034	10474.46
621.39	10433.55
621.746	10456.15
622.101	10590.61
622.457	10540.22
622.812	10578.86
623.168	10571.63
623.523	10521.23
623.879	10561.46
624.234	10522.36
624.589	10545.87
624.945	10463.84
625.3	10573.89
625.655	10519.88
626.01	10531.18
626.365	10507.9
626.72	10502.7
627.075	10526.21
627.43	10484.17
627.785	10483.04
628.14	10517.84
628.495	10522.82
628.85	10525.08
629.205	10460.45
629.559	10568.47
629.914	10474.91
630.269	10492.08
630.623	10443.04
630.978	10419.32
631.332	10439.65
631.687	10478.75
632.041	10455.02
632.396	10443.04
632.75	10455.93
633.104	10412.08
633.459	10434.91
633.813	10334.8
634.167	10342.93
634.521	10301.81
634.875	10400.33
635.229	10324.18
635.583	10256.83
635.937	10287.57
636.291	10231.98
636.645	10249.83
636.999	10212.77
637.352	10201.47
637.706	10159.44
638.06	10236.27
638.413	10164.18
638.767	10211.41
639.121	10168.48
639.474	10068.59
639.828	10125.54
640.181	10154.69
640.534	10085.09
640.888	10086.22
641.241	10028.37
641.594	10110.62
641.947	10155.82
642.301	10056.16
642.654	10101.13
643.007	10048.93
643.36	10050.29
643.713	10051.64
644.066	10027.91
644.419	10019.1
644.771	9957.63
645.124	9851.87
645.477	9867.47
645.83	9856.62
646.182	9667.02
646.535	9728.26
646.888	9757.19
647.24	9659.79
647.593	9771.65
647.945	9736.17
648.298	9655.72
648.65	9646.91
649.002	9661.14
649.355	9693.23
649.707	9652.33
650.059	9757.41
650.411	9843.96
650.763	9858.2
651.115	9983.17
651.467	9860.46
651.819	9924.19
652.171	9891.87
652.523	9866.11
652.875	9845.55
653.227	9840.57
653.578	9894.36
653.93	9838.09
654.282	9762.16
654.633	9785.66
654.985	9834.93
655.337	9883.29
655.688	9845.55
656.039	9908.6
656.391	9746.34
656.742	9860.24
657.094	9885.55
657.445	9869.73
657.796	9876.05
658.147	9881.25
658.498	9855.49
658.849	9896.17
659.2	9813.91
659.551	9816.39
659.902	9891.42
660.253	9909.27
660.604	9962.38
660.955	9859.56
661.306	9991.53
661.656	9873.57
662.007	9887.58
662.358	9855.04
662.708	9899.56
663.059	9898.65
663.409	9844.19
663.76	9999.44
664.11	9918.99
664.461	9927.35
664.811	9901.82
665.161	9905.88
665.511	9821.82
665.862	9901.59
666.212	9832.89
666.562	9892.1
666.912	9895.94
667.262	9909.73
667.612	9893.91
667.962	9904.53
668.312	9851.2
668.662	9968.48
669.011	9828.6
669.361	9876.73
669.711	9915.83
670.06	9790.63
670.41	9862.27
670.76	9885.32
671.109	9848.48
671.459	9897.75
671.808	9870.63
672.157	9837.64
672.507	9842.16
672.856	9827.24
673.205	9823.4
673.554	9857.3
673.904	9803.06
674.253	9825.66
674.602	9848.26
674.951	9652.78
675.3	9630.64
675.649	9747.7
675.998	9760.58
676.346	9723.74
676.695	9724.65
677.044	9706.79
677.393	9762.38
677.741	9701.14
678.09	9724.65
678.438	9667.47
678.787	9650.98
679.135	9690.52
679.484	9599.23
679.832	9663.18
680.181	9608.94
680.529	9653.23
680.877	9615.04
681.225	9505.22
681.573	9726.68
681.922	9489.62
682.27	9551.09
682.618	9493.47
682.966	9475.84
683.314	9554.48
683.661	9529.17
684.009	9406.46
684.357	9415.95
684.705	9408.27
685.053	9390.42
685.4	9371.66
685.748	9346.58
686.095	9311.55
686.443	9279.46
686.79	9278.33
687.138	9300.7
687.485	9278.1
687.832	9243.98
688.18	9253.02
688.527	9221.38
688.874	9122.85
689.221	9188.84
689.568	9151.78
689.915	9073.59
690.262	9119.92
690.609	9062.29
690.956	9003.53
691.303	8986.13
691.65	8938.45
691.997	8936.19
692.344	8850.77
692.69	8888.74
693.037	8818
693.383	8798.34
693.73	8776.2
694.077	8739.81
694.423	8683.32
694.769	8671.11
695.116	8663.88
695.462	8578.46
695.808	8629.76
696.155	8672.7
696.501	8491.23
696.847	8599.25
697.193	8508.86
697.539	8498.91
697.885	8493.72
698.231	8384.12
698.577	8406.71
698.923	8352.93
699.269	8328.07
699.614	8319.48
699.96	8217.57
700.306	8267.96
700.651	8261.86
700.997	8162.65
701.342	8142.31
701.688	8135.99
702.033	8133.05
702.379	8183.67
702.724	8079.04
703.069	8120.62
703.415	8015.09
703.76	8024.13
704.105	7933.05
704.45	7941.42
704.795	7908.87
705.14	7908.65
705.485	7860.51
705.83	7837.69
706.175	7731.03
706.52	7832.04
706.865	7754.08
707.209	7767.63
707.554	7796.79
707.899	7748.65
708.243	7660.74
708.588	7692.83
708.932	7629.79
709.277	7688.77
709.621	7568.09
709.966	7573.97
710.31	7551.14
710.654	7510.69
710.998	7512.73
711.342	7572.61
711.687	7507.3
712.031	7474.31
712.375	7397.47
712.719	7458.49
713.063	7450.35
713.407	7403.12
713.75	7394.76
714.094	7383.92
714.438	7355.44
714.782	7353.18
715.125	7309.79
715.469	7312.51
715.812	7354.76
716.156	7322
716.499	7232.51
716.843	7292.62
717.186	7239.29
717.53	7208.33
717.873	7255.78
718.216	7195.9
718.559	7240.87
718.902	7228.21
719.246	7149.12
719.589	7141.21
719.932	7142.79
720.275	7100.99
720.617	7135.33
720.96	7091.72
721.303	7091.49
721.646	7114.09
721.989	7086.3
722.331	7136.69
722.674	7085.17
723.016	7098.73
723.359	7098.5
723.701	7109.12
724.044	7024.6
724.386	6988.22
724.729	7083.36
725.071	6987.32
725.413	7023.93
725.755	6974.89
726.097	6938.73
726.439	6977.6
726.782	6973.76
727.124	6999.07
727.465	6964.49
727.807	6936.24
728.149	6951.84
728.491	6935.11
728.833	6956.36
729.175	6922.91
729.516	6946.87
729.858	6876.81
730.199	6888.11
730.541	6888.79
730.882	6909.13
731.224	6967.66
731.565	6900.31
731.906	6908.45
732.248	6917.49
732.589	6827.77
732.93	6782.8
733.271	6869.58
733.612	6889.69
733.953	6922.69
734.294	6908.22
734.635	6837.72
734.976	6878.17
735.317	6882.23
735.658	6896.47
735.999	6884.95
736.339	6864.38
736.68	6922.46
737.021	6835.68
737.361	6858.73
737.702	6906.19
738.042	6860.77
738.383	6902.35
738.723	6949.13
739.063	6922.23
739.404	7023.93
739.744	6925.62
740.084	6942.57
740.424	6950.48
740.764	6944.61
741.104	6972.63
741.444	6915
741.784	6937.6
742.124	6937.37
742.464	6984.15
742.804	7019.86
743.143	7011.95
743.483	6981.21
743.823	7007.2
744.162	7054.21
744.502	7095.11
744.841	7053.3
745.181	7052.17
745.52	7114.77
745.86	7159.06
746.199	7180.98
746.538	7269.12
746.877	7246.97
747.216	7331.94
747.556	7248.33
747.895	7328.55
748.234	7334.2
748.573	7400.41
748.911	7422.11
749.25	7492.16
749.589	7501.88
749.928	7621.2
750.267	7619.84
750.605	7671.82
750.944	7708.2
751.283	7778.48
751.621	7911.13
751.96	7885.6
752.298	7915.88
752.636	8092.37
752.975	8118.59
753.313	8161.75
753.651	8255.76
753.989	8302.08
754.327	8452.59
754.666	8438.35
755.004	8574.85
755.342	8697.1
755.679	8808.51
756.017	8851.67
756.355	9020.94
756.693	9038.34
757.031	9214.6
757.368	9245.79
757.706	9427.03
758.044	9476.52
758.381	9690.52
758.719	9745.89
759.056	9896.62
759.394	9987.46
759.731	10091.64
760.068	10230.39
760.405	10297.51
760.743	10370.96
761.08	10580.44
761.417	10720.33
761.754	10812.3
762.091	10898.85
762.428	10998.06
762.765	11183.14
763.102	11360.31
763.438	11476.24
763.775	11526.41
764.112	11688.21
764.449	11795.1
764.785	11961.65
765.122	11989.44
765.458	12133.85
765.795	12245.26
766.131	12368.42
766.467	12546.04
766.804	12591.46
767.14	12703.55
767.476	12752.14
767.812	12791.68
768.148	13017.21
768.485	13072.58
768.821	13077.55
769.157	13221.73
769.492	13329.75
769.828	13401.61
770.164	13430.99
770.5	13513.47
770.836	13697.42
771.171	13628.95
771.507	13666.01
771.842	13732.9
772.178	13797.76
772.513	13910.07
772.849	13981.48
773.184	14060.12
773.519	14018.09
773.855	14061.25
774.19	14127.24
774.525	14108.48
774.86	14324.3
775.195	14408.36
775.53	14387.57
775.865	14318.42
776.2	14263.06
776.535	14319.55
776.87	14385.31
777.205	14388.03
777.539	14378.99
777.874	14508.47
778.209	14415.37
778.543	14471.64
778.878	14476.84
779.212	14454.69
779.547	14554.12
779.881	14600.45
780.215	14567.91
780.55	14656.72
780.884	14603.61
781.218	14539.21
781.552	14555.03
781.886	14534.91
782.22	14618.08
782.554	14534.91
782.888	14429.38
783.222	14428.7
783.556	14430.74
783.889	14507.57
784.223	14288.14
784.557	14308.25
784.89	14442.49
785.224	14383.28
785.557	14362.04
785.891	14378.08
786.224	14346.44
786.558	14396.61
786.891	14287.01
787.224	14213.34
787.557	14167.69
787.891	14272.32
788.224	14223.51
788.557	14315.49
788.89	14218.54
789.223	14223.06
789.556	14189.39
789.888	14109.84
790.221	14103.51
790.554	14056.28
790.887	14025.78
791.219	13965.89
791.552	13971.31
791.884	13920.24
792.217	13983.97
792.549	13937.19
792.882	13877.76
793.214	13776.29
793.546	13802.96
793.879	13703.98
794.211	13711.21
794.543	13748.27
794.875	13735.61
795.207	13763.64
795.539	13704.43
795.871	13710.98
796.203	13641.38
796.535	13522.06
796.867	13506.69
797.198	13482.06
797.53	13447.26
797.862	13430.99
798.193	13437.99
798.525	13400.26
798.856	13382.4
799.188	13234.38
799.519	13231.9
799.85	13230.77
800.182	13169.53
800.513	13232.12
800.844	13106.7
801.175	13215.4
801.506	13103.54
801.837	13029.42
802.168	13065.57
802.499	13001.85
802.83	12992.36
803.161	12945.58
803.491	12941.96
803.822	12960.04
804.153	12907.84
804.483	12807.28
804.814	12701.06
805.145	12823.55
805.475	12721.4
805.805	12739.71
806.136	12716.88
806.466	12662.2
806.796	12644.12
807.126	12512.59
807.457	12600.28
807.787	12566.38
808.117	12497.23
808.447	12482.77
808.777	12585.81
809.107	12507.85
809.436	12353.05
809.766	12378.13
810.096	12387.17
810.426	12353.5
810.755	12363.45
811.085	12308.76
811.414	12234.18
811.744	12232.15
812.073	12125.49
812.403	12243.22
812.732	12154.41
813.061	12031.25
813.39	12044.13
813.719	12019.73
814.049	12161.42
814.378	12019.27
814.707	11987.64
815.036	11955.1
815.365	11859.28
815.693	11824.93
816.022	11891.37
816.351	11791.26
816.68	11758.94
817.008	11826.06
817.337	11750.35
817.665	11628.32
817.994	11678.27
818.322	11704.03
818.651	11607.08
818.979	11561.21
819.307	11651.15
819.636	11628.32
819.964	11542
820.292	11616.8
820.62	11534.99
820.948	11555.56
821.276	11625.16
821.604	11567.76
821.932	11617.93
822.259	11511.49
822.587	11518.5
822.915	11441.66
823.243	11571.38
823.57	11534.99
823.898	11551.49
824.225	11462.23
824.553	11481.21
824.88	11580.42
825.207	11585.39
825.535	11562.11
825.862	11491.83
826.189	11567.76
826.516	11593.07
826.843	11566.86
827.17	11576.12
827.497	11515.33
827.824	11619.06
828.151	11604.82
828.478	11587.87
828.805	11647.98
829.131	11591.71
829.458	11573.41
829.785	11578.61
830.111	11620.64
830.438	11549.91
830.764	11530.02
831.09	11630.58
831.417	11536.8
831.743	11560.53
832.069	11569.57
832.395	11491.15
832.722	11563.69
833.048	11465.16
833.374	11490.93
833.7	11438.27
834.026	11429.91
834.351	11557.14
834.677	11497.25
835.003	11485.28
835.329	11419.29
835.654	11410.7
835.98	11438.05
836.306	11418.16
836.631	11404.6
836.956	11416.13
837.282	11444.83
837.607	11319.18
837.932	11321.67
838.258	11339.07
838.583	11307.43
838.908	11219.52
839.233	11344.04
839.558	11225.17
839.883	11282.12
840.208	11179.97
840.533	11165.29
840.858	11123.7
841.182	11188.11
841.507	11099.3
841.832	11063.14
842.156	11056.81
842.481	11156.47
842.805	11059.07
843.13	10956.93
843.454	11005.74
843.778	10987.21
844.103	10975.91
844.427	10873.54
844.751	10897.04
845.075	10905.63
845.399	10859.98
845.723	10817.5
846.047	10816.14
846.371	10709.03
846.695	10701.34
847.019	10643.27
847.343	10590.16
847.666	10514.91
847.99	10464.29
848.313	10518.3
848.637	10403.5
848.96	10367.79
849.284	10389.71
849.607	10292.09
849.931	10293.22
850.254	10281.47
850.577	10134.35
850.9	10121.47
851.223	10103.84
851.546	10040.8
851.869	9957.18
852.192	10062.94
852.515	10004.86
852.838	9914.02
853.161	9966.45
853.483	9848.48
853.806	9854.36
854.129	9824.3
854.451	9710.63
854.774	9744.76
855.096	9761.25
855.419	9699.79
855.741	9641.26
856.063	9620.02
856.385	9549.06
856.708	9576.63
857.03	9503.63
857.352	9516.52
857.674	9525.78
857.996	9425.44
858.318	9450.3
858.64	9454.82
858.961	9291.89
859.283	9289.63
859.605	9405.78
859.926	9313.13
860.248	9352
860.57	9217.54
860.891	9246.01
861.212	9147.71
861.534	9174.15
861.855	9117.43
862.176	9149.07
862.498	9159.24
862.819	9052.57
863.14	9093.48
863.461	9146.36
863.782	9067.94
864.103	9076.75
864.424	9039.01
864.745	9057.32
865.065	8980.71
865.386	8995.85
865.707	8965.8
866.027	8961.95
866.348	8957.89
866.668	8919.92
866.989	8887.61
867.309	8827.49
867.63	8874.27
867.95	8844.89
868.27	8803.54
868.59	8803.54
868.91	8785.24
869.23	8756.99
869.55	8758.8
869.87	8803.77
870.19	8710.89
870.51	8790.66
870.83	8772.81
871.15	8709.53
871.469	8693.94
871.789	8724.22
872.109	8746.82
872.428	8592.7
872.748	8659.14
873.067	8667.72
873.386	8660.72
873.706	8596.77
874.025	8608.06
874.344	8570.55
874.663	8577.56
874.982	8549.31
875.301	8618.69
875.62	8504.56
875.939	8507.95
876.258	8494.4
876.577	8450.1
876.896	8435.19
877.214	8407.17
877.533	8470.22
877.852	8431.35
878.17	8412.14
878.489	8466.83
878.807	8398.8
879.125	8400.16
879.444	8399.93
879.762	8337.11
880.08	8386.83
880.398	8336.89
880.716	8357.45
881.034	8341.63
881.352	8321.97
881.67	8317.45
881.988	8335.76
882.306	8273.16
882.624	8190.45
882.941	8197.68
883.259	8134.18
883.577	8162.88
883.894	8064.58
884.212	8102.99
884.529	8129.89
884.846	8088.3
885.164	8074.07
885.481	8022.32
885.798	8111.13
886.115	8023.22
886.432	7980.51
886.75	7954.07
887.067	7935.09
887.383	7969.89
887.7	7863
888.017	7947.52
888.334	7879.27
888.651	7850.12
888.967	7898.25
889.284	7781.19
889.6	7728.31
889.917	7690.12
890.233	7684.25
890.55	7709.33
890.866	7709.11
891.182	7595.44
891.498	7617.13
891.815	7634.98
892.131	7699.39
892.447	7536.23
892.763	7581.65
893.079	7597.92
893.395	7522.44
893.71	7538.26
894.026	7436.34
894.342	7423.01
894.657	7381.43
894.973	7410.81
895.289	7385.05
895.604	7329.91
895.92	7306.18
896.235	7286.29
896.55	7280.19
896.865	7251.26
897.181	7241.32
897.496	7227.99
897.811	7187.76
898.126	7207.88
898.441	7081.55
898.756	7131.72
899.071	7106.41
899.386	7108.67
899.7	7033.64
900.015	7032.06
900.33	6983.7
900.644	6936.02
900.959	7046.98
901.273	6931.05
901.588	6883.14
901.902	6830.48
902.216	6859.18
902.531	6771.95
902.845	6802.46
903.159	6750.49
903.473	6750.71
903.787	6703.93
904.101	6669.58
904.415	6623.94
904.729	6632.98
905.042	6616.93
905.356	6631.85
905.67	6577.61
905.984	6584.16
906.297	6523.83
906.611	6489.93
906.924	6497.39
907.237	6419.2
907.551	6431.17
907.864	6407.22
908.177	6300.33
908.491	6429.36
908.804	6382.36
909.117	6288.35
909.43	6256.71
909.743	6229.14
910.056	6218.52
910.368	6259.88
910.681	6150.5
910.994	6137.4
911.307	6109.15
911.619	6080
911.932	6097.85
912.244	6005.2
912.557	6054.01
912.869	6002.48
913.181	5973.33
913.494	5976.5
913.806	5927.23
914.118	5885.88
914.43	5859.89
914.742	5858.76
915.054	5807.01
915.366	5837.74
915.678	5783.05
915.99	5713.23
916.302	5691.31
916.613	5713.9
916.925	5688.37
917.236	5688.14
917.548	5602.72
917.859	5645.88
918.171	5560.91
918.482	5594.13
918.794	5573.12
919.105	5528.15
919.416	5462.84
919.727	5504.64
920.038	5462.38
920.349	5420.35
920.66	5446.11
920.971	5452.89
921.282	5379.45
921.593	5369.73
921.903	5360.24
922.214	5306.68
922.525	5306
922.835	5274.37
923.146	5225.78
923.456	5191.43
923.767	5229.85
924.077	5217.19
924.387	5194.14
924.697	5167.03
925.008	5169.06
925.318	5128.61
925.628	5137.65
925.938	5116.18
926.248	5058.78
926.558	5037.54
926.867	4980.14
927.177	4995.73
927.487	4921.38
927.796	4936.97
928.106	4863.98
928.416	4913.02
928.725	4898.11
929.034	4884.55
929.344	4837.54
929.653	4864.21
929.962	4790.99
930.271	4760.48
930.581	4759.13
930.89	4727.71
931.199	4722.29
931.508	4730.88
931.817	4793.48
932.125	4703.76
932.434	4613.37
932.743	4671.22
933.051	4618.11
933.36	4592.8
933.669	4602.97
933.977	4518.68
934.286	4568.62
934.594	4562.97
934.902	4455.41
935.21	4437.33
935.519	4480.04
935.827	4414.73
936.135	4422.19
936.443	4394.62
936.751	4401.4
937.059	4406.14
937.367	4367.72
937.674	4340.83
937.982	4346.48
938.29	4285.92
938.597	4313.04
938.905	4269.87
939.213	4259.93
939.52	4204.11
939.827	4267.84
940.135	4198.24
940.442	4200.72
940.749	4203.43
941.056	4172.48
941.363	4075.75
941.67	4090.9
941.977	4107.84
942.284	4094.74
942.591	4052.93
942.898	4050.9
943.205	4026.26
943.511	4017
943.818	3982.2
944.125	3965.02
944.431	3970.67
944.738	3923.22
945.044	3941.75
945.35	3895.42
945.657	3909.43
945.963	3880.05
946.269	3868.08
946.575	3862.43
946.881	3828.98
947.187	3796.44
947.493	3763.45
947.799	3764.58
948.105	3778.81
948.41	3717.57
948.716	3783.56
949.022	3738.36
949.327	3711.7
949.633	3689.55
949.938	3707.4
950.244	3680.74
950.549	3621.3
950.854	3629.21
951.16	3595.32
951.465	3571.36
951.77	3563.68
952.075	3574.52
952.38	3601.64
952.685	3530.68
952.99	3517.58
953.294	3517.35
953.599	3456.79
953.904	3523.45
954.209	3462.21
954.513	3439.39
954.818	3412.04
955.122	3433.51
955.426	3370.46
955.731	3367.07
956.035	3381.76
956.339	3355.55
956.643	3351.25
956.948	3322.78
957.252	3322.1
957.556	3304.48
957.86	3284.59
958.163	3320.97
958.467	3240.3
958.771	3243.91
959.075	3248.43
959.378	3223.57
959.682	3215.44
959.985	3179.96
960.289	3148.32
960.592	3156.23
960.896	3143.12
961.199	3134.76
961.502	3135.21
961.805	3112.16
962.108	3076.46
962.411	3062.45
962.714	3091.83
963.017	3058.15
963.32	3077.14
963.623	3050.7
963.926	3028.78
964.228	3001.88
964.531	3010.02
964.833	2986.07
965.136	2986.29
965.438	2943.81
965.741	2949.46
966.043	2936.58
966.345	2935.22
966.648	2886.63
966.95	2906.52
967.252	2866.07
967.554	2851.38
967.856	2849.35
968.158	2833.3
968.46	2829.23
968.761	2786.52
969.063	2827.2
969.365	2800.53
969.666	2776.81
969.968	2737.94
970.269	2742.68
970.571	2782.91
970.872	2730.25
971.174	2723.25
971.475	2716.24
971.776	2731.61
972.077	2685.96
972.378	2681.67
972.679	2656.81
972.98	2686.64
973.281	2645.96
973.582	2646.19
973.883	2613.87
974.183	2600.76
974.484	2613.19
974.785	2618.17
975.085	2585.85
975.386	2567.77
975.686	2577.04
975.986	2563.48
976.287	2509.24
976.587	2535
976.887	2517.15
977.187	2534.55
977.487	2481.9
977.787	2464.27
978.087	2487.1
978.387	2456.59
978.687	2473.08
978.987	2459.07
979.286	2410.26
979.586	2383.14
979.885	2438.96
980.185	2402.13
980.484	2400.09
980.784	2378.85
981.083	2405.52
981.382	2336.14
981.682	2356.7
981.981	2311.73
982.28	2329.13
982.579	2314.44
982.878	2323.94
983.177	2297.5
983.475	2284.62
983.774	2275.35
984.073	2260.66
984.372	2305.63
984.67	2263.6
984.969	2249.59
985.267	2252.98
985.566	2217.05
985.864	2236.71
986.162	2189.02
986.461	2182.47
986.759	2146.09
987.057	2193.77
987.355	2123.94
987.653	2159.42
987.951	2123.26
988.249	2156.93
988.547	2139.99
988.844	2088.01
989.142	2131.4
989.44	2080.55
989.737	2109.48
990.035	2107.22
990.332	2082.59
990.63	2051.85
990.927	2061.8
991.224	2067.9
991.521	2054.56
991.819	2012.98
992.116	2004.62
992.413	2018.86
992.71	2006.66
993.006	1979.09
993.303	1958.75
993.6	1979.54
993.897	1946.09
994.193	1981.35
994.49	1919.65
994.787	1952.65
995.083	1904.74
995.379	1893.89
995.676	1899.99
995.972	1908.13
996.268	1906.77
996.565	1873.33
996.861	1848.02
997.157	1852.99
997.453	1816.83
997.749	1851.63
998.044	1838.3
998.34	1815.25
998.636	1822.48
998.932	1793.55
999.227	1774.57
999.523	1782.48
999.818	1788.13
1000.114	1740.67
1000.409	1784.06
1000.704	1729.38
1001	1739.54
1001.295	1734.57
1001.59	1743.16
1001.885	1699.09
1002.18	1711.07
1002.475	1725.53
1002.77	1708.36
1003.065	1686.44
1003.359	1657.51
1003.654	1638.53
1003.949	1642.15
1004.243	1608.7
1004.538	1632.88
1004.832	1635.14
1005.127	1622.49
1005.421	1626.33
1005.715	1616.84
1006.009	1616.16
1006.304	1572.54
1006.598	1573.9
1006.892	1597.18
1007.186	1577.97
1007.48	1585.42
1007.773	1549.72
1008.067	1563.28
1008.361	1528.02
1008.655	1525.99
1008.948	1481.25
1009.242	1527.12
1009.535	1495.48
1009.829	1465.65
1010.122	1485.54
1010.415	1491.64
1010.708	1450.06
1011.001	1464.3
1011.295	1451.64
1011.588	1446.22
1011.881	1390.63
1012.173	1399.67
1012.466	1401.7
1012.759	1411.19
1013.052	1400.8
1013.344	1387.24
1013.637	1388.59
1013.93	1365.77
1014.222	1375.03
1014.514	1372.1
1014.807	1350.18
1015.099	1344.07
1015.391	1343.62
1015.683	1321.25
1015.976	1291.65
1016.268	1322.38
1016.56	1333.45
1016.851	1288.94
1017.143	1296.17
1017.435	1283.74
1017.727	1279.44
1018.018	1273.12
1018.31	1259.33
1018.602	1270.63
1018.893	1250.52
1019.185	1244.19
1019.476	1257.3
1019.767	1238.54
1020.058	1220.91
1020.35	1217.52
1020.641	1204.64
1020.932	1191.31
1021.223	1202.61
1021.514	1164.64
1021.804	1146.79
1022.095	1159.45
1022.386	1145.44
1022.677	1159.9
1022.967	1152.22
1023.258	1131.43
1023.548	1124.19
1023.839	1109.73
1024.129	1126
1024.419	1111.54
1024.709	1108.83
1025	1112.22
1025.29	1097.08
1025.58	1080.13
1025.87	1066.12
1026.16	1095.04
1026.449	1074.7
1026.739	1069.05
1027.029	1022.95
1027.319	1014.59
1027.608	1029.73
1027.898	1028.6
1028.187	1016.85
1028.477	1008.26
1028.766	1008.72
1029.055	1031.54
1029.344	997.19
1029.634	980.92
1029.923	987.25
1030.212	994.48
1030.501	979.11
1030.79	959.68
1031.078	961.49
1031.367	958.55
1031.656	929.4
1031.945	944.09
1032.233	931.66
1032.522	931.43
1032.81	943.41
1033.099	933.24
1033.387	921.04
1033.675	934.82
1033.963	919.45
1034.251	910.64
1034.54	882.84
1034.828	896.63
1035.116	882.84
1035.403	860.92
1035.691	863.18
1035.979	857.31
1036.267	868.83
1036.554	882.84
1036.842	853.92
1037.129	849.85
1037.417	862.05
1037.704	825.67
1037.992	840.81
1038.279	827.93
1038.566	831.55
1038.853	831.55
1039.14	831.55
