Data from hue_260_FLMS001491_00072.txt Node
Date: Tue Feb 07 15:59:33 GMT 2017
User: dcchb
Spectrometer: FLMS00149
Trigger mode: 0
Integration Time (sec): 2.000000E-2
Scans to average: 10
Electric dark correction enabled: true
Nonlinearity correction enabled: false
Boxcar width: 0
XAxis mode: Wavelengths
Number of Pixels in Spectrum: 2048
>>>>>Begin Spectral Data<<<<<
341.393	10.21
341.776	10.21
342.16	10.21
342.543	-68.88
342.927	-44.93
343.31	-82.67
343.693	-58.26
344.077	-66.17
344.46	-69.79
344.843	-75.66
345.226	-40.86
345.61	-18.94
345.993	-1.54
346.376	-2.44
346.759	5.47
347.142	40.27
347.525	54.28
347.908	56.09
348.291	59.93
348.674	83.43
349.057	116.88
349.44	121.17
349.823	144.67
350.206	153.71
350.588	193.71
350.971	219.47
351.354	240.49
351.737	248.85
352.119	241.84
352.502	271.9
352.884	273.48
353.267	275.29
353.65	288.17
354.032	304.67
354.414	302.63
354.797	321.16
355.179	310.77
355.562	306.02
355.944	327.72
356.326	317.55
356.709	319.58
357.091	334.04
357.473	331.33
357.855	323.65
358.238	344.44
358.62	329.53
359.002	327.72
359.384	325.01
359.766	315.29
360.148	332.46
360.53	311.9
360.912	316.42
361.294	310.09
361.676	344.21
362.057	329.75
362.439	314.84
362.821	302.86
363.203	315.29
363.584	321.84
363.966	306.47
364.348	301.5
364.729	321.16
365.111	324.78
365.493	329.75
365.874	303.31
366.256	310.77
366.637	319.81
367.019	313.48
367.4	318.9
367.781	320.26
368.163	319.13
368.544	295.18
368.925	300.37
369.306	300.6
369.688	293.37
370.069	308.28
370.45	316.42
370.831	310.99
371.212	299.24
371.593	310.77
371.974	289.3
372.355	326.59
372.736	296.53
373.117	301.05
373.498	304.67
373.879	307.83
374.26	301.05
374.641	307.6
375.021	331.11
375.402	326.81
375.783	313.03
376.163	336.53
376.544	329.53
376.925	321.39
377.305	316.64
377.686	322.07
378.066	321.62
378.447	292.46
378.827	336.08
379.208	322.52
379.588	346.47
379.968	334.5
380.349	323.42
380.729	307.38
381.109	357.1
381.489	342.86
381.87	339.47
382.25	333.82
382.63	335.17
383.01	334.5
383.39	346.7
383.77	346.93
384.15	351.45
384.53	357.77
384.91	346.93
385.29	337.21
385.67	362.74
386.049	347.15
386.429	341.73
386.809	341.28
387.189	346.47
387.568	351.9
387.948	338.11
388.328	372.01
388.707	359.58
389.087	346.25
389.466	358.23
389.846	364.55
390.225	346.47
390.605	355.29
390.984	368.17
391.363	353.71
391.743	364.78
392.122	383.54
392.501	378.34
392.881	361.61
393.26	395.29
393.639	388.28
394.018	406.13
394.397	391.9
394.776	378.11
395.155	397.32
395.534	399.58
395.913	403.65
396.292	414.27
396.671	410.43
397.05	421.05
397.429	396.19
397.808	400.03
398.186	395.74
398.565	397.77
398.944	405
399.323	395.29
399.701	385.79
400.08	417.88
400.458	410.65
400.837	402.74
401.215	402.52
401.594	422.86
401.972	381.28
402.351	421.73
402.729	433.93
403.107	433.03
403.486	438.45
403.864	427.38
404.242	446.13
404.62	454.72
404.999	447.71
405.377	461.95
405.755	457.66
406.133	458.11
406.511	474.83
406.889	468.73
407.267	459.01
407.645	479.8
408.023	472.8
408.401	489.07
408.779	472.57
409.156	486.36
409.534	507.83
409.912	502.85
410.29	499.46
410.667	525.23
411.045	525.23
411.422	513.02
411.8	539.92
412.178	570.42
412.555	526.36
412.933	566.13
413.31	545.79
413.687	568.39
414.065	575.85
414.442	567.03
414.819	609.74
415.197	587.15
415.574	620.37
415.951	613.13
416.328	591.44
416.705	611.55
417.082	630.31
417.46	631.21
417.837	652.23
418.214	656.52
418.591	643.42
418.967	626.47
419.344	667.14
419.721	687.26
420.098	673.92
420.475	715.28
420.852	686.58
421.228	702.17
421.605	715.5
421.982	702.62
422.358	743.53
422.735	732.9
423.111	750.76
423.488	774.03
423.864	789.85
424.241	802.28
424.617	786.91
424.994	803.64
425.37	812.45
425.746	851.77
426.123	818.78
426.499	836.4
426.875	853.58
427.251	873.92
427.627	866.01
428.003	885.67
428.379	910.98
428.756	887.7
429.132	944.65
429.507	925.67
429.883	946.46
430.259	949.62
430.635	951.43
431.011	978.1
431.387	1007.02
431.763	1018.77
432.138	1011.32
432.514	1024.87
432.89	1020.58
433.265	1050.86
433.641	1059.9
434.016	1082.05
434.392	1103.74
434.767	1111.65
435.143	1150.97
435.518	1139.22
435.894	1163.85
436.269	1205.21
436.644	1201.14
437.02	1208.82
437.395	1249.73
437.77	1253.34
438.145	1282.95
438.52	1259.44
438.895	1309.16
439.271	1284.75
439.646	1349.39
440.021	1345.32
440.395	1376.73
440.77	1346.9
441.145	1373.34
441.52	1419.21
441.895	1421.02
442.27	1432.1
442.645	1428.48
443.019	1468.48
443.394	1460.34
443.769	1462.15
444.143	1484.75
444.518	1497.63
444.892	1514.35
445.267	1527.69
445.641	1542.15
446.016	1557.97
446.39	1578.08
446.764	1575.14
447.139	1573.33
447.513	1597.97
447.887	1588.93
448.262	1595.71
448.636	1588.7
449.01	1651.52
449.384	1619.21
449.758	1639.1
450.132	1691.52
450.506	1687.91
450.88	1673.22
451.254	1685.65
451.628	1708.92
452.002	1727.45
452.376	1734.46
452.75	1777.62
453.123	1788.02
453.497	1770.62
453.871	1830.05
454.244	1843.16
454.618	1854.91
454.992	1834.34
455.365	1868.69
455.739	1926.09
456.112	1948.92
456.486	1961.12
456.859	1952.08
457.232	1995.02
457.606	2027.33
457.979	2002.25
458.352	2040.21
458.725	2045.41
459.099	2095.81
459.472	2114.56
459.845	2134.68
460.218	2153.88
460.591	2176.48
460.964	2143.49
461.337	2184.62
461.71	2239.76
462.083	2249.7
462.456	2276.82
462.829	2274.78
463.201	2291.51
463.574	2310.94
463.947	2370.15
464.32	2399.53
464.692	2444.27
465.065	2421.67
465.438	2449.02
465.81	2498.51
466.183	2500.54
466.555	2569.24
466.928	2584.16
467.3	2589.58
467.672	2602.01
468.045	2674.32
468.417	2677.94
468.789	2692.17
469.161	2731.72
469.534	2778.5
469.906	2816.92
470.278	2822.79
470.65	2818.27
471.022	2887.65
471.394	2930.13
471.766	2965.39
472.138	3040.19
472.51	3052.39
472.882	3049.68
473.253	3085.38
473.625	3152.05
473.997	3208.32
474.369	3208.55
474.74	3275.21
475.112	3349.11
475.484	3365.15
475.855	3401.53
476.227	3430.01
476.598	3525.37
476.97	3505.49
477.341	3585.26
477.713	3679.04
478.084	3656.22
478.455	3749.55
478.827	3747.51
479.198	3833.61
479.569	3869.32
479.94	3962.88
480.311	3954.29
480.682	4064.12
481.053	4151.35
481.424	4198.12
481.795	4237.22
482.166	4265.92
482.537	4318.57
482.908	4440.15
483.279	4441.96
483.65	4447.84
484.021	4555.4
484.391	4547.95
484.762	4623.65
485.133	4698.45
485.503	4699.58
485.874	4833.59
486.244	4817.54
486.615	4948.61
486.985	4996.97
487.356	5033.58
487.726	5086.69
488.097	5116.29
488.467	5163.52
488.837	5243.52
489.207	5284.65
489.578	5357.64
489.948	5424.76
490.318	5489.16
490.688	5443.52
491.058	5553.57
491.428	5603.06
491.798	5652.1
492.168	5747.46
492.538	5772.09
492.908	5835.6
493.278	5849.38
493.648	5861.13
494.017	5924.86
494.387	5996.72
494.757	5966.21
495.126	6084.85
495.496	6036.27
495.866	6112.88
496.235	6161.01
496.605	6222.25
496.974	6210.73
497.344	6262.02
497.713	6322.14
498.082	6334.57
498.452	6380.44
498.821	6356.26
499.19	6412.76
499.559	6429.03
499.928	6460.89
500.298	6531.17
500.667	6502.24
501.036	6496.37
501.405	6587.89
501.774	6606.2
502.143	6655.69
502.512	6653.65
502.88	6682.35
503.249	6674.44
503.618	6741.11
503.987	6793.99
504.356	6753.31
504.724	6759.19
505.093	6817.49
505.462	6856.81
505.83	6854.78
506.199	6923.02
506.567	6991.27
506.936	6913.31
507.304	6998.95
507.672	7076.47
508.041	6987.43
508.409	7102.91
508.777	7085.73
509.145	7114.88
509.514	7147.88
509.882	7150.81
510.25	7159.63
510.618	7209.8
510.986	7140.19
511.354	7318.72
511.722	7226.07
512.09	7313.07
512.458	7280.75
512.826	7313.07
513.193	7310.36
513.561	7324.82
513.929	7344.93
514.297	7426.74
514.664	7417.7
515.032	7388.32
515.4	7491.14
515.767	7479.62
516.135	7514.2
516.502	7449.11
516.869	7574.08
517.237	7522.78
517.604	7470.13
517.972	7505.61
518.339	7649.78
518.706	7581.99
519.073	7591.26
519.44	7634.42
519.808	7667.86
520.175	7633.29
520.542	7715.32
520.909	7699.73
521.276	7729.78
521.643	7703.34
522.009	7729.56
522.376	7768.88
522.743	7730.91
523.11	7771.36
523.477	7880.51
523.843	7917.8
524.21	7899.5
524.577	7893.39
524.943	7924.58
525.31	7955.31
525.676	7974.52
526.043	8053.62
526.409	7992.83
526.776	8006.61
527.142	8065.37
527.508	8058.81
527.874	8056.55
528.241	8071.92
528.607	8069.21
528.973	8118.7
529.339	8082.99
529.705	8151.69
530.071	8207.96
530.437	8176.1
530.803	8217.45
531.169	8199.6
531.535	8170.9
531.901	8179.26
532.267	8238.47
532.632	8248.41
532.998	8198.92
533.364	8228.07
533.73	8241.63
534.095	8277.34
534.461	8266.72
534.826	8277.11
535.192	8244.57
535.557	8272.59
535.923	8223.55
536.288	8252.93
536.653	8231.92
537.019	8219.49
537.384	8195.08
537.749	8200.96
538.114	8163.44
538.479	8129.77
538.845	8257.9
539.21	8175.19
539.575	8185.59
539.94	8219.04
540.305	8286.6
540.67	8179.26
541.034	8162.99
541.399	8254.97
541.764	8188.53
542.129	8199.6
542.494	8192.82
542.858	8218.13
543.223	8191.47
543.587	8174.52
543.952	8195.08
544.316	8195.99
544.681	8060.17
545.045	8150.56
545.41	8179.94
545.774	8151.24
546.138	8137
546.503	8122.31
546.867	8201.63
547.231	8167.74
547.595	8136.78
547.959	8146.95
548.324	8106.95
548.688	8093.16
549.052	8116.21
549.416	8087.29
549.779	8085.71
550.143	8088.64
550.507	8099.26
550.871	8103.78
551.235	8026.72
551.599	8115.08
551.962	8075.99
552.326	8081.86
552.689	8180.84
553.053	8116.44
553.417	8021.07
553.78	8141.75
554.143	8129.77
554.507	8046.38
554.87	8047.29
555.234	8165.48
555.597	8062.88
555.96	8126.61
556.323	8078.93
556.686	8123.67
557.05	8179.94
557.413	8125.03
557.776	8174.29
558.139	8133.84
558.502	8094.29
558.865	8186.72
559.228	8201.18
559.59	8203.44
559.953	8207.74
560.316	8267.17
560.679	8282.31
561.041	8278.69
561.404	8306.26
561.767	8291.35
562.129	8285.93
562.492	8429.43
562.854	8344
563.217	8306.49
563.579	8343.78
563.941	8392.59
564.304	8374.06
564.666	8434.62
565.028	8450.67
565.39	8434.85
565.753	8430.33
566.115	8497.67
566.477	8472.36
566.839	8540.38
567.201	8506.26
567.563	8606.37
567.925	8592.81
568.287	8569.53
568.648	8553.49
569.01	8639.14
569.372	8680.94
569.734	8652.7
570.095	8721.85
570.457	8727.5
570.819	8773.6
571.18	8741.96
571.542	8769.53
571.903	8830.54
572.265	8835.52
572.626	8872.35
572.987	8845.91
573.349	8880.26
573.71	8908.28
574.071	8925.23
574.432	8968.62
574.794	8986.02
575.155	8971.33
575.516	9014.49
575.877	8994.38
576.238	9080.26
576.599	9107.37
576.96	9052.01
577.32	9118.9
577.681	9204.32
578.042	9106.92
578.403	9159.8
578.763	9100.37
579.124	9203.42
579.485	9267.37
579.845	9248.84
580.206	9249.29
580.566	9270.31
580.927	9344.66
581.287	9383.07
581.648	9382.39
582.008	9398.21
582.368	9404.99
582.728	9431.43
583.089	9378.55
583.449	9392.79
583.809	9425.33
584.169	9495.16
584.529	9414.94
584.889	9526.12
585.249	9538.77
585.609	9434.82
585.969	9531.54
586.329	9532
586.688	9527.25
587.048	9538.77
587.408	9502.39
587.768	9585.78
588.127	9558.21
588.487	9608.38
588.846	9715.27
589.206	9599.11
589.565	9632.56
589.925	9622.84
590.284	9640.01
590.643	9698.32
591.003	9714.59
591.362	9748.26
591.721	9784.64
592.08	9749.16
592.44	9780.35
592.799	9796.17
593.158	9745.77
593.517	9788.49
593.876	9821.93
594.235	9855.83
594.593	9827.58
594.952	9815.6
595.311	9803.17
595.67	9781.48
596.029	9880.69
596.387	9875.49
596.746	9994.36
597.104	9825.32
597.463	9886.34
597.822	9911.19
598.18	9903.06
598.538	9862.38
598.897	9958.42
599.255	9927.92
599.613	10019.89
599.972	9973.11
600.33	10038.87
600.688	9985.32
601.046	10040.91
601.404	10025.32
601.762	10025.32
602.12	10037.74
602.478	10031.87
602.836	10056.5
603.194	10025.54
603.552	10029.38
603.91	10000.01
604.268	9999.1
604.625	10074.13
604.983	10033.68
605.341	9990.51
605.698	10063.73
606.056	10052.89
606.413	10068.7
606.771	10086.1
607.128	10177.63
607.485	10101.47
607.843	10081.59
608.2	10184.63
608.557	10214.01
608.914	10160.45
609.272	10240.9
609.629	10217.17
609.986	10266.21
610.343	10119.55
610.7	10240.9
611.057	10212.88
611.414	10261.02
611.771	10237.74
612.127	10257.4
612.484	10227.8
612.841	10327.45
613.198	10314.57
613.554	10224.63
613.911	10311.64
614.267	10272.09
614.624	10314.8
614.98	10230.51
615.337	10375.36
615.693	10326.78
616.05	10382.14
616.406	10423.05
616.762	10404.29
617.118	10388.02
617.475	10445.19
617.831	10457.39
618.187	10446.77
618.543	10431.86
618.899	10473.21
619.255	10461.01
619.611	10474.12
619.967	10443.61
620.323	10477.06
620.678	10435.47
621.034	10445.42
621.39	10422.59
621.746	10430.28
622.101	10620.1
622.457	10465.3
622.812	10438.64
623.168	10399.32
623.523	10463.5
623.879	10514.12
624.234	10465.76
624.589	10491.97
624.945	10456.49
625.3	10493.1
625.655	10509.6
626.01	10481.8
626.365	10470.28
626.72	10423.95
627.075	10406.1
627.43	10523.61
627.785	10456.26
628.14	10423.27
628.495	10472.54
628.85	10472.76
629.205	10424.63
629.559	10499.65
629.914	10396.61
630.269	10425.08
630.623	10383.5
630.978	10372.65
631.332	10432.08
631.687	10431.18
632.041	10385.53
632.396	10493.1
632.75	10327.91
633.104	10341.92
633.459	10369.71
633.813	10336.27
634.167	10316.16
634.521	10348.7
634.875	10306.66
635.229	10213.33
635.583	10191.86
635.937	10233.67
636.291	10231.41
636.645	10231.19
636.999	10298.75
637.352	10189.83
637.706	10157.06
638.06	10201.13
638.413	10163.62
638.767	10094.01
639.121	10134.01
639.474	10071.19
639.828	10080.23
640.181	10139.21
640.534	10126.33
640.888	10058.08
641.241	10061.47
641.594	10049.5
641.947	10071.87
642.301	10062.6
642.654	10087.01
643.007	10039.55
643.36	10020.8
643.713	9989.84
644.066	10056.95
644.419	9952.1
644.771	9912.32
645.124	9863.06
645.477	9805.21
645.83	9731.54
646.182	9675.04
646.535	9774.7
646.888	9747.13
647.24	9679.34
647.593	9669.84
647.945	9738.09
648.298	9619.9
648.65	9653.8
649.002	9558.44
649.355	9650.64
649.707	9685.21
650.059	9667.58
650.411	9766.79
650.763	9781.03
651.115	9879.56
651.467	9856.28
651.819	9902.15
652.171	9862.16
652.523	9786
652.875	9868.48
653.227	9777.19
653.578	9860.35
653.93	9871.2
654.282	9819.9
654.633	9892.21
654.985	9704.19
655.337	9846.34
655.688	9794.36
656.039	9844.3
656.391	9795.49
656.742	9788.71
657.094	9838.65
657.445	9894.02
657.796	9894.02
658.147	9927.69
658.498	9805.66
658.849	9907.35
659.2	9862.61
659.551	9830.52
659.902	9821.71
660.253	9818.99
660.604	9793.68
660.955	9817.41
661.306	9845.21
661.656	9790.75
662.007	9854.25
662.358	9918.43
662.708	9801.37
663.059	9795.94
663.409	9767.02
663.76	9861.7
664.11	9907.13
664.461	9812.67
664.811	9897.64
665.161	9863.96
665.511	9783.51
665.862	9827.81
666.212	9838.88
666.562	9895.83
666.912	9830.97
667.262	9907.35
667.612	9807.24
667.962	9817.19
668.312	9795.49
668.662	9896.73
669.011	9816.06
669.361	9827.58
669.711	9746.23
670.06	9813.34
670.41	9768.83
670.76	9787.13
671.109	9819.22
671.459	9809.05
671.808	9819.22
672.157	9783.51
672.507	9784.64
672.856	9739.45
673.205	9761.59
673.554	9737.64
673.904	9675.27
674.253	9767.02
674.602	9717.98
674.951	9587.59
675.3	9565.21
675.649	9683.4
675.998	9695.15
676.346	9699.45
676.695	9766.11
677.044	9648.38
677.393	9686.79
677.741	9713.46
678.09	9634.37
678.438	9597.53
678.787	9581.03
679.135	9612.67
679.484	9552.56
679.832	9605.89
680.181	9579.68
680.529	9587.13
680.877	9505.78
681.225	9490.64
681.573	9602.73
681.922	9451.32
682.27	9428.95
682.618	9423.75
682.966	9432.56
683.314	9445.67
683.661	9355.5
684.009	9308.05
684.357	9377.2
684.705	9369.29
685.053	9423.3
685.4	9280.7
685.748	9274.6
686.095	9260.82
686.443	9237.09
686.79	9169.29
687.138	9215.17
687.485	9235.28
687.832	9174.72
688.18	9148.73
688.527	9107.15
688.874	9105.11
689.221	9083.19
689.568	9047.49
689.915	8981.05
690.262	8997.55
690.609	9001.84
690.956	9011.56
691.303	8950.09
691.65	8877.1
691.997	8952.58
692.344	8822.86
692.69	8766.59
693.037	8849.53
693.383	8816.53
693.73	8796.65
694.077	8707.16
694.423	8681.17
694.769	8659.48
695.116	8645.46
695.462	8588.07
695.808	8642.3
696.155	8594.62
696.501	8558.69
696.847	8486.37
697.193	8482.31
697.539	8525.02
697.885	8462.64
698.231	8282.54
698.577	8361.4
698.923	8361.63
699.269	8299.26
699.614	8228.07
699.96	8261.52
700.306	8234.4
700.651	8194.86
700.997	8124.8
701.342	8146.72
701.688	8144.69
702.033	8039.15
702.379	8121.86
702.724	8048.19
703.069	8069.21
703.415	7937.23
703.76	7944.24
704.105	7901.08
704.45	7940.4
704.795	7884.13
705.14	7907.63
705.485	7841.19
705.83	7774.08
706.175	7821.08
706.52	7741.31
706.865	7743.79
707.209	7748.31
707.554	7657.69
707.899	7769.78
708.243	7704.7
708.588	7693.4
708.932	7622.67
709.277	7604.14
709.621	7635.1
709.966	7589.22
710.31	7585.83
710.654	7532.05
710.998	7505.38
711.342	7506.96
711.687	7406.18
712.031	7428.77
712.375	7427.87
712.719	7425.84
713.063	7377.48
713.407	7429
713.75	7367.53
714.094	7392.16
714.438	7327.08
714.782	7328.44
715.125	7280.08
715.469	7312.84
715.812	7301.09
716.156	7233.52
716.499	7264.94
716.843	7227.42
717.186	7222.68
717.53	7212.73
717.873	7245.5
718.216	7199.18
718.559	7201.66
718.902	7143.81
719.246	7208.89
719.589	7118.05
719.932	7119.63
720.275	7105.39
720.617	7093.64
720.96	7131.61
721.303	7102
721.646	7162.79
721.989	7054.77
722.331	7074.66
722.674	7110.14
723.016	7048.9
723.359	7070.14
723.701	7012.06
724.044	7039.63
724.386	7006.19
724.729	7055.45
725.071	6990.14
725.413	6965.06
725.755	6957.83
726.097	6939.52
726.439	6920.76
726.782	6929.58
727.124	7028.78
727.465	6946.75
727.807	6945.17
728.149	6953.76
728.491	6883.93
728.833	6951.72
729.175	6922.57
729.516	6903.59
729.858	6944.49
730.199	6957.15
730.541	6906.75
730.882	6899.97
731.224	6944.27
731.565	6834.21
731.906	6847.77
732.248	6892.29
732.589	6826.98
732.93	6864.27
733.271	6813.2
733.612	6862.91
733.953	6858.85
734.294	6850.48
734.635	6845.51
734.976	6862.69
735.317	6843.7
735.658	6846.64
735.999	6837.6
736.339	6862.69
736.68	6857.49
737.021	6855
737.361	6837.15
737.702	6896.13
738.042	6821.33
738.383	6837.38
738.723	6878.51
739.063	6835.57
739.404	6889.8
739.744	6889.13
740.084	6885.06
740.424	6928.67
740.764	6864.27
741.104	6900.2
741.444	6954.66
741.784	6902.46
742.124	6935
742.464	7005.96
742.804	6951.5
743.143	6995.56
743.483	7011.84
743.823	6972.74
744.162	7015.68
744.502	7036.24
744.841	6998.28
745.181	7098.16
745.52	7156.01
745.86	7100.42
746.199	7118.27
746.538	7151.94
746.877	7251.6
747.216	7185.84
747.556	7234.2
747.895	7322.56
748.234	7315.33
748.573	7324.6
748.911	7424.03
749.25	7386.06
749.589	7459.06
749.928	7525.72
750.267	7518.49
750.605	7629.9
750.944	7705.83
751.283	7657.02
751.621	7784.24
751.96	7807.52
752.298	7930.68
752.636	8014.75
752.975	8075.99
753.313	8023.56
753.651	8216.32
753.989	8183.1
754.327	8340.61
754.666	8418.35
755.004	8488.63
755.342	8607.5
755.679	8699.47
756.017	8810.88
756.355	8861.28
756.693	8971.56
757.031	9129.75
757.368	9218.11
757.706	9294.04
758.044	9431.88
758.381	9580.81
758.719	9621.94
759.056	9808.15
759.394	9868.03
759.731	9990.74
760.068	10037.52
760.405	10239.55
760.743	10318.42
761.08	10480.9
761.417	10561.35
761.754	10734.22
762.091	10838.85
762.428	10880.43
762.765	11031.16
763.102	11271.84
763.438	11259.63
763.775	11388.67
764.112	11554.77
764.449	11770.58
764.785	11836.12
765.122	11975.77
765.458	12030.01
765.795	12166.5
766.131	12398.36
766.467	12337.35
766.804	12520.39
767.14	12549.99
767.476	12639.71
767.812	12738.46
768.148	12874.96
768.485	12959.48
768.821	12987.05
769.157	13118.12
769.492	13271.33
769.828	13325.12
770.164	13347.26
770.5	13455.73
770.836	13596.75
771.171	13572.34
771.507	13589.52
771.842	13714.48
772.178	13807.81
772.513	13922.84
772.849	13980.47
773.184	13976.85
773.519	14130.52
773.855	14129.16
774.19	14241.7
774.525	14149.73
774.86	14282.83
775.195	14373.45
775.53	14358.76
775.865	14441.7
776.2	14402.15
776.535	14252.55
776.87	14394.92
777.205	14395.37
777.539	14402.15
777.874	14480.34
778.209	14450.96
778.543	14500.23
778.878	14555.37
779.212	14493.22
779.547	14407.57
779.881	14651.86
780.215	14542.03
780.55	14584.29
780.884	14587.23
781.218	14580.22
781.552	14571.18
781.886	14523.05
782.22	14643.05
782.554	14603.05
782.888	14446.22
783.222	14485.99
783.556	14401.92
783.889	14438.76
784.223	14443.96
784.557	14446.89
784.89	14431.98
785.224	14486.67
785.557	14422.04
785.891	14485.31
786.224	14380
786.558	14413.67
786.891	14356.5
787.224	14292.55
787.557	14331.19
787.891	14345.2
788.224	14278.76
788.557	14340
788.89	14389.95
789.223	14347.01
789.556	14218.2
789.888	14204.87
790.221	14244.41
790.554	14124.42
790.887	14151.76
791.219	14133.46
791.552	14068.15
791.884	14066.11
792.217	14074.93
792.549	13995.61
792.882	13867.93
793.214	13914.93
793.546	13974.14
793.879	13810.3
794.211	13834.03
794.543	13889.85
794.875	13809.85
795.207	13824.99
795.539	13796.29
795.871	13803.07
796.203	13637.88
796.535	13637.88
796.867	13665.67
797.198	13615.05
797.53	13517.2
797.862	13528.73
798.193	13527.82
798.525	13459.12
798.856	13537.77
799.188	13297.77
799.519	13418.9
799.85	13373.7
800.182	13379.13
800.513	13310.65
800.844	13242.18
801.175	13268.39
801.506	13320.14
801.837	13238.11
802.168	13184.1
802.499	13225.68
802.83	13127.15
803.161	13020.49
803.491	13109.08
803.822	13052.81
804.153	13033.6
804.483	12905.01
804.814	12853.26
805.145	12839.7
805.475	12826.15
805.805	12741.85
806.136	12793.6
806.466	12820.72
806.796	12688.3
807.126	12650.78
807.457	12691.91
807.787	12593.61
808.117	12624.12
808.447	12639.48
808.777	12572.14
809.107	12549.99
809.436	12538.92
809.766	12483.1
810.096	12479.71
810.426	12524.23
810.755	12438.36
811.085	12381.19
811.414	12452.82
811.744	12339.6
812.073	12229.78
812.403	12291.47
812.732	12234.75
813.061	12250.57
813.39	12241.75
813.719	12260.74
814.049	12295.31
814.378	12166.28
814.707	12148.2
815.036	12118.59
815.365	11978.71
815.693	12006.28
816.022	11999.27
816.351	11981.42
816.68	11856
817.008	11948.88
817.337	11788.66
817.665	11877.7
817.994	11849.45
818.322	11842.67
818.651	11778.49
818.979	11693.29
819.307	11778.04
819.636	11718.83
819.964	11636.57
820.292	11729.23
820.62	11727.87
820.948	11655.33
821.276	11739.62
821.604	11674.09
821.932	11708.44
822.259	11661.43
822.587	11629.79
822.915	11712.95
823.243	11722.9
823.57	11657.36
823.898	11697.36
824.225	11606.97
824.553	11688.32
824.88	11734.65
825.207	11740.07
825.535	11699.17
825.862	11636.8
826.189	11599.74
826.516	11762.22
826.843	11764.93
827.17	11708.21
827.497	11768.09
827.824	11725.16
828.151	11732.62
828.478	11703.92
828.805	11764.93
829.131	11691.03
829.458	11674.54
829.785	11699.85
830.111	11617.59
830.438	11764.93
830.764	11721.09
831.09	11739.85
831.417	11653.52
831.743	11752.05
832.069	11685.16
832.395	11624.6
832.722	11702.56
833.048	11608.78
833.374	11661.2
833.7	11538.27
834.026	11636.8
834.351	11555.67
834.677	11612.17
835.003	11612.17
835.329	11595.9
835.654	11576.91
835.98	11501.89
836.306	11519.97
836.631	11482.45
836.956	11523.13
837.282	11526.97
837.607	11537.59
837.932	11493.3
838.258	11475.45
838.583	11451.49
838.908	11378.27
839.233	11458.05
839.558	11356.81
839.883	11340.76
840.208	11337.82
840.533	11359.52
840.858	11309.12
841.182	11362.23
841.507	11301.89
841.832	11188.9
842.156	11251.27
842.481	11216.7
842.805	11196.81
843.13	11157.94
843.454	11134.44
843.778	11070.26
844.103	11116.36
844.427	11065.97
844.751	11027.32
845.075	10948.68
845.399	10962.69
845.723	10905.07
846.047	10891.06
846.371	10882.92
846.695	10831.85
847.019	10726.77
847.343	10732.19
847.666	10655.36
847.99	10672.98
848.313	10564.96
848.637	10515.47
848.96	10575.81
849.284	10505.98
849.607	10469.37
849.931	10390.73
850.254	10295.82
850.577	10216.04
850.9	10251.3
851.223	10173.56
851.546	10160.68
851.869	10157.74
852.192	10201.13
852.515	10019.21
852.838	9985.32
853.161	10047.24
853.483	9960.01
853.806	9872.1
854.129	9935.15
854.451	9828.94
854.774	9773.8
855.096	9742.39
855.419	9778.54
855.741	9769.73
856.063	9760.46
856.385	9751.65
856.708	9642.95
857.03	9565.89
857.352	9599.11
857.674	9597.08
857.996	9557.76
858.318	9504.88
858.64	9504.88
858.961	9515.5
859.283	9492.45
859.605	9405.22
859.926	9396.86
860.248	9424.43
860.57	9344.2
860.891	9348.5
861.212	9312.57
861.534	9228.05
861.855	9269.4
862.176	9303.3
862.498	9221.04
862.819	9236.18
863.14	9235.28
863.461	9137.88
863.782	9219.69
864.103	9158.67
864.424	9080.48
864.745	9149.18
865.065	9037.77
865.386	9032.12
865.707	9119.12
866.027	9047.04
866.348	9011.33
866.668	9058.34
866.989	9051.56
867.309	8962.52
867.63	8991.67
867.95	8938.34
868.27	8881.16
868.59	9002.07
868.91	8867.38
869.23	8906.02
869.55	8882.52
869.87	8943.54
870.19	8824.22
870.51	8874.61
870.83	8869.87
871.15	8811.11
871.469	8795.97
871.789	8836.19
872.109	8818.34
872.428	8715.52
872.748	8775.4
873.067	8733.82
873.386	8726.37
873.706	8741.96
874.025	8702.41
874.344	8608.86
874.663	8674.62
874.982	8602.3
875.301	8666.71
875.62	8649.98
875.939	8612.92
876.258	8584
876.577	8596.43
876.896	8513.72
877.214	8557.33
877.533	8564.79
877.852	8525.24
878.17	8554.17
878.489	8536.99
878.807	8487.5
879.125	8471.46
879.444	8489.08
879.762	8332.93
880.08	8424
880.398	8395.08
880.716	8442.08
881.034	8388.07
881.352	8428.07
881.67	8374.29
881.988	8332.93
882.306	8331.8
882.624	8343.78
882.941	8273.72
883.259	8230.56
883.577	8228.07
883.894	8216.78
884.212	8231.01
884.529	8217.45
884.846	8153.05
885.164	8160.96
885.481	8099.72
885.798	8165.7
886.115	8088.19
886.432	8131.13
886.75	8046.61
887.067	8015.42
887.383	7992.37
887.7	8006.61
888.017	7978.14
888.334	7968.87
888.651	7948.99
888.967	8007.29
889.284	7876.22
889.6	7885.48
889.917	7850.91
890.233	7814.75
890.55	7754.64
890.866	7732.04
891.182	7728.43
891.498	7732.72
891.815	7748.31
892.131	7676
892.447	7701.99
892.763	7581.54
893.079	7608.66
893.395	7570.01
893.71	7628.32
894.026	7475.78
894.342	7456.8
894.657	7468.77
894.973	7433.97
895.289	7417.93
895.604	7498.6
895.92	7399.17
896.235	7314.88
896.55	7325.5
896.865	7340.64
897.181	7304.94
897.496	7311.49
897.811	7284.14
898.126	7181.1
898.441	7146.97
898.756	7240.76
899.071	7139.52
899.386	7136.8
899.7	7076.69
900.015	7108.78
900.33	7047.31
900.644	7056.58
900.959	7024.26
901.273	6961.22
901.588	6924.38
901.902	6916.47
902.216	6917.15
902.531	6933.87
902.845	6924.83
903.159	6772.52
903.473	6824.5
903.787	6740.66
904.101	6753.54
904.415	6727.78
904.729	6736.81
905.042	6687.55
905.356	6689.81
905.67	6612.52
905.984	6626.99
906.297	6612.75
906.611	6570.94
906.924	6541.57
907.237	6508.12
907.551	6539.08
907.864	6443.94
908.177	6431.96
908.491	6410.72
908.804	6383.6
909.117	6349.25
909.43	6342.7
909.743	6286.88
910.056	6314.68
910.368	6264.96
910.681	6253.89
910.994	6263.15
911.307	6188.58
911.619	6167.11
911.932	6181.35
912.244	6126.66
912.557	6106.77
912.869	6075.14
913.181	6006.21
913.494	6019.55
913.806	5976.16
914.118	5957.85
914.43	5910.4
914.742	5893.45
915.054	5849.38
915.366	5856.39
915.678	5884.18
915.99	5824.75
916.302	5778.87
916.613	5735.71
916.925	5767.57
917.236	5745.2
917.548	5700.46
917.859	5707.24
918.171	5675.15
918.482	5629.5
918.794	5577.07
919.105	5625.43
919.416	5559.22
919.727	5570.29
920.038	5529.39
920.349	5468.6
920.66	5473.12
920.971	5445.55
921.282	5479.22
921.593	5408.04
921.903	5375.95
922.214	5358.09
922.525	5378.43
922.835	5359.45
923.146	5291.65
923.456	5263.18
923.767	5243.75
924.077	5282.16
924.387	5249.85
924.697	5204.43
925.008	5207.36
925.318	5166.23
925.628	5152.22
925.938	5126.46
926.248	5047.59
926.558	5083.52
926.867	5061.15
927.177	5016.86
927.487	4996.3
927.796	4998.33
928.106	4983.87
928.416	4923.08
928.725	4951.55
929.034	4886.02
929.344	4924.66
929.653	4903.42
929.962	4851.67
930.271	4867.49
930.581	4826.81
930.89	4763.98
931.199	4771.44
931.508	4773.48
931.817	4725.79
932.125	4706.13
932.434	4708.62
932.743	4675.85
933.051	4683.76
933.36	4649.64
933.669	4636.3
933.977	4622.97
934.286	4580.49
934.594	4566.93
934.902	4494.16
935.21	4523.09
935.519	4570.32
935.827	4527.38
936.135	4475.86
936.443	4459.59
936.751	4426.37
937.059	4415.75
937.367	4415.29
937.674	4382.53
937.982	4341.17
938.29	4373.03
938.597	4342.53
938.905	4322.19
939.213	4297.78
939.52	4321.74
939.827	4263.89
940.135	4262.53
940.442	4152.25
940.749	4217.78
941.056	4185.47
941.363	4158.58
941.67	4109.99
941.977	4148.86
942.284	4102.08
942.591	4075.87
942.898	4078.58
943.205	4029.09
943.511	4063.66
943.818	4034.06
944.125	3999.71
944.431	4009.65
944.738	3986.15
945.044	3971.01
945.35	3935.76
945.657	3934.18
945.963	3879.26
946.269	3935.53
946.575	3870
946.881	3821.18
947.187	3849.66
947.493	3840.62
947.799	3852.14
948.105	3766.5
948.41	3768.53
948.716	3776.89
949.022	3757.91
949.327	3772.15
949.633	3695.31
949.938	3737.8
950.244	3721.75
950.549	3676.33
950.854	3663
951.16	3624.35
951.465	3634.98
951.77	3608.08
952.075	3603.56
952.38	3558.59
952.685	3587.97
952.99	3545.71
953.294	3528.31
953.599	3542.55
953.904	3510.23
954.209	3489.44
954.513	3488.76
954.818	3487.63
955.122	3430.46
955.426	3396.11
955.731	3446.51
956.035	3383.68
956.339	3401.99
956.643	3372.61
956.948	3367.19
957.252	3355.66
957.556	3340.52
957.86	3310.24
958.163	3329.67
958.467	3262.33
958.771	3305.49
959.075	3297.81
959.378	3207.19
959.682	3266.62
959.985	3202.44
960.289	3231.6
960.592	3222.1
960.896	3175.33
961.199	3178.04
961.502	3169.9
961.805	3186.4
962.108	3142.78
962.411	3109.79
962.714	3076.12
963.017	3084.93
963.32	3115.89
963.623	3063.92
963.926	3055.33
964.228	3069.57
964.531	3044.26
964.833	3013.3
965.136	2965.16
965.438	2983.01
965.741	2966.29
966.043	2938.95
966.345	2922.68
966.648	2914.99
966.95	2925.84
967.252	2909.34
967.554	2924.49
967.856	2882.68
968.158	2860.53
968.46	2850.14
968.761	2859.4
969.063	2800.65
969.365	2853.98
969.666	2812.85
969.968	2809.01
970.269	2817.82
970.571	2788.67
970.872	2792.74
971.174	2763.81
971.475	2750.93
971.776	2689.46
972.077	2721.33
972.378	2767.65
972.679	2704.38
972.98	2663.93
973.281	2675.68
973.582	2668.67
973.883	2698.28
974.183	2641.1
974.484	2605.17
974.785	2615.34
975.085	2612.86
975.386	2623.25
975.686	2596.58
975.986	2588.9
976.287	2585.06
976.587	2550.94
976.887	2545.29
977.187	2564.04
977.487	2511.39
977.787	2513.87
978.087	2467.32
978.387	2484.5
978.687	2505.06
978.987	2451.73
979.286	2468
979.586	2439.98
979.885	2449.7
980.185	2425.06
980.484	2448.11
980.784	2406.76
981.083	2361.11
981.382	2385.52
981.682	2359.3
981.981	2368.57
982.28	2372.86
982.579	2363.14
982.878	2337.16
983.177	2336.93
983.475	2301.45
983.774	2292.86
984.073	2316.37
984.372	2278.85
984.67	2289.93
984.969	2253.99
985.267	2257.61
985.566	2227.78
985.864	2235.46
986.162	2204.05
986.461	2217.39
986.759	2208.12
987.057	2190.95
987.355	2187.33
987.653	2192.98
987.951	2172.64
988.249	2158.4
988.547	2124.28
988.844	2139.87
989.142	2091.74
989.44	2126.99
989.737	2125.18
990.035	2064.17
990.332	2077.05
990.63	2080.44
990.927	2058.52
991.224	2054.68
991.521	2047.22
991.819	2052.19
992.116	2012.19
992.413	2044.51
992.71	2009.03
993.006	1991.18
993.303	2002.7
993.6	1984.4
993.897	1965.64
994.193	1957.96
994.49	1953.89
994.787	1961.35
995.083	1959.09
995.379	1948.47
995.676	1934.45
995.972	1910.27
996.268	1913.21
996.565	1873.67
996.861	1870.28
997.157	1880.9
997.453	1864.85
997.749	1866.66
998.044	1834.57
998.34	1831.18
998.636	1829.37
998.932	1788.24
999.227	1808.81
999.523	1823.27
999.818	1776.27
1000.114	1794.35
1000.409	1774.91
1000.704	1771.97
1001	1759.09
1001.295	1765.87
1001.59	1752.76
1001.885	1767.91
1002.18	1735.14
1002.475	1695.14
1002.77	1705.99
1003.065	1689.04
1003.359	1705.31
1003.654	1682.71
1003.949	1659.66
1004.243	1668.47
1004.538	1656.95
1004.832	1667.8
1005.127	1661.02
1005.421	1640.68
1005.715	1628.47
1006.009	1616.27
1006.304	1595.48
1006.598	1596.16
1006.892	1579.44
1007.186	1569.72
1007.48	1583.05
1007.773	1557.74
1008.067	1574.69
1008.361	1545.31
1008.655	1516.61
1008.948	1531.75
1009.242	1531.08
1009.535	1466.9
1009.829	1500.12
1010.122	1513.22
1010.415	1479.1
1010.708	1468.93
1011.001	1442.49
1011.295	1466.9
1011.588	1453.56
1011.881	1450.63
1012.173	1426.67
1012.466	1429.84
1012.759	1436.16
1013.052	1397.97
1013.344	1391.64
1013.637	1373.79
1013.93	1395.49
1014.222	1382.38
1014.514	1369.27
1014.807	1350.06
1015.099	1338.09
1015.391	1345.77
1015.683	1311.19
1015.976	1324.98
1016.268	1321.82
1016.56	1307.58
1016.851	1302.83
1017.143	1334.47
1017.435	1289.05
1017.727	1269.84
1018.018	1281.59
1018.31	1281.59
1018.602	1258.99
1018.893	1264.19
1019.185	1244.08
1019.476	1249.28
1019.767	1223.51
1020.058	1243.17
1020.35	1228.94
1020.641	1223.96
1020.932	1180.8
1021.223	1200.91
1021.514	1195.27
1021.804	1191.65
1022.095	1151.42
1022.386	1155.94
1022.677	1156.4
1022.967	1171.31
1023.258	1146.9
1023.548	1130.63
1023.839	1124.31
1024.129	1142.39
1024.419	1136.06
1024.709	1115.04
1025	1086.34
1025.29	1096.06
1025.58	1079.56
1025.87	1078.43
1026.16	1053.35
1026.449	1089.51
1026.739	1061.94
1027.029	1050.64
1027.319	1070.07
1027.608	1034.37
1027.898	1037.3
1028.187	1057.87
1028.477	1035.04
1028.766	1035.72
1029.055	991.43
1029.344	1004.54
1029.634	1010.41
1029.923	991.88
1030.212	989.62
1030.501	996.85
1030.79	952.11
1031.078	990.75
1031.367	978.32
1031.656	963.63
1031.945	955.05
1032.233	949.17
1032.522	941.49
1032.81	929.51
1033.099	923.86
1033.387	939
1033.675	908.72
1033.963	917.31
1034.251	917.08
1034.54	886.12
1034.828	902.62
1035.116	899.45
1035.403	923.63
1035.691	886.35
1035.979	860.36
1036.267	853.13
1036.554	850.87
1036.842	863.07
1037.129	858.55
1037.417	835.73
1037.704	842.28
1037.992	856.52
1038.279	822.85
1038.566	867.36
1038.853	867.36
1039.14	867.36
