Data from hue_120_FLMS001491_00095.txt Node
Date: Tue Feb 07 17:00:17 GMT 2017
User: dcchb
Spectrometer: FLMS00149
Trigger mode: 0
Integration Time (sec): 2.000000E-2
Scans to average: 10
Electric dark correction enabled: true
Nonlinearity correction enabled: false
Boxcar width: 0
XAxis mode: Wavelengths
Number of Pixels in Spectrum: 2048
>>>>>Begin Spectral Data<<<<<
341.393	-0.76
341.776	-0.76
342.16	-0.76
342.543	-45.73
342.927	-50.03
343.31	-79.4
343.693	-70.14
344.077	-68.78
344.46	-62.68
344.843	-51.16
345.226	-61.33
345.61	-39.18
345.993	-14.77
346.376	1.72
346.759	-1.89
347.142	24.1
347.525	36.98
347.908	76.75
348.291	77.88
348.674	99.12
349.057	132.79
349.44	133.92
349.823	148.39
350.206	168.27
350.588	189.29
350.971	210.08
351.354	237.88
351.737	242.17
352.119	259.57
352.502	259.8
352.884	258.21
353.267	281.72
353.65	296.4
354.032	292.11
354.414	284.2
354.797	298.66
355.179	323.52
355.562	320.58
355.944	310.64
356.326	332.79
356.709	337.31
357.091	338.44
357.473	327.82
357.855	343.64
358.238	335.95
358.62	313.13
359.002	326.23
359.384	335.73
359.766	360.81
360.148	331.88
360.53	332.11
360.912	333.47
361.294	332.11
361.676	335.5
362.057	333.24
362.439	341.83
362.821	348.83
363.203	336.4
363.584	315.39
363.966	319
364.348	328.04
364.729	314.48
365.111	313.35
365.493	332.56
365.874	313.81
366.256	326.91
366.637	316.29
367.019	326.69
367.4	323.07
367.781	307.25
368.163	304.54
368.544	328.04
368.925	308.38
369.306	302.73
369.688	300.92
370.069	293.69
370.45	308.61
370.831	311.77
371.212	299.57
371.593	299.79
371.974	299.57
372.355	293.01
372.736	319.91
373.117	322.84
373.498	311.32
373.879	325.56
374.26	318.55
374.641	316.52
375.021	327.36
375.402	321.26
375.783	319.45
376.163	345.89
376.544	350.41
376.925	341.83
377.305	314.48
377.686	320.58
378.066	325.56
378.447	327.59
378.827	370.75
379.208	326.46
379.588	321.94
379.968	333.47
380.349	363.07
380.729	328.95
381.109	344.76
381.489	335.27
381.87	354.26
382.25	350.19
382.63	305.9
383.01	356.97
383.39	341.83
383.77	332.79
384.15	343.41
384.53	341.83
384.91	330.3
385.29	344.76
385.67	353.8
386.049	349.06
386.429	340.92
386.809	359.45
387.189	332.79
387.568	351.32
387.948	347.02
388.328	379.57
388.707	359.91
389.087	356.97
389.466	358.1
389.846	361.49
390.225	377.08
390.605	378.89
390.984	348.61
391.363	360.36
391.743	370.53
392.122	365.56
392.501	375.27
392.881	384.31
393.26	376.85
393.639	380.7
394.018	369.17
394.397	377.76
394.776	386.8
395.155	389.51
395.534	393.35
395.913	376.18
396.292	386.8
396.671	380.02
397.05	365.33
397.429	378.44
397.808	393.13
398.186	386.35
398.565	384.09
398.944	397.42
399.323	416.63
399.701	408.72
400.08	407.59
400.458	412.56
400.837	405.1
401.215	395.84
401.594	391.09
401.972	426.34
402.351	405.33
402.729	419.57
403.107	417.98
403.486	409.62
403.864	430.19
404.242	407.14
404.62	410.98
404.999	404.88
405.377	413.24
405.755	408.04
406.133	426.34
406.511	427.93
406.889	445.55
407.267	437.42
407.645	430.41
408.023	441.94
408.401	449.17
408.779	452.56
409.156	466.12
409.534	470.64
409.912	449.17
410.29	456.63
410.667	465.21
411.045	448.04
411.422	468.15
411.8	464.54
412.178	474.48
412.555	487.36
412.933	460.69
413.31	483.29
413.687	486.23
414.065	481.71
414.442	461.37
414.819	490.3
415.197	506.34
415.574	483.97
415.951	498.43
416.328	500.02
416.705	508.6
417.082	491.88
417.46	535.95
417.837	520.58
418.214	516.51
418.591	530.75
418.967	537.08
419.344	532.33
419.721	524.65
420.098	537.3
420.475	530.52
420.852	528.71
421.228	539.56
421.605	545.44
421.982	537.3
422.358	551.31
422.735	543.63
423.111	541.6
423.488	583.4
423.864	575.49
424.241	590.41
424.617	582.72
424.994	578.88
425.37	593.8
425.746	578.88
426.123	599.67
426.499	584.76
426.875	581.14
427.251	597.87
427.627	616.62
428.003	620.01
428.379	621.37
428.756	636.51
429.132	627.02
429.507	620.24
429.883	641.48
430.259	642.84
430.635	628.83
431.011	656.85
431.387	651.2
431.763	670.86
432.138	664.76
432.514	664.98
432.89	680.12
433.265	701.37
433.641	713.57
434.016	702.27
434.392	693.91
434.767	720.12
435.143	711.08
435.518	714.7
435.894	731.2
436.269	732.78
436.644	751.76
437.02	743.62
437.395	749.73
437.77	738.43
438.145	764.41
438.52	757.18
438.895	798.31
439.271	795.6
439.646	781.82
440.021	787.01
440.395	789.5
440.77	811.65
441.145	812.55
441.52	836.73
441.895	805.77
442.27	833.11
442.645	833.34
443.019	842.83
443.394	852.32
443.769	885.54
444.143	857.29
444.518	885.09
444.892	871.98
445.267	883.51
445.641	878.54
446.016	872.21
446.39	880.57
446.764	881.7
447.139	892.55
447.513	898.2
447.887	904.3
448.262	894.58
448.636	911.08
449.01	938.42
449.384	917.41
449.758	930.51
450.132	950.17
450.506	946.78
450.88	941.81
451.254	973.67
451.628	969.83
452.002	983.39
452.376	989.04
452.75	1000.57
453.123	1030.62
453.497	1014.35
453.871	1001.47
454.244	1030.4
454.618	1057.97
454.992	1044.18
455.365	1065.88
455.739	1100.23
456.112	1110.17
456.486	1110.85
456.859	1090.96
457.232	1123.95
457.606	1113.56
457.979	1149.04
458.352	1191.52
458.725	1170.73
459.099	1172.54
459.472	1195.59
459.845	1218.19
460.218	1203.73
460.591	1241.24
460.964	1255.25
461.337	1252.76
461.71	1294.57
462.083	1314.46
462.456	1305.64
462.829	1327.34
463.201	1344.51
463.574	1353.55
463.947	1379.77
464.32	1381.8
464.692	1414.57
465.065	1433.1
465.438	1452.08
465.81	1460.89
466.183	1495.47
466.555	1511.74
466.928	1521.68
467.3	1551.29
467.672	1563.94
468.045	1629.48
468.417	1628.12
468.789	1623.6
469.161	1694.11
469.534	1694.79
469.906	1755.58
470.278	1740.21
470.65	1792.64
471.022	1855.69
471.394	1878.28
471.766	1910.6
472.138	1941.33
472.51	1981.78
472.882	2024.04
473.253	2032.63
473.625	2094.78
473.997	2149.46
474.369	2151.95
474.74	2205.28
475.112	2276.47
475.484	2336.13
475.855	2350.14
476.227	2422
476.598	2489.57
476.97	2544.26
477.341	2595.78
477.713	2702.67
478.084	2733.18
478.455	2781.09
478.827	2873.06
479.198	2963.45
479.569	2991.02
479.94	3120.06
480.311	3170.91
480.682	3308.98
481.053	3385.36
481.424	3477.56
481.795	3558.01
482.166	3614.74
482.537	3746.48
482.908	3836.2
483.279	3914.61
483.65	3993.48
484.021	4161.16
484.391	4268.5
484.762	4321.16
485.133	4456.75
485.503	4501.04
485.874	4637.53
486.244	4805.89
486.615	4938.77
486.985	5053.12
487.356	5174.92
487.726	5243.62
488.097	5448.81
488.467	5485.65
488.837	5730.39
489.207	5839.54
489.578	5935.13
489.948	6097.16
490.318	6219.86
490.688	6267.55
491.058	6465.73
491.428	6626.63
491.798	6776.23
492.168	6969.9
492.538	7027.75
492.908	7159.73
493.278	7346.84
493.648	7449.66
494.017	7554.29
494.387	7670.67
494.757	7843.32
495.126	7960.38
495.496	8056.65
495.866	8127.61
496.235	8330.54
496.605	8404.21
496.974	8561.27
497.344	8699.8
497.713	8854.37
498.082	8876.97
498.452	9123.29
498.821	9178.43
499.19	9205.1
499.559	9357.18
499.928	9488.48
500.298	9502.49
500.667	9696.84
501.036	9829.26
501.405	9894.12
501.774	9933.21
502.143	10094.34
502.512	10156.48
502.88	10288.68
503.249	10288.01
503.618	10411.62
503.987	10437.83
504.356	10579.75
504.724	10656.13
505.093	10773.87
505.462	10843.25
505.83	10870.82
506.199	11014.31
506.567	11153.75
506.936	11227.87
507.304	11305.61
507.672	11301.31
508.041	11431.71
508.409	11439.39
508.777	11572.04
509.145	11705.6
509.514	11714.86
509.882	11704.69
510.25	11791.24
510.618	11851.36
510.986	11932.71
511.354	12061.52
511.722	12082.76
512.09	12156.66
512.458	12190.78
512.826	12233.49
513.193	12238.24
513.561	12351.45
513.929	12464.45
514.297	12462.64
514.664	12550.32
515.032	12667.38
515.4	12720.48
515.767	12676.64
516.135	12739.24
516.502	12644.78
516.869	12856.3
517.237	12847.71
517.604	12845.68
517.972	12897.66
518.339	12930.65
518.706	12979.23
519.073	13007.03
519.44	13070.53
519.808	13123.41
520.175	13159.34
520.542	13266.69
520.909	13342.39
521.276	13191.88
521.643	13303.97
522.009	13327.25
522.376	13413.8
522.743	13424.87
523.11	13433.91
523.477	13655.6
523.843	13634.81
524.21	13656.28
524.577	13723.85
524.943	13761.36
525.31	13800.46
525.676	13849.49
526.043	13787.58
526.409	13889.72
526.776	14001.36
527.142	13985.31
527.508	13982.37
527.874	14082.48
528.241	14015.14
528.607	13916.61
528.973	14093.1
529.339	13994.35
529.705	14163.16
530.071	14088.13
530.437	14113.67
530.803	14201.58
531.169	14225.3
531.535	14119.09
531.901	14186.21
532.267	14195.02
532.632	14203.61
532.998	14179.2
533.364	14203.16
533.73	14191.86
534.095	14225.76
534.461	14221.91
534.826	14132.2
535.192	14178.98
535.557	14153.44
535.923	14125.65
536.288	14158.41
536.653	14172.65
537.019	14033.9
537.384	14066.66
537.749	14042.94
538.114	14035.48
538.479	14070.28
538.845	14096.04
539.21	13902.83
539.575	13929.27
539.94	13927.46
540.305	13936.05
540.67	13889.49
541.034	13860.79
541.399	13946.89
541.764	13845.2
542.129	13832.55
542.494	13859.44
542.858	13797.74
543.223	13796.16
543.587	13742.38
543.952	13697.18
544.316	13722.49
544.681	13612.66
545.045	13669.84
545.41	13668.03
545.774	13634.13
546.138	13529.05
546.503	13536.96
546.867	13458.09
547.231	13552.55
547.595	13502.61
547.959	13492.67
548.324	13410.18
548.688	13300.13
549.052	13415.61
549.416	13343.52
549.779	13297.87
550.143	13234.37
550.507	13273.24
550.871	13257.65
551.235	13137.2
551.599	13319.11
551.962	13171.09
552.326	13213.81
552.689	13230.98
553.053	13065.79
553.417	13098.33
553.78	13186.91
554.143	13070.76
554.507	13060.14
554.87	13020.59
555.234	13194.37
555.597	13047.03
555.96	13006.13
556.323	12988.73
556.686	13013.58
557.05	13046.8
557.413	13026.92
557.776	13013.58
558.139	13077.76
558.502	13022.85
558.865	12986.47
559.228	13058.78
559.59	12965.9
559.953	12942.4
560.316	13066.24
560.679	13062.85
561.041	13102.62
561.404	13047.26
561.767	13152.56
562.129	13057.88
562.492	13091.1
562.854	13028.95
563.217	13020.14
563.579	13095.84
563.941	13110.76
564.304	13182.17
564.666	13149.63
565.028	13135.62
565.39	13222.17
565.753	13231.88
566.115	13190.98
566.477	13231.88
566.839	13188.95
567.201	13250.87
567.563	13212.9
567.925	13352.33
568.287	13276.85
568.648	13222.17
569.01	13413.35
569.372	13369.28
569.734	13317.53
570.095	13420.81
570.457	13397.76
570.819	13385.33
571.18	13347.36
571.542	13464.42
571.903	13413.12
572.265	13353.24
572.626	13514.36
572.987	13522.5
573.349	13454.93
573.71	13447.02
574.071	13538.09
574.432	13530.86
574.794	13574.47
575.155	13628.94
575.516	13581.71
575.877	13520.92
576.238	13506
576.599	13636.17
576.96	13556.85
577.32	13614.92
577.681	13662.15
578.042	13637.07
578.403	13537.86
578.763	13586.68
579.124	13532.67
579.485	13694.47
579.845	13654.7
580.206	13622.83
580.566	13684.53
580.927	13648.14
581.287	13597.07
581.648	13574.93
582.008	13702.15
582.368	13567.69
582.728	13626
583.089	13575.38
583.449	13554.81
583.809	13604.53
584.169	13598.88
584.529	13526.79
584.889	13658.77
585.249	13641.36
585.609	13500.13
585.969	13550.75
586.329	13528.6
586.688	13537.41
587.048	13483.63
587.408	13522.27
587.768	13450.41
588.127	13441.82
588.487	13474.59
588.846	13543.06
589.206	13463.74
589.565	13536.73
589.925	13528.6
590.284	13409.51
590.643	13376.51
591.003	13406.57
591.362	13507.36
591.721	13410.64
592.08	13407.25
592.44	13553.23
592.799	13508.94
593.158	13420.35
593.517	13443.86
593.876	13391.43
594.235	13476.17
594.593	13411.54
594.952	13338.32
595.311	13367.47
595.67	13440.47
596.029	13420.58
596.387	13509.16
596.746	13411.77
597.104	13299.45
597.463	13348.26
597.822	13338.1
598.18	13320.92
598.538	13364.08
598.897	13367.47
599.255	13272.33
599.613	13463.06
599.972	13451.76
600.33	13372.67
600.688	13284.99
601.046	13363.86
601.404	13397.3
601.762	13377.87
602.12	13469.84
602.478	13465.32
602.836	13424.2
603.194	13258.78
603.552	13354.37
603.91	13240.02
604.268	13336.97
604.625	13239.79
604.983	13401.37
605.341	13301.49
605.698	13345.33
606.056	13352.78
606.413	13338.55
606.771	13475.95
607.128	13394.82
607.485	13362.05
607.843	13389.85
608.2	13405.89
608.557	13526.57
608.914	13413.8
609.272	13395.27
609.629	13508.26
609.986	13501.03
610.343	13414.25
610.7	13527.24
611.057	13520.69
611.414	13501.03
611.771	13518.2
612.127	13541.48
612.484	13551.65
612.841	13520.69
613.198	13483.4
613.554	13566.56
613.911	13576.06
614.267	13594.81
614.624	13502.16
614.98	13661.7
615.337	13673
615.693	13645.21
616.05	13634.36
616.406	13688.37
616.762	13709.16
617.118	13676.84
617.475	13619.44
617.831	13742.15
618.187	13743.06
618.543	13720.46
618.899	13729.72
619.255	13756.16
619.611	13769.72
619.967	13798.2
620.323	13790.97
620.678	13775.82
621.034	13715.71
621.39	13794.58
621.746	13696.28
622.101	13948.93
622.457	13691.31
622.812	13734.7
623.168	13759.33
623.523	13760.91
623.879	13857.63
624.234	13645.43
624.589	13751.87
624.945	13758.88
625.3	13771.76
625.655	13747.12
626.01	13794.81
626.365	13836.39
626.72	13791.19
627.075	13686.11
627.43	13794.13
627.785	13757.75
628.14	13691.08
628.495	13792.09
628.85	13777.63
629.205	13658.09
629.559	13757.07
629.914	13687.01
630.269	13790.29
630.623	13628.26
630.978	13706.67
631.332	13654.47
631.687	13755.71
632.041	13628.71
632.396	13685.66
632.75	13569.73
633.104	13676.84
633.459	13521.37
633.813	13581.93
634.167	13618.31
634.521	13508.26
634.875	13613.12
635.229	13484.76
635.583	13583.51
635.937	13490.86
636.291	13460.35
636.645	13604.76
636.999	13411.31
637.352	13438.66
637.706	13361.82
638.06	13451.76
638.413	13386
638.767	13251.54
639.121	13383.52
639.474	13221.04
639.828	13316.63
640.181	13296.97
640.534	13306.68
640.888	13282.73
641.241	13242.96
641.594	13280.24
641.947	13227.59
642.301	13188.04
642.654	13257.65
643.007	13274.59
643.36	13164.31
643.713	13194.14
644.066	13176.74
644.419	13218.32
644.771	13109.4
645.124	13024.43
645.477	12962.74
645.83	12899.92
646.182	12828.05
646.535	12895.62
646.888	12849.52
647.24	12701.73
647.593	12826.47
647.945	12800.03
648.298	12748.05
648.65	12749.64
649.002	12718.68
649.355	12817.21
649.707	12715.29
650.059	12761.16
650.411	12916.41
650.763	12942.63
651.115	13024.66
651.467	13019.23
651.819	12997.99
652.171	12993.02
652.523	12954.6
652.875	12940.82
653.227	12947.37
653.578	13096.97
653.93	13006.13
654.282	12915.28
654.633	12895.4
654.985	12909.41
655.337	12941.72
655.688	13021.49
656.039	13053.13
656.391	12959.8
656.742	12937.65
657.094	12978.33
657.445	13062.85
657.796	12984.66
658.147	12930.65
658.498	12994.6
658.849	13054.26
659.2	13051.32
659.551	12941.5
659.902	13035.73
660.253	13031.66
660.604	13039.57
660.955	12950.76
661.306	13067.82
661.656	12962.29
662.007	13001.38
662.358	12922.74
662.708	13007.71
663.059	12991.66
663.409	12873.02
663.76	13042.96
664.11	13034.83
664.461	13035.05
664.811	13093.81
665.161	13022.62
665.511	13027.14
665.862	13011.1
666.212	13006.8
666.562	13047.48
666.912	12949.86
667.262	13069.85
667.612	13078.67
667.962	13063.07
668.312	12990.53
668.662	13018.1
669.011	13095.84
669.361	12976.52
669.711	13046.13
670.06	13026.69
670.41	12994.38
670.76	12992.57
671.109	12997.77
671.459	12914.15
671.808	12970.42
672.157	12999.8
672.507	12925.68
672.856	12892.46
673.205	12971.78
673.554	13006.8
673.904	12851.33
674.253	12968.39
674.602	12909.86
674.951	12770.65
675.3	12668.73
675.649	12894.04
675.998	12842.97
676.346	12841.39
676.695	12873.25
677.044	12732.01
677.393	12782.63
677.741	12775.85
678.09	12828.5
678.438	12748.96
678.787	12760.48
679.135	12774.27
679.484	12667.83
679.832	12751.67
680.181	12615.18
680.529	12739.02
680.877	12535.86
681.225	12575.4
681.573	12674.16
681.922	12521.62
682.27	12563.2
682.618	12610.66
682.966	12477.1
683.314	12481.17
683.661	12461.28
684.009	12362.75
684.357	12350.55
684.705	12324.11
685.053	12403.88
685.4	12277.11
685.748	12287.5
686.095	12301.51
686.443	12301.74
686.79	12297.67
687.138	12159.14
687.485	12243.21
687.832	12117.34
688.18	12139.26
688.527	12086.38
688.874	12094.74
689.221	12034.85
689.568	11964.35
689.915	11904.01
690.262	11945.82
690.609	11935.87
690.956	11905.59
691.303	11828.76
691.65	11819.49
691.997	11848.42
692.344	11755.54
692.69	11702.88
693.037	11716.22
693.383	11681.64
693.73	11664.24
694.077	11533.62
694.423	11581.53
694.769	11451.14
695.116	11418.82
695.462	11405.94
695.808	11386.51
696.155	11365.72
696.501	11270.35
696.847	11250.92
697.193	11231.03
697.539	11166.4
697.885	11131.15
698.231	11101.77
698.577	11069.91
698.923	11082.34
699.269	10951.49
699.614	10939.74
699.96	10874.88
700.306	10867.2
700.651	10808.67
700.997	10752.17
701.342	10754.43
701.688	10750.59
702.033	10688
702.379	10640.09
702.724	10596.92
703.069	10639.64
703.415	10489.81
703.76	10537.04
704.105	10453.2
704.45	10438.74
704.795	10373.65
705.14	10350.15
705.485	10320.77
705.83	10271.51
706.175	10290.72
706.52	10274.22
706.865	10234.22
707.209	10197.39
707.554	10150.83
707.899	10165.52
708.243	10095.24
708.588	10132.98
708.932	10001.01
709.277	10049.82
709.621	9961.46
709.966	9962.82
710.31	9998.07
710.654	9867.45
710.998	9913.78
711.342	9862.25
711.687	9807.12
712.031	9804.63
712.375	9710.39
712.719	9824.97
713.063	9743.16
713.407	9746.78
713.75	9721.24
714.094	9657.74
714.438	9613.22
714.782	9707.23
715.125	9627.91
715.469	9667.68
715.812	9632.43
716.156	9540
716.499	9565.09
716.843	9591.08
717.186	9492.1
717.53	9565.31
717.873	9538.65
718.216	9574.13
718.559	9507.91
718.902	9473.56
719.246	9432.89
719.589	9423.4
719.932	9380.23
720.275	9375.04
720.617	9388.37
720.96	9410.74
721.303	9427.01
721.646	9336.84
721.989	9323.96
722.331	9318.31
722.674	9297.07
723.016	9301.37
723.359	9301.82
723.701	9277.86
724.044	9230.18
724.386	9173.46
724.729	9288.03
725.071	9251.65
725.413	9263.63
725.755	9238.09
726.097	9257.3
726.439	9171.43
726.782	9192.89
727.124	9203.52
727.465	9117.42
727.807	9199
728.149	9105.21
728.491	9181.59
728.833	9152.44
729.175	9053.01
729.516	9043.52
729.858	9095.27
730.199	9097.76
730.541	9147.92
730.882	9045.55
731.224	9123.29
731.565	9053.24
731.906	9095.95
732.248	9055.04
732.589	9017.98
732.93	9018.89
733.271	9080.35
733.612	9095.72
733.953	9100.47
734.294	8987.02
734.635	9031.77
734.976	9065.89
735.317	9050.07
735.658	9065.89
735.999	9122.16
736.339	9098.21
736.68	9085.33
737.021	9075.83
737.361	9090.75
737.702	9127.58
738.042	9120.35
738.383	9078.77
738.723	9061.82
739.063	9137.75
739.404	9183.85
739.744	9108.15
740.084	9122.16
740.424	9125.1
740.764	9176.4
741.104	9211.2
741.444	9148.6
741.784	9140.92
742.124	9241.25
742.464	9214.14
742.804	9249.39
743.143	9189.28
743.483	9211.88
743.823	9227.24
744.162	9321.03
744.502	9356.96
744.841	9290.52
745.181	9302.72
745.52	9404.41
745.86	9409.39
746.199	9478.54
746.538	9517.86
746.877	9544.98
747.216	9556.73
747.556	9649.38
747.895	9648.25
748.234	9751.3
748.573	9805.08
748.911	9865.64
749.25	9895.25
749.589	9964.4
749.928	10039.65
750.267	10104.28
750.605	10158.97
750.944	10135.92
751.283	10233.09
751.621	10333.65
751.96	10368.68
752.298	10441
752.636	10637.83
752.975	10631.73
753.313	10710.37
753.651	10875.34
753.989	10932.28
754.327	10970.7
754.666	11117.59
755.004	11290.69
755.342	11300.86
755.679	11464.02
756.017	11649.78
756.355	11720.96
756.693	11853.61
757.031	12085.02
757.368	12138.58
757.706	12298.8
758.044	12347.16
758.381	12508.29
758.719	12698.11
759.056	12805.45
759.394	13057.43
759.731	13105.79
760.068	13232.34
760.405	13350.75
760.743	13446.57
761.08	13694.47
761.417	13800.46
761.754	13981.69
762.091	14086.55
762.428	14246.55
762.765	14370.61
763.102	14644.5
763.438	14626.88
763.775	14889.02
764.112	15121.55
764.449	15165.39
764.785	15268.44
765.122	15448.77
765.458	15518.38
765.795	15722.21
766.131	15872.94
766.467	15982.55
766.804	16135.76
767.14	16204.91
767.476	16318.13
767.812	16436.77
768.148	16517.22
768.485	16619.14
768.821	16749.53
769.157	16821.39
769.492	16971.67
769.828	17052.8
770.164	17101.84
770.5	17282.62
770.836	17390.64
771.171	17444.2
771.507	17510.87
771.842	17519.91
772.178	17644.65
772.513	17776.4
772.849	17817.53
773.184	17835.6
773.519	17976.39
773.855	18056.16
774.19	18081.02
774.525	18155.82
774.86	18218.19
775.195	18283.05
775.53	18324.18
775.865	18291.64
776.2	18216.16
776.535	18232.88
776.87	18275.82
777.205	18304.29
777.539	18333.9
777.874	18328.25
778.209	18394.91
778.543	18432.42
778.878	18463.84
779.212	18562.37
779.547	18479.88
779.881	18548.13
780.215	18525.98
780.55	18655.7
780.884	18538.18
781.218	18466.1
781.552	18560.56
781.886	18597.62
782.22	18434.23
782.554	18552.42
782.888	18410.73
783.222	18492.99
783.556	18383.39
783.889	18393.78
784.223	18249.6
784.557	18244.18
784.89	18423.84
785.224	18281.24
785.557	18237.63
785.891	18352.65
786.224	18320.11
786.558	18287.34
786.891	18240.11
787.224	18183.84
787.557	18088.03
787.891	18207.57
788.224	18224.29
788.557	18125.99
788.89	18107.01
789.223	18026.11
789.556	18015.26
789.888	18048.03
790.221	18019.78
790.554	17956.73
790.887	17866.34
791.219	17817.75
791.552	17858.43
791.884	17723.07
792.217	17833.57
792.549	17704.53
792.882	17639.68
793.214	17552
793.546	17635.84
793.879	17567.14
794.211	17449.63
794.543	17509.06
794.875	17487.14
795.207	17456.86
795.539	17382.06
795.871	17402.17
796.203	17227.94
796.535	17138.9
796.867	17113.36
797.198	17182.74
797.53	17158.11
797.862	17045.34
798.193	17086.25
798.525	17008.96
798.856	16936.42
799.188	16842.64
799.519	16733.26
799.85	16737.55
800.182	16785.91
800.513	16740.04
800.844	16594.96
801.175	16700.49
801.506	16665.69
801.837	16513.38
802.168	16594.06
802.499	16523.55
802.83	16415.98
803.161	16333.27
803.491	16465.92
803.822	16416.88
804.153	16315.19
804.483	16257.34
804.814	16210.11
805.145	16253.05
805.475	16130.56
805.805	16042.21
806.136	16031.81
806.466	16124.91
806.796	16037.23
807.126	15992.49
807.457	15943
807.787	15893.51
808.117	15884.24
808.447	15735.32
808.777	15848.09
809.107	15758.6
809.436	15713.4
809.766	15659.16
810.096	15631.14
810.426	15621.43
810.755	15643.35
811.085	15610.58
811.414	15552.73
811.744	15454.42
812.073	15399.74
812.403	15366.74
812.732	15383.01
813.061	15390.25
813.39	15318.38
813.719	15279.51
814.049	15275.22
814.378	15195.22
814.707	15190.02
815.036	15272.06
815.365	15235.22
815.693	14976.24
816.022	15021.89
816.351	15009.92
816.68	14908.9
817.008	14997.71
817.337	14839.98
817.665	14805.85
817.994	14792.52
818.322	14833.88
818.651	14668.68
818.979	14758.62
819.307	14780.54
819.636	14755.69
819.964	14709.36
820.292	14662.81
820.62	14748.68
820.948	14629.36
821.276	14737.15
821.604	14654.9
821.932	14676.37
822.259	14597.72
822.587	14569.02
822.915	14579.64
823.243	14597.95
823.57	14566.31
823.898	14629.81
824.225	14504.84
824.553	14601.79
824.88	14608.12
825.207	14653.77
825.535	14593.43
825.862	14663.94
826.189	14596.82
826.516	14638.85
826.843	14653.54
827.17	14614.9
827.497	14678.4
827.824	14645.86
828.151	14617.16
828.478	14629.59
828.805	14680.66
829.131	14613.99
829.458	14661.22
829.785	14513.21
830.111	14647.89
830.438	14635.91
830.764	14655.58
831.09	14632.52
831.417	14594.11
831.743	14571.74
832.069	14711.62
832.395	14547.33
832.722	14568.12
833.048	14509.36
833.374	14482.02
833.7	14476.37
834.026	14513.21
834.351	14518.18
834.677	14544.62
835.003	14519.08
835.329	14403.83
835.654	14483.83
835.98	14398.41
836.306	14476.14
836.631	14302.59
836.956	14417.62
837.282	14289.93
837.607	14372.64
837.932	14248.81
838.258	14274.12
838.583	14275.25
838.908	14269.37
839.233	14215.36
839.558	14175.36
839.883	14151.63
840.208	14120.67
840.533	14126.1
840.858	14156.15
841.182	14075.03
841.507	14051.75
841.832	13971.3
842.156	13982.6
842.481	13982.6
842.805	13940.34
843.13	13909.38
843.454	13849.27
843.778	13847.01
844.103	13765.88
844.427	13744.86
844.751	13776.95
845.075	13764.98
845.399	13726.33
845.723	13632.1
846.047	13659.67
846.371	13538.77
846.695	13551.88
847.019	13469.39
847.343	13355.5
847.666	13271.66
847.99	13265.33
848.313	13291.09
848.637	13090.64
848.96	13251.77
849.284	13154.82
849.607	12949.86
849.931	12965
850.254	12987.37
850.577	12862.63
850.9	12689.75
851.223	12747.15
851.546	12693.59
851.869	12609.98
852.192	12625.35
852.515	12548.06
852.838	12480.49
853.161	12492.47
853.483	12377.67
853.806	12342.19
854.129	12334.28
854.451	12314.62
854.774	12256.54
855.096	12169.09
855.419	12167.28
855.741	12125.25
856.063	12112.82
856.385	12066.04
856.708	11991.92
857.03	11941.3
857.352	11960.73
857.674	11951.01
857.996	11854.29
858.318	11828.76
858.64	11810.45
858.961	11771.36
859.283	11686.84
859.605	11629.67
859.926	11716.67
860.248	11701.53
860.57	11621.08
860.891	11683.45
861.212	11603.9
861.534	11510.12
861.855	11400.75
862.176	11434.19
862.498	11491.36
862.819	11410.24
863.14	11430.58
863.461	11378.37
863.782	11312.39
864.103	11431.93
864.424	11324.59
864.745	11350.13
865.065	11250.24
865.386	11249.56
865.707	11278.04
866.027	11261.09
866.348	11255.44
866.668	11184.48
866.989	11142
867.309	11038.72
867.63	11080.08
867.95	11061.32
868.27	10959.85
868.59	11019.29
868.91	11027.87
869.23	10973.19
869.55	10977.25
869.87	11047.08
870.19	10991.04
870.51	10990.13
870.83	10980.42
871.15	10872.62
871.469	10955.79
871.789	10878.73
872.109	10844.6
872.428	10775
872.748	10861.1
873.067	10787.2
873.386	10845.51
873.706	10843.25
874.025	10748.56
874.344	10703.81
874.663	10778.61
874.982	10706.07
875.301	10705.17
875.62	10729.58
875.939	10717.15
876.258	10655.91
876.577	10628.11
876.896	10636.92
877.214	10565.97
877.533	10549.24
877.852	10507.66
878.17	10583.82
878.489	10585.17
878.807	10554.89
879.125	10521.9
879.444	10520.09
879.762	10427.89
880.08	10474.89
880.398	10436.48
880.716	10367.55
881.034	10401
881.352	10351.28
881.67	10357.38
881.988	10267.44
882.306	10275.13
882.624	10297.05
882.941	10217.05
883.259	10166.2
883.577	10155.13
883.894	10186.31
884.212	10148.57
884.529	10209.82
884.846	10137.28
885.164	10117.62
885.481	10001.46
885.798	9985.64
886.115	9964.17
886.432	9992.19
886.75	9949.26
887.067	9943.83
887.383	9906.32
887.7	9855.48
888.017	9907.45
888.334	9890.28
888.651	9807.12
888.967	9848.7
889.284	9669.72
889.6	9736.16
889.917	9658.87
890.233	9671.3
890.55	9583.17
890.866	9637.85
891.182	9559.21
891.498	9548.82
891.815	9533.22
892.131	9537.29
892.447	9488.71
892.763	9436.96
893.079	9384.53
893.395	9377.3
893.71	9349.73
894.026	9317.41
894.342	9355.38
894.657	9234.47
894.973	9242.61
895.289	9240.35
895.604	9255.04
895.92	9199.45
896.235	9134.36
896.55	9109.05
896.865	9102.73
897.181	9031.09
897.496	8956.06
897.811	9009.4
898.126	8967.59
898.441	8923.75
898.756	8864.31
899.071	8780.7
899.386	8822.96
899.7	8783.64
900.015	8743.87
900.33	8642.85
900.644	8620.03
900.959	8716.07
901.273	8617.09
901.588	8566.24
901.902	8531.22
902.216	8520.82
902.531	8466.13
902.845	8508.62
903.159	8423.2
903.473	8394.95
903.787	8325.8
904.101	8345.91
904.415	8314.27
904.729	8335.52
905.042	8225.69
905.356	8187.72
905.67	8214.61
905.984	8202.64
906.297	8162.64
906.611	8094.17
906.924	8068.4
907.237	8005.13
907.551	8057.78
907.864	7935.98
908.177	8024.79
908.491	7900.05
908.804	7894.17
909.117	7792.93
909.43	7776.43
909.743	7759.49
910.056	7745.02
910.368	7669.32
910.681	7672.48
910.994	7649.66
911.307	7630.45
911.619	7590.68
911.932	7587.74
912.244	7446.27
912.557	7473.62
912.869	7443.56
913.181	7431.58
913.494	7447.86
913.806	7373.51
914.118	7338.48
914.43	7286.96
914.742	7302.1
915.054	7281.98
915.366	7246.5
915.678	7168.54
915.99	7094.19
916.302	7105.27
916.613	7060.75
916.925	7073.85
917.236	7004.7
917.548	7019.39
917.859	6986.17
918.171	6916.12
918.482	6903.01
918.794	6907.98
919.105	6840.41
919.416	6860.98
919.727	6794.09
920.038	6788.89
920.349	6719.96
920.66	6713.19
920.971	6720.42
921.282	6691.94
921.593	6660.31
921.903	6573.98
922.214	6577.37
922.525	6560.19
922.835	6551.61
923.146	6524.04
923.456	6474.32
923.767	6457.82
924.077	6476.13
924.387	6380.76
924.697	6385.96
925.008	6330.82
925.318	6297.15
925.628	6373.31
925.938	6284.95
926.248	6270.26
926.558	6159.53
926.867	6237.72
927.177	6205.18
927.487	6171.73
927.796	6152.97
928.106	6122.47
928.416	6045.18
928.725	6013.09
929.034	6055.8
929.344	5998.4
929.653	6021
929.962	5930.83
930.271	5839.99
930.581	5891.74
930.89	5835.92
931.199	5861.68
931.508	5772.64
931.817	5809.03
932.125	5780.78
932.434	5764.06
932.743	5731.74
933.051	5751.63
933.36	5708.47
933.669	5667.56
933.977	5632.54
934.286	5630.28
934.594	5602.48
934.902	5558.87
935.21	5523.61
935.519	5478.19
935.827	5469.15
936.135	5442.03
936.443	5434.8
936.751	5390.96
937.059	5416.72
937.367	5367.23
937.674	5397.06
937.982	5379.43
938.29	5316.84
938.597	5313.22
938.905	5246.56
939.213	5201.36
939.52	5172.43
939.827	5160.01
940.135	5204.07
940.442	5127.69
940.749	5148.71
941.056	5129.05
941.363	5076.17
941.67	5050.4
941.977	5040.46
942.284	4984.42
942.591	5029.39
942.898	4999.56
943.205	4982.16
943.511	4900.8
943.818	4954.14
944.125	4867.13
944.431	4893.35
944.738	4845.44
945.044	4821.48
945.35	4828.71
945.657	4753.46
945.963	4737.87
946.269	4709.85
946.575	4777.19
946.881	4673.92
947.187	4680.7
947.493	4648.15
947.799	4580.81
948.105	4641.38
948.41	4607.25
948.716	4608.83
949.022	4591.21
949.327	4562.96
949.633	4496.07
949.938	4513.92
950.244	4506.01
950.549	4494.71
950.854	4438.67
951.16	4456.75
951.465	4415.62
951.77	4406.35
952.075	4386.01
952.38	4404.77
952.685	4350.76
952.99	4324.1
953.294	4299.01
953.599	4278.22
953.904	4256.53
954.209	4228.5
954.513	4230.54
954.818	4213.82
955.122	4207.71
955.426	4233.25
955.731	4150.99
956.035	4151.44
956.339	4164.78
956.643	4072.8
956.948	4085.46
957.252	4104.89
957.556	4110.54
957.86	4048.85
958.163	4012.69
958.467	3987.61
958.771	3982.18
959.075	3986.93
959.378	3950.32
959.682	3962.97
959.985	3929.08
960.289	3965.46
960.592	3872.81
960.896	3908.74
961.199	3831.68
961.502	3852.92
961.805	3805.69
962.108	3780.83
962.411	3787.16
962.714	3800.04
963.017	3735.41
963.32	3732.47
963.623	3740.16
963.926	3702.42
964.228	3656.77
964.531	3675.07
964.833	3671.91
965.136	3621.29
965.438	3630.55
965.741	3610.89
966.043	3592.14
966.345	3591.23
966.648	3610.44
966.95	3538.35
967.252	3524.34
967.554	3539.94
967.856	3488.41
968.158	3440.5
968.46	3519.14
968.761	3452.93
969.063	3426.27
969.365	3410.9
969.666	3431.24
969.968	3414.29
970.269	3422.65
970.571	3374.06
970.872	3345.36
971.174	3343.33
971.475	3308.3
971.776	3273.95
972.077	3267.63
972.378	3253.39
972.679	3304.69
972.98	3246.16
973.281	3207.74
973.582	3214.97
973.883	3243.45
974.183	3194.63
974.484	3189.89
974.785	3156.89
975.085	3145.37
975.386	3139.72
975.686	3127.97
975.986	3111.7
976.287	3119.61
976.587	3066.05
976.887	3079.83
977.187	3053.85
977.487	3032.6
977.787	2997.8
978.087	3016.33
978.387	3012.94
978.687	3009.55
978.987	2972.94
979.286	2944.24
979.586	2952.61
979.885	2948.31
980.185	2933.17
980.484	2889.56
980.784	2895.43
981.083	2903.34
981.382	2867.64
981.682	2864.7
981.981	2863.34
982.28	2830.35
982.579	2849.11
982.878	2834.64
983.177	2765.27
983.475	2786.28
983.774	2762.33
984.073	2739.5
984.372	2706.28
984.67	2726.4
984.969	2781.31
985.267	2692.95
985.566	2701.09
985.864	2697.47
986.162	2678.49
986.461	2657.47
986.759	2659.73
987.057	2588.32
987.355	2630.58
987.653	2591.26
987.951	2606.4
988.249	2602.56
988.547	2595.1
988.844	2575.67
989.142	2525.5
989.44	2556.23
989.737	2545.16
990.035	2517.14
990.332	2497.7
990.63	2535.22
990.927	2479.17
991.224	2475.33
991.521	2441.43
991.819	2468.55
992.116	2479.17
992.413	2412.06
992.71	2414.99
993.006	2415.22
993.303	2415.67
993.6	2400.3
993.897	2386.75
994.193	2358.27
994.49	2367.54
994.787	2327.76
995.083	2343.36
995.379	2319.18
995.676	2337.48
995.972	2299.74
996.268	2307.2
996.565	2292.28
996.861	2234.88
997.157	2274.43
997.453	2240.99
997.749	2253.87
998.044	2190.14
998.34	2230.37
998.636	2195.11
998.932	2172.74
999.227	2206.41
999.523	2173.42
999.818	2127.54
1000.114	2135
1000.409	2098.17
1000.704	2099.97
1001	2068.11
1001.295	2084.83
1001.59	2088.22
1001.885	2108.56
1002.18	2045.06
1002.475	2069.92
1002.77	2084.38
1003.065	2027.66
1003.359	2006.64
1003.654	2001.67
1003.949	2007.09
1004.243	2021.78
1004.538	1960.09
1004.832	1937.94
1005.127	1960.77
1005.421	1947.43
1005.715	1933.2
1006.009	1909.24
1006.304	1882.58
1006.598	1876.7
1006.892	1896.36
1007.186	1873.09
1007.48	1895.68
1007.773	1879.64
1008.067	1837.83
1008.361	1845.29
1008.655	1812.97
1008.948	1815.01
1009.242	1803.71
1009.535	1812.75
1009.829	1776.82
1010.122	1756.48
1010.415	1778.4
1010.708	1736.82
1011.001	1712.19
1011.295	1724.39
1011.588	1721.23
1011.881	1696.82
1012.173	1700.21
1012.466	1674.67
1012.759	1701.57
1013.052	1702.24
1013.344	1647.78
1013.637	1647.56
1013.93	1621.79
1014.222	1634.45
1014.514	1605.97
1014.807	1643.26
1015.099	1610.27
1015.391	1608.01
1015.683	1592.87
1015.976	1603.94
1016.268	1551.06
1016.56	1539.31
1016.851	1531.85
1017.143	1539.76
1017.435	1524.62
1017.727	1512.19
1018.018	1509.03
1018.31	1501.57
1018.602	1488.24
1018.893	1494.79
1019.185	1485.53
1019.476	1457.5
1019.767	1443.95
1020.058	1462.93
1020.35	1436.04
1020.641	1397.39
1020.932	1434.68
1021.223	1406.88
1021.514	1400.56
1021.804	1390.16
1022.095	1375.7
1022.386	1356.94
1022.677	1342.03
1022.967	1360.78
1023.258	1365.76
1023.548	1319.43
1023.839	1312.88
1024.129	1313.33
1024.419	1319.43
1024.709	1292.76
1025	1284.63
1025.29	1279.43
1025.58	1260.9
1025.87	1312.65
1026.16	1277.17
1026.449	1263.84
1026.739	1244.18
1027.029	1252.09
1027.319	1217.06
1027.608	1248.7
1027.898	1224.06
1028.187	1215.7
1028.477	1203.27
1028.766	1204.86
1029.055	1185.42
1029.344	1171.18
1029.634	1187.23
1029.923	1169.38
1030.212	1154.91
1030.501	1137.74
1030.79	1136.38
1031.078	1124.86
1031.367	1125.76
1031.656	1113.56
1031.945	1104.52
1032.233	1116.04
1032.522	1096.16
1032.81	1091.41
1033.099	1090.96
1033.387	1092.77
1033.675	1087.8
1033.963	1073.56
1034.251	1063.16
1034.54	1047.35
1034.828	1048.93
1035.116	1060.23
1035.403	1004.86
1035.691	1016.61
1035.979	1010.28
1036.267	1007.35
1036.554	1022.49
1036.842	987.91
1037.129	983.62
1037.417	983.84
1037.704	987.01
1037.992	977.97
1038.279	975.48
1038.566	948.14
1038.853	948.14
1039.14	948.14
