Data from hue_36_FLMS001491_00051.txt Node
Date: Tue Feb 07 17:29:59 GMT 2017
User: dcchb
Spectrometer: FLMS00149
Trigger mode: 0
Integration Time (sec): 2.000000E-2
Scans to average: 10
Electric dark correction enabled: true
Nonlinearity correction enabled: false
Boxcar width: 0
XAxis mode: Wavelengths
Number of Pixels in Spectrum: 2048
>>>>>Begin Spectral Data<<<<<
341.393	-26.58
341.776	-26.58
342.16	-26.58
342.543	-41.95
342.927	-79.01
343.31	-75.39
343.693	-79.24
344.077	-62.29
344.46	-52.57
344.843	-58.9
345.226	-34.49
345.61	-31.55
345.993	-1.72
346.376	-7.15
346.759	13.64
347.142	36.02
347.525	35.34
347.908	59.29
348.291	72.17
348.674	87.54
349.057	99.29
349.44	127.54
349.823	154.66
350.206	162.79
350.588	202.34
350.971	191.94
351.354	240.08
351.737	225.84
352.119	246.41
352.502	249.34
352.884	287.53
353.267	281.89
353.65	296.57
354.032	288.89
354.414	303.81
354.797	298.83
355.179	325.73
355.562	326.4
355.944	354.65
356.326	309
356.709	346.06
357.091	312.84
357.473	359.4
357.855	349.91
358.238	334.54
358.62	340.87
359.002	347.19
359.384	325.95
359.766	342
360.148	341.54
360.53	343.58
360.912	353.07
361.294	328.21
361.676	314.65
362.057	335.44
362.439	327.53
362.821	339.96
363.203	332.96
363.584	326.4
363.966	318.49
364.348	325.05
364.729	323.92
365.111	307.87
365.493	306.07
365.874	338.15
366.256	312.39
366.637	318.04
367.019	307.65
367.4	326.18
367.781	292.28
368.163	321.43
368.544	314.65
368.925	318.49
369.306	305.61
369.688	302.9
370.069	328.44
370.45	300.42
370.831	316.01
371.212	314.88
371.593	345.84
371.974	326.4
372.355	320.53
372.736	308.33
373.117	311.04
373.498	313.3
373.879	314.88
374.26	303.81
374.641	333.41
375.021	305.16
375.402	320.08
375.783	316.91
376.163	336.12
376.544	340.87
376.925	320.98
377.305	327.08
377.686	324.37
378.066	318.95
378.447	342.9
378.827	342.67
379.208	325.27
379.588	349.68
379.968	333.64
380.349	335.22
380.729	345.39
381.109	333.86
381.489	360.08
381.87	342
382.25	333.64
382.63	351.04
383.01	344.48
383.39	348.55
383.77	313.07
384.15	325.5
384.53	325.5
384.91	332.51
385.29	357.82
385.67	348.78
386.049	363.92
386.429	316.91
386.809	365.5
387.189	351.26
387.568	320.3
387.948	344.26
388.328	368.21
388.707	349.68
389.087	349.91
389.466	356.23
389.846	351.49
390.225	349.45
390.605	362.11
390.984	359.62
391.363	355.78
391.743	355.1
392.122	360.98
392.501	374.99
392.881	370.47
393.26	370.47
393.639	372.5
394.018	379.28
394.397	392.39
394.776	373.86
395.155	357.82
395.534	385.39
395.913	367.08
396.292	372.73
396.671	382
397.05	375.44
397.429	395.1
397.808	372.96
398.186	393.52
398.565	383.58
398.944	373.18
399.323	375.44
399.701	390.36
400.08	383.35
400.458	370.02
400.837	393.29
401.215	390.36
401.594	406.63
401.972	373.86
402.351	418.15
402.729	381.54
403.107	404.82
403.486	400.53
403.864	389.23
404.242	421.09
404.62	426.51
404.999	390.13
405.377	405.95
405.755	402.33
406.133	413.86
406.511	409.79
406.889	428.1
407.267	403.24
407.645	411.15
408.023	417.47
408.401	410.47
408.779	422.9
409.156	438.04
409.534	450.24
409.912	428.32
410.29	425.61
410.667	441.2
411.045	447.08
411.422	445.27
411.8	443.69
412.178	428.77
412.555	452.28
412.933	452.5
413.31	464.03
413.687	448.43
414.065	465.16
414.442	459.28
414.819	448.89
415.197	466.29
415.574	473.74
415.951	486.63
416.328	468.77
416.705	479.39
417.082	472.16
417.46	491.82
417.837	481.2
418.214	499.28
418.591	470.58
418.967	505.16
419.344	484.59
419.721	488.66
420.098	480.07
420.475	502.67
420.852	507.64
421.228	488.21
421.605	533.18
421.982	494.99
422.358	531.82
422.735	518.94
423.111	529.56
423.488	538.38
423.864	535.44
424.241	519.39
424.617	534.31
424.994	539.73
425.37	525.49
425.746	540.41
426.123	542.67
426.499	550.8
426.875	545.38
427.251	540.41
427.627	551.48
428.003	557.13
428.379	560.97
428.756	584.7
429.132	560.3
429.507	586.51
429.883	577.7
430.259	577.92
430.635	574.08
431.011	582.22
431.387	593.97
431.763	602.55
432.138	594.87
432.514	613.85
432.89	614.08
433.265	604.81
433.641	602.55
434.016	631.03
434.392	629.22
434.767	635.32
435.143	646.62
435.518	638.49
435.894	638.71
436.269	653.85
436.644	663.57
437.02	657.24
437.395	661.99
437.77	672.61
438.145	673.97
438.52	691.82
438.895	684.36
439.271	656.56
439.646	696.11
440.021	703.57
440.395	695.89
440.77	708.54
441.145	705.6
441.52	710.35
441.895	700.86
442.27	715.55
442.645	703.57
443.019	718.71
443.394	709.67
443.769	710.12
444.143	739.5
444.518	744.25
444.892	726.39
445.267	727.07
445.641	744.7
446.016	742.89
446.39	746.05
446.764	733.85
447.139	767.3
447.513	778.37
447.887	748.09
448.262	752.16
448.636	777.69
449.01	768.88
449.384	781.99
449.758	797.13
450.132	800.74
450.506	797.13
450.88	811.14
451.254	797.8
451.628	824.24
452.002	828.54
452.376	817.46
452.75	811.81
453.123	829.67
453.497	832.15
453.871	838.71
454.244	871.47
454.618	855.88
454.992	843.23
455.365	873.96
455.739	898.14
456.112	908.54
456.486	931.59
456.859	913.06
457.232	909.21
457.606	925.48
457.979	938.59
458.352	956.9
458.725	984.47
459.099	982.43
459.472	986.27
459.845	963.45
460.218	971.81
460.591	1014.75
460.964	1010.23
461.337	998.02
461.71	1021.07
462.083	1054.07
462.456	1058.59
462.829	1070.34
463.201	1062.43
463.574	1072.6
463.947	1083.45
464.32	1105.14
464.692	1135.42
465.065	1136.1
465.438	1131.81
465.81	1135.87
466.183	1176.1
466.555	1188.75
466.928	1191.92
467.3	1217.45
467.672	1245.93
468.045	1262.42
468.417	1275.53
468.789	1285.25
469.161	1321.18
469.534	1315.98
469.906	1327.28
470.278	1352.59
470.65	1393.72
471.022	1385.13
471.394	1445.47
471.766	1431.69
472.138	1481.4
472.51	1526.37
472.882	1543.32
473.253	1550.78
473.625	1594.85
473.997	1611.57
474.369	1643.43
474.74	1691.57
475.112	1721.4
475.484	1765.46
475.855	1799.36
476.227	1827.16
476.598	1888.85
476.97	1932.46
477.341	1916.19
477.713	2020.82
478.084	2029.64
478.455	2098.11
478.827	2138.56
479.198	2204.09
479.569	2254.94
479.94	2288.61
480.311	2345.11
480.682	2415.16
481.053	2492.45
481.424	2581.26
481.795	2594.82
482.166	2708.04
482.537	2744.65
482.908	2793.01
483.279	2892.89
483.65	2959.33
484.021	3061.25
484.391	3150.96
484.762	3196.61
485.133	3233.9
485.503	3336.72
485.874	3395.93
486.244	3494
486.615	3607.67
486.985	3701.68
487.356	3787.78
487.726	3832.98
488.097	3963.14
488.467	4041.33
488.837	4139.18
489.207	4249.69
489.578	4324.49
489.948	4435.22
490.318	4519.97
490.688	4591.15
491.058	4668.89
491.428	4833.18
491.798	4930.35
492.168	5028.65
492.538	5117.01
492.908	5246.73
493.278	5324.92
493.648	5392.71
494.017	5493.05
494.387	5546.15
494.757	5599.49
495.126	5759.93
495.496	5865.92
495.866	5956.99
496.235	6022.07
496.605	6144.33
496.974	6187.94
497.344	6277.21
497.713	6370.99
498.082	6488.73
498.452	6605.33
498.821	6649.18
499.19	6701.15
499.559	6807.82
499.928	6893.46
500.298	6954.25
500.667	7057.75
501.036	7145.43
501.405	7246
501.774	7247.58
502.143	7368.25
502.512	7355.82
502.88	7521.24
503.249	7595.82
503.618	7603.5
503.987	7703.61
504.356	7774.57
504.724	7849.6
505.093	7902.48
505.462	7976.37
505.83	8052.75
506.199	8145.41
506.567	8238.74
506.936	8296.36
507.304	8391.5
507.672	8377.04
508.041	8534.1
508.409	8646.41
508.777	8628.78
509.145	8770.48
509.514	8800.31
509.882	8826.29
510.25	8819.06
510.618	8924.37
510.986	8951.71
511.354	9081.88
511.722	9154.87
512.09	9300.63
512.458	9197.58
512.826	9332.27
513.193	9448.65
513.561	9415.43
513.929	9502.66
514.297	9647.74
514.664	9681.64
515.032	9735.65
515.4	9826.27
515.767	9765.03
516.135	9952.59
516.502	9842.31
516.869	10080.5
517.237	10046.6
517.604	10104.68
517.972	10185.81
518.339	10254.73
518.706	10306.25
519.073	10360.94
519.44	10390.77
519.808	10467.83
520.175	10418.57
520.542	10658.56
520.909	10684.55
521.276	10706.24
521.643	10829.86
522.009	10851.1
522.376	10920.48
522.743	11012.9
523.11	11031.66
523.477	11250.64
523.843	11190.75
524.21	11337.87
524.577	11435.26
524.943	11496.51
525.31	11599.1
525.676	11610.63
526.043	11695.37
526.409	11762.49
526.776	11860.79
527.142	11881.81
527.508	11993.22
527.874	12080.22
528.241	12141.69
528.607	12155.7
528.973	12318.4
529.339	12318.4
529.705	12348.46
530.071	12509.59
530.437	12468.23
530.803	12578.96
531.169	12719.3
531.535	12657.38
531.901	12710.26
532.267	12688.11
532.632	12873.87
532.998	12985.05
533.364	13061.21
533.73	13052.17
534.095	13153.41
534.461	13197.03
534.826	13318.6
535.192	13347.98
535.557	13384.14
535.923	13446.51
536.288	13432.27
536.653	13505.27
537.019	13510.01
537.384	13599.5
537.749	13611.93
538.114	13652.83
538.479	13681.53
538.845	13828.2
539.21	13698.93
539.575	13872.26
539.94	13897.57
540.305	14088.53
540.67	14039.72
541.034	14079.49
541.399	14161.97
541.764	14188.19
542.129	14223.89
542.494	14342.76
542.858	14388.41
543.223	14403.77
543.587	14536.43
543.952	14511.57
544.316	14550.66
544.681	14625.01
545.045	14683.54
545.41	14659.81
545.774	14774.16
546.138	14827.94
546.503	14888.73
546.867	14887.38
547.231	14973.02
547.595	15045.79
547.959	15090.76
548.324	15181.83
548.688	15108.84
549.052	15251.21
549.416	15302.28
549.779	15193.36
550.143	15340.7
550.507	15416.4
550.871	15500.92
551.235	15528.04
551.599	15606.91
551.962	15616.4
552.326	15656.4
552.689	15911.76
553.053	15777.3
553.417	15793.57
553.78	16100.68
554.143	15966.67
554.507	16064.75
554.87	16074.24
555.234	16236.27
555.597	16024.52
555.96	16294.57
556.323	16340.67
556.686	16356.26
557.05	16423.38
557.413	16393.78
557.776	16532.31
558.139	16582.93
558.502	16635.58
558.865	16693.88
559.228	16769.36
559.59	16816.82
559.953	16955.12
560.316	17080.09
560.679	17111.05
561.041	17223.36
561.404	17172.51
561.767	17341.32
562.129	17283.02
562.492	17419.06
562.854	17342.45
563.217	17395.33
563.579	17537.02
563.941	17556.23
564.304	17739.96
564.666	17738.15
565.028	17722.33
565.39	17801.2
565.753	17935.88
566.115	18018.37
566.477	18084.36
566.839	18114.41
567.201	18110.79
567.563	18294.07
567.925	18440.05
568.287	18475.53
568.648	18490.22
569.01	18568.64
569.372	18691.12
569.734	18636.88
570.095	18793.04
570.457	18864.22
570.819	18930.66
571.18	18918.46
571.542	19066.02
571.903	19039.36
572.265	19202.74
572.626	19282.52
572.987	19284.1
573.349	19433.25
573.71	19551.66
574.071	19532
574.432	19645.22
574.794	19987.13
575.155	19901.48
575.516	19880.92
575.877	20033
576.238	20140.8
576.599	20363.62
576.96	20401.81
577.32	20471.18
577.681	20576.72
578.042	20650.84
578.403	20755.02
578.763	20854.45
579.124	21084.73
579.485	21166.99
579.845	21409.24
580.206	21438.39
580.566	21651.72
580.927	21668.67
581.287	21852.84
581.648	21995.44
582.008	22146.4
582.368	22340.97
582.728	22537.8
583.089	22620.51
583.449	22771.46
583.809	22935.98
584.169	23185.01
584.529	23314.95
584.889	23676.98
585.249	23621.38
585.609	23825.9
585.969	24114.03
586.329	24339.11
586.688	24541.81
587.048	24636.95
587.408	24870.84
587.768	25144.73
588.127	25204.39
588.487	25337.27
588.846	25741.1
589.206	25752.85
589.565	26059.06
589.925	26306.96
590.284	26338.6
590.643	26777.91
591.003	27054.51
591.362	27172.25
591.721	27319.37
592.08	27604.1
592.44	27871.44
592.799	28027.37
593.158	28186.01
593.517	28418.77
593.876	28619.22
594.235	28713.68
594.593	29112.31
594.952	29324.29
595.311	29560.89
595.67	29727.44
596.029	30039.07
596.387	30270.25
596.746	30418.27
597.104	30559.28
597.463	30796.79
597.822	31067.06
598.18	31199.49
598.538	31370.56
598.897	31824.56
599.255	31611.46
599.613	32305.9
599.972	32204.21
600.33	32347.03
600.688	32488.72
601.046	32873.8
601.404	32973.46
601.762	32984.98
602.12	33318.08
602.478	33635.36
602.836	33798.74
603.194	33745.64
603.552	33913.09
603.91	34101.79
604.268	34344.94
604.625	34369.35
604.983	34714.88
605.341	34654.31
605.698	34833.97
606.056	35139.95
606.413	35203.23
606.771	35497.68
607.128	35652.03
607.485	35630.33
607.843	35493.16
608.2	36052.92
608.557	36212.01
608.914	36145.12
609.272	36507.37
609.629	36584.21
609.986	36873.92
610.343	36777.87
610.7	37207.69
611.057	37214.7
611.414	37256.96
611.771	37405.2
612.127	37612.43
612.484	37641.58
612.841	37756.38
613.198	37861.24
613.554	37935.13
613.911	38355.23
614.267	38249.02
614.624	38487.66
614.98	38618.05
615.337	38707.09
615.693	38801.1
616.05	38878.38
616.406	39157.7
616.762	39136.68
617.118	39106.85
617.475	39239.28
617.831	39358.15
618.187	39404.25
618.543	39507.29
618.899	39645.82
619.255	39810.34
619.611	39751.58
619.967	39973.05
620.323	40020.95
620.678	40058.01
621.034	39989.09
621.39	39959.26
621.746	40036.32
622.101	40631.56
622.457	40225.92
622.812	40336.2
623.168	40556.31
623.523	40542.3
623.879	40719.69
624.234	40515.86
624.589	40678.79
624.945	40805.34
625.3	40794.94
625.655	40975.5
626.01	40884.66
626.365	41064.99
626.72	40977.99
627.075	41005.11
627.43	41033.13
627.785	41048.27
628.14	41108.38
628.495	41112
628.85	40975.28
629.205	41128.49
629.559	41349.73
629.914	41107.7
630.269	41256.18
630.623	41156.06
630.978	41113.58
631.332	41368.71
631.687	41290.75
632.041	41279.9
632.396	41357.42
632.75	41190.87
633.104	41333.24
633.459	41228.38
633.813	41218.44
634.167	41200.36
634.521	41096.86
634.875	41355.83
635.229	41344.53
635.583	41209.85
635.937	41166.01
636.291	41277.19
636.645	41261.82
636.999	41246.91
637.352	41336.62
637.706	41161.26
638.06	41166.01
638.413	41250.98
638.767	41054.15
639.121	41092.56
639.474	40899.12
639.828	40999.46
640.181	41079
640.534	41054.6
640.888	40808.73
641.241	40714.04
641.594	40741.39
641.947	40935.28
642.301	40948.84
642.654	41050.08
643.007	40905
643.36	40873.81
643.713	40841.27
644.066	41053.69
644.419	40822.29
644.771	40397.44
645.124	40117.9
645.477	39953.84
645.83	39890.79
646.182	39783.45
646.535	39665.71
646.888	39819.6
647.24	39623
647.593	39692.37
647.945	39702.32
648.298	39602.89
648.65	39521.53
649.002	39408.31
649.355	39614.18
649.707	39494.87
650.059	39498.26
650.411	40113.15
650.763	40084.68
651.115	40596.76
651.467	40406.93
651.819	40310.21
652.171	40329.19
652.523	40265.92
652.875	40105.24
653.227	40187.5
653.578	40351.79
653.93	40254.62
654.282	40196.09
654.633	40064.12
654.985	40067.96
655.337	40123.55
655.688	40112.93
656.039	40338.46
656.391	39981.63
656.742	40066.83
657.094	39999.26
657.445	40274.96
657.796	40089.65
658.147	40082.87
658.498	39881.75
658.849	40234.51
659.2	40138.01
659.551	39924.23
659.902	40088.75
660.253	39982.54
660.604	40193.38
660.955	39872.93
661.306	40081.06
661.656	39969.2
662.007	39952.25
662.358	39923.1
662.708	39881.75
663.059	39869.77
663.409	39671.58
663.76	40086.71
664.11	39824.35
664.461	39872.26
664.811	39928.53
665.161	39996.55
665.511	39841.3
665.862	39992.93
666.212	39884.46
666.562	39931.69
666.912	39776.89
667.262	39733.5
667.612	39815.99
667.962	39826.16
668.312	39788.87
668.662	40035.19
669.011	39813.95
669.361	39944.57
669.711	39786.61
670.06	39853.95
670.41	39614.86
670.76	39551.14
671.109	39716.1
671.459	39704.8
671.808	39572.38
672.157	39603.79
672.507	39537.8
672.856	39401.76
673.205	39638.82
673.554	39694.41
673.904	39517.46
674.253	39718.59
674.602	39530.12
674.951	39149.56
675.3	38901.43
675.649	39534.64
675.998	39382.55
676.346	39429.78
676.695	39684.24
677.044	39343.23
677.393	39309.56
677.741	39437.24
678.09	39402.44
678.438	39320.86
678.787	39337.58
679.135	39251.26
679.484	39060.53
679.832	39351.82
680.181	39110.92
680.529	39189.56
680.877	38953.64
681.225	38973.52
681.573	39165.83
681.922	38895.79
682.27	38772.85
682.618	38910.93
682.966	38649.69
683.314	38875.22
683.661	38630.93
684.009	38548.9
684.357	38439.98
684.705	38325.63
685.053	38494.67
685.4	38357.04
685.748	38195.01
686.095	38232.53
686.443	38127.9
686.79	38244.95
687.138	38124.96
687.485	38079.99
687.832	38040.67
688.18	38115.24
688.527	37832.54
688.874	37899.43
689.221	37729.71
689.568	37680.68
689.915	37583.96
690.262	37638.64
690.609	37379.89
690.956	37393.9
691.303	37470.29
691.65	37109.84
691.997	37157.3
692.344	36925.22
692.69	37032.11
693.037	36911.2
693.383	36655.17
693.73	36869.85
694.077	36509.18
694.423	36594.38
694.769	36383.53
695.116	36344.21
695.462	36348.28
695.808	36325.91
696.155	36324.1
696.501	35910.55
696.847	36180.15
697.193	35707.39
697.539	35933.83
697.885	35680.5
698.231	35478.93
698.577	35645.25
698.923	35653.84
699.269	35360.96
699.614	35061.31
699.96	35064.25
700.306	35226.96
700.651	34963.69
700.997	34828.1
701.342	34880.3
701.688	34788.32
702.033	34676.69
702.379	34680.08
702.724	34540.87
703.069	34657.7
703.415	34182.69
703.76	34348.56
704.105	34252.29
704.45	34168.68
704.795	34082.8
705.14	33919.19
705.485	33960.77
705.83	33753.32
706.175	33843.26
706.52	33779.76
706.865	33609.82
707.209	33547.9
707.554	33491.63
707.899	33517.85
708.243	33407.34
708.588	33338.42
708.932	33124.86
709.277	33073.34
709.621	33052.55
709.966	32770.07
710.31	32867.47
710.654	32690.98
710.998	32727.81
711.342	32704.76
711.687	32620.47
712.031	32474.03
712.375	32441.04
712.719	32503.41
713.063	32306.35
713.407	32440.14
713.75	32207.83
714.094	32237.88
714.438	32014.61
714.782	32143.87
715.125	31905.69
715.469	32035.85
715.812	31827.27
716.156	31714.28
716.499	31620.95
716.843	31766.71
717.186	31588.86
717.53	31738.23
717.873	31652.13
718.216	31567.84
718.559	31444.23
718.902	31293.95
719.246	31339.6
719.589	31188.87
719.932	31124.69
720.275	31136.67
720.617	31055.31
720.96	30970.34
721.303	30921.98
721.646	31017.57
721.989	30793.85
722.331	30851.25
722.674	30797.24
723.016	30845.6
723.359	30749.56
723.701	30818.71
724.044	30655.78
724.386	30417.14
724.729	30575.1
725.071	30589.11
725.413	30419.17
725.755	30393.86
726.097	30287.65
726.439	30101.89
726.782	30148.67
727.124	30227.76
727.465	30182.79
727.807	30053.76
728.149	30061.22
728.491	29936.92
728.833	29970.6
729.175	29823.93
729.516	29729.92
729.858	29779.64
730.199	29817.61
730.541	29696.03
730.882	29605.41
731.224	29741.22
731.565	29480.21
731.906	29653.54
732.248	29542.13
732.589	29353.44
732.93	29384.17
733.271	29316.15
733.612	29442.25
733.953	29406.09
734.294	29192.99
734.635	29221.01
734.976	29253.33
735.317	29054.01
735.658	29044.74
735.999	28988.48
736.339	28980.79
736.68	29170.62
737.021	29024.63
737.361	28737.41
737.702	29006.1
738.042	28848.37
738.383	28713
738.723	28788.71
739.063	28698.99
739.404	28776.73
739.744	28686.79
740.084	28489.28
740.424	28729.5
740.764	28559.11
741.104	28592.33
741.444	28467.58
741.784	28302.62
742.124	28408.38
742.464	28303.3
742.804	28338.77
743.143	28263.07
743.483	28227.82
743.823	28117.54
744.162	28171.55
744.502	28009.52
744.841	28008.39
745.181	28141.49
745.52	28009.97
745.86	27978.78
746.199	28006.81
746.538	27881.84
746.877	27953.93
747.216	27867.83
747.556	27787.6
747.895	27735.85
748.234	27598.46
748.573	27628.96
748.911	27579.92
749.25	27628.28
749.589	27356.88
749.928	27531.11
750.267	27444.11
750.605	27405.47
750.944	27321.63
751.283	27293.83
751.621	27297.45
751.96	27086.6
752.298	27163.21
752.636	27141.52
752.975	27062.65
753.313	26984.23
753.651	26974.06
753.989	26927.29
754.327	26787.85
754.666	26639.38
755.004	26873.05
755.342	26761.41
755.679	26763.9
756.017	26474.19
756.355	26573.17
756.693	26465.6
757.031	26569.1
757.368	26452.5
757.706	26339.28
758.044	26315.78
758.381	26421.99
758.719	26194.65
759.056	26116.23
759.394	26010.93
759.731	25896.58
760.068	25900.65
760.405	25821.55
760.743	25603.25
761.08	25766.19
761.417	25577.72
761.754	25640.09
762.091	25520.77
762.428	25464.5
762.765	25348.57
763.102	25513.09
763.438	25235.58
763.775	25060.67
764.112	24984.51
764.449	25027.45
764.785	24911.29
765.122	24771.41
765.458	24885.76
765.795	24706.78
766.131	24529.38
766.467	24543.62
766.804	24445.54
767.14	24273.34
767.476	24307.47
767.812	24189.05
768.148	24277.19
768.485	24074.03
768.821	23914.94
769.157	23914.48
769.492	23901.15
769.828	23827.71
770.164	23604.21
770.5	23572.57
770.836	23662.74
771.171	23494.83
771.507	23415.51
771.842	23267.72
772.178	23304.78
772.513	23120.83
772.849	23164.22
773.184	23013.26
773.519	23017.33
773.855	22800.62
774.19	22768.53
774.525	22705.02
774.86	22695.53
775.195	22685.14
775.53	22609.66
775.865	22332.15
776.2	22281.08
776.535	22112.5
776.87	22154.98
777.205	22056.68
777.539	21947.98
777.874	21956.34
778.209	21761.09
778.543	21713.64
778.878	21636.13
779.212	21592.06
779.547	21488.33
779.881	21570.37
780.215	21282.01
780.55	21376.92
780.884	21272.97
781.218	21099.64
781.552	21136.25
781.886	21045.63
782.22	20987.1
782.554	20806.32
782.888	20718.86
783.222	20592.76
783.556	20509.15
783.889	20470.28
784.223	20257.41
784.557	20337.18
784.89	20310.74
785.224	20190.74
785.557	20098.31
785.891	20030.74
786.224	20000.91
786.558	20007.92
786.891	19799.79
787.224	19746.46
787.557	19763.41
787.891	19635.73
788.224	19570.42
788.557	19619.46
788.89	19530.87
789.223	19447.03
789.556	19329.52
789.888	19332.23
790.221	19245.45
790.554	19134.04
790.887	19066.25
791.219	19042.52
791.552	18981.51
791.884	18851.57
792.217	18790.33
792.549	18750.78
792.882	18637.79
793.214	18557.79
793.546	18621.74
793.879	18401.63
794.211	18281.41
794.543	18405.25
794.875	18289.1
795.207	18338.36
795.539	18170.45
795.871	18217.01
796.203	18126.39
796.535	17946.05
796.867	17865.38
797.198	17923.68
797.53	17906.28
797.862	17756.45
798.193	17733.4
798.525	17597.59
798.856	17595.55
799.188	17500.42
799.519	17405.95
799.85	17298.61
800.182	17408.21
800.513	17370.48
800.844	17089.8
801.175	17166.64
801.506	17209.12
801.837	17149.69
802.168	17187.66
802.499	16999.64
802.83	16916.7
803.161	16875.57
803.491	16942.24
803.822	16872.86
804.153	16773.2
804.483	16626.09
804.814	16581.57
805.145	16608.69
805.475	16550.84
805.805	16386.32
806.136	16386.77
806.466	16499.99
806.796	16440.1
807.126	16307.68
807.457	16190.62
807.787	16335.47
808.117	16178.87
808.447	16126.21
808.777	16131.41
809.107	16058.87
809.436	15944.98
809.766	16029.49
810.096	15913.79
810.426	15845.54
810.755	15839.89
811.085	15707.02
811.414	15686.45
811.744	15619.56
812.073	15544.53
812.403	15594.03
812.732	15503.41
813.061	15542.95
813.39	15481.03
813.719	15465.44
814.049	15448.94
814.378	15350.42
814.707	15360.58
815.036	15315.39
815.365	15199.01
815.693	15119.69
816.022	15125.11
816.351	15136.41
816.68	15005.11
817.008	15023.87
817.337	14942.74
817.665	14907.94
817.994	14877.43
818.322	14867.04
818.651	14799.47
818.979	14661.39
819.307	14727.83
819.636	14767.61
819.964	14686.48
820.292	14731.9
820.62	14703.2
820.948	14622.3
821.276	14715.4
821.604	14642.19
821.932	14646.25
822.259	14601.73
822.587	14623.66
822.915	14580.27
823.243	14636.76
823.57	14574.16
823.898	14650.55
824.225	14512.92
824.553	14603.54
824.88	14561.28
825.207	14563.09
825.535	14604.9
825.862	14570.32
826.189	14550.89
826.516	14552.7
826.843	14622.07
827.17	14589.98
827.497	14538.69
827.824	14563.77
828.151	14563.09
828.478	14599.93
828.805	14605.12
829.131	14503.88
829.458	14601.28
829.785	14485.35
830.111	14486.71
830.438	14595.41
830.764	14506.37
831.09	14495.52
831.417	14484.9
831.743	14594.73
832.069	14503.66
832.395	14488.07
832.722	14390.89
833.048	14393.15
833.374	14382.31
833.7	14412.81
834.026	14450.33
834.351	14368.52
834.677	14406.26
835.003	14490.33
835.329	14344.11
835.654	14357.67
835.98	14262.31
836.306	14304.12
836.631	14217.34
836.956	14265.25
837.282	14313.61
837.607	14241.74
837.932	14222.08
838.258	14209.88
838.583	14131.69
838.908	13991.58
839.233	14134.63
839.558	14066.83
839.883	13928.53
840.208	13955.42
840.533	13956.55
840.858	13941.41
841.182	13865.03
841.507	13949.1
841.832	13782.32
842.156	13818.93
842.481	13884.24
842.805	13744.36
843.13	13681.53
843.454	13709.55
843.778	13725.37
844.103	13669.78
844.427	13641.08
844.751	13577.81
845.075	13496.23
845.399	13595.21
845.723	13503.01
846.047	13519.05
846.371	13368.77
846.695	13387.3
847.019	13230.47
847.343	13210.13
847.666	13081.1
847.99	13121.1
848.313	13031.38
848.637	12921.33
848.96	12994.32
849.284	12968.11
849.607	12845.85
849.931	12823.93
850.254	12670.26
850.577	12595.01
850.9	12612.86
851.223	12593.43
851.546	12491.06
851.869	12468.91
852.192	12444.28
852.515	12408.35
852.838	12285.86
853.161	12282.7
853.483	12239.08
853.806	12235.92
854.129	12152.53
854.451	12138.75
854.774	12129.03
855.096	11984.18
855.419	12070.28
855.741	11937.85
856.063	11912.54
856.385	11799.77
856.708	11833.22
857.03	11870.73
857.352	11826.44
857.674	11717.52
857.996	11736.05
858.318	11650.63
858.64	11609.5
858.961	11663.96
859.283	11591.87
859.605	11546.22
859.926	11574.7
860.248	11475.04
860.57	11439.33
860.891	11379.67
861.212	11444.08
861.534	11341.48
861.855	11359.79
862.176	11309.62
862.498	11291.99
862.819	11344.65
863.14	11267.13
863.461	11228.72
863.782	11191.2
864.103	11166.34
864.424	11181.94
864.745	11176.97
865.065	11126.8
865.386	11022.39
865.707	11086.12
866.027	11072.79
866.348	11030.98
866.668	10969.06
866.989	11027.59
867.309	10954.37
867.63	11004.54
867.95	10902.4
868.27	10828.73
868.59	10885.22
868.91	10815.85
869.23	10804.77
869.55	10764.55
869.87	10863.53
870.19	10852.91
870.51	10752.12
870.83	10774.94
871.15	10768.39
871.469	10722.97
871.789	10780.82
872.109	10685
872.428	10701.5
872.748	10709.18
873.067	10611.78
873.386	10642.29
873.706	10626.02
874.025	10547.38
874.344	10545.34
874.663	10567.94
874.982	10569.98
875.301	10517.1
875.62	10502.18
875.939	10422.41
876.258	10436.19
876.577	10376.99
876.896	10415.18
877.214	10376.76
877.533	10345.12
877.852	10376.08
878.17	10385.12
878.489	10337.89
878.807	10316.88
879.125	10308.06
879.444	10289.53
879.762	10266.03
880.08	10329.53
880.398	10210.21
880.716	10257.67
881.034	10165.69
881.352	10171.12
881.67	10122.76
881.988	10190.78
882.306	10085.7
882.624	10036.43
882.941	10037.33
883.259	9995.53
883.577	9987.39
883.894	10009.99
884.212	9964.57
884.529	9871.01
884.846	9847.51
885.164	9944.23
885.481	9826.49
885.798	9878.92
886.115	9824.91
886.432	9864.01
886.75	9844.8
887.067	9759.38
887.383	9730
887.7	9779.26
888.017	9697.46
888.334	9654.52
888.651	9674.86
888.967	9632.37
889.284	9626.27
889.6	9581.53
889.917	9567.74
890.233	9563.22
890.55	9495.88
890.866	9463.34
891.182	9447.52
891.498	9367.97
891.815	9386.5
892.131	9365.94
892.447	9291.14
892.763	9301.08
893.079	9271.48
893.395	9266.96
893.71	9212.5
894.026	9176.57
894.342	9231.48
894.657	9068.09
894.973	9125.95
895.289	9098.38
895.604	9079.39
895.92	8979.06
896.235	8979.74
896.55	9026.29
896.865	8954.65
897.181	8950.81
897.496	8888.44
897.811	8814.99
898.126	8794.66
898.441	8779.29
898.756	8752.17
899.071	8712.62
899.386	8725.05
899.7	8650.48
900.015	8633.3
900.33	8570.25
900.644	8518.05
900.959	8521.22
901.273	8521.44
901.588	8482.57
901.902	8419.98
902.216	8412.07
902.531	8426.3
902.845	8359.86
903.159	8310.83
903.473	8288.23
903.787	8195.8
904.101	8241.9
904.415	8158.29
904.729	8156.48
905.042	8043.72
905.356	8107.89
905.67	8044.84
905.984	8040.55
906.297	8038.07
906.611	7982.47
906.924	7964.62
907.237	7903.61
907.551	7912.87
907.864	7869.03
908.177	7836.94
908.491	7839.88
908.804	7794.91
909.117	7664.74
909.43	7657.74
909.743	7745.64
910.056	7560.79
910.368	7569.6
910.681	7632.2
910.994	7533.45
911.307	7488.25
911.619	7445.99
911.932	7512.2
912.244	7428.14
912.557	7417.52
912.869	7383.62
913.181	7321.02
913.494	7322.6
913.806	7271.53
914.118	7255.49
914.43	7200.57
914.742	7304.3
915.054	7211.65
915.366	7130.74
915.678	7136.39
915.99	7122.38
916.302	6958.32
916.613	7008.04
916.925	7024.76
917.236	6983.63
917.548	6932.56
917.859	6905.21
918.171	6860.7
918.482	6907.25
918.794	6772.56
919.105	6774.82
919.416	6774.82
919.727	6775.95
920.038	6729.17
920.349	6682.17
920.66	6635.62
920.971	6682.17
921.282	6544.77
921.593	6578.44
921.903	6565.11
922.214	6534.15
922.525	6508.39
922.835	6495.73
923.146	6408.5
923.456	6403.76
923.767	6387.94
924.077	6354.95
924.387	6335.96
924.697	6255.29
925.008	6262.74
925.318	6175.06
925.628	6236.3
925.938	6194.05
926.248	6161.5
926.558	6131
926.867	6108.62
927.177	6094.61
927.487	6063.2
927.796	6041.28
928.106	6008.29
928.416	6000.38
928.725	5941.85
929.034	5900.95
929.344	5973.04
929.653	5883.32
929.962	5815.3
930.271	5823.21
930.581	5793.83
930.89	5784.79
931.199	5742.08
931.508	5712.48
931.817	5713.15
932.125	5670.67
932.434	5624.12
932.743	5591.58
933.051	5610.11
933.36	5616.89
933.669	5513.84
933.977	5540.96
934.286	5477.23
934.594	5507.51
934.902	5439.72
935.21	5415.31
935.519	5461.41
935.827	5378.93
936.135	5388.42
936.443	5326.5
936.751	5320.62
937.059	5317.46
937.367	5263.45
937.674	5204.47
937.982	5235.65
938.29	5187.97
938.597	5218.03
938.905	5153.62
939.213	5117.69
939.52	5119.27
939.827	5121.53
940.135	5101.65
940.442	5086.73
940.749	5024.81
941.056	5047.86
941.363	5005.38
941.67	4964.7
941.977	4941.2
942.284	4933.51
942.591	4917.47
942.898	4883.57
943.205	4917.02
943.511	4869.34
943.818	4839.96
944.125	4809.9
944.431	4782.56
944.738	4782.11
945.044	4764.48
945.35	4734.65
945.657	4674.31
945.963	4677.02
946.269	4660.3
946.575	4672.73
946.881	4617.82
947.187	4600.42
947.493	4598.16
947.799	4561.55
948.105	4516.35
948.41	4549.34
948.716	4519.97
949.022	4473.41
949.327	4490.36
949.633	4408.56
949.938	4402.23
950.244	4433.41
950.549	4359.74
950.854	4342.8
951.16	4363.59
951.465	4332.85
951.77	4314.55
952.075	4291.27
952.38	4240.43
952.685	4260.31
952.99	4237.71
953.294	4226.87
953.599	4237.49
953.904	4185.29
954.209	4162.01
954.513	4156.81
954.818	4141.22
955.122	4096.02
955.426	4084.72
955.731	4107.32
956.035	4051.05
956.339	4012.18
956.643	4038.85
956.948	3978.06
957.252	3977.16
957.556	3982.8
957.86	3957.95
958.163	3980.09
958.467	3963.37
958.771	3927.89
959.075	3905.97
959.378	3851.06
959.682	3857.61
959.985	3797.27
960.289	3789.82
960.592	3779.19
960.896	3758.63
961.199	3677.28
961.502	3783.04
961.805	3712.3
962.108	3709.37
962.411	3737.16
962.714	3671.85
963.017	3654.23
963.32	3664.62
963.623	3665.53
963.926	3668.69
964.228	3615.13
964.531	3576.94
964.833	3603.15
965.136	3565.41
965.438	3499.2
965.741	3478.64
966.043	3535.81
966.345	3526.32
966.648	3489.26
966.95	3438.64
967.252	3434.12
967.554	3486.55
967.856	3417.62
968.158	3397.06
968.46	3369.04
968.761	3417.17
969.063	3403.84
969.365	3355.02
969.666	3371.52
969.968	3301.69
970.269	3303.73
970.571	3314.57
970.872	3293.56
971.174	3278.87
971.475	3263.05
971.776	3239.55
972.077	3258.53
972.378	3251.52
972.679	3231.19
972.98	3195.25
973.281	3176.05
973.582	3169.04
973.883	3188.48
974.183	3103.96
974.484	3139.44
974.785	3091.3
975.085	3083.62
975.386	3083.17
975.686	3073.22
975.986	3067.35
976.287	3074.13
976.587	2993.23
976.887	3007.01
977.187	3015.82
977.487	2987.8
977.787	2969.27
978.087	2954.36
978.387	2957.75
978.687	2958.88
978.987	2916.62
979.286	2890.4
979.586	2888.82
979.885	2881.14
980.185	2834.81
980.484	2855.38
980.784	2798.2
981.083	2837.52
981.382	2816.51
981.682	2845.89
981.981	2806.79
982.28	2777.19
982.579	2734.25
982.878	2758.66
983.177	2786.23
983.475	2749.84
983.774	2724.76
984.073	2668.72
984.372	2687.47
984.67	2670.52
984.969	2644.08
985.267	2644.76
985.566	2618.77
985.864	2648.38
986.162	2618.55
986.461	2588.04
986.759	2576.97
987.057	2585.1
987.355	2578.1
987.653	2569.73
987.951	2551.2
988.249	2517.98
988.547	2536.74
988.844	2539.9
989.142	2541.71
989.44	2500.81
989.737	2461.26
990.035	2463.75
990.332	2468.95
990.63	2416.52
990.927	2434.15
991.224	2428.72
991.521	2432.56
991.819	2419.91
992.116	2399.12
992.413	2367.48
992.71	2388.95
993.006	2374.03
993.303	2364.09
993.6	2326.58
993.897	2327.93
994.193	2311.66
994.49	2312.57
994.787	2328.39
995.083	2306.69
995.379	2249.29
995.676	2270.76
995.972	2269.4
996.268	2252.91
996.565	2257.65
996.861	2228.73
997.157	2228.05
997.453	2187.6
997.749	2220.82
998.044	2204.77
998.34	2160.93
998.636	2169.07
998.932	2141.27
999.227	2113.48
999.523	2158.22
999.818	2103.08
1000.114	2080.71
1000.409	2120.93
1000.704	2090.65
1001	2072.12
1001.295	2070.76
1001.59	2040.48
1001.885	2035.96
1002.18	2009.52
1002.475	2016.75
1002.77	2004.78
1003.065	2006.59
1003.359	1968.17
1003.654	1969.52
1003.949	1980.37
1004.243	1942.63
1004.538	1960.71
1004.832	1936.08
1005.127	1917.77
1005.421	1910.09
1005.715	1889.98
1006.009	1880.04
1006.304	1877.1
1006.598	1877.1
1006.892	1843.2
1007.186	1846.36
1007.48	1866.02
1007.773	1801.85
1008.067	1831.22
1008.361	1837.55
1008.655	1765.01
1008.948	1780.38
1009.242	1764.78
1009.535	1787.61
1009.829	1783.99
1010.122	1737.21
1010.415	1770.66
1010.708	1720.72
1011.001	1728.4
1011.295	1720.04
1011.588	1709.19
1011.881	1692.47
1012.173	1679.36
1012.466	1657.44
1012.759	1671.68
1013.052	1647.5
1013.344	1638.01
1013.637	1619.7
1013.93	1617.22
1014.222	1613.6
1014.514	1608.63
1014.807	1593.49
1015.099	1605.47
1015.391	1595.97
1015.683	1588.52
1015.976	1526.15
1016.268	1563.21
1016.56	1518.46
1016.851	1542.64
1017.143	1516.2
1017.435	1509.2
1017.727	1484.11
1018.018	1477.11
1018.31	1492.93
1018.602	1523.89
1018.893	1452.25
1019.185	1445.7
1019.476	1426.94
1019.767	1458.8
1020.058	1426.26
1020.35	1414.96
1020.641	1422.65
1020.932	1371.8
1021.223	1377.68
1021.514	1349.88
1021.804	1397.34
1022.095	1361.63
1022.386	1376.32
1022.677	1351.46
1022.967	1320.05
1023.258	1309.88
1023.548	1325.02
1023.839	1309.88
1024.129	1285.47
1024.419	1307.62
1024.709	1268.53
1025	1287.51
1025.29	1268.98
1025.58	1239.83
1025.87	1271.01
1026.16	1241.63
1026.449	1256.77
1026.739	1244.35
1027.029	1236.89
1027.319	1214.52
1027.608	1232.14
1027.898	1193.95
1028.187	1181.07
1028.477	1181.52
1028.766	1185.59
1029.055	1170.22
1029.344	1172.26
1029.634	1173.61
1029.923	1154.86
1030.212	1147.63
1030.501	1124.35
1030.79	1144.46
1031.078	1103.78
1031.367	1129.55
1031.656	1106.04
1031.945	1109.66
1032.233	1114.18
1032.522	1096.1
1032.81	1061.75
1033.099	1094.07
1033.387	1070.34
1033.675	1069.89
1033.963	1068.76
1034.251	1064.24
1034.54	1041.64
1034.828	1033.05
1035.116	1032.37
1035.403	1014.97
1035.691	998.93
1035.979	1012.94
1036.267	1001.87
1036.554	971.36
1036.842	987.4
1037.129	963
1037.417	964.35
1037.704	983.11
1037.992	954.86
1038.279	934.52
1038.566	955.31
1038.853	955.31
1039.14	955.31
