Data from hue_32_FLMS001491_00070.txt Node
Date: Tue Feb 07 17:23:45 GMT 2017
User: dcchb
Spectrometer: FLMS00149
Trigger mode: 0
Integration Time (sec): 2.000000E-2
Scans to average: 10
Electric dark correction enabled: true
Nonlinearity correction enabled: false
Boxcar width: 0
XAxis mode: Wavelengths
Number of Pixels in Spectrum: 2048
>>>>>Begin Spectral Data<<<<<
341.393	-18.73
341.776	-18.73
342.16	-18.73
342.543	-67.31
342.927	-66.41
343.31	-65.96
343.693	-80.42
344.077	-77.94
344.46	-71.38
344.843	-41.78
345.226	-39.52
345.61	-31.16
345.993	-0.88
346.376	-8.33
346.759	-4.04
347.142	27.37
347.525	55.62
347.908	54.26
348.291	71.21
348.674	87.94
349.057	125
349.44	116.41
349.823	159.8
350.206	160.48
350.588	196.63
350.971	234.6
351.354	226.91
351.737	242.06
352.119	251.55
352.502	275.28
352.884	286.8
353.267	287.48
353.65	304.43
354.032	311.21
354.414	324.54
354.797	337.42
355.179	332
355.562	307.36
355.944	314.6
356.326	334.71
356.709	346.46
357.091	356.63
357.473	351.66
357.855	349.17
358.238	355.05
358.62	344.43
359.002	357.53
359.384	348.49
359.766	333.35
360.148	329.51
360.53	348.04
360.912	333.35
361.294	317.99
361.676	339.91
362.057	309.62
362.439	328.38
362.821	322.96
363.203	338.78
363.584	314.37
363.966	319.79
364.348	320.47
364.729	335.61
365.111	348.49
365.493	306.23
365.874	306.46
366.256	324.77
366.637	309.62
367.019	317.99
367.4	313.24
367.781	314.14
368.163	327.7
368.544	317.53
368.925	311.66
369.306	335.61
369.688	334.48
370.069	310.3
370.45	335.39
370.831	324.77
371.212	314.14
371.593	323.64
371.974	313.01
372.355	314.82
372.736	339.91
373.117	341.94
373.498	325.44
373.879	310.08
374.26	307.36
374.641	310.98
375.021	346.69
375.402	342.62
375.783	330.87
376.163	325.67
376.544	326.35
376.925	333.58
377.305	341.71
377.686	322.28
378.066	328.16
378.447	338.78
378.827	344.43
379.208	326.35
379.588	347.59
379.968	322.05
380.349	336.97
380.729	324.54
381.109	329.29
381.489	348.72
381.87	339
382.25	346.91
382.63	344.88
383.01	355.05
383.39	334.26
383.77	348.72
384.15	344.2
384.53	341.26
384.91	345.56
385.29	343.75
385.67	368.83
386.049	365.44
386.429	370.41
386.809	358.89
387.189	355.5
387.568	343.3
387.948	371.09
388.328	372.9
388.707	367.48
389.087	347.82
389.466	346.91
389.846	359.57
390.225	359.57
390.605	371.77
390.984	370.19
391.363	378.78
391.743	357.76
392.122	375.61
392.501	392.11
392.881	362.5
393.26	365.44
393.639	380.36
394.018	390.75
394.397	383.52
394.776	386.68
395.155	365.89
395.534	401.15
395.913	383.07
396.292	385.33
396.671	386.46
397.05	385.55
397.429	402.28
397.808	390.53
398.186	399.11
398.565	392.56
398.944	391.66
399.323	406.35
399.701	402.28
400.08	390.75
400.458	409.28
400.837	397.31
401.215	420.81
401.594	413.58
401.972	397.98
402.351	401.37
402.729	424.2
403.107	429.17
403.486	422.39
403.864	415.61
404.242	435.95
404.62	411.09
404.999	421.26
405.377	453.35
405.755	440.69
406.133	417.87
406.511	442.28
406.889	461.49
407.267	431.2
407.645	471.2
408.023	434.82
408.401	433.69
408.779	442.5
409.156	478.43
409.534	453.35
409.912	419.9
410.29	456.97
410.667	463.52
411.045	459.23
411.422	453.58
411.8	463.74
412.178	464.87
412.555	475.72
412.933	475.72
413.31	478.66
413.687	487.25
414.065	484.54
414.442	494.93
414.819	522.5
415.197	501.94
415.574	515.72
415.951	510.98
416.328	526.79
416.705	500.81
417.082	514.37
417.46	520.24
417.837	512.56
418.214	522.27
418.591	531.99
418.967	545.1
419.344	526.79
419.721	546.45
420.098	526.57
420.475	528.38
420.852	553.01
421.228	541.93
421.605	544.19
421.982	553.69
422.358	555.04
422.735	548.94
423.111	572.89
423.488	565.44
423.864	566.12
424.241	582.61
424.617	583.29
424.994	576.96
425.37	600.69
425.746	593.46
426.123	590.52
426.499	583.06
426.875	589.17
427.251	576.51
427.627	614.02
428.003	588.71
428.379	594.14
428.756	616.51
429.132	642.72
429.507	648.82
429.883	638.43
430.259	626.9
430.635	625.32
431.011	652.67
431.387	660.8
431.763	672.78
432.138	651.99
432.514	696.06
432.89	646.79
433.265	672.78
433.641	704.42
434.016	698.77
434.392	706.22
434.767	694.02
435.143	705.09
435.518	703.06
435.894	730.4
436.269	754.13
436.644	747.81
437.02	741.25
437.395	749.84
437.77	748.26
438.145	752.1
438.52	747.35
438.895	769.05
439.271	785.54
439.646	781.7
440.021	769.95
440.395	770.18
440.77	756.39
441.145	809.05
441.52	811.08
441.895	833.45
442.27	826.45
442.645	829.16
443.019	800.69
443.394	785.32
443.769	816.05
444.143	812.66
444.518	853.79
444.892	837.75
445.267	832.32
445.641	825.77
446.016	854.92
446.39	835.94
446.764	850.63
447.139	865.32
447.513	848.59
447.887	877.97
448.262	866.22
448.636	876.62
449.01	911.42
449.384	880.01
449.758	899.89
450.132	927.46
450.506	896.73
450.88	926.33
451.254	912.09
451.628	922.72
452.002	938.08
452.376	944.64
452.75	939.66
453.123	944.41
453.497	960
453.871	999.55
454.244	988.25
454.618	1004.97
454.992	1028.02
455.365	1000.45
455.739	1007.23
456.112	1028.25
456.486	1031.19
456.859	1073.22
457.232	1062.37
457.606	1077.06
457.979	1071.64
458.352	1115.03
458.725	1139.66
459.099	1157.96
459.472	1131.07
459.845	1137.17
460.218	1148.25
460.591	1182.6
460.964	1180.56
461.337	1188.02
461.71	1188.92
462.083	1213.1
462.456	1243.16
462.829	1249.71
463.201	1220.11
463.574	1255.81
463.947	1265.76
464.32	1302.14
464.692	1330.84
465.065	1322.25
465.438	1350.95
465.81	1350.05
466.183	1354.12
466.555	1388.47
466.928	1408.8
467.3	1419.43
467.672	1442.25
468.045	1466.66
468.417	1482.93
468.789	1495.36
469.161	1513.43
469.534	1533.32
469.906	1600.21
470.278	1591.62
470.65	1621.45
471.022	1625.75
471.394	1679.08
471.766	1717.72
472.138	1712.07
472.51	1762.69
472.882	1784.16
473.253	1799.98
473.625	1858.74
473.997	1840.43
474.369	1893.31
474.74	1930.6
475.112	1964.95
475.484	2001.33
475.855	2013.76
476.227	2060.31
476.598	2146.86
476.97	2162.68
477.341	2197.94
477.713	2253.53
478.084	2278.16
478.455	2375.78
478.827	2408.78
479.198	2498.49
479.569	2515.67
479.94	2582.79
480.311	2599.51
480.682	2702.56
481.053	2761.76
481.424	2812.61
481.795	2872.72
482.166	2946.39
482.537	3003.34
482.908	3092.6
483.279	3157.91
483.65	3233.62
484.021	3278.81
484.391	3352.03
484.762	3418.02
485.133	3491.01
485.503	3552.03
485.874	3656.66
486.244	3722.42
486.615	3826.37
486.985	3902.3
487.356	3985.01
487.726	4043.31
488.097	4095.51
488.467	4258.9
488.837	4268.39
489.207	4360.37
489.578	4487.59
489.948	4568.5
490.318	4612.34
490.688	4757.64
491.058	4831.54
491.428	4920.8
491.798	4962.16
492.168	5113.79
492.538	5133.45
492.908	5258.42
493.278	5334.58
493.648	5403.73
494.017	5473.1
494.387	5607.34
494.757	5676.49
495.126	5805.98
495.496	5826.54
495.866	5864.51
496.235	5997.61
496.605	6053.88
496.974	6119.42
497.344	6222.46
497.713	6302.91
498.082	6290.26
498.452	6454.55
498.821	6497.03
499.19	6551.49
499.559	6632.62
499.928	6759.62
500.298	6778.61
500.667	6822
501.036	6959.85
501.405	6974.31
501.774	6997.58
502.143	7129.56
502.512	7167.75
502.88	7161.42
503.249	7246.84
503.618	7327.52
503.987	7440.96
504.356	7454.52
504.724	7468.53
505.093	7589.66
505.462	7597.57
505.83	7682.31
506.199	7761.41
506.567	7869.65
506.936	7909.42
507.304	7948.07
507.672	8075.97
508.041	8054.73
508.409	8117.33
508.777	8158.23
509.145	8317.78
509.514	8314.16
509.882	8416.08
510.25	8380.82
510.618	8470.99
510.986	8496.08
511.354	8609.07
511.722	8661.04
512.09	8779.46
512.458	8720.7
512.826	8795.05
513.193	8816.29
513.561	8926.8
513.929	9036.4
514.297	9045.89
514.664	9135.83
515.032	9158.21
515.4	9171.09
515.767	9256.73
516.135	9330.4
516.502	9287.02
516.869	9456.28
517.237	9398.88
517.604	9436.62
517.972	9564.52
518.339	9568.14
518.706	9549.83
519.073	9648.36
519.44	9756.83
519.808	9748.02
520.175	9769.94
520.542	9917.28
520.909	9958.64
521.276	9949.15
521.643	9990.95
522.009	10168.12
522.376	10193.88
522.743	10195.92
523.11	10374.9
523.477	10420.32
523.843	10368.57
524.21	10579.86
524.577	10632.52
524.943	10676.36
525.31	10708.45
525.676	10824.83
526.043	10840.87
526.409	10847.65
526.776	10988.67
527.142	11016.69
527.508	11048.33
527.874	11186.17
528.241	11193.63
528.607	11187.3
528.973	11313.86
529.339	11272.5
529.705	11510.46
530.071	11588.88
530.437	11585.71
530.803	11604.24
531.169	11762.43
531.535	11661.87
531.901	11818.7
532.267	11761.07
532.632	11838.36
532.998	11971.92
533.364	11988.41
533.73	12058.47
534.095	12160.84
534.461	12160.39
534.826	12241.06
535.192	12291.46
535.557	12403.09
535.923	12372.81
536.288	12377.56
536.653	12434.05
537.019	12543.88
537.384	12586.36
537.749	12610.54
538.114	12604.89
538.479	12610.54
538.845	12719.24
539.21	12700.03
539.575	12841.27
539.94	12864.77
540.305	12899.8
540.67	12984.09
541.034	13053.02
541.399	13051.66
541.764	13150.19
542.129	13177.76
542.494	13213.69
542.858	13315.16
543.223	13319.68
543.587	13372.56
543.952	13342.05
544.316	13434.25
544.681	13450.97
545.045	13589.28
545.41	13592.67
545.774	13704.07
546.138	13613
546.503	13762.38
546.867	13735.71
547.231	13895.71
547.595	13873.56
547.959	13847.57
548.324	13972.32
548.688	14042.37
549.052	14144.74
549.416	14151.75
549.779	14084.63
550.143	14198.75
550.507	14250.5
550.871	14309.03
551.235	14224.51
551.599	14456.15
551.962	14478.74
552.326	14559.19
552.689	14576.82
553.053	14565.29
553.417	14621.11
553.78	14782.24
554.143	14749.92
554.507	14840.77
554.87	14842.8
555.234	14956.47
555.597	14956.7
555.96	14940.65
556.323	15054.55
556.686	15023.81
557.05	15152.62
557.413	15232.85
557.776	15169.8
558.139	15322.56
558.502	15403.01
558.865	15373.64
559.228	15527.53
559.59	15461.09
559.953	15443.24
560.316	15609.11
560.679	15680.75
561.041	15647.53
561.404	15815.88
561.767	15921.42
562.129	15828.31
562.492	16019.27
562.854	15972.72
563.217	16069.89
563.579	16178.13
563.941	16303.78
564.304	16232.6
564.666	16361.63
565.028	16348.3
565.39	16411.8
565.753	16525.47
566.115	16609.99
566.477	16561.85
566.839	16632.13
567.201	16848.4
567.563	16809.08
567.925	16829.19
568.287	16952.8
568.648	16887.04
569.01	17043.87
569.372	17183.31
569.734	17139.01
570.095	17259.01
570.457	17334.49
570.819	17345.56
571.18	17366.8
571.542	17517.31
571.903	17562.96
572.265	17650.41
572.626	17789.62
572.987	17708.94
573.349	17850.86
573.71	18018.99
574.071	18060.8
574.432	18102.83
574.794	18331.52
575.155	18324.52
575.516	18317.06
575.877	18472.54
576.238	18491.52
576.599	18673.89
576.96	18765.86
577.32	18915.92
577.681	19094.22
578.042	19243.59
578.403	19350.03
578.763	19350.71
579.124	19519.97
579.485	19719.28
579.845	19915.66
580.206	19991.37
580.566	20205.6
580.927	20150.23
581.287	20499.83
581.648	20479.94
582.008	20907.05
582.368	20952.25
582.728	21072.92
583.089	21318.79
583.449	21468.62
583.809	21754.26
584.169	21929.85
584.529	21991.31
584.889	22408.7
585.249	22596.27
585.609	22721.01
585.969	23073.09
586.329	23202.58
586.688	23410.49
587.048	23709.24
587.408	23837.82
587.768	24039.85
588.127	24207.53
588.487	24411.82
588.846	24847.51
589.206	24969.09
589.565	25283.21
589.925	25555.51
590.284	25700.82
590.643	25937.65
591.003	26276.17
591.362	26605.88
591.721	26826.89
592.08	27115.02
592.44	27390.49
592.799	27665.97
593.158	27850.6
593.517	28138.05
593.876	28496.68
594.235	28652.83
594.593	28819.16
594.952	29259.37
595.311	29358.35
595.67	29735.29
596.029	30020.03
596.387	30350.64
596.746	30697.75
597.104	30728.03
597.463	30887.13
597.822	31424.29
598.18	31485.08
598.538	31683.94
598.897	32012.29
599.255	32079.64
599.613	32750.81
599.972	32821.54
600.33	33160.06
600.688	33186.5
601.046	33600.05
601.404	33710.55
601.762	33981.28
602.12	34314.83
602.478	34502.85
602.836	34592.57
603.194	34689.51
603.552	34968.83
603.91	35023.51
604.268	35472.09
604.625	35546.21
604.983	35886.09
605.341	35820.78
605.698	36183.94
606.056	36350.48
606.413	36623.02
606.771	36928.55
607.128	37000.64
607.485	37098.71
607.843	37240.18
608.2	37602.2
608.557	37691.47
608.914	37841.29
609.272	38229.76
609.629	38289.19
609.986	38645.34
610.343	38478.34
610.7	38959.46
611.057	38879.68
611.414	39026.12
611.771	39260.92
612.127	39421.36
612.484	39564.64
612.841	39739.1
613.198	39892.76
613.554	39844.18
613.911	40235.35
614.267	40204.85
614.624	40407.1
614.98	40452.3
615.337	40742.91
615.693	40820.65
616.05	40861.1
616.406	41192.62
616.762	41147.65
617.118	41278.94
617.475	41275.78
617.831	41545.83
618.187	41587.41
618.543	41678.71
618.899	42020.17
619.255	41932.71
619.611	41964.35
619.967	42088.87
620.323	42291.35
620.678	42186.26
621.034	42261.74
621.39	42295.41
621.746	42355.3
622.101	42757.32
622.457	42546.25
622.812	42735.85
623.168	42919.58
623.523	42852.91
623.879	43089.06
624.234	42875.51
624.589	43274.82
624.945	43263.07
625.3	43348.72
625.655	43289.06
626.01	43423.52
626.365	43483.18
626.72	43427.13
627.075	43374.03
627.43	43382.16
627.785	43446.34
628.14	43517.08
628.495	43660.58
628.85	43630.97
629.205	43540.35
629.559	43635.27
629.914	43602.5
630.269	43762.27
630.623	43438.21
630.978	43583.74
631.332	43720.01
631.687	43863.73
632.041	43800.91
632.396	43715.94
632.75	43652.89
633.104	43833.68
633.459	43587.13
633.813	43739.22
634.167	43604.76
634.521	43707.35
634.875	43794.58
635.229	43720.91
635.583	43538.32
635.937	43597.98
636.291	43634.81
636.645	43717.75
636.999	43615.6
637.352	43728.37
637.706	43444.99
638.06	43643.4
638.413	43591.42
638.767	43453.35
639.121	43603.4
639.474	43232.79
639.828	43419
640.181	43424.2
640.534	43440.24
640.888	43419.9
641.241	43195.95
641.594	43269.17
641.947	43466.91
642.301	43232.11
642.654	43365.67
643.007	43375.84
643.36	43261.04
643.713	43319.79
644.066	43369.74
644.419	43189.18
644.771	42970.42
645.124	42645.46
645.477	42619.92
645.83	42266.04
646.182	41946.72
646.535	42018.36
646.888	42103.33
647.24	42033.27
647.593	42125.7
647.945	41968.64
648.298	41898.36
648.65	41775.88
649.002	41870.79
649.355	41994.86
649.707	41973.39
650.059	42179.03
650.411	42528.18
650.763	42642.07
651.115	42876.41
651.467	42769.53
651.819	42779.47
652.171	42724.55
652.523	42636.87
652.875	42494.73
653.227	42553.03
653.578	42835.06
653.93	42649.53
654.282	42504.45
654.633	42504.45
654.985	42508.74
655.337	42493.37
655.688	42545.12
656.039	42692.24
656.391	42180.84
656.742	42334.28
657.094	42594.16
657.445	42654.05
657.796	42447.5
658.147	42434.84
658.498	42341.51
658.849	42395.07
659.2	42347.16
659.551	42316.88
659.902	42471.91
660.253	42373.15
660.604	42394.17
660.955	42242.08
661.306	42397.56
661.656	42390.78
662.007	42303.55
662.358	42256.09
662.708	42249.31
663.059	42338.35
663.409	42075.53
663.76	42276.2
664.11	42233.95
664.461	42324.34
664.811	42289.76
665.161	42198.47
665.511	42224.45
665.862	42247.05
666.212	42366.37
666.562	42352.13
666.912	42224.68
667.262	42313.04
667.612	42094.51
667.962	42245.7
668.312	42186.26
668.662	42341.51
669.011	42173.16
669.361	42089.32
669.711	42124.34
670.06	42136.1
670.41	41934.97
670.76	42066.49
671.109	42185.13
671.459	42042.31
671.808	41943.56
672.157	42033.73
672.507	41720.29
672.856	41748.54
673.205	41821.08
673.554	41997.57
673.904	41852.94
674.253	41990.34
674.602	41847.06
674.951	41436
675.3	41212.28
675.649	41827.18
675.998	41941.98
676.346	41843
676.695	41963.22
677.044	41683
677.393	41880.06
677.741	41684.13
678.09	41727.74
678.438	41740.63
678.787	41702.43
679.135	41595.77
679.484	41259.73
679.832	41522.78
680.181	41320.52
680.529	41351.71
680.877	41298.38
681.225	41247.31
681.573	41410.24
681.922	41191.26
682.27	41031.49
682.618	41002.34
682.966	40997.37
683.314	41017.48
683.661	40924.15
684.009	40759.63
684.357	40745.4
684.705	40747.66
685.053	40626.98
685.4	40521
685.748	40508.12
686.095	40397.16
686.443	40371.4
686.79	40294.79
687.138	40384.73
687.485	40274.68
687.832	40139.76
688.18	40127.33
688.527	40103.38
688.874	39977.51
689.221	39837.62
689.568	39831.07
689.915	39662.71
690.262	39570.51
690.609	39421.14
690.956	39548.14
691.303	39466.34
691.65	39369.61
691.997	39204.2
692.344	39000.13
692.69	38983.41
693.037	39068.38
693.383	38553.36
693.73	38980.25
694.077	38550.2
694.423	38658.22
694.769	38542.29
695.116	38383.43
695.462	38367.61
695.808	38352.01
696.155	38381.62
696.501	38006.03
696.847	38140.27
697.193	37743.67
697.539	37939.82
697.885	37783.22
698.231	37653.5
698.577	37490.57
698.923	37506.84
699.269	37410.8
699.614	37222.78
699.96	37220.29
700.306	37106.85
700.651	36992.5
700.997	36907.08
701.342	36822.34
701.688	36688.78
702.033	36604.94
702.379	36641.1
702.724	36451.27
703.069	36675.45
703.415	36167.89
703.76	36260.09
704.105	36158.85
704.45	36100.77
704.795	35848.58
705.14	35817.39
705.485	35844.74
705.83	35635.25
706.175	35743.5
706.52	35444.52
706.865	35479.1
707.209	35421.02
707.554	35239.1
707.899	35357.74
708.243	35052.21
708.588	35085.89
708.932	34889.05
709.277	34828.27
709.621	34842.05
709.966	34650.19
710.31	34656.29
710.654	34377.2
710.998	34528.16
711.342	34488.39
711.687	34409.29
712.031	34182.63
712.375	34126.14
712.719	34186.25
713.063	34061.96
713.407	34217.66
713.75	33934.96
714.094	33951.68
714.438	33866.26
714.782	33791.68
715.125	33606.83
715.469	33787.61
715.812	33567.28
716.156	33392.82
716.499	33404.57
716.843	33445.93
717.186	33262.88
717.53	33414.29
717.873	33495.19
718.216	33300.4
718.559	33229.66
718.902	33019.27
719.246	32980.18
719.589	32987.18
719.932	32748.09
720.275	32798.71
720.617	32807.98
720.96	32653.63
721.303	32869.9
721.646	32657.02
721.989	32491.38
722.331	32611.37
722.674	32461.77
723.016	32367.31
723.359	32398.27
723.701	32378.39
724.044	32222.01
724.386	32090.48
724.729	32207.99
725.071	32130.71
725.413	32073.54
725.755	32017.04
726.097	31873.54
726.439	31921.22
726.782	31779.08
727.124	31867.66
727.465	31716.03
727.807	31815.69
728.149	31516.94
728.491	31569.14
728.833	31575.7
729.175	31464.29
729.516	31439.43
729.858	31294.35
730.199	31512.65
730.541	31238.98
730.882	31116.95
731.224	31264.74
731.565	31077.63
731.906	31127.12
732.248	31246.44
732.589	31061.13
732.93	30865.21
733.271	30841.7
733.612	30926.9
733.953	31030.85
734.294	30768.48
734.635	30717.19
734.976	30810.74
735.317	30600.13
735.658	30638.09
735.999	30544.99
736.339	30543.63
736.68	30676.28
737.021	30568.49
737.361	30402.84
737.702	30524.2
738.042	30444.88
738.383	30262.74
738.723	30405.56
739.063	30312.68
739.404	30266.8
739.744	30178.67
740.084	30224.77
740.424	30166.01
740.764	30066.13
741.104	30187.03
741.444	30025
741.784	29870.66
742.124	30009.41
742.464	29916.76
742.804	29857.32
743.143	29756.31
743.483	29781.17
743.823	29684.45
744.162	29664.33
744.502	29665.01
744.841	29466.82
745.181	29600.15
745.52	29418.46
745.86	29540.72
746.199	29478.12
746.538	29403.55
746.877	29543.43
747.216	29462.08
747.556	29243.55
747.895	29435.41
748.234	29181.41
748.573	29085.37
748.911	29084.69
749.25	29015.31
749.589	28924.24
749.928	28958.81
750.267	29008.98
750.605	28913.84
750.944	28683.79
751.283	28670.91
751.621	28788.88
751.96	28690.12
752.298	28577.81
752.636	28691.03
752.975	28463.91
753.313	28322.9
753.651	28508.88
753.989	28383.24
754.327	28297.82
754.666	28250.13
755.004	28250.81
755.342	28231.83
755.679	28141.89
756.017	28024.83
756.355	28144.15
756.693	27893.98
757.031	28006.52
757.368	27822.12
757.706	27784.38
758.044	27685.4
758.381	27681.11
758.719	27575.57
759.056	27708.68
759.394	27517.72
759.731	27280.44
760.068	27368.8
760.405	27304.17
760.743	27152.99
761.08	27281.8
761.417	27074.12
761.754	27102.59
762.091	27018.53
762.428	26813.11
762.765	26670.29
763.102	26692.21
763.438	26629.16
763.775	26439.79
764.112	26418.32
764.449	26388.49
764.785	26439.11
765.122	26340.13
765.458	26173.35
765.795	26195.72
766.131	26127.48
766.467	25968.61
766.804	25851.55
767.14	25778.56
767.476	25750.09
767.812	25606.59
768.148	25732.91
768.485	25441.17
768.821	25327.05
769.157	25355.75
769.492	25315.52
769.828	25279.36
770.164	25005.92
770.5	24954.17
770.836	25010.22
771.171	24835.31
771.507	24773.39
771.842	24495.66
772.178	24634.86
772.513	24568.65
772.849	24386.96
773.184	24329.33
773.519	24311.71
773.855	24101.32
774.19	24112.39
774.525	23919.17
774.86	23960.08
775.195	24010.47
775.53	23853.64
775.865	23676.69
776.2	23479.18
776.535	23467.89
776.87	23455
777.205	23261.79
777.539	23182.47
777.874	23159.65
778.209	22972.08
778.543	22873.1
778.878	22788.36
779.212	22848.69
779.547	22660.22
779.881	22735.93
780.215	22590.62
780.55	22433.56
780.884	22444.64
781.218	22332.77
781.552	22279.89
781.886	22177.52
782.22	22135.04
782.554	21896.85
782.888	21752
783.222	21832.45
783.556	21666.8
783.889	21700.7
784.223	21489.63
784.557	21496.64
784.89	21529.41
785.224	21434.94
785.557	21239.92
785.891	21254.16
786.224	21129.42
786.558	21187.49
786.891	20871.57
787.224	20877.45
787.557	20836.77
787.891	20798.58
788.224	20764.23
788.557	20645.81
788.89	20723.33
789.223	20653.72
789.556	20353.39
789.888	20474.97
790.221	20264.35
790.554	20127.86
790.887	20136.22
791.219	19987.75
791.552	20101.65
791.884	19797.02
792.217	19824.82
792.549	19831.6
792.882	19686.97
793.214	19578.5
793.546	19647.65
793.879	19459.18
794.211	19478.39
794.543	19438.61
794.875	19270.26
795.207	19367.2
795.539	19232.52
795.871	19196.81
796.203	19042.24
796.535	18984.39
796.867	18875.24
797.198	18806.31
797.53	18808.12
797.862	18778.07
798.193	18832.98
798.525	18641.57
798.856	18661.46
799.188	18447
799.519	18393.22
799.85	18391.41
800.182	18400.45
800.513	18303.5
800.844	18243.84
801.175	18254.24
801.506	18232.32
801.837	18113
802.168	18105.09
802.499	18055.37
802.83	17869.16
803.161	17931.76
803.491	17865.1
803.822	17795.04
804.153	17680.47
804.483	17626.91
804.814	17506.23
805.145	17495.39
805.475	17481.38
805.805	17485.22
806.136	17473.24
806.466	17409.97
806.796	17202.29
807.126	17231.67
807.457	17179.92
807.787	17131.78
808.117	17049.52
808.447	17074.38
808.777	17059.47
809.107	16983.08
809.436	16877.55
809.766	16940.15
810.096	16782.86
810.426	16683.43
810.755	16770.43
811.085	16660.16
811.414	16649.31
811.744	16551.23
812.073	16501.52
812.403	16421.74
812.732	16326.6
813.061	16418.13
813.39	16324.8
813.719	16235.31
814.049	16254.74
814.378	16291.13
814.707	16197.34
815.036	16169.32
815.365	16003.9
815.693	16016.33
816.022	15992.6
816.351	15941.08
816.68	15906.05
817.008	15905.82
817.337	15808.65
817.665	15837.35
817.994	15758.71
818.322	15782.66
818.651	15614.98
818.979	15585.38
819.307	15655.89
819.636	15626.28
819.964	15473.29
820.292	15596
820.62	15530.47
820.948	15517.59
821.276	15488.89
821.604	15471.26
821.932	15487.76
822.259	15471.49
822.587	15474.42
822.915	15333.41
823.243	15403.69
823.57	15297.93
823.898	15452.05
824.225	15395.56
824.553	15289.34
824.88	15371.6
825.207	15379.51
825.535	15374.09
825.862	15340.42
826.189	15342.9
826.516	15376.8
826.843	15522.56
827.17	15481.88
827.497	15403.01
827.824	15311.49
828.151	15361.21
828.478	15360.75
828.805	15396.01
829.131	15350.81
829.458	15316.24
829.785	15266.29
830.111	15257.48
830.438	15359.85
830.764	15320.3
831.09	15369.57
831.417	15260.42
831.743	15368.44
832.069	15300.19
832.395	15214.54
832.722	15263.81
833.048	15223.36
833.374	15223.36
833.7	15176.8
834.026	15211.15
834.351	15313.52
834.677	15138.39
835.003	15186.3
835.329	15121.66
835.654	15165.73
835.98	15090.93
836.306	15050.71
836.631	15029.69
836.956	15071.95
837.282	15099.29
837.607	14965.51
837.932	14951.5
838.258	14947.66
838.583	14899.3
838.908	14820.43
839.233	14904.95
839.558	14788.34
839.883	14777.94
840.208	14704.5
840.533	14711.51
840.858	14667.67
841.182	14690.49
841.507	14692.52
841.832	14507.44
842.156	14619.98
842.481	14553.32
842.805	14511.74
843.13	14487.1
843.454	14566.65
843.778	14457.73
844.103	14376.83
844.427	14272.2
844.751	14352.87
845.075	14209.82
845.399	14233.78
845.723	14211.63
846.047	14199.65
846.371	14095.93
846.695	14060.68
847.019	13996.72
847.343	13972.54
847.666	13859.78
847.99	13780.23
848.313	13764.86
848.637	13681.7
848.96	13669.27
849.284	13628.37
849.607	13584.08
849.931	13533.68
850.254	13369.39
850.577	13383.63
850.9	13287.81
851.223	13222.96
851.546	13237.65
851.869	13156.52
852.192	13208.72
852.515	13097.76
852.838	12983.19
853.161	13010.31
853.483	12955.85
853.806	12848.28
854.129	12841.95
854.451	12777.32
854.774	12721.5
855.096	12731.67
855.419	12669.07
855.741	12654.84
856.063	12542.07
856.385	12550.43
856.708	12531.9
857.03	12510.21
857.352	12477.67
857.674	12458.46
857.996	12414.39
858.318	12366.93
858.64	12341.62
858.961	12343.21
859.283	12212.59
859.605	12129.88
859.926	12190.44
860.248	12131.46
860.57	12042.88
860.891	12105.02
861.212	12027.28
861.534	11998.58
861.855	11973.05
862.176	11914.97
862.498	11893.95
862.819	11898.92
863.14	11854.18
863.461	11877.68
863.782	11785.71
864.103	11774.63
864.424	11846.72
864.745	11824.8
865.065	11749.1
865.386	11675.43
865.707	11667.07
866.027	11663.9
866.348	11545.94
866.668	11650.8
866.989	11627.07
867.309	11490.35
867.63	11611.02
867.95	11545.26
868.27	11510.23
868.59	11513.62
868.91	11413.74
869.23	11449.22
869.55	11351.14
869.87	11500.06
870.19	11437.47
870.51	11376.23
870.83	11461.87
871.15	11326.06
871.469	11321.31
871.789	11403.12
872.109	11269.79
872.428	11276.79
872.748	11260.98
873.067	11222.78
873.386	11312.73
873.706	11201.32
874.025	11166.74
874.344	11194.54
874.663	11175.55
874.982	11115.44
875.301	11155.22
875.62	11043.81
875.939	11049.91
876.258	11053.52
876.577	11051.49
876.896	11036.35
877.214	10933.3
877.533	10989.12
877.852	10884.71
878.17	10911.38
878.489	10890.14
878.807	10885.39
879.125	10891.04
879.444	10886.52
879.762	10828.67
880.08	10749.8
880.398	10818.27
880.716	10773.76
881.034	10761.55
881.352	10756.81
881.67	10743.93
881.988	10659.18
882.306	10668.45
882.624	10592.74
882.941	10613.76
883.259	10573.99
883.577	10513.88
883.894	10564.04
884.212	10549.13
884.529	10558.62
884.846	10481.11
885.164	10437.27
885.481	10457.83
885.798	10418.29
886.115	10441.11
886.432	10391.39
886.75	10307.55
887.067	10318.4
887.383	10234.11
887.7	10345.52
888.017	10276.59
888.334	10191.17
888.651	10186.2
888.967	10181.46
889.284	10148.91
889.6	10171.51
889.917	10042.7
890.233	10008.13
890.55	9964.06
890.866	9971.52
891.182	9973.33
891.498	9883.38
891.815	9902.59
892.131	9880.9
892.447	9795.25
892.763	9817.85
893.079	9788.7
893.395	9757.74
893.71	9721.13
894.026	9730.39
894.342	9674.12
894.657	9517.29
894.973	9610.17
895.289	9600
895.604	9643.16
895.92	9495.37
896.235	9449.27
896.55	9416.28
896.865	9487.91
897.181	9365.21
897.496	9399.78
897.811	9311.42
898.126	9202.27
898.441	9239.11
898.756	9208.83
899.071	9214.7
899.386	9151.65
899.7	9113.01
900.015	9052.22
900.33	8985.78
900.644	8983.52
900.959	9066.68
901.273	8925.67
901.588	8925.22
901.902	8894.94
902.216	8866.01
902.531	8847.25
902.845	8847.03
903.159	8719.8
903.473	8690.65
903.787	8693.13
904.101	8630.99
904.415	8626.69
904.729	8600.93
905.042	8566.13
905.356	8576.07
905.67	8507.15
905.984	8557.54
906.297	8486.13
906.611	8375.18
906.924	8390.77
907.237	8391.9
907.551	8325.23
907.864	8320.04
908.177	8263.09
908.491	8248.17
908.804	8236.87
909.117	8129.76
909.43	8106.48
909.743	8150.55
910.056	8120.04
910.368	8039.59
910.681	8003.43
910.994	7997.11
911.307	8012.92
911.619	7883.44
911.932	7885.47
912.244	7799.37
912.557	7861.06
912.869	7815.64
913.181	7769.09
913.494	7774.97
913.806	7711.24
914.118	7641.86
914.43	7555.08
914.742	7582.65
915.054	7566.16
915.366	7490
915.678	7415.65
915.99	7446.39
916.302	7403.22
916.613	7365.94
916.925	7399.61
917.236	7351.93
917.548	7253.17
917.859	7290.91
918.171	7257.46
918.482	7225.15
918.794	7179.73
919.105	7182.66
919.416	7101.31
919.727	7094.53
920.038	7099.73
920.349	7080.52
920.66	6961.88
920.971	7014.08
921.282	6993.74
921.593	6918.72
921.903	6856.35
922.214	6868.32
922.525	6831.49
922.835	6836.68
923.146	6746.74
923.456	6757.59
923.767	6670.59
924.077	6665.16
924.387	6634.88
924.697	6613.64
925.008	6524.38
925.318	6531.16
925.628	6606.18
925.938	6472.17
926.248	6451.16
926.558	6414.77
926.867	6433.76
927.177	6395.11
927.487	6363.7
927.796	6315.79
928.106	6324.61
928.416	6310.37
928.725	6248.68
929.034	6215.91
929.344	6194.89
929.653	6190.15
929.962	6132.97
930.271	6123.71
930.581	6116.93
930.89	6045.07
931.199	6033.77
931.508	6002.81
931.817	5984.05
932.125	6044.62
932.434	5957.39
932.743	5927.1
933.051	5859.99
933.36	5877.84
933.669	5842.36
933.977	5793.1
934.286	5832.42
934.594	5798.07
934.902	5736.6
935.21	5674.23
935.519	5696.15
935.827	5678.97
936.135	5654.12
936.443	5636.49
936.751	5570.05
937.059	5615.7
937.367	5577.51
937.674	5530.28
937.982	5496.61
938.29	5465.2
938.597	5432.88
938.905	5430.17
939.213	5400.56
939.52	5356.05
939.827	5350.85
940.135	5344.29
940.442	5271.3
940.749	5301.36
941.056	5282.6
941.363	5218.65
941.67	5246.22
941.977	5149.95
942.284	5197.63
942.591	5108.59
942.898	5147.01
943.205	5106.11
943.511	5118.31
943.818	5111.98
944.125	5043.06
944.431	5031.08
944.738	5036.73
945.044	4932.78
945.35	4974.81
945.657	4900.92
945.963	4942.05
946.269	4914.93
946.575	4827.47
946.881	4886.68
947.187	4856.4
947.493	4774.59
947.799	4805.78
948.105	4714.03
948.41	4819.11
948.716	4800.35
949.022	4701.83
949.327	4705.89
949.633	4658.89
949.938	4672.9
950.244	4672
950.549	4594.71
950.854	4555.84
951.16	4586.35
951.465	4544.99
951.77	4572.79
952.075	4492.11
952.38	4500.7
952.685	4464.54
952.99	4438.78
953.294	4414.83
953.599	4369.63
953.904	4402.62
954.209	4374.83
954.513	4349.52
954.818	4335.51
955.122	4338.45
955.426	4337.77
955.731	4345.9
956.035	4258.45
956.339	4243.76
956.643	4246.92
956.948	4229.75
957.252	4173.25
957.556	4167.83
957.86	4117.89
958.163	4117.21
958.467	4129.19
958.771	4093.93
959.075	4089.64
959.378	4093.93
959.682	4048.96
959.985	3998.34
960.289	4002.86
960.592	4013.26
960.896	3965.12
961.199	3960.15
961.502	3967.38
961.805	3944.78
962.108	3926.48
962.411	3880.38
962.714	3863.2
963.017	3860.49
963.32	3847.38
963.623	3841.28
963.926	3791.79
964.228	3770.1
964.531	3794.28
964.833	3775.97
965.136	3764.45
965.438	3725.35
965.741	3698.69
966.043	3677.45
966.345	3638.8
966.648	3649.88
966.95	3656.88
967.252	3602.87
967.554	3605.81
967.856	3619.82
968.158	3555.64
968.46	3568.97
968.761	3522.65
969.063	3536.21
969.365	3495.98
969.666	3519.26
969.968	3465.47
970.269	3448.53
970.571	3444.23
970.872	3417.57
971.174	3468.64
971.475	3392.26
971.776	3437.23
972.077	3379.83
972.378	3352.48
972.679	3388.87
972.98	3376.21
973.281	3338.02
973.582	3318.81
973.883	3312.48
974.183	3285.82
974.484	3263.45
974.785	3213.05
975.085	3225.71
975.386	3230.9
975.686	3214.63
975.986	3181.41
976.287	3197.23
976.587	3175.09
976.887	3184.35
977.187	3161.75
977.487	3099.38
977.787	3105.03
978.087	3058.25
978.387	3071.59
978.687	3085.14
978.987	3075.43
979.286	3046.05
979.586	3026.62
979.885	3008.54
980.185	2969.22
980.484	2981.42
980.784	2970.35
981.083	2934.64
981.382	2994.07
981.682	2943.91
981.981	2959.72
982.28	2952.72
982.579	2903.68
982.878	2860.07
983.177	2831.59
983.475	2827.52
983.774	2849.22
984.073	2866.85
984.372	2810.8
984.67	2787.07
984.969	2781.88
985.267	2751.37
985.566	2770.35
985.864	2759.73
986.162	2774.64
986.461	2758.15
986.759	2754.08
987.057	2682.22
987.355	2692.84
987.653	2673.86
987.951	2654.65
988.249	2674.76
988.547	2672.05
988.844	2624.14
989.142	2627.98
989.44	2591.6
989.737	2584.59
990.035	2575.33
990.332	2587.3
990.63	2536.68
990.927	2570.58
991.224	2522.9
991.521	2523.58
991.819	2506.18
992.116	2526.74
992.413	2518.61
992.71	2494.43
993.006	2482
993.303	2460.08
993.6	2469.57
993.897	2441.09
994.193	2427.99
994.49	2395.67
994.787	2407.42
995.083	2393.86
995.379	2364.71
995.676	2363.36
995.972	2360.42
996.268	2301.89
996.565	2304.6
996.861	2329.91
997.157	2303.92
997.453	2310.48
997.749	2260.76
998.044	2254.66
998.34	2256.24
998.636	2249.46
998.932	2222.12
999.227	2210.37
999.523	2224.38
999.818	2220.53
1000.114	2200.42
1000.409	2181.67
1000.704	2148.45
1001	2164.04
1001.295	2158.16
1001.59	2121.1
1001.885	2129.69
1002.18	2117.03
1002.475	2093.76
1002.77	2103.25
1003.065	2089.69
1003.359	2057.38
1003.654	2075.45
1003.949	2057.15
1004.243	2058.96
1004.538	2007.43
1004.832	2015.57
1005.127	1999.3
1005.421	1972.18
1005.715	1975.12
1006.009	1988.68
1006.304	1962.46
1006.598	1935.12
1006.892	1931.73
1007.186	1922.69
1007.48	1938.06
1007.773	1880.88
1008.067	1933.54
1008.361	1862.8
1008.655	1903.03
1008.948	1871.62
1009.242	1880.66
1009.535	1817.83
1009.829	1857.61
1010.122	1807.44
1010.415	1829.81
1010.708	1812.86
1011.001	1778.96
1011.295	1804.95
1011.588	1767.89
1011.881	1765.63
1012.173	1747.33
1012.466	1732.86
1012.759	1729.25
1013.052	1732.86
1013.344	1729.47
1013.637	1650.38
1013.93	1682.24
1014.222	1681.79
1014.514	1685.18
1014.807	1652.41
1015.099	1678.4
1015.391	1642.7
1015.683	1618.06
1015.976	1618.52
1016.268	1604.73
1016.56	1576.71
1016.851	1583.26
1017.143	1576.71
1017.435	1591.62
1017.727	1541.46
1018.018	1564.28
1018.31	1549.37
1018.602	1531.74
1018.893	1548.46
1019.185	1516.37
1019.476	1524.28
1019.767	1504.17
1020.058	1477.5
1020.35	1468.69
1020.641	1435.02
1020.932	1457.39
1021.223	1466.43
1021.514	1427.34
1021.804	1432.98
1022.095	1407.22
1022.386	1416.49
1022.677	1376.94
1022.967	1383.95
1023.258	1385.08
1023.548	1385.53
1023.839	1372.42
1024.129	1354.57
1024.419	1327.9
1024.709	1336.49
1025	1303.95
1025.29	1313.67
1025.58	1324.51
1025.87	1302.59
1026.16	1287
1026.449	1296.49
1026.739	1283.84
1027.029	1273.44
1027.319	1258.3
1027.608	1255.81
1027.898	1247.23
1028.187	1230.96
1028.477	1229.15
1028.766	1241.35
1029.055	1217.4
1029.344	1200
1029.634	1209.04
1029.923	1195.7
1030.212	1189.6
1030.501	1185.53
1030.79	1176.49
1031.078	1146.21
1031.367	1155.48
1031.656	1122.26
1031.945	1148.02
1032.233	1136.5
1032.522	1120.22
1032.81	1100.79
1033.099	1112.77
1033.387	1076.38
1033.675	1107.8
1033.963	1109.83
1034.251	1072.32
1034.54	1076.61
1034.828	1076.84
1035.116	1074.12
1035.403	1063.28
1035.691	1028.25
1035.979	1017.4
1036.267	1039.32
1036.554	1024.86
1036.842	1035.26
1037.129	1007.01
1037.417	1026.22
1037.704	999.32
1037.992	986.89
1038.279	975.14
1038.566	961.58
1038.853	961.58
1039.14	961.58
