Data from hue_10_FLMS001491_6.txt Node
Date: Mon Feb 06 15:31:19 GMT 2017
User: dcchb
Spectrometer: FLMS00149
Trigger mode: 0
Integration Time (sec): 2.000000E-2
Scans to average: 10
Electric dark correction enabled: true
Nonlinearity correction enabled: false
Boxcar width: 0
XAxis mode: Wavelengths
Number of Pixels in Spectrum: 2048
>>>>>Begin Spectral Data<<<<<
341.393	-13.97
341.776	-13.97
342.16	-13.97
342.543	-69.11
342.927	-84.25
343.31	-74.98
343.693	-70.24
344.077	-77.7
344.46	-63.68
344.843	-58.04
345.226	-45.38
345.61	-18.71
345.993	-28.66
346.376	-10.8
346.759	5.01
347.142	23.32
347.525	59.93
347.908	65.13
348.291	79.59
348.674	94.73
349.057	120.49
349.44	123.88
349.823	134.73
350.206	145.12
350.588	193.94
350.971	204.1
351.354	216.08
351.737	225.57
352.119	253.14
352.502	269.41
352.884	266.93
353.267	284.55
353.65	292.46
354.032	282.07
354.414	310.77
354.797	299.24
355.179	312.35
355.562	319.36
355.944	316.42
356.326	330.2
356.709	304.67
357.091	326.14
357.473	326.81
357.855	329.3
358.238	328.17
358.62	325.46
359.002	355.97
359.384	323.2
359.766	331.11
360.148	330.2
360.53	325.91
360.912	309.41
361.294	325.46
361.676	327.27
362.057	337.89
362.439	343.99
362.821	334.27
363.203	327.94
363.584	332.91
363.966	305.35
364.348	318
364.729	304.22
365.111	332.24
365.493	313.71
365.874	306.02
366.256	309.64
366.637	319.58
367.019	320.26
367.4	328.85
367.781	312.58
368.163	304.22
368.544	312.12
368.925	316.19
369.306	310.32
369.688	310.54
370.069	289.98
370.45	297.21
370.831	307.6
371.212	284.78
371.593	296.31
371.974	304.67
372.355	303.54
372.736	314.84
373.117	295.63
373.498	324.55
373.879	322.75
374.26	315.29
374.641	314.84
375.021	322.52
375.402	315.97
375.783	298.79
376.163	331.79
376.544	315.51
376.925	309.86
377.305	332.01
377.686	314.61
378.066	314.16
378.447	324.33
378.827	329.75
379.208	317.32
379.588	327.72
379.968	316.19
380.349	328.62
380.729	315.51
381.109	318.9
381.489	332.01
381.87	320.03
382.25	321.84
382.63	332.24
383.01	358.9
383.39	325.01
383.77	322.75
384.15	343.54
384.53	347.6
384.91	344.21
385.29	345.34
385.67	336.76
386.049	338.34
386.429	363.42
386.809	340.15
387.189	323.2
387.568	330.2
387.948	353.93
388.328	337.89
388.707	324.33
389.087	357.32
389.466	351.9
389.846	339.02
390.225	355.51
390.605	336.3
390.984	364.33
391.363	360.48
391.743	349.64
392.122	371.78
392.501	360.48
392.881	368.62
393.26	362.52
393.639	361.84
394.018	367.72
394.397	364.1
394.776	384.89
395.155	386.47
395.534	404.55
395.913	377.43
396.292	386.92
396.671	372.46
397.05	369.07
397.429	376.98
397.808	379.47
398.186	358.45
398.565	398.9
398.944	394.61
399.323	376.76
399.701	403.42
400.08	363.87
400.458	383.76
400.837	392.12
401.215	380.37
401.594	388.28
401.972	370.43
402.351	388.51
402.729	406.36
403.107	379.47
403.486	381.95
403.864	411.78
404.242	392.8
404.62	382.63
404.999	399.35
405.377	396.87
405.755	397.55
406.133	407.26
406.511	401.84
406.889	427.6
407.267	427.6
407.645	405.46
408.023	398
408.401	415.17
408.779	424.89
409.156	418.34
409.534	404.55
409.912	422.4
410.29	421.5
410.667	434.16
411.045	421.5
411.422	422.86
411.8	428.05
412.178	449.07
412.555	440.26
412.933	447.04
413.31	444.32
413.687	458.56
414.065	441.84
414.442	452.01
414.819	458.11
415.197	457.43
415.574	466.7
415.951	462.18
416.328	484.1
416.705	456.98
417.082	461.73
417.46	481.61
417.837	470.54
418.214	468.73
418.591	485.68
418.967	471.89
419.344	466.24
419.721	506.92
420.098	496.3
420.475	502.85
420.852	463.76
421.228	493.36
421.605	504.89
421.982	491.33
422.358	508.05
422.735	508.28
423.111	489.3
423.488	504.44
423.864	502.63
424.241	516.41
424.617	515.06
424.994	526.58
425.37	529.97
425.746	522.51
426.123	525.45
426.499	533.36
426.875	539.46
427.251	569.29
427.627	543.76
428.003	552.57
428.379	536.75
428.756	550.31
429.132	560.48
429.507	553.7
429.883	555.51
430.259	568.84
430.635	598.44
431.011	575.85
431.387	581.27
431.763	587.37
432.138	579.01
432.514	586.47
432.89	596.18
433.265	581.5
433.641	609.97
434.016	615.62
434.392	627.82
434.767	620.59
435.143	612
435.518	624.88
435.894	636.64
436.269	648.84
436.644	634.83
437.02	673.92
437.395	623.75
437.77	678.89
438.145	660.36
438.52	649.06
438.895	669.18
439.271	656.52
439.646	672.57
440.021	662.62
440.395	663.75
440.77	686.58
441.145	689.29
441.52	690.65
441.895	686.8
442.27	698.1
442.645	673.92
443.019	715.5
443.394	689.06
443.769	718.67
444.143	697.43
444.518	737.2
444.892	722.96
445.267	718.22
445.641	735.39
446.016	741.72
446.39	727.93
446.764	764.09
447.139	756.63
447.513	726.8
447.887	747.82
448.262	725.9
448.636	764.09
449.01	770.42
449.384	750.53
449.758	763.41
450.132	766.12
450.506	766.58
450.88	780.36
451.254	767.48
451.628	804.77
452.002	797.54
452.376	816.07
452.75	810.42
453.123	822.62
453.497	819.23
453.871	840.47
454.244	860.58
454.618	842.51
454.992	862.84
455.365	862.62
455.739	872.34
456.112	883.41
456.486	879.34
456.859	853.81
457.232	888.38
457.606	899.91
457.979	902.17
458.352	933.35
458.725	911.2
459.099	932.9
459.472	946.23
459.845	945.55
460.218	971.99
460.591	976.29
460.964	972.67
461.337	983.07
461.71	987.36
462.083	1016.96
462.456	993.69
462.829	1006.57
463.201	1030.98
463.574	1049.51
463.947	1060.58
464.32	1067.58
464.692	1071.88
465.065	1058.32
465.438	1100.8
465.81	1090.18
466.183	1112.1
466.555	1125.44
466.928	1146.9
467.3	1139.67
467.672	1152.55
468.045	1160.92
468.417	1167.47
468.789	1227.13
469.161	1197.07
469.534	1238.88
469.906	1239.33
470.278	1260.35
470.65	1270.07
471.022	1280.46
471.394	1324.98
471.766	1342.38
472.138	1320.23
472.51	1357.52
472.882	1376.28
473.253	1404.07
473.625	1420.57
473.997	1441.81
474.369	1451.08
474.74	1463.96
475.112	1482.49
475.484	1533.34
475.855	1548.7
476.227	1587.57
476.598	1605.88
476.97	1637.74
477.341	1682.48
477.713	1696.04
478.084	1682.94
478.455	1764.74
478.827	1743.5
479.198	1792.31
479.569	1830.73
479.94	1835.7
480.311	1860.56
480.682	1920.67
481.053	1984.85
481.424	1966.54
481.795	2008.58
482.166	2058.07
482.537	2094.22
482.908	2126.31
483.279	2134.9
483.65	2179.65
484.021	2257.61
484.391	2234.11
484.762	2274.78
485.133	2321.56
485.503	2345.07
485.874	2385.06
486.244	2435.91
486.615	2477.04
486.985	2508.68
487.356	2560.65
487.726	2564.72
488.097	2632.06
488.467	2646.07
488.837	2710.71
489.207	2759.07
489.578	2758.39
489.948	2802.68
490.318	2859.85
490.688	2893.98
491.058	2966.74
491.428	2989.57
491.798	2994.99
492.168	3059.4
492.538	3043.13
492.908	3111.82
493.278	3171.48
493.648	3179.62
494.017	3230.92
494.387	3240.86
494.757	3325.38
495.126	3363.12
495.496	3349.33
495.866	3341.2
496.235	3383.23
496.605	3442.89
496.974	3451.03
497.344	3538.71
497.713	3494.19
498.082	3538.03
498.452	3618.7
498.821	3608.76
499.19	3618.7
499.559	3666.16
499.928	3677.69
500.298	3721.75
500.667	3750.9
501.036	3773.5
501.405	3762.88
501.774	3764.24
502.143	3834.07
502.512	3873.39
502.88	3867.96
503.249	3923.1
503.618	3929.66
503.987	3949.09
504.356	3953.38
504.724	3978.47
505.093	3988.86
505.462	4046.72
505.83	4037.45
506.199	4062.31
506.567	4102.31
506.936	4040.61
507.304	4150.44
507.672	4160.16
508.041	4170.78
508.409	4178.69
508.777	4214.17
509.145	4222.53
509.514	4184.11
509.882	4276.09
510.25	4251.46
510.618	4371
510.986	4338.46
511.354	4385.69
511.722	4412.13
512.09	4422.07
512.458	4415.07
512.826	4448.96
513.193	4500.04
513.561	4441.96
513.929	4512.01
514.297	4592.01
514.664	4566.48
515.032	4603.99
515.4	4585.91
515.767	4664.55
516.135	4646.02
516.502	4569.87
516.869	4672.01
517.237	4684.66
517.604	4615.29
517.972	4747.71
518.339	4712.91
518.706	4735.74
519.073	4775.28
519.44	4821.84
519.808	4823.64
520.175	4862.06
520.542	4838.11
520.909	4900.25
521.276	4891.21
521.643	4928.73
522.009	4935.05
522.376	4942.74
522.743	5002.4
523.11	5048.5
523.477	5043.07
523.843	5088.95
524.21	5112.45
524.577	5135.73
524.943	5174.14
525.31	5208.04
525.676	5201.26
526.043	5277.64
526.409	5277.19
526.776	5349.05
527.142	5402.61
527.508	5336.17
527.874	5406
528.241	5402.61
528.607	5436.96
528.973	5486.9
529.339	5508.6
529.705	5527.58
530.071	5522.38
530.437	5501.59
530.803	5586.56
531.169	5638.09
531.535	5634.47
531.901	5684.86
532.267	5684.86
532.632	5753.79
532.998	5748.14
533.364	5778.42
533.73	5752.43
534.095	5855.48
534.461	5828.82
534.826	5938.19
535.192	5881.92
535.557	5973.22
535.923	5960.79
536.288	5933.67
536.653	6027.68
537.019	5983.39
537.384	5982.26
537.749	6090.28
538.114	6080.33
538.479	6088.92
538.845	6110.16
539.21	6095.02
539.575	6141.58
539.94	6145.87
540.305	6228.13
540.67	6176.38
541.034	6259.99
541.399	6244.62
541.764	6329.59
542.129	6338.86
542.494	6321.23
542.858	6369.37
543.223	6402.59
543.587	6419.31
543.952	6428.57
544.316	6467.67
544.681	6468.12
545.045	6482.36
545.41	6610.04
545.774	6590.6
546.138	6559.42
546.503	6611.62
546.867	6706.08
547.231	6638.96
547.595	6682.35
547.959	6684.84
548.324	6724.84
548.688	6744.95
549.052	6740.66
549.416	6832.41
549.779	6838.05
550.143	6818.85
550.507	6821.11
550.871	6879.18
551.235	6922.12
551.599	6974.1
551.962	7012.51
552.326	7023.81
552.689	7100.65
553.053	6996.24
553.417	7025.62
553.78	7136.35
554.143	7133.41
554.507	7184.94
554.87	7206.18
555.234	7172.96
555.597	7250.93
555.96	7226.75
556.323	7275.11
556.686	7203.92
557.05	7304.26
557.413	7256.57
557.776	7330.25
558.139	7272.85
558.502	7351.04
558.865	7353.75
559.228	7421.77
559.59	7469.22
559.953	7503.8
560.316	7552.61
560.679	7586.96
561.041	7639.39
561.404	7605.94
561.767	7634.42
562.129	7606.62
562.492	7724.13
562.854	7718.71
563.217	7757.58
563.579	7773.17
563.941	7864.69
564.304	7887.52
564.666	7841.87
565.028	7903.11
565.39	7872.6
565.753	7938.36
566.115	7968.65
566.477	8034.41
566.839	8033.5
567.201	8158.02
567.563	8087.06
567.925	8120.28
568.287	8107.85
568.648	8156.21
569.01	8221.52
569.372	8238.7
569.734	8227.85
570.095	8307.62
570.457	8350.11
570.819	8370.9
571.18	8352.59
571.542	8458.13
571.903	8529.31
572.265	8536.32
572.626	8575.86
572.987	8645.01
573.349	8696.99
573.71	8703.09
574.071	8760.26
574.432	8776.08
574.794	8858.11
575.155	8880.49
575.516	8852.69
575.877	9015.17
576.238	8986.25
576.599	9099.69
576.96	9161.16
577.32	9258.56
577.681	9254.49
578.042	9379.68
578.403	9385.56
578.763	9537.42
579.124	9611.54
579.485	9667.36
579.845	9807.69
580.206	9821.25
580.566	9918.88
580.927	10015.82
581.287	10229.83
581.648	10320.22
582.008	10348.02
582.368	10556.37
582.728	10677.05
583.089	10828.91
583.449	10901.45
583.809	11088.56
584.169	11247.88
584.529	11375.56
584.889	11601.32
585.249	11764.25
585.609	11840.18
585.969	12091.93
586.329	12221.42
586.688	12415.76
587.048	12599.71
587.408	12747.73
587.768	12957.22
588.127	13146.14
588.487	13363.76
588.846	13709.06
589.206	13862.05
589.565	14118.32
589.925	14337.07
590.284	14549.72
590.643	14821.8
591.003	15115.35
591.362	15346.98
591.721	15611.38
592.08	15800.98
592.44	16182.89
592.799	16333.17
593.158	16721.86
593.517	16893.38
593.876	17220.83
594.235	17388.51
594.593	17758.67
594.952	18002.28
595.311	18215.16
595.67	18511.87
596.029	19051.97
596.387	19227.79
596.746	19554.78
597.104	19736.25
597.463	19982.79
597.822	20430.24
598.18	20558.15
598.538	20855.99
598.897	21297.34
599.255	21329.43
599.613	21958.11
599.972	22081.5
600.33	22552.67
600.688	22506.34
601.046	22954.47
601.404	23339.77
601.762	23608.24
602.12	23859.98
602.478	24084.38
602.836	24424.94
603.194	24553.75
603.552	24929.1
603.91	24965.71
604.268	25370.22
604.625	25518.92
604.983	25993.26
605.341	26174.72
605.698	26491.78
606.056	26823.74
606.413	26919.79
606.771	27252.66
607.128	27502.14
607.485	27609.26
607.843	27904.62
608.2	28083.82
608.557	28507.99
608.914	28623.02
609.272	28853.52
609.629	29176.45
609.986	29454.18
610.343	29593.39
610.7	29986.37
611.057	30083.09
611.414	30246.7
611.771	30584.1
612.127	30884.65
612.484	30992.45
612.841	31225.89
613.198	31293.91
613.554	31502.49
613.911	31998.75
614.267	31938.19
614.624	32108.58
614.98	32379.08
615.337	32756.24
615.693	32626.98
616.05	32828.78
616.406	33306.29
616.762	33155.78
617.118	33428.99
617.475	33491.82
617.831	33726.39
618.187	33892.26
618.543	34072.14
618.899	34227.84
619.255	34266.71
619.611	34501.28
619.967	34627.38
620.323	34745.12
620.678	34718.45
621.034	34829.41
621.39	34916.64
621.746	35075.96
622.101	35567.47
622.457	35283.86
622.812	35388.94
623.168	35662.16
623.523	35773.34
623.879	35905.31
624.234	35735.37
624.589	36041.81
624.945	36182.37
625.3	36176.27
625.655	36267.11
626.01	36321.57
626.365	36463.94
626.72	36546.88
627.075	36476.82
627.43	36590.72
627.785	36617.61
628.14	36787.32
628.495	36865.51
628.85	36903.25
629.205	36757.49
629.559	37106.19
629.914	37013.98
630.269	37079.29
630.623	36866.87
630.978	36931.5
631.332	37187.99
631.687	37262.34
632.041	37136.02
632.396	37213.75
632.75	37163.13
633.104	37312.51
633.459	37216.69
633.813	37220.53
634.167	37320.19
634.521	37428.44
634.875	37363.58
635.229	37346.86
635.583	37336.01
635.937	37276.58
636.291	37213.75
636.645	37427.53
636.999	37237.26
637.352	37579.62
637.706	37187.99
638.06	37280.19
638.413	37151.16
638.767	37235.67
639.121	37291.27
639.474	37136.47
639.828	37215.79
640.181	37243.58
640.534	37300.76
640.888	37210.36
641.241	37043.14
641.594	37177.6
641.947	37262.57
642.301	37090.14
642.654	37253.75
643.007	37120.2
643.36	37066.64
643.713	37154.77
644.066	37346.86
644.419	36932.4
644.771	36822.8
645.124	36548.23
645.477	36470.27
645.83	36267.79
646.182	36171.07
646.535	36057.85
646.888	36117.96
647.24	36078.64
647.593	36209.49
647.945	36180.33
648.298	35986.89
648.65	36019.21
649.002	35938.08
649.355	36112.99
649.707	35912.32
650.059	36169.71
650.411	36561.34
650.763	36458.52
651.115	36891.95
651.467	36863.93
651.819	36912.07
652.171	36836.36
652.523	36762.92
652.875	36701.68
653.227	36490.38
653.578	36764.05
653.93	36710.04
654.282	36546.43
654.633	36554.56
654.985	36519.76
655.337	36612.41
655.688	36623.03
656.039	36696.7
656.391	36542.13
656.742	36548.01
657.094	36521.79
657.445	36737.16
657.796	36511.17
658.147	36569.7
658.498	36535.58
658.849	36536.26
659.2	36517.95
659.551	36292.42
659.902	36597.27
660.253	36503.94
660.604	36446.54
660.955	36266.21
661.306	36546.88
661.656	36352.08
662.007	36404.28
662.358	36374.23
662.708	36423.27
663.059	36358.18
663.409	36138.75
663.76	36377.84
664.11	36437.5
664.461	36430.04
664.811	36391.63
665.161	36296.94
665.511	36370.16
665.862	36435.02
666.212	36404.28
666.562	36432.08
666.912	36419.88
667.262	36176.04
667.612	36362.7
667.962	36312.08
668.312	36290.39
668.662	36418.07
669.011	36253.78
669.361	36211.75
669.711	36288.35
670.06	36336.94
670.41	36128.81
670.76	36172.42
671.109	36360.44
671.459	36205.64
671.808	36191.63
672.157	36324.06
672.507	36006.33
672.856	36002.94
673.205	36188.92
673.554	36290.39
673.904	36103.95
674.253	36207.68
674.602	36217.85
674.951	35602.95
675.3	35511.88
675.649	36004.52
675.998	35930.17
676.346	36001.81
676.695	36110.51
677.044	35749.38
677.393	35862.83
677.741	36020.11
678.09	35974.24
678.438	35762.27
678.787	35856.5
679.135	35735.83
679.484	35520.92
679.832	35749.16
680.181	35480.47
680.529	35604.08
680.877	35541.03
681.225	35552.1
681.573	35634.81
681.922	35387.13
682.27	35245.67
682.618	35343.75
682.966	35252
683.314	35390.52
683.661	35223.75
684.009	35055.17
684.357	35002.06
684.705	35012.68
685.053	35000.25
685.4	35017.65
685.748	34846.13
686.095	34666.25
686.443	34714.38
686.79	34710.54
687.138	34740.6
687.485	34722.75
687.832	34554.84
688.18	34562.07
688.527	34303.32
688.874	34471.45
689.221	34332.47
689.568	34349.87
689.915	34104.23
690.262	34075.76
690.609	34033.72
690.956	33938.59
691.303	33964.8
691.65	33812.94
691.997	33798.48
692.344	33581.31
692.69	33513.74
693.037	33535.43
693.383	33367.3
693.73	33426.28
694.077	33184.48
694.423	33256.34
694.769	32977.71
695.116	33019.29
695.462	33026.97
695.808	32881.66
696.155	32928.67
696.501	32668.56
696.847	32686.41
697.193	32550.37
697.539	32542.46
697.885	32532.29
698.231	32275.35
698.577	32161.91
698.923	32225.64
699.269	31964.85
699.614	31935.25
699.96	31938.64
700.306	31871.52
700.651	31659.1
700.997	31831.97
701.342	31621.81
701.688	31517.86
702.033	31530.51
702.379	31502.04
702.724	31251.2
703.069	31472.66
703.415	30950.19
703.76	31118.77
704.105	31171.88
704.45	31050.3
704.795	30912.45
705.14	30646.24
705.485	30583.87
705.83	30514.49
706.175	30689.18
706.52	30581.39
706.865	30433.82
707.209	30369.87
707.554	30214.62
707.899	30489.18
708.243	30168.51
708.588	30102.98
708.932	29970.33
709.277	30040.83
709.621	29979.59
709.966	29766.27
710.31	29868.86
710.654	29580.06
710.998	29687.17
711.342	29637.46
711.687	29539.15
712.031	29498.02
712.375	29256.67
712.719	29398.82
713.063	29250.12
713.407	29319.95
713.75	29170.12
714.094	29142.78
714.438	28991.37
714.782	28878.38
715.125	29056.45
715.469	29002.67
715.812	28862.11
716.156	28713.64
716.499	28624.15
716.843	28632.51
717.186	28518.84
717.53	28728.78
717.873	28759.51
718.216	28507.99
718.559	28449.24
718.902	28332.63
719.246	28317.04
719.589	28250.15
719.932	28236.59
720.275	28167.44
720.617	28143.94
720.96	27980.55
721.303	28009.02
721.646	27974
721.989	27810.61
722.331	28035.46
722.674	27793.89
723.016	27806.54
723.359	27790.72
723.701	27769.71
724.044	27622.37
724.386	27362.26
724.729	27630.28
725.071	27587.11
725.413	27523.61
725.755	27532.65
726.097	27355.71
726.439	27183.06
726.782	27235.48
727.124	27348.93
727.465	27117.52
727.807	27171.98
728.149	27172.44
728.491	27126.11
728.833	27069.16
729.175	26915.72
729.516	26994.81
729.858	26844.53
730.199	26865.78
730.541	26901.26
730.882	26768.15
731.224	26912.33
731.565	26668.72
731.906	26729.51
732.248	26760.92
732.589	26643.18
732.93	26543.75
733.271	26473.7
733.612	26455.17
733.953	26658.32
734.294	26364.55
734.635	26355.73
734.976	26399.12
735.317	26164.78
735.658	26207.71
735.999	26263.08
736.339	26226.25
736.68	26201.61
737.021	26205.46
737.361	25995.52
737.702	26162.52
738.042	25969.76
738.383	25973.82
738.723	25981.96
739.063	25870.55
739.404	26026.02
739.744	25794.39
740.084	25773.83
740.424	25732.47
740.764	25764.34
741.104	25837.33
741.444	25624.68
741.784	25663.55
742.124	25688.18
742.464	25648.63
742.804	25488.41
743.143	25466.94
743.483	25522.31
743.823	25373.16
744.162	25518.02
744.502	25436.21
744.841	25203.9
745.181	25355.76
745.52	25120.74
745.86	25250.68
746.199	25169.55
746.538	25179.04
746.877	25190.79
747.216	25134.07
747.556	25117.35
747.895	25043
748.234	24916.45
748.573	24956.67
748.911	24859.5
749.25	24894.98
749.589	24794.19
749.928	24753.97
750.267	24836
750.605	24747.41
750.944	24667.42
751.283	24581.77
751.621	24596.68
751.96	24655.67
752.298	24532.28
752.636	24632.84
752.975	24371.15
753.313	24471.72
753.651	24381.55
753.989	24260.42
754.327	24296.35
754.666	24158.05
755.004	24170.25
755.342	24262.68
755.679	24136.36
756.017	24021.56
756.355	23991.5
756.693	23933.88
757.031	24031.05
757.368	23903.59
757.706	23776.59
758.044	23747.21
758.381	23761.23
758.719	23706.99
759.056	23672.64
759.394	23560.33
759.731	23406.88
760.068	23320.33
760.405	23337.73
760.743	23243.95
761.08	23231.3
761.417	23088.93
761.754	23064.07
762.091	23100.45
762.428	22976.16
762.765	22946.78
763.102	22928.03
763.438	22752.66
763.775	22641.03
764.112	22780.69
764.449	22671.76
764.785	22567.58
765.122	22480.58
765.458	22363.52
765.795	22319.23
766.131	22212.57
766.467	22173.24
766.804	22114.72
767.14	21926.47
767.476	22036.53
767.812	21858
768.148	21969.18
768.485	21754.27
768.821	21696.2
769.157	21688.29
769.492	21547.5
769.828	21582.3
770.164	21376.2
770.5	21408.74
770.836	21334.17
771.171	21272.7
771.507	21239.03
771.842	21008.98
772.178	21023.22
772.513	20908.19
772.849	20865.71
773.184	20857.8
773.519	20848.53
773.855	20599.05
774.19	20623.23
774.525	20602.21
774.86	20497.13
775.195	20460.75
775.53	20279.28
775.865	20227.76
776.2	20089.23
776.535	19962.91
776.87	19911.84
777.205	19825.28
777.539	19859.41
777.874	19813.08
778.209	19624.16
778.543	19678.85
778.878	19589.13
779.212	19502.35
779.547	19336.71
779.881	19471.39
780.215	19246.77
780.55	19405.41
780.884	19175.36
781.218	19194.79
781.552	19157.28
781.886	19021.69
782.22	18920.22
782.554	18894.01
782.888	18647.24
783.222	18623.96
783.556	18582.83
783.889	18528.14
784.223	18462.16
784.557	18364.98
784.89	18377.19
785.224	18220.13
785.557	18254.25
785.891	18136.97
786.224	18150.53
786.558	18041.15
786.891	17956.41
787.224	17849.97
787.557	17789.86
787.891	17756.19
788.224	17790.08
788.557	17693.81
788.89	17649.52
789.223	17606.59
789.556	17495.63
789.888	17478.9
790.221	17351
790.554	17278.23
790.887	17324.33
791.219	17153.94
791.552	17202.08
791.884	17046.15
792.217	16995.53
792.549	17013.38
792.882	16801.18
793.214	16813.16
793.546	16712.15
793.879	16598.02
794.211	16556.44
794.543	16695.42
794.875	16567.97
795.207	16598.7
795.539	16433.96
795.871	16408.65
796.203	16366.84
796.535	16266.96
796.867	16245.49
797.198	16134.76
797.53	16174.08
797.862	16035.55
798.193	16074.87
798.525	15912.17
798.856	16008.66
799.188	15777.71
799.519	15753.3
799.85	15722.57
800.182	15709.23
800.513	15710.36
800.844	15529.58
801.175	15702.23
801.506	15636.47
801.837	15501.33
802.168	15497.94
802.499	15411.16
802.83	15275.57
803.161	15347.44
803.491	15212.07
803.822	15178.85
804.153	15183.15
804.483	15019.31
804.814	14949.71
805.145	14992.19
805.475	14885.07
805.805	14861.12
806.136	14929.82
806.466	14869.26
806.796	14835.81
807.126	14704.06
807.457	14693.44
807.787	14745.19
808.117	14582.48
808.447	14637.85
808.777	14514.01
809.107	14480.11
809.436	14430.62
809.766	14444.86
810.096	14410.96
810.426	14310.4
810.755	14328.25
811.085	14277.86
811.414	14260.01
811.744	14189.05
812.073	14185.66
812.403	14058.88
812.732	14103.4
813.061	14024.76
813.39	13980.92
813.719	13969.17
814.049	13991.76
814.378	13911.54
814.707	13955.16
815.036	13793.58
815.365	13885.1
815.693	13682.62
816.022	13741.15
816.351	13623.64
816.68	13641.72
817.008	13596.75
817.337	13502.29
817.665	13481.04
817.994	13554.71
818.322	13498.44
818.651	13410.76
818.979	13345.91
819.307	13394.72
819.636	13316.98
819.964	13330.31
820.292	13349.52
820.62	13323.53
820.948	13226.59
821.276	13268.17
821.604	13224.55
821.932	13236.53
822.259	13236.76
822.587	13246.7
822.915	13215.29
823.243	13246.47
823.57	13132.35
823.898	13217.32
824.225	13184.78
824.553	13180.26
824.88	13094.84
825.207	13170.54
825.535	13177.1
825.862	13207.38
826.189	13101.39
826.516	13178.45
826.843	13187.49
827.17	13194.72
827.497	13163.31
827.824	13150.43
828.151	13157.21
828.478	13179.58
828.805	13189.98
829.131	13165.57
829.458	13129.64
829.785	13089.19
830.111	13091.9
830.438	13167.15
830.764	13112.69
831.09	13091.22
831.417	13073.14
831.743	13182.29
832.069	13098.23
832.395	12995.86
832.722	13065.69
833.048	13091
833.374	13075.18
833.7	12968.06
834.026	12992.92
834.351	13003.99
834.677	12925.8
835.003	12979.81
835.329	12995.63
835.654	12953.6
835.98	12940.72
836.306	12844.45
836.631	12927.16
836.956	12923.32
837.282	12922.87
837.607	12813.94
837.932	12801.29
838.258	12815.07
838.583	12830.21
838.908	12721.74
839.233	12773.49
839.558	12647.17
839.883	12717.22
840.208	12621.41
840.533	12641.07
840.858	12600.62
841.182	12580.73
841.507	12552.93
841.832	12462.54
842.156	12547.28
842.481	12547.51
842.805	12460.73
843.13	12449.43
843.454	12407.4
843.778	12335.09
844.103	12358.59
844.427	12258.7
844.751	12304.8
845.075	12306.84
845.399	12174.64
845.723	12061.42
846.047	12270.23
846.371	12050.57
846.695	12071.36
847.019	11939.39
847.343	11934.19
847.666	11823.91
847.99	11853.52
848.313	11840.41
848.637	11696.23
848.96	11770.13
849.284	11669.57
849.607	11560.64
849.931	11624.37
850.254	11458.27
850.577	11442.23
850.9	11379.86
851.223	11407.43
851.546	11254.66
851.869	11149.81
852.192	11324.94
852.515	11270.03
852.838	11044.72
853.161	11121.33
853.483	11077.27
853.806	11043.14
854.129	10958.62
854.451	10962.01
854.774	10908.68
855.096	10856.93
855.419	10807.89
855.741	10804.73
856.063	10749.59
856.385	10733.09
856.708	10725.86
857.03	10639.76
857.352	10660.55
857.674	10650.38
857.996	10535.58
858.318	10551.18
858.64	10556.83
858.961	10519.77
859.283	10458.98
859.605	10397.28
859.926	10425.98
860.248	10377.62
860.57	10304.86
860.891	10316.16
861.212	10293.78
861.534	10210.62
861.855	10168.36
862.176	10223.73
862.498	10253.56
862.819	10241.81
863.14	10188.25
863.461	10139.89
863.782	10120.91
864.103	10136.5
864.424	10122.71
864.745	10080.91
865.065	10052.21
865.386	9979.67
865.707	10013.56
866.027	9995.94
866.348	9978.76
866.668	9983.73
866.989	9895.83
867.309	9880.69
867.63	9917.97
867.95	9877.97
868.27	9761.14
868.59	9896.73
868.91	9823.29
869.23	9764.98
869.55	9735.61
869.87	9808.6
870.19	9710.07
870.51	9733.12
870.83	9709.62
871.15	9655.38
871.469	9725.21
871.789	9724.98
872.109	9758.43
872.428	9681.14
872.748	9654.7
873.067	9693.8
873.386	9651.09
873.706	9646.12
874.025	9530.19
874.344	9567.93
874.663	9603.86
874.982	9521.6
875.301	9544.2
875.62	9585.1
875.939	9564.31
876.258	9522.5
876.577	9445.67
876.896	9412.22
877.214	9422.62
877.533	9390.53
877.852	9395.28
878.17	9421.04
878.489	9372.9
878.807	9421.94
879.125	9309.85
879.444	9356.63
879.762	9299.23
880.08	9305.79
880.398	9271.21
880.716	9267.37
881.034	9147.15
881.352	9291.32
881.67	9202.06
881.988	9186.47
882.306	9155.06
882.624	9168.16
882.941	9039.8
883.259	9028.28
883.577	9074.15
883.894	9035.74
884.212	9070.76
884.529	9009.3
884.846	9009.97
885.164	8955.74
885.481	8946.02
885.798	8939.69
886.115	8828.96
886.432	8867.83
886.75	8868.51
887.067	8835.29
887.383	8799.59
887.7	8770.43
888.017	8741.28
888.334	8739.7
888.651	8718.01
888.967	8731.34
889.284	8667.39
889.6	8647.27
889.917	8591.91
890.233	8572.92
890.55	8578.12
890.866	8639.59
891.182	8555.07
891.498	8527.73
891.815	8464.68
892.131	8489.31
892.447	8453.38
892.763	8411.12
893.079	8382.65
893.395	8325.93
893.71	8301.74
894.026	8365.7
894.342	8305.59
894.657	8286.6
894.973	8255.42
895.289	8240.73
895.604	8202.09
895.92	8115.31
896.235	8113.5
896.55	8097.46
896.865	8131.81
897.181	8101.75
897.496	8001.41
897.811	8028.76
898.126	7974.52
898.441	7963.22
898.756	7906.5
899.071	7851.59
899.386	7908.08
899.7	7861.08
900.015	7749.22
900.33	7733.85
900.644	7695.43
900.959	7720.07
901.273	7712.61
901.588	7649.56
901.902	7657.02
902.216	7652.27
902.531	7606.85
902.845	7507.42
903.159	7481.88
903.473	7529.79
903.787	7395.1
904.101	7396.68
904.415	7414.08
904.729	7395.33
905.042	7338.61
905.356	7322.79
905.67	7292.96
905.984	7299.51
906.297	7291.83
906.611	7177.71
906.924	7198.95
907.237	7187.65
907.551	7099.52
907.864	7086.86
908.177	7066.75
908.491	7126.18
908.804	7039.86
909.117	7043.47
909.43	6975.68
909.743	6957.37
910.056	6952.85
910.368	6862.69
910.681	6837.38
910.994	6871.73
911.307	6787.43
911.619	6807.55
911.932	6781.78
912.244	6699.3
912.557	6684.61
912.869	6683.71
913.181	6649.81
913.494	6647.78
913.806	6577.5
914.118	6566.2
914.43	6532.98
914.742	6540.66
915.054	6449.14
915.366	6497.72
915.678	6456.6
915.99	6373.66
916.302	6392.87
916.613	6318.07
916.925	6286.88
917.236	6308.8
917.548	6249.82
917.859	6258.41
918.171	6200.11
918.482	6263.61
918.794	6210.73
919.105	6131.63
919.416	6197.17
919.727	6069.71
920.038	6086.66
920.349	6049.6
920.66	6055.7
920.971	6038.08
921.282	5968.47
921.593	5925.76
921.903	5920.11
922.214	5917.4
922.525	5902.49
922.835	5876.72
923.146	5826.1
923.456	5754.02
923.767	5804.86
924.077	5759.66
924.387	5732.55
924.697	5740.23
925.008	5711.98
925.318	5650.06
925.628	5626.11
925.938	5657.29
926.248	5568.94
926.558	5541.37
926.867	5581.36
927.177	5520.8
927.487	5483.06
927.796	5420.46
928.106	5438.54
928.416	5437.19
928.725	5403.06
929.034	5319
929.344	5411.88
929.653	5363.29
929.962	5279.68
930.271	5276.29
930.581	5219.11
930.89	5228.15
931.199	5221.6
931.508	5219.11
931.817	5191.32
932.125	5213.46
932.434	5172.79
932.743	5097.99
933.051	5095.95
933.36	5056.63
933.669	5046.46
933.977	4977.09
934.286	5020.25
934.594	4986.35
934.902	4965.11
935.21	4947.26
935.519	4953.13
935.827	4945.9
936.135	4888.28
936.443	4843.08
936.751	4781.61
937.059	4808.28
937.367	4806.92
937.674	4785.23
937.982	4799.69
938.29	4732.8
938.597	4769.18
938.905	4661.84
939.213	4659.81
939.52	4650.77
939.827	4616.64
940.135	4589.07
940.442	4637.89
940.749	4559.24
941.056	4573.03
941.363	4519.92
941.67	4496.2
941.977	4501.62
942.284	4463.65
942.591	4465.46
942.898	4429.76
943.205	4448.74
943.511	4400.38
943.818	4386.59
944.125	4319.25
944.431	4320.61
944.738	4369.87
945.044	4338.23
945.35	4368.29
945.657	4306.6
945.963	4256.2
946.269	4217.11
946.575	4242.87
946.881	4186.6
947.187	4161.29
947.493	4174.62
947.799	4173.94
948.105	4128.52
948.41	4123.32
948.716	4109.09
949.022	4102.53
949.327	4047.17
949.633	4029.99
949.938	4034.51
950.244	4001.07
950.549	3974.63
950.854	4027.51
951.16	3957.45
951.465	3944.12
951.77	3944.57
952.075	3900.96
952.38	3930.56
952.685	3881.07
952.99	3843.11
953.294	3855.99
953.599	3805.37
953.904	3782.09
954.209	3798.13
954.513	3746.16
954.818	3796.1
955.122	3775.76
955.426	3681.3
955.731	3737.8
956.035	3715.2
956.339	3697.8
956.643	3697.12
956.948	3662.54
957.252	3620.29
957.556	3657.35
957.86	3571.93
958.163	3590.46
958.467	3581.42
958.771	3602.43
959.075	3539.61
959.378	3505.94
959.682	3482.21
959.985	3487.63
960.289	3471.14
960.592	3470.01
960.896	3453.28
961.199	3460.97
961.502	3389.11
961.805	3402.89
962.108	3413.74
962.411	3366.96
962.714	3343.01
963.017	3362.21
963.32	3374.19
963.623	3321.99
963.926	3302.1
964.228	3278.37
964.531	3311.59
964.833	3281.99
965.136	3253.97
965.438	3209.9
965.741	3250.13
966.043	3211.94
966.345	3209.22
966.648	3187.98
966.95	3205.16
967.252	3150.92
967.554	3173.07
967.856	3111.37
968.158	3128.77
968.46	3119.96
968.761	3098.72
969.063	3065.95
969.365	3058.94
969.666	3063.69
969.968	3020.75
970.269	3025.05
970.571	2983.69
970.872	3019.85
971.174	2970.13
971.475	2947.31
971.776	2925.39
972.077	2936.69
972.378	2913.41
972.679	2932.17
972.98	2917.48
973.281	2912.06
973.582	2917.25
973.883	2869.35
974.183	2839.52
974.484	2860.98
974.785	2859.4
975.085	2814.43
975.386	2820.08
975.686	2755.9
975.986	2787.54
976.287	2774.66
976.587	2752.29
976.887	2736.47
977.187	2723.81
977.487	2726.07
977.787	2672.97
978.087	2686.53
978.387	2669.58
978.687	2674.55
978.987	2639.75
979.286	2681.33
979.586	2659.41
979.885	2590.03
980.185	2607.66
980.484	2612.4
980.784	2576.25
981.083	2538.73
981.382	2552.07
981.682	2604.72
981.981	2547.77
982.28	2541.67
982.579	2536.92
982.878	2520.65
983.177	2508.23
983.475	2520.43
983.774	2484.95
984.073	2466.19
984.372	2460.09
984.67	2447.44
984.969	2477.04
985.267	2457.83
985.566	2451.05
985.864	2451.73
986.162	2396.36
986.461	2399.3
986.759	2369.47
987.057	2326.53
987.355	2354.33
987.653	2362.01
987.951	2333.09
988.249	2331.51
988.547	2312.98
988.844	2318.4
989.142	2269.59
989.44	2298.51
989.737	2295.8
990.035	2276.59
990.332	2268.23
990.63	2241.57
990.927	2246.76
991.224	2226.65
991.521	2224.39
991.819	2239.31
992.116	2215.35
992.413	2166.54
992.71	2175.13
993.006	2143.26
993.303	2169.25
993.6	2174
993.897	2162.25
994.193	2102.13
994.49	2062.81
994.787	2116.14
995.083	2107.56
995.379	2056.94
995.676	2065.3
995.972	2069.37
996.268	2063.94
996.565	2037.95
996.861	2003.38
997.157	2011.51
997.453	2025.98
997.749	2002.02
998.044	1983.49
998.34	1986.43
998.636	1981.23
998.932	1985.3
999.227	1935.13
999.523	1964.74
999.818	1931.07
1000.114	1942.59
1000.409	1905.3
1000.704	1902.82
1001	1928.81
1001.295	1902.59
1001.59	1871.41
1001.885	1894.46
1002.18	1843.16
1002.475	1818.75
1002.77	1807.45
1003.065	1839.99
1003.359	1785.53
1003.654	1789.15
1003.949	1827.34
1004.243	1799.54
1004.538	1778.3
1004.832	1771.3
1005.127	1780.11
1005.421	1754.35
1005.715	1777.17
1006.009	1727
1006.304	1736.72
1006.598	1722.93
1006.892	1707.57
1007.186	1685.87
1007.48	1668.25
1007.773	1648.13
1008.067	1666.89
1008.361	1638.64
1008.655	1631.19
1008.948	1632.54
1009.242	1647.46
1009.535	1625.54
1009.829	1600
1010.122	1604.97
1010.415	1608.81
1010.708	1552.32
1011.001	1597.51
1011.295	1582.15
1011.588	1592.09
1011.881	1583.5
1012.173	1570.85
1012.466	1521.81
1012.759	1531.08
1013.052	1523.39
1013.344	1497.63
1013.637	1509.61
1013.93	1475.94
1014.222	1476.61
1014.514	1463.28
1014.807	1475.71
1015.099	1484.3
1015.391	1458.31
1015.683	1454.02
1015.976	1431.87
1016.268	1432.55
1016.56	1415.37
1016.851	1395.94
1017.143	1378.99
1017.435	1397.07
1017.727	1385.09
1018.018	1396.84
1018.31	1380.12
1018.602	1368.82
1018.893	1346.9
1019.185	1335.37
1019.476	1360.68
1019.767	1348.26
1020.058	1321.14
1020.35	1302.83
1020.641	1278.65
1020.932	1270.97
1021.223	1307.13
1021.514	1298.31
1021.804	1267.58
1022.095	1266.68
1022.386	1257.18
1022.677	1255.38
1022.967	1238.43
1023.258	1215.38
1023.548	1229.39
1023.839	1227.13
1024.129	1247.24
1024.419	1181.93
1024.709	1180.58
1025	1173.57
1025.29	1176.51
1025.58	1137.87
1025.87	1182.16
1026.16	1126.57
1026.449	1166.11
1026.739	1160.92
1027.029	1155.49
1027.319	1138.77
1027.608	1121.37
1027.898	1101.03
1028.187	1105.55
1028.477	1096.51
1028.766	1092.22
1029.055	1084.08
1029.344	1081.6
1029.634	1077.53
1029.923	1070.75
1030.212	1029.39
1030.501	1062.16
1030.79	1014.93
1031.078	1056.51
1031.367	1037.53
1031.656	1010.41
1031.945	1014.7
1032.233	1030.3
1032.522	998.89
1032.81	982.62
1033.099	989.62
1033.387	980.13
1033.675	990.3
1033.963	972.22
1034.251	958.21
1034.54	952.79
1034.828	956.18
1035.116	936.97
1035.403	954.14
1035.691	937.64
1035.979	918.44
1036.267	939.68
1036.554	915.72
1036.842	938.55
1037.129	913.92
1037.417	914.59
1037.704	892.22
1037.992	891.54
1038.279	872.34
1038.566	907.36
1038.853	907.36
1039.14	907.36
