Data from hue_60_FLMS001491_78.txt Node
Date: Mon Feb 06 15:17:54 GMT 2017
User: dcchb
Spectrometer: FLMS00149
Trigger mode: 0
Integration Time (sec): 2.000000E-2
Scans to average: 10
Electric dark correction enabled: true
Nonlinearity correction enabled: false
Boxcar width: 0
XAxis mode: Wavelengths
Number of Pixels in Spectrum: 2048
>>>>>Begin Spectral Data<<<<<
341.393	2.56
341.776	2.56
342.16	2.56
342.543	-44.9
342.927	-60.04
343.31	-61.17
343.693	-87.16
344.077	-45.35
344.46	-55.07
344.843	-73.6
345.226	-51.91
345.61	-41.28
345.993	-13.94
346.376	11.82
346.759	4.36
347.142	31.71
347.525	32.84
347.908	46.85
348.291	83.01
348.674	97.7
349.057	121.2
349.44	128.88
349.823	146.51
350.206	160.29
350.588	207.3
350.971	209.1
351.354	231.02
351.737	250.23
352.119	252.27
352.502	283
352.884	275.32
353.267	280.52
353.65	311.93
354.032	303.79
354.414	304.47
354.797	332.94
355.179	319.38
355.562	332.49
355.944	347.63
356.326	352.83
356.709	341.76
357.091	361.64
357.473	355.77
357.855	348.54
358.238	365.94
358.62	339.95
359.002	336.78
359.384	333.62
359.766	339.95
360.148	338.82
360.53	358.03
360.912	339.72
361.294	334.98
361.676	339.04
362.057	353.73
362.439	355.09
362.821	352.83
363.203	332.27
363.584	317.8
363.966	335.2
364.348	346.28
364.729	334.3
365.111	337.69
365.493	326.16
365.874	348.99
366.256	327.97
366.637	339.04
367.019	326.16
367.4	331.14
367.781	332.72
368.163	298.59
368.544	335.88
368.925	314.41
369.306	340.85
369.688	332.72
370.069	324.36
370.45	323
370.831	316.45
371.212	345.82
371.593	326.84
371.974	341.3
372.355	299.05
372.736	321.64
373.117	339.04
373.498	339.95
373.879	337.69
374.26	342.66
374.641	339.5
375.021	363.9
375.402	337.24
375.783	358.71
376.163	329.33
376.544	357.35
376.925	327.75
377.305	340.4
377.686	323.23
378.066	344.24
378.447	345.15
378.827	339.5
379.208	322.1
379.588	325.49
379.968	325.49
380.349	329.78
380.729	342.66
381.109	331.81
381.489	347.41
381.87	329.1
382.25	332.27
382.63	351.47
383.01	326.62
383.39	342.89
383.77	338.82
384.15	331.81
384.53	345.82
384.91	359.38
385.29	346.28
385.67	348.54
386.049	370.23
386.429	348.08
386.809	338.59
387.189	368.65
387.568	372.26
387.948	361.19
388.328	364.13
388.707	370.46
389.087	361.87
389.466	374.52
389.846	349.21
390.225	377.24
390.605	365.94
390.984	370.46
391.363	358.93
391.743	387.86
392.122	365.94
392.501	371.59
392.881	361.19
393.26	378.82
393.639	372.72
394.018	385.82
394.397	364.58
394.776	369.1
395.155	370.46
395.534	369.78
395.913	367.52
396.292	379.04
396.671	391.25
397.05	406.61
397.429	394.64
397.808	393.96
398.186	397.12
398.565	385.82
398.944	404.35
399.323	407.07
399.701	391.92
400.08	389.66
400.458	416.56
400.837	421.53
401.215	417.01
401.594	391.47
401.972	380.17
402.351	411.36
402.729	405.03
403.107	419.72
403.486	416.1
403.864	413.17
404.242	433.51
404.62	398.03
404.999	429.89
405.377	429.44
405.755	412.26
406.133	414.3
406.511	424.69
406.889	439.38
407.267	426.05
407.645	444.13
408.023	438.48
408.401	409.55
408.779	449.55
409.156	443.9
409.534	439.38
409.912	435.77
410.29	447.06
410.667	450.68
411.045	436.9
411.422	452.49
411.8	461.53
412.178	469.89
412.555	450.68
412.933	476.22
413.31	478.02
413.687	473.05
414.065	479.61
414.442	450.23
414.819	485.93
415.197	484.8
415.574	492.49
415.951	493.84
416.328	497.91
416.705	471.92
417.082	472.15
417.46	501.98
417.837	516.44
418.214	495.88
418.591	476.67
418.967	507.85
419.344	540.62
419.721	518.25
420.098	524.58
420.475	520.51
420.852	526.84
421.228	519.38
421.605	546.72
421.982	533.84
422.358	523.9
422.735	512.6
423.111	540.17
423.488	537.01
423.864	560.06
424.241	561.41
424.617	535.88
424.994	561.86
425.37	559.83
425.746	546.27
426.123	562.32
426.499	580.85
426.875	577
427.251	593.73
427.627	568.87
428.003	572.94
428.379	586.95
428.756	615.65
429.132	604.12
429.507	599.38
429.883	606.83
430.259	611.13
430.635	626.27
431.011	625.14
431.387	648.87
431.763	627.17
432.138	642.09
432.514	669.21
432.89	635.53
433.265	647.96
433.641	678.47
434.016	672.37
434.392	670.11
434.767	673.5
435.143	661.07
435.518	692.48
435.894	667.62
436.269	694.06
436.644	685.48
437.02	704.68
437.395	695.42
437.77	702.43
438.145	698.36
438.52	715.98
438.895	715.53
439.271	725.02
439.646	752.59
440.021	731.58
440.395	733.16
440.77	720.73
441.145	758.92
441.52	744.68
441.895	736.32
442.27	758.02
442.645	759.15
443.019	785.81
443.394	780.39
443.769	762.99
444.143	765.93
444.518	777.23
444.892	794.63
445.267	778.58
445.641	785.81
446.016	781.97
446.39	808.86
446.764	803.67
447.139	828.3
447.513	810.22
447.887	817.45
448.262	797.34
448.636	815.19
449.01	841.18
449.384	838.47
449.758	819.94
450.132	851.12
450.506	850.44
450.88	876.66
451.254	850.22
451.628	891.35
452.002	870.56
452.376	882.99
452.75	873.49
453.123	892.48
453.497	906.49
453.871	884.79
454.244	927.73
454.618	907.39
454.992	928.41
455.365	918.46
455.739	965.24
456.112	961.85
456.486	972.7
456.859	1009.08
457.232	998.91
457.606	979.25
457.979	1042.3
458.352	1032.13
458.725	1020.16
459.099	1043.21
459.472	1083.66
459.845	1073.04
460.218	1064.9
460.591	1073.49
460.964	1095.64
461.337	1132.7
461.71	1153.71
462.083	1117.56
462.456	1142.87
462.829	1144.22
463.201	1170.21
463.574	1175.63
463.947	1209.76
464.32	1202.98
464.692	1231.45
465.065	1247.27
465.438	1263.99
465.81	1281.39
466.183	1308.96
466.555	1318
466.928	1333.37
467.3	1343.09
467.672	1367.94
468.045	1394.16
468.417	1395.51
468.789	1441.84
469.161	1469.18
469.534	1468.73
469.906	1509.64
470.278	1526.36
470.65	1558
471.022	1569.97
471.394	1610.42
471.766	1671.44
472.138	1658.11
472.51	1728.39
472.882	1748.27
473.253	1783.75
473.625	1802.74
473.997	1879.34
474.369	1936.74
474.74	1914.6
475.112	1934.26
475.484	1991.88
475.855	2053.8
476.227	2122.05
476.598	2187.81
476.97	2213.35
477.341	2274.14
477.713	2338.77
478.084	2365.43
478.455	2458.76
478.827	2508.48
479.198	2635.48
479.569	2660.11
479.94	2788.47
480.311	2797.06
480.682	2859.88
481.053	3006.32
481.424	3065.07
481.795	3136.26
482.166	3240.44
482.537	3321.11
482.908	3449.02
483.279	3520.88
483.65	3653.08
484.021	3771.5
484.391	3852.62
484.762	3922.68
485.133	4013.3
485.503	4129.23
485.874	4298.04
486.244	4355.66
486.615	4556.79
486.985	4622.77
487.356	4845.14
487.726	4923.33
488.097	5058.02
488.467	5141.18
488.837	5384.56
489.207	5455.07
489.578	5630.43
489.948	5768.51
490.318	5888.96
490.688	6008.5
491.058	6200.36
491.428	6333.01
491.798	6452.33
492.168	6675.6
492.538	6773
492.908	6955.37
493.278	7092.54
493.648	7272.87
494.017	7408.24
494.387	7628.8
494.757	7763.26
495.126	7911.28
495.496	8017.71
495.866	8211.61
496.235	8365.27
496.605	8625.15
496.974	8659.28
497.344	8824.25
497.713	8964.81
498.082	9079.15
498.452	9291.35
498.821	9428.07
499.19	9601.17
499.559	9706.93
499.928	9908.28
500.298	10114.15
500.667	10240.71
501.036	10355.73
501.405	10500.13
501.774	10578.1
502.143	10836.17
502.512	10898.32
502.88	11139.89
503.249	11215.82
503.618	11348.92
503.987	11467.57
504.356	11676.15
504.724	11800.66
505.093	12018.74
505.462	12134.89
505.83	12261.9
506.199	12387.32
506.567	12655.56
506.936	12703.69
507.304	12895.32
507.672	13027.07
508.041	13131.48
508.409	13213.96
508.777	13415.09
509.145	13575.53
509.514	13602.65
509.882	13854.17
510.25	13884.23
510.618	14101.62
510.986	14268.4
511.354	14416.64
511.722	14493.47
512.09	14766.01
512.458	14760.81
512.826	14991.31
513.193	15128.71
513.561	15130.75
513.929	15398.54
514.297	15602.82
514.664	15680.34
515.032	15742.48
515.4	15928.47
515.767	16048.69
516.135	16192.19
516.502	16116.48
516.869	16504.5
517.237	16612.52
517.604	16605.51
517.972	16891.83
518.339	17088.21
518.706	17069.23
519.073	17247.53
519.44	17362.55
519.808	17649.1
520.175	17685.26
520.542	17989.65
520.909	17993.72
521.276	18056.54
521.643	18269.42
522.009	18360.04
522.376	18484.78
522.743	18683.2
523.11	18941.72
523.477	19001.15
523.843	19193.01
524.21	19390.97
524.577	19684.75
524.943	19664.19
525.31	19810.85
525.676	20043.16
526.043	20155.7
526.409	20271.18
526.776	20571.96
527.142	20494.22
527.508	20661.9
527.874	20929.92
528.241	20950.03
528.607	21034.09
528.973	21234.31
529.339	21284.93
529.705	21472.27
530.071	21660.07
530.437	21783
530.803	21897.35
531.169	22134.86
531.535	22136.89
531.901	22083.78
532.267	22321.97
532.632	22502.53
532.998	22578.01
533.364	22668.18
533.73	22727.38
534.095	23053.02
534.461	23090.54
534.826	23184.77
535.192	23280.14
535.557	23341.83
535.923	23495.27
536.288	23615.27
536.653	23562.84
537.019	23682.61
537.384	23790.41
537.749	23956.5
538.114	23897.52
538.479	24010.06
538.845	24189.27
539.21	24203.73
539.575	24207.12
539.94	24326.66
540.305	24518.07
540.67	24500.44
541.034	24711.74
541.399	24865.18
541.764	24758.74
542.129	24943.82
542.494	25020.88
542.858	25081.22
543.223	25087.77
543.587	25271.04
543.952	25306.3
544.316	25448.89
544.681	25253.87
545.045	25513.98
545.41	25578.61
545.774	25694.99
546.138	25794.19
546.503	25812.95
546.867	25775.89
547.231	26008.43
547.595	26055.66
547.959	26200.74
548.324	26305.37
548.688	26317.34
549.052	26411.81
549.416	26396.89
549.779	26498.36
550.143	26576.09
550.507	26787.61
550.871	26885.69
551.235	26818.35
551.599	26991.9
551.962	27121.39
552.326	27144.89
552.689	27392.57
553.053	27362.06
553.417	27403.42
553.78	27748.72
554.143	27684.99
554.507	27846.12
554.87	27835.95
555.234	28138.31
555.597	28063.74
555.96	28324.98
556.323	28346.22
556.686	28357.97
557.05	28552.77
557.413	28637.96
557.776	28703.04
558.139	28975.58
558.502	28987.33
558.865	29059.42
559.228	29242.92
559.59	29401.56
559.953	29333.54
560.316	29644.04
560.679	29649.01
561.041	29821.21
561.404	29985.04
561.767	30160.41
562.129	30015.55
562.492	30370.8
562.854	30353.85
563.217	30465.03
563.579	30566.05
563.941	30757
564.304	30956.32
564.666	31150.66
565.028	31237.44
565.39	31404.44
565.753	31470.43
566.115	31634.95
566.477	31719.69
566.839	31882.62
567.201	32073.8
567.563	32001.49
567.925	32158.77
568.287	32363.97
568.648	32304.76
569.01	32564.41
569.372	32664.52
569.734	32500.46
570.095	32817.06
570.457	33131.4
570.819	33063.38
571.18	33159.88
571.542	33323.26
571.903	33397.84
572.265	33453.43
572.626	33460.89
572.987	33441.68
573.349	33758.73
573.71	33934.55
574.071	33953.98
574.432	34119.85
574.794	34325.27
575.155	34303.12
575.516	34227.42
575.877	34298.15
576.238	34423.8
576.599	34573.4
576.96	34512.16
577.32	34677.35
577.681	34852.26
578.042	34810.23
578.403	34927.74
578.763	34979.49
579.124	35046.38
579.485	35153.04
579.845	35290.22
580.206	35127.28
580.566	35296.77
580.927	35326.37
581.287	35333.38
581.648	35287.5
582.008	35543.99
582.368	35476.88
582.728	35439.59
583.089	35468.06
583.449	35470.1
583.809	35585.8
584.169	35673.93
584.529	35539.02
584.889	35760.49
585.249	35540.61
585.609	35514.39
585.969	35813.37
586.329	35585.35
586.688	35821.05
587.048	35642.98
587.408	35739.7
587.768	35864.44
588.127	35678
588.487	35718.68
588.846	35967.71
589.206	35741.28
589.565	35645.69
589.925	35929.97
590.284	35857.66
590.643	35894.72
591.003	35909.86
591.362	36070.76
591.721	35991.89
592.08	36046.13
592.44	36221.04
592.799	36060.14
593.158	36075.73
593.517	36111.21
593.876	36181.49
594.235	36165.67
594.593	36023.98
594.952	36308.49
595.311	36146.01
595.67	36274.15
596.029	36371.54
596.387	36479.11
596.746	36448.38
597.104	36288.61
597.463	36362.96
597.822	36607.47
598.18	36324.99
598.538	36388.04
598.897	36734.47
599.255	36314.14
599.613	36937.63
599.972	36746.22
600.33	36876.84
600.688	36634.36
601.046	36877.29
601.404	36999.1
601.762	36834.36
602.12	36971.98
602.478	37021.7
602.836	36945.31
603.194	36857.86
603.552	36940.57
603.91	36761.59
604.268	37097.17
604.625	37071.64
604.983	37152.99
605.341	37068.7
605.698	37216.49
606.056	37439.99
606.413	37266.44
606.771	37496.26
607.128	37479.99
607.485	37306.43
607.843	37453.32
608.2	37549.14
608.557	37877.27
608.914	37724.5
609.272	37940.77
609.629	37950.26
609.986	38013.53
610.343	37893.99
610.7	38191.61
611.057	38184.83
611.414	38174.43
611.771	38200.65
612.127	38409
612.484	38294.88
612.841	38567.42
613.198	38514.99
613.554	38475.9
613.911	38725.61
614.267	38602.9
614.624	38636.57
614.98	38754.76
615.337	38942.78
615.693	38867.07
616.05	38857.13
616.406	39093.05
616.762	38943
617.118	39072.04
617.475	38981.19
617.831	39137.57
618.187	39241.07
618.543	39239.94
618.899	39636.77
619.255	39317
619.611	39391.8
619.967	39530.56
620.323	39562.87
620.678	39409.2
621.034	39333.27
621.39	39468.41
621.746	39467.28
622.101	39830.44
622.457	39606.71
622.812	39604.45
623.168	39841.51
623.523	39779.59
623.879	39892.81
624.234	39680.84
624.589	39804.45
624.945	39778.46
625.3	39967.83
625.655	39854.39
626.01	39955.86
626.365	40103.87
626.72	40035.18
627.075	39919.7
627.43	39924.22
627.785	39912.47
628.14	40037.21
628.495	40101.62
628.85	40098
629.205	39803.09
629.559	40079.47
629.914	39914.28
630.269	40045.35
630.623	39965.12
630.978	39849.42
631.332	39963.31
631.687	40114.5
632.041	39864.33
632.396	40113.14
632.75	39790.44
633.104	39983.43
633.459	39779.36
633.813	39706.15
634.167	39848.29
634.521	39785.92
634.875	39837.44
635.229	39800.61
635.583	39586.83
635.937	39732.13
636.291	39535.3
636.645	39621.63
636.999	39574.85
637.352	39741.62
637.706	39387.96
638.06	39610.55
638.413	39524.23
638.767	39355.87
639.121	39497.34
639.474	39226.61
639.828	39238.59
640.181	39373.5
640.534	39398.13
640.888	39231.13
641.241	39151.13
641.594	39239.26
641.947	39300.51
642.301	39201.75
642.654	39290.79
643.007	39144.8
643.36	39152.49
643.713	39222.32
644.066	39300.05
644.419	38897.35
644.771	38820.52
645.124	38316.8
645.477	38296.24
645.83	38117.26
646.182	37950.94
646.535	37868.68
646.888	37905.51
647.24	37775.8
647.593	37913.2
647.945	37853.31
648.298	37641.11
648.65	37643.37
649.002	37514.79
649.355	37748.68
649.707	37688.57
650.059	37806.31
650.411	38345.05
650.763	38291.04
651.115	38670.92
651.467	38434.31
651.819	38581.66
652.171	38391.83
652.523	38409.68
652.875	38346.63
653.227	38178.73
653.578	38582.78
653.93	38387.31
654.282	38249.69
654.633	38313.64
654.985	38006.3
655.337	38129.24
655.688	38264.38
656.039	38369.91
656.391	37929.69
656.742	38158.39
657.094	38112.74
657.445	38230.25
657.796	38167.88
658.147	37981.9
658.498	37967.21
658.849	38055.34
659.2	38051.95
659.551	38077.94
659.902	38023.48
660.253	37859.41
660.604	38241.1
660.955	37885.63
661.306	38086.53
661.656	37875.46
662.007	37799.53
662.358	37823.71
662.708	37817.16
663.059	37862.58
663.409	37591.17
663.76	37935.8
664.11	37942.58
664.461	37863.03
664.811	37891.28
665.161	37898.06
665.511	37681.11
665.862	37860.32
666.212	37928.34
666.562	37839.75
666.912	37701.9
667.262	37769.25
667.612	37722.02
667.962	37775.57
668.312	37644.96
668.662	37857.38
669.011	37707.1
669.361	37536.48
669.711	37668.23
670.06	37679.08
670.41	37583.49
670.76	37431.85
671.109	37781.22
671.459	37655.13
671.808	37650.38
672.157	37623.49
672.507	37486.09
672.856	37472.53
673.205	37453.55
673.554	37519.08
673.904	37481.8
674.253	37568.12
674.602	37442.7
674.951	36928.59
675.3	36839.78
675.649	37398.64
675.998	37259.88
676.346	37347.34
676.695	37470.72
677.044	37048.36
677.393	37302.59
677.741	37266.66
678.09	37164.52
678.438	37211.52
678.787	37316.38
679.135	37220.33
679.484	37037.29
679.832	37043.84
680.181	36892.89
680.529	37117.74
680.877	36958.42
681.225	36872.55
681.573	37157.06
681.922	36692.44
682.27	36614.48
682.618	36793.45
682.966	36557.75
683.314	36743.06
683.661	36596.4
684.009	36351.43
684.357	36279.79
684.705	36236.18
685.053	36239.34
685.4	36102.17
685.748	35927.04
686.095	36050.2
686.443	35949.18
686.79	35810.2
687.138	35981.95
687.485	35916.19
687.832	35774.95
688.18	35852.91
688.527	35587.61
688.874	35608.85
689.221	35560.49
689.568	35382.64
689.915	35334.06
690.262	35422.87
690.609	35467.84
690.956	35090.22
691.303	35067.4
691.65	35114.63
691.997	34946.27
692.344	34725.26
692.69	34797.57
693.037	34774.98
693.383	34585.15
693.73	34584.02
694.077	34431.26
694.423	34479.16
694.769	34315.78
695.116	34284.14
695.462	34299.51
695.808	34153.75
696.155	34313.07
696.501	33960.76
696.847	33876.92
697.193	33667.43
697.539	33733.65
697.885	33629.47
698.231	33444.61
698.577	33511.96
698.923	33389.48
699.269	33276.94
699.614	33053.66
699.96	33083.27
700.306	33060.9
700.651	32826.1
700.997	32798.08
701.342	32702.94
701.688	32627.91
702.033	32566.9
702.379	32658.65
702.724	32399.22
703.069	32438.54
703.415	32092.79
703.76	32146.34
704.105	32133.46
704.45	32031.32
704.795	31912.45
705.14	31794.49
705.485	31742.96
705.83	31646.47
706.175	31780.03
706.52	31615.28
706.865	31556.98
707.209	31433.59
707.554	31385.91
707.899	31454.38
708.243	31291.45
708.588	31239.25
708.932	31012.36
709.277	31117.44
709.621	30869.77
709.966	30878.58
710.31	30872.25
710.654	30628.64
710.998	30741.64
711.342	30712.48
711.687	30676.1
712.031	30476.78
712.375	30495.54
712.719	30495.31
713.063	30313.62
713.407	30440.85
713.75	30211.48
714.094	30280.4
714.438	30138.71
714.782	30093.29
715.125	29972.62
715.469	30125.61
715.812	29840.19
716.156	29700.08
716.499	29750.47
716.843	29754.09
717.186	29474.55
717.53	29582.34
717.873	29694.21
718.216	29696.01
718.559	29433.2
718.902	29174.44
719.246	29312.97
719.589	29275.91
719.932	29107.33
720.275	29098.29
720.617	29128.12
720.96	29012.42
721.303	29060.78
721.646	28904.17
721.989	28731.07
722.331	28882.93
722.674	28812.19
723.016	28822.14
723.359	28736.26
723.701	28872.76
724.044	28513.9
724.386	28467.12
724.729	28564.07
725.071	28484.52
725.413	28448.59
725.755	28400
726.097	28293.34
726.439	28113.46
726.782	28284.52
727.124	28257.18
727.465	28237.07
727.807	28194.36
728.149	28107.58
728.491	27999.56
728.833	28136.51
729.175	27930.64
729.516	27892.22
729.858	27846.57
730.199	27843.86
730.541	27832.56
730.882	27723.64
731.224	27760.02
731.565	27591.89
731.906	27589.85
732.248	27604.99
732.589	27356.41
732.93	27505.56
733.271	27410.2
733.612	27508.73
733.953	27318.22
734.294	27309.64
734.635	27320.71
734.976	27194.84
735.317	27222.41
735.658	27167.49
735.999	27151.9
736.339	27029.19
736.68	27234.61
737.021	27058.34
737.361	26903.32
737.702	27065.35
738.042	26864.22
738.383	26886.37
738.723	26859.93
739.063	26725.7
739.404	26886.82
739.744	26658.13
740.084	26633.27
740.424	26591.91
740.764	26529.77
741.104	26586.26
741.444	26401.64
741.784	26499.71
742.124	26495.87
742.464	26426.72
742.804	26383.33
743.143	26265.82
743.483	26359.38
743.823	26199.61
744.162	26178.37
744.502	26212.04
744.841	26121.87
745.181	26109.21
745.52	25971.82
745.86	26030.57
746.199	25974.08
746.538	25891.82
746.877	25974.3
747.216	26053.17
747.556	25804.59
747.895	25869.22
748.234	25752.84
748.573	25657.02
748.911	25673.29
749.25	25558.72
749.589	25467.65
749.928	25586.74
750.267	25600.75
750.605	25421.55
750.944	25416.58
751.283	25346.75
751.621	25323.7
751.96	25243.02
752.298	25382.23
752.636	25231.72
752.975	25046.64
753.313	25051.39
753.651	25065.4
753.989	24739.99
754.327	24825.63
754.666	24704.28
755.004	24750.38
755.342	24720.78
755.679	24798.51
756.017	24506.54
756.355	24619.08
756.693	24443.72
757.031	24473.78
757.368	24312.65
757.706	24252.77
758.044	24238.3
758.381	24168.93
758.719	24130.74
759.056	24125.54
759.394	24056.16
759.731	23853
760.068	23906.33
760.405	23887.8
760.743	23742.5
761.08	23822.95
761.417	23616.17
761.754	23583.63
762.091	23517.42
762.428	23503.86
762.765	23284.2
763.102	23357.2
763.438	23290.76
763.775	23196.97
764.112	23073.59
764.449	23100.93
764.785	23068.16
765.122	22921.95
765.458	22837.21
765.795	22761.28
766.131	22708.4
766.467	22611.45
766.804	22552.25
767.14	22365.13
767.476	22421.85
767.812	22338.92
768.148	22271.12
768.485	22136.89
768.821	22040.85
769.157	22141.86
769.492	21998.36
769.828	21919.49
770.164	21780.29
770.5	21708.43
770.836	21744.58
771.171	21589.33
771.507	21580.97
771.842	21444.25
772.178	21418.49
772.513	21441.31
772.849	21276.35
773.184	21143.24
773.519	21158.84
773.855	21085.17
774.19	20965.85
774.525	20864.15
774.86	20913.42
775.195	20888.79
775.53	20691.73
775.865	20663.93
776.2	20539.19
776.535	20424.62
776.87	20355.69
777.205	20321.34
777.539	20174.68
777.874	20174
778.209	20017.85
778.543	19989.15
778.878	19841.58
779.212	19868.02
779.547	19626.9
779.881	19813.56
780.215	19631.64
780.55	19690.63
780.884	19501.7
781.218	19452.89
781.552	19468.03
781.886	19444.31
782.22	19139.68
782.554	19205.44
782.888	18998.89
783.222	18945.34
783.556	18945.56
783.889	18789.41
784.223	18718.45
784.557	18620.82
784.89	18691.78
785.224	18583.76
785.557	18435.74
785.891	18426.7
786.224	18396.88
786.558	18397.78
786.891	18227.39
787.224	18127.28
787.557	18191
787.891	18036.43
788.224	18018.81
788.557	17982.42
788.89	17931.35
789.223	17907.17
789.556	17778.81
789.888	17657.23
790.221	17702.2
790.554	17558.25
790.887	17611.58
791.219	17473.96
791.552	17444.81
791.884	17317.13
792.217	17341.31
792.549	17220.18
792.882	17027.87
793.214	17048.66
793.546	17120.52
793.879	16928.67
794.211	16922.79
794.543	16957.36
794.875	16716.47
795.207	16882.34
795.539	16732.51
795.871	16699.74
796.203	16676.69
796.535	16454.1
796.867	16439.86
797.198	16357.15
797.53	16371.62
797.862	16382.69
798.193	16267.89
798.525	16146.31
798.856	16195.58
799.188	16116.26
799.519	16038.07
799.85	16013.89
800.182	15951.52
800.513	16000.1
800.844	15775.48
801.175	15877.17
801.506	15814.8
801.837	15643.28
802.168	15677.85
802.499	15675.59
802.83	15540.45
803.161	15482.83
803.491	15559.66
803.822	15512.66
804.153	15405.99
804.483	15321.48
804.814	15210.07
805.145	15182.95
805.475	15233.57
805.805	15118.77
806.136	15076.06
806.466	15072.22
806.796	15083.52
807.126	14907.48
807.457	14880.13
807.787	14934.59
808.117	14875.16
808.447	14830.42
808.777	14828.38
809.107	14698.89
809.436	14636.75
809.766	14690.53
810.096	14666.35
810.426	14598.1
810.755	14629.74
811.085	14582.29
811.414	14527.37
811.744	14370.09
812.073	14411.9
812.403	14288.06
812.732	14281.73
813.061	14212.8
813.39	14100.94
813.719	14125.12
814.049	14224.1
814.378	14128.29
814.707	14068.63
815.036	13997.89
815.365	13987.05
815.693	13879.25
816.022	13900.95
816.351	13833.61
816.68	13775.98
817.008	13805.13
817.337	13667.73
817.665	13644.46
817.994	13677.45
818.322	13646.94
818.651	13532.82
818.979	13613.27
819.307	13666.83
819.636	13580.28
819.964	13442.43
820.292	13515.2
820.62	13529.43
820.948	13432.49
821.276	13480.62
821.604	13470
821.932	13487.85
822.259	13484.91
822.587	13369.66
822.915	13391.13
823.243	13470
823.57	13402.66
823.898	13376.89
824.225	13368.53
824.553	13388.42
824.88	13347.29
825.207	13347.52
825.535	13337.8
825.862	13432.26
826.189	13272.72
826.516	13379.38
826.843	13371.7
827.17	13430
827.497	13464.12
827.824	13413.5
828.151	13393.84
828.478	13295.54
828.805	13403.11
829.131	13417.12
829.458	13336.67
829.785	13241.53
830.111	13281.3
830.438	13368.53
830.764	13335.54
831.09	13329.44
831.417	13228.2
831.743	13355.2
832.069	13357.91
832.395	13263.45
832.722	13293.96
833.048	13257.8
833.374	13223.68
833.7	13194.98
834.026	13170.57
834.351	13208.08
834.677	13205.15
835.003	13173.96
835.329	13160.63
835.654	13105.94
835.98	13112.72
836.306	13164.02
836.631	13053.51
836.956	13115.21
837.282	13069.11
837.607	13065.49
837.932	13039.5
838.258	13054.19
838.583	13038.82
838.908	12897.36
839.233	12901.2
839.558	12862.78
839.883	12781.66
840.208	12799.28
840.533	12832.5
840.858	12837.02
841.182	12767.87
841.507	12788.89
841.832	12632.05
842.156	12641.55
842.481	12644.48
842.805	12657.36
843.13	12683.13
843.454	12573.75
843.778	12498.95
844.103	12447.65
844.427	12457.82
844.751	12520.87
845.075	12430.93
845.399	12381.89
845.723	12319.52
846.047	12315.23
846.371	12258.73
846.695	12197.26
847.019	12103.48
847.343	12016.48
847.666	12034.33
847.99	11955.91
848.313	11952.3
848.637	11927.89
848.96	11866.43
849.284	11786.88
849.607	11640.89
849.931	11685.87
850.254	11643.83
850.577	11578.52
850.9	11530.61
851.223	11511.86
851.546	11469.15
851.869	11332.65
852.192	11447.23
852.515	11294.46
852.838	11283.39
853.161	11228.48
853.483	11210.17
853.806	11190.28
854.129	11102.15
854.451	11167.46
854.774	11055.6
855.096	11000.46
855.419	11009.27
855.741	10947.13
856.063	10883.63
856.385	10839.33
856.708	10794.59
857.03	10869.84
857.352	10788.04
857.674	10749.84
857.996	10741.94
858.318	10672.56
858.64	10723.63
858.961	10675.72
859.283	10588.49
859.605	10506.01
859.926	10598.89
860.248	10539.23
860.57	10557.53
860.891	10510.75
861.212	10463.07
861.534	10394.37
861.855	10377.88
862.176	10373.36
862.498	10397.76
862.819	10372.91
863.14	10351.44
863.461	10239.12
863.782	10218.56
864.103	10223.53
864.424	10190.54
864.745	10271.66
865.065	10143.31
865.386	10194.15
865.707	10163.65
866.027	10171.55
866.348	10146.92
866.668	10139.92
866.989	10088.17
867.309	10074.61
867.63	10106.7
867.95	10052.01
868.27	9966.36
868.59	10024.89
868.91	10021.28
869.23	9914.39
869.55	9870.09
869.87	9930.43
870.19	9910.77
870.51	9886.14
870.83	9836.2
871.15	9842.3
871.469	9782.86
871.789	9829.87
872.109	9824.45
872.428	9775.86
872.748	9707.61
873.067	9839.36
873.386	9783.32
873.706	9800.49
874.025	9666.71
874.344	9671.91
874.663	9717.33
874.982	9641.17
875.301	9635.52
875.62	9667.39
875.939	9518.69
876.258	9562.53
876.577	9503.55
876.896	9598.24
877.214	9501.06
877.533	9525.7
877.852	9518.46
878.17	9422.65
878.489	9460.16
878.807	9490.67
879.125	9452.03
879.444	9396.43
879.762	9443.89
880.08	9451.35
880.398	9363.44
880.716	9356.21
881.034	9350.56
881.352	9374.29
881.67	9294.06
881.988	9339.03
882.306	9220.17
882.624	9249.54
882.941	9176.1
883.259	9201.64
883.577	9194.41
883.894	9179.72
884.212	9186.5
884.529	9119.6
884.846	9099.04
885.164	9059.72
885.481	9076.67
885.798	9131.58
886.115	8983.11
886.432	8972.26
886.75	8915.09
887.067	9007.74
887.383	8903.11
887.7	8904.92
888.017	8904.92
888.334	8895.43
888.651	8878.48
888.967	8838.71
889.284	8750.8
889.6	8757.81
889.917	8758.71
890.233	8745.83
890.55	8615.66
890.866	8654.98
891.182	8671.48
891.498	8657.47
891.815	8650.69
892.131	8579.28
892.447	8514.87
892.763	8509
893.079	8562.56
893.395	8514.42
893.71	8425.84
894.026	8399.4
894.342	8426.29
894.657	8328.89
894.973	8384.93
895.289	8380.19
895.604	8344.71
895.92	8245.73
896.235	8250.48
896.55	8190.82
896.865	8171.38
897.181	8203.47
897.496	8137.71
897.811	8143.13
898.126	8051.84
898.441	8034.66
898.756	8038.28
899.071	7932.74
899.386	7986.3
899.7	7902.69
900.015	7911.5
900.33	7852.75
900.644	7834.67
900.959	7859.52
901.273	7769.58
901.588	7716.03
901.902	7756.02
902.216	7748.79
902.531	7701.79
902.845	7724.39
903.159	7659.3
903.473	7572.3
903.787	7564.62
904.101	7548.12
904.415	7526.2
904.729	7495.01
905.042	7456.15
905.356	7441.91
905.67	7366.88
905.984	7349.48
906.297	7357.84
906.611	7306.32
906.924	7334.79
907.237	7298.86
907.551	7261.8
907.864	7266.09
908.177	7214.12
908.491	7172.76
908.804	7141.8
909.117	7131.41
909.43	7029.94
909.743	7043.28
910.056	7050.05
910.368	7041.24
910.681	6969.38
910.994	6921.24
911.307	6910.4
911.619	6855.71
911.932	6838.31
912.244	6744.75
912.557	6784.07
912.869	6775.26
913.181	6772.55
913.494	6751.31
913.806	6622.72
914.118	6602.38
914.43	6605.55
914.742	6658.65
915.054	6613.23
915.366	6547.02
915.678	6488.26
915.99	6519.45
916.302	6450.3
916.613	6419.11
916.925	6410.07
917.236	6405.55
917.548	6350.64
917.859	6306.12
918.171	6334.37
918.482	6285.56
918.794	6269.74
919.105	6223.64
919.416	6192.45
919.727	6144.54
920.038	6125.11
920.349	6165.33
920.66	6043.3
920.971	6060.02
921.282	6044.66
921.593	6001.27
921.903	5995.17
922.214	5975.96
922.525	5964.89
922.835	5936.64
923.146	5909.75
923.456	5885.34
923.767	5878.56
924.077	5841.05
924.387	5790.2
924.697	5726.25
925.008	5743.2
925.318	5737.55
925.628	5694.38
925.938	5737.55
926.248	5674.72
926.558	5606.02
926.867	5599.25
927.177	5648.06
927.487	5541.39
927.796	5557.21
928.106	5491.23
928.416	5470.44
928.725	5504.56
929.034	5441.51
929.344	5453.49
929.653	5440.83
929.962	5382.98
930.271	5350.66
930.581	5325.58
930.89	5262.08
931.199	5293.94
931.508	5212.36
931.817	5271.34
932.125	5246.94
932.434	5223.89
932.743	5158.35
933.051	5150.44
933.36	5136.21
933.669	5101.63
933.977	5056.89
934.286	5070.45
934.594	5052.37
934.902	4980.05
935.21	4976.44
935.519	4986.61
935.827	4961.52
936.135	4911.58
936.443	4906.38
936.751	4911.13
937.059	4904.35
937.367	4857.12
937.674	4871.35
937.982	4876.78
938.29	4774.63
938.597	4785.03
938.905	4721.08
939.213	4744.8
939.52	4692.15
939.827	4743.45
940.135	4716.56
940.442	4631.36
940.749	4645.6
941.056	4656.22
941.363	4583.23
941.67	4613.51
941.977	4531.25
942.284	4510.23
942.591	4524.02
942.898	4515.66
943.205	4536
943.511	4512.95
943.818	4479.27
944.125	4389.33
944.431	4393.85
944.738	4367.64
945.044	4343.46
945.35	4348.2
945.657	4327.64
945.963	4348.2
946.269	4298.71
946.575	4306.85
946.881	4207.42
947.187	4260.3
947.493	4240.41
947.799	4229.56
948.105	4167.19
948.41	4163.35
948.716	4152.28
949.022	4124.26
949.327	4106.4
949.633	4061.88
949.938	4090.58
950.244	4074.99
950.549	4057.82
950.854	3994.09
951.16	4034.77
951.465	4053.98
951.77	3982.34
952.075	3941.89
952.38	3924.94
952.685	3910.02
952.99	3936.24
953.294	3928.78
953.599	3901.89
953.904	3848.33
954.209	3870.03
954.513	3814.89
954.818	3785.06
955.122	3783.93
955.426	3792.29
955.731	3782.8
956.035	3737.15
956.339	3701.44
956.643	3664.16
956.948	3710.71
957.252	3700.54
957.556	3695.34
957.86	3668.9
958.163	3670.48
958.467	3606.53
958.771	3604.04
959.075	3583.25
959.378	3553.2
959.682	3547.55
959.985	3557.94
960.289	3508.9
960.592	3507.32
960.896	3476.36
961.199	3525.85
961.502	3452.41
961.805	3457.15
962.108	3390.04
962.411	3431.17
962.714	3414.67
963.017	3407.21
963.32	3378.06
963.623	3317.95
963.926	3334.45
964.228	3327.67
964.531	3324.73
964.833	3275.92
965.136	3258.29
965.438	3284.5
965.741	3252.64
966.043	3246.31
966.345	3230.49
966.648	3240.89
966.95	3209.7
967.252	3167.67
967.554	3209.48
967.856	3167.44
968.158	3134.45
968.46	3181.46
968.761	3096.94
969.063	3103.04
969.365	3100.78
969.666	3080.44
969.968	3074.34
970.269	3075.02
970.571	3035.25
970.872	2998.41
971.174	3016.26
971.475	3000.67
971.776	2989.82
972.077	2955.7
972.378	2982.14
972.679	2941.46
972.98	2975.36
973.281	2913.21
973.582	2940.33
973.883	2892.42
974.183	2940.11
974.484	2898.98
974.785	2861.01
975.085	2835.48
975.386	2856.27
975.686	2826.66
975.986	2799.55
976.287	2811.3
976.587	2777.4
976.887	2781.24
977.187	2767.23
977.487	2742.37
977.787	2755.03
978.087	2726.33
978.387	2710.28
978.687	2707.57
978.987	2683.16
979.286	2665.54
979.586	2689.72
979.885	2672.09
980.185	2641.81
980.484	2622.37
980.784	2621.47
981.083	2606.1
981.382	2616.05
981.682	2613.79
981.981	2611.08
982.28	2596.84
982.579	2534.24
982.878	2541.02
983.177	2526.33
983.475	2564.07
983.774	2508.48
984.073	2512.55
984.372	2488.82
984.67	2475.49
984.969	2454.92
985.267	2441.81
985.566	2473.68
985.864	2451.31
986.162	2434.36
986.461	2421.7
986.759	2400.01
987.057	2384.87
987.355	2369.95
987.653	2409.72
987.951	2362.27
988.249	2366.34
988.547	2345.09
988.844	2342.61
989.142	2327.92
989.44	2334.7
989.737	2267.36
990.035	2295.83
990.332	2297.64
990.63	2293.34
990.927	2250.41
991.224	2284.08
991.521	2300.58
991.819	2218.54
992.116	2207.7
992.413	2223.51
992.71	2227.81
993.006	2191.43
993.303	2188.49
993.6	2180.8
993.897	2160.47
994.193	2129.73
994.49	2140.35
994.787	2146.68
995.083	2115.95
995.379	2115.27
995.676	2082.95
995.972	2114.59
996.268	2076.85
996.565	2059.45
996.861	2055.38
997.157	2035.27
997.453	2038.44
997.749	2062.62
998.044	2016.51
998.34	2005.89
998.636	2001.15
998.932	1965.22
999.227	1998.66
999.523	1975.84
999.818	1964.76
1000.114	1933.35
1000.409	1900.59
1000.704	1914.37
1001	1920.47
1001.295	1885.67
1001.59	1911.43
1001.885	1879.8
1002.18	1882.73
1002.475	1866.01
1002.77	1842.06
1003.065	1834.82
1003.359	1822.17
1003.654	1844.32
1003.949	1851.77
1004.243	1828.5
1004.538	1774.94
1004.832	1807.25
1005.127	1794.15
1005.421	1760.48
1005.715	1767.03
1006.009	1753.02
1006.304	1729.06
1006.598	1727.48
1006.892	1733.36
1007.186	1702.62
1007.48	1711.21
1007.773	1711.44
1008.067	1699.01
1008.361	1688.84
1008.655	1642.51
1008.948	1671.89
1009.242	1663.76
1009.535	1651.33
1009.829	1652.68
1010.122	1641.38
1010.415	1624.89
1010.708	1601.16
1011.001	1607.71
1011.295	1581.05
1011.588	1600.25
1011.881	1546.92
1012.173	1538.34
1012.466	1548.73
1012.759	1526.36
1013.052	1534.95
1013.344	1541.27
1013.637	1521.39
1013.93	1510.77
1014.222	1499.24
1014.514	1477.77
1014.807	1494.27
1015.099	1470.31
1015.391	1476.42
1015.683	1461.73
1015.976	1474.83
1016.268	1459.92
1016.56	1417.43
1016.851	1428.28
1017.143	1409.53
1017.435	1388.96
1017.727	1396.42
1018.018	1372.92
1018.31	1381.28
1018.602	1375.4
1018.893	1355.74
1019.185	1379.92
1019.476	1352.8
1019.767	1338.34
1020.058	1333.59
1020.35	1335.63
1020.641	1305.57
1020.932	1321.17
1021.223	1317.1
1021.514	1287.04
1021.804	1263.09
1022.095	1289.3
1022.386	1293.82
1022.677	1261.96
1022.967	1254.5
1023.258	1265.8
1023.548	1238.91
1023.839	1200.27
1024.129	1212.24
1024.419	1187.16
1024.709	1195.75
1025	1222.19
1025.29	1184.45
1025.58	1161.4
1025.87	1165.92
1026.16	1167.5
1026.449	1196.88
1026.739	1132.02
1027.029	1144
1027.319	1150.32
1027.608	1122.98
1027.898	1120.72
1028.187	1130.89
1028.477	1111.91
1028.766	1124.79
1029.055	1112.36
1029.344	1095.41
1029.634	1059.7
1029.923	1084.11
1030.212	1061.06
1030.501	1078.46
1030.79	1063.55
1031.078	1042.53
1031.367	1055.64
1031.656	1030.78
1031.945	1016.77
1032.233	1041.4
1032.522	1019.7
1032.81	990.78
1033.099	993.26
1033.387	999.14
1033.675	1001.85
1033.963	1004.56
1034.251	993.94
1034.54	983.77
1034.828	979.93
1035.116	970.21
1035.403	960.27
1035.691	957.79
1035.979	957.11
1036.267	946.03
1036.554	947.62
1036.842	912.59
1037.129	923.44
1037.417	906.49
1037.704	892.25
1037.992	927.96
1038.279	898.8
1038.566	876.88
1038.853	876.88
1039.14	876.88
