Data from hue_290_FLMS001491_00083.txt Node
Date: Tue Feb 07 15:53:23 GMT 2017
User: dcchb
Spectrometer: FLMS00149
Trigger mode: 0
Integration Time (sec): 2.000000E-2
Scans to average: 10
Electric dark correction enabled: true
Nonlinearity correction enabled: false
Boxcar width: 0
XAxis mode: Wavelengths
Number of Pixels in Spectrum: 2048
>>>>>Begin Spectral Data<<<<<
341.393	-29.18
341.776	-29.18
342.16	-29.18
342.543	-49.07
342.927	-55.85
343.31	-65.79
343.693	-96.52
344.077	-75.51
344.46	-53.81
344.843	-27.37
345.226	-28.05
345.61	-30.08
345.993	-10.42
346.376	-18.78
346.759	10.14
347.142	47.88
347.525	41.1
347.908	41.1
348.291	64.83
348.674	89.46
349.057	111.83
349.44	120.19
349.823	139.18
350.206	155.9
350.588	204.03
350.971	221.89
351.354	219.4
351.737	209.68
352.119	244.94
352.502	245.16
352.884	265.05
353.267	271.6
353.65	290.13
354.032	295.33
354.414	289.46
354.797	324.26
355.179	306.86
355.562	313.64
355.944	317.93
356.326	327.42
356.709	307.99
357.091	334.88
357.473	347.31
357.855	338.72
358.238	339.85
358.62	354.54
359.002	345.95
359.384	325.39
359.766	335.56
360.148	335.56
360.53	324.48
360.912	337.14
361.294	340.53
361.676	331.71
362.057	318.83
362.439	324.93
362.821	323.81
363.203	344.6
363.584	310.25
363.966	328.78
364.348	314.99
364.729	312.96
365.111	320.19
365.493	317.93
365.874	318.61
366.256	332.62
366.637	317.7
367.019	314.54
367.4	319.96
367.781	306.86
368.163	301.43
368.544	317.7
368.925	311.38
369.306	323.35
369.688	324.48
370.069	311.38
370.45	315.67
370.831	333.3
371.212	304.37
371.593	300.98
371.974	305.73
372.355	307.76
372.736	312.05
373.117	337.14
373.498	324.48
373.879	308.89
374.26	308.89
374.641	298.95
375.021	323.35
375.402	318.61
375.783	348.89
376.163	312.73
376.544	337.59
376.925	296.01
377.305	328.55
377.686	344.6
378.066	320.42
378.447	301.88
378.827	329.45
379.208	328.78
379.588	332.84
379.968	316.12
380.349	322.22
380.729	337.82
381.109	334.2
381.489	340.98
381.87	342.56
382.25	314.09
382.63	332.84
383.01	336.91
383.39	327.65
383.77	342.79
384.15	334.2
384.53	353.18
384.91	362.45
385.29	360.64
385.67	330.81
386.049	358.61
386.429	359.74
386.809	353.86
387.189	353.63
387.568	350.92
387.948	350.47
388.328	353.63
388.707	368.1
389.087	354.76
389.466	360.64
389.846	347.31
390.225	372.17
390.605	384.82
390.984	376.91
391.363	352.28
391.743	358.83
392.122	382.33
392.501	387.76
392.881	374.43
393.26	393.86
393.639	362.22
394.018	367.65
394.397	378.49
394.776	391.37
395.155	396.8
395.534	371.49
395.913	413.29
396.292	376.23
396.671	390.02
397.05	407.19
397.429	409.23
397.808	406.51
398.186	414.42
398.565	400.19
398.944	399.28
399.323	412.39
399.701	406.29
400.08	411.03
400.458	408.1
400.837	433.63
401.215	429.11
401.594	417.81
401.972	431.37
402.351	405.38
402.729	444.71
403.107	417.81
403.486	444.93
403.864	425.95
404.242	448.1
404.62	456.23
404.999	455.55
405.377	456.68
405.755	460.52
406.133	459.39
406.511	470.47
406.889	452.84
407.267	460.98
407.645	449.45
408.023	480.64
408.401	485.83
408.779	485.61
409.156	495.55
409.534	488.09
409.912	513.18
410.29	496.23
410.667	534.87
411.045	550.24
411.422	528.77
411.8	521.31
412.178	528.09
412.555	561.76
412.933	541.43
413.31	553.86
413.687	556.79
414.065	579.62
414.442	601.76
414.819	606.74
415.197	627.3
415.574	629.79
415.951	642.89
416.328	625.72
416.705	619.62
417.082	620.52
417.46	647.19
417.837	663.46
418.214	671.59
418.591	686.28
418.967	663.23
419.344	696.45
419.721	702.78
420.098	690.12
420.475	714.98
420.852	724.47
421.228	720.18
421.605	758.37
421.982	730.35
422.358	764.02
422.735	755.66
423.111	755.43
423.488	771.7
423.864	787.3
424.241	790.91
424.617	804.7
424.994	800.18
425.37	810.12
425.746	822.77
426.123	832.49
426.499	836.56
426.875	845.37
427.251	856.22
427.627	874.07
428.003	881.98
428.379	919.5
428.756	900.29
429.132	895.77
429.507	954.75
429.883	966.27
430.259	997.91
430.635	968.08
431.011	964.92
431.387	975.54
431.763	986.61
432.138	997.91
432.514	1013.05
432.89	1026.39
433.265	1054.63
433.641	1065.48
434.016	1060.73
434.392	1091.24
434.767	1099.83
435.143	1087.4
435.518	1111.58
435.894	1139.38
436.269	1162.43
436.644	1166.95
437.02	1179.6
437.395	1198.36
437.77	1199.04
438.145	1188.64
438.52	1221.18
438.895	1226.38
439.271	1247.4
439.646	1240.84
440.021	1293.5
440.395	1267.74
440.77	1258.7
441.145	1274.06
441.52	1320.39
441.895	1309.32
442.27	1331.46
442.645	1341.41
443.019	1361.29
443.394	1333.72
443.769	1365.36
444.143	1381.86
444.518	1384.79
444.892	1385.47
445.267	1377.56
445.641	1413.49
446.016	1387.96
446.39	1395.64
446.764	1380.95
447.139	1437.9
447.513	1385.25
447.887	1427.5
448.262	1414.85
448.636	1459.37
449.01	1469.99
449.384	1471.12
449.758	1466.37
450.132	1475.64
450.506	1495.53
450.88	1465.02
451.254	1492.81
451.628	1522.19
452.002	1513.15
452.376	1492.59
452.75	1533.94
453.123	1516.54
453.497	1568.97
453.871	1577.11
454.244	1623.21
454.618	1597.67
454.992	1617.56
455.365	1587.95
455.739	1626.14
456.112	1636.99
456.486	1669.98
456.859	1664.56
457.232	1716.08
457.606	1698.23
457.979	1719.02
458.352	1729.87
458.725	1736.88
459.099	1731
459.472	1767.61
459.845	1788.85
460.218	1766.03
460.591	1814.39
460.964	1839.02
461.337	1866.36
461.71	1847.61
462.083	1870.43
462.456	1872.92
462.829	1891.22
463.201	1919.7
463.574	1938.45
463.947	1954.72
464.32	1980.48
464.692	1978.45
465.065	1973.71
465.438	1996.3
465.81	2019.13
466.183	2011.9
466.555	2086.02
466.928	2085.11
467.3	2072.46
467.672	2109.07
468.045	2133.25
468.417	2129.41
468.789	2150.65
469.161	2194.26
469.534	2171.21
469.906	2227.03
470.278	2241.04
470.65	2279.91
471.022	2316.97
471.394	2313.13
471.766	2341.61
472.138	2325.56
472.51	2365.79
472.882	2437.65
473.253	2408.5
473.625	2465.9
473.997	2529.17
474.369	2509.51
474.74	2518.1
475.112	2579.34
475.484	2599.68
475.855	2639.9
476.227	2649.17
476.598	2702.27
476.97	2737.53
477.341	2772.33
477.713	2803.29
478.084	2792.21
478.455	2847.13
478.827	2862.5
479.198	2897.07
479.569	2922.61
479.94	3040.57
480.311	3015.94
480.682	3046.45
481.053	3093.45
481.424	3154.47
481.795	3156.27
482.166	3205.09
482.537	3233.11
482.908	3271.07
483.279	3289.38
483.65	3319.43
484.021	3373.22
484.391	3433.78
484.762	3435.81
485.133	3424.97
485.503	3489.82
485.874	3532.31
486.244	3580.44
486.615	3641.68
486.985	3626.54
487.356	3678.52
487.726	3682.59
488.097	3793.32
488.467	3730.5
488.837	3874.22
489.207	3818.18
489.578	3891.17
489.948	3911.28
490.318	3951.96
490.688	3962.81
491.058	4007.55
491.428	4078.28
491.798	4111.95
492.168	4183.82
492.538	4167.32
492.908	4208
493.278	4231.5
493.648	4222.69
494.017	4270.37
494.387	4289.12
494.757	4346.98
495.126	4331.84
495.496	4367.77
495.866	4427.2
496.235	4419.29
496.605	4422
496.974	4447.76
497.344	4534.09
497.713	4519.85
498.082	4594.2
498.452	4623.13
498.821	4569.57
499.19	4606.4
499.559	4675.78
499.928	4666.06
500.298	4727.53
500.667	4737.93
501.036	4710.58
501.405	4731.82
501.774	4738.15
502.143	4779.06
502.512	4756.23
502.88	4845.04
503.249	4828.32
503.618	4869
503.987	4866.96
504.356	4891.82
504.724	4857.7
505.093	4941.99
505.462	4920.97
505.83	4962.33
506.199	4972.95
506.567	4980.63
506.936	5021.31
507.304	5046.62
507.672	5026.05
508.041	5078.93
508.409	5113.96
508.777	5134.98
509.145	5098.82
509.514	5120.97
509.882	5159.84
510.25	5160.74
510.618	5164.13
510.986	5191.93
511.354	5252.71
511.722	5246.61
512.09	5298.14
512.458	5280.51
512.826	5288.42
513.193	5316.89
513.561	5313.96
513.929	5379.04
514.297	5378.14
514.664	5431.69
515.032	5440.51
515.4	5452.48
515.767	5492.48
516.135	5476.66
516.502	5461.98
516.869	5494.97
517.237	5468.75
517.604	5541.75
517.972	5525.7
518.339	5532.48
518.706	5561.63
519.073	5592.14
519.44	5635.76
519.808	5640.73
520.175	5568.64
520.542	5702.65
520.909	5645.25
521.276	5675.98
521.643	5716.88
522.009	5706.71
522.376	5783.1
522.743	5803.89
523.11	5847.95
523.477	5836.88
523.843	5883.43
524.21	5964.11
524.577	5992.58
524.943	5866.26
525.31	5922.75
525.676	5987.38
526.043	5985.8
526.409	6105.12
526.776	6172.01
527.142	6074.84
527.508	6125.23
527.874	6203.65
528.241	6224.44
528.607	6193.71
528.973	6246.14
529.339	6215.18
529.705	6320.03
530.071	6330.65
530.437	6360.48
530.803	6390.54
531.169	6386.92
531.535	6385.34
531.901	6427.83
532.267	6463.98
532.632	6401.84
532.998	6445.9
533.364	6535.62
533.73	6576.75
534.095	6583.08
534.461	6618.33
534.826	6607.93
535.192	6655.62
535.557	6689.29
535.923	6710.76
536.288	6718.44
536.653	6720.02
537.019	6710.76
537.384	6713.24
537.749	6728.16
538.114	6775.84
538.479	6755.27
538.845	6778.55
539.21	6774.71
539.575	6873.92
539.94	6819.91
540.305	6877.76
540.67	6860.13
541.034	6898.77
541.399	6941.94
541.764	6952.11
542.129	6964.99
542.494	6991.43
542.858	7013.12
543.223	7048.6
543.587	7051.09
543.952	7080.69
544.316	7094.47
544.681	7117.52
545.045	7101.25
545.41	7090.18
545.774	7147.35
546.138	7110.75
546.503	7205.21
546.867	7192.78
547.231	7248.37
547.595	7310.74
547.959	7252.44
548.324	7304.64
548.688	7289.95
549.052	7300.34
549.416	7338.99
549.779	7374.92
550.143	7343.28
550.507	7433.22
550.871	7436.61
551.235	7315.03
551.599	7420.79
551.962	7439.55
552.326	7487.46
552.689	7532.43
553.053	7511.86
553.417	7507.34
553.78	7640
554.143	7605.65
554.507	7548.93
554.87	7588.7
555.234	7679.09
555.597	7599.55
555.96	7637.74
556.323	7678.64
556.686	7654.46
557.05	7710.05
557.413	7742.14
557.776	7713.67
558.139	7773.33
558.502	7792.99
558.865	7774.91
559.228	7792.54
559.59	7844.51
559.953	7842.25
560.316	7889.71
560.679	7903.04
561.041	7926.54
561.404	7923.38
561.767	8008.8
562.129	7948.92
562.492	8016.03
562.854	8061
563.217	8059.19
563.579	8064.84
563.941	8127.44
564.304	8130.83
564.666	8132.87
565.028	8185.07
565.39	8217.38
565.753	8268.68
566.115	8241.11
566.477	8295.57
566.839	8271.17
567.201	8343.03
567.563	8326.98
567.925	8439.07
568.287	8372.18
568.648	8412.63
569.01	8478.17
569.372	8551.84
569.734	8477.49
570.095	8614.66
570.457	8560.65
570.819	8617.37
571.18	8728.33
571.542	8662.34
571.903	8703.92
572.265	8754.77
572.626	8771.94
572.987	8793.64
573.349	8790.93
573.71	8859.17
574.071	8901.88
574.432	8955.67
574.794	9077.93
575.155	9058.04
575.516	9036.8
575.877	9059.85
576.238	9138.94
576.599	9226.17
576.96	9300.74
577.32	9284.47
577.681	9365.83
578.042	9447.86
578.403	9438.14
578.763	9580.96
579.124	9564.69
579.485	9670.68
579.845	9712.94
580.206	9731.02
580.566	9767.62
580.927	9934.85
581.287	10003.78
581.648	10034.96
582.008	10123.77
582.368	10214.62
582.728	10288.97
583.089	10355.18
583.449	10423.88
583.809	10613.03
584.169	10620.26
584.529	10740.48
584.889	10890.53
585.249	10942.96
585.609	11021.6
585.969	11173.24
586.329	11203.74
586.688	11353.35
587.048	11506.79
587.408	11495.04
587.768	11656.61
588.127	11883.95
588.487	11965.53
588.846	12175.47
589.206	12158.07
589.565	12274.68
589.925	12484.62
590.284	12566.65
590.643	12687.1
591.003	12763.93
591.362	12992.62
591.721	13068.1
592.08	13294.31
592.44	13409.11
592.799	13502.89
593.158	13607.75
593.517	13854.52
593.876	13939.72
594.235	14074.18
594.593	14136.55
594.952	14348.52
595.311	14403.89
595.67	14614.28
596.029	14715.74
596.387	14936.08
596.746	15048.16
597.104	15100.37
597.463	15221.27
597.822	15365.9
598.18	15405.22
598.538	15570.86
598.897	15769.95
599.255	15755.72
599.613	16070.51
599.972	16095.59
600.33	16279.09
600.688	16277.06
601.046	16438.64
601.404	16574.23
601.762	16720.66
602.12	16873.2
602.478	16882.24
602.836	17058.28
603.194	17103.93
603.552	17198.62
603.91	17230.93
604.268	17324.04
604.625	17474.31
604.983	17559.28
605.341	17628.43
605.698	17802.89
606.056	17904.36
606.413	17939.16
606.771	18141.42
607.128	18169.66
607.485	18238.36
607.843	18351.35
608.2	18466.38
608.557	18558.13
608.914	18480.84
609.272	18728.52
609.629	18784.79
609.986	18911.79
610.343	18819.14
610.7	19070.2
611.057	19132.35
611.414	19199.47
611.771	19209.86
612.127	19309.75
612.484	19249.64
612.841	19423.87
613.198	19384.09
613.554	19429.97
613.911	19595.16
614.267	19580.25
614.624	19683.52
614.98	19720.58
615.337	19900.92
615.693	19905.66
616.05	19904.76
616.406	20024.53
616.762	20003.74
617.118	20043.74
617.475	20100.01
617.831	20184.53
618.187	20271.3
618.543	20364.86
618.899	20361.47
619.255	20501.35
619.611	20377.74
619.967	20512.2
620.323	20640.78
620.678	20541.13
621.034	20620.67
621.39	20619.54
621.746	20621.35
622.101	20886.2
622.457	20724.4
622.812	20795.58
623.168	20846.66
623.523	20923.49
623.879	20908.12
624.234	20846.2
624.589	20899.76
624.945	21015.24
625.3	20975.69
625.655	20968.01
626.01	21025.63
626.365	21039.42
626.72	21062.69
627.075	20942.7
627.43	21061.34
627.785	21014.79
628.14	21103.82
628.495	21135.46
628.85	21209.36
629.205	21082.36
629.559	21213.65
629.914	21156.25
630.269	21065.18
630.623	21082.58
630.978	21082.58
631.332	21104.73
631.687	21186.31
632.041	21042.13
632.396	21105.18
632.75	21024.5
633.104	21036.93
633.459	21037.16
633.813	21041.68
634.167	21060.66
634.521	20962.81
634.875	21032.41
635.229	21017.95
635.583	20791.29
635.937	20923.94
636.291	20890.72
636.645	20946.09
636.999	20880.55
637.352	20978.86
637.706	20826.32
638.06	21015.01
638.413	20851.85
638.767	20871.74
639.121	20871.97
639.474	20759.43
639.828	20803.72
640.181	20817.96
640.534	20847.33
640.888	20757.62
641.241	20622.93
641.594	20776.37
641.947	20792.87
642.301	20716.49
642.654	20857.5
643.007	20800.55
643.36	20840.78
643.713	20706.32
644.066	20832.19
644.419	20632.88
644.771	20493.9
645.124	20277.86
645.477	20384.97
645.83	20254.13
646.182	20157.18
646.535	20182.72
646.888	20191.76
647.24	20022.72
647.593	20153.79
647.945	20208.03
648.298	20140.69
648.65	20053.23
649.002	20031.31
649.355	20140.91
649.707	20085.32
650.059	20183.85
650.411	20377.06
650.763	20440.56
651.115	20658.86
651.467	20572.76
651.819	20532.31
652.171	20584.74
652.523	20574.8
652.875	20581.8
653.227	20586.78
653.578	20607.57
653.93	20547.68
654.282	20510.84
654.633	20498.42
654.985	20496.83
655.337	20523.27
655.688	20581.13
656.039	20562.59
656.391	20463.39
656.742	20560.34
657.094	20498.19
657.445	20573.89
657.796	20612.09
658.147	20491.86
658.498	20558.53
658.849	20572.54
659.2	20532.77
659.551	20542.71
659.902	20545.42
660.253	20602.14
660.604	20536.61
660.955	20474.24
661.306	20516.72
661.656	20547.45
662.007	20494.35
662.358	20549.26
662.708	20685.76
663.059	20554.23
663.409	20411.19
663.76	20605.31
664.11	20550.17
664.461	20672.42
664.811	20661.8
665.161	20602.59
665.511	20588.13
665.862	20614.12
666.212	20617.73
666.562	20773.89
666.912	20722.82
667.262	20596.49
667.612	20597.4
667.962	20620.67
668.312	20615.7
668.662	20705.19
669.011	20671.52
669.361	20676.04
669.711	20589.94
670.06	20616.38
670.41	20505.2
670.76	20536.15
671.109	20707
671.459	20556.72
671.808	20499.32
672.157	20570.73
672.507	20494.8
672.856	20439.21
673.205	20409.15
673.554	20494.12
673.904	20496.38
674.253	20563.5
674.602	20468.81
674.951	20225.88
675.3	20069.27
675.649	20330.74
675.998	20403.28
676.346	20406.89
676.695	20429.49
677.044	20267.24
677.393	20337.52
677.741	20405.31
678.09	20312.66
678.438	20262.49
678.787	20410.51
679.135	20210.97
679.484	20166.9
679.832	20266.78
680.181	20116.05
680.529	20227.24
680.877	20174.13
681.225	20073.34
681.573	20115.38
681.922	19949.5
682.27	19862.95
682.618	20003.74
682.966	19838.77
683.314	20007.36
683.661	19952.22
684.009	19792.45
684.357	19699.57
684.705	19670.87
685.053	19717.19
685.4	19653.01
685.748	19540.02
686.095	19564.2
686.443	19496.18
686.79	19500.02
687.138	19459.57
687.485	19506.8
687.832	19363.53
688.18	19381.38
688.527	19354.49
688.874	19362.4
689.221	19221.84
689.568	19120.37
689.915	19075.4
690.262	19138.45
690.609	19025.46
690.956	19044.67
691.303	18867.72
691.65	18863.43
691.997	18768.29
692.344	18674.51
692.69	18661.4
693.037	18723.55
693.383	18507.28
693.73	18589.09
694.077	18417.11
694.423	18465.7
694.769	18397.91
695.116	18275.88
695.462	18216.44
695.808	18259.38
696.155	18262.09
696.501	18058.93
696.847	18145.94
697.193	17898.26
697.539	17909.56
697.885	17777.36
698.231	17829.11
698.577	17751.37
698.923	17746.4
699.269	17627.3
699.614	17580.3
699.96	17437.03
700.306	17463.47
700.651	17464.37
700.997	17333.75
701.342	17310.25
701.688	17360.42
702.033	17128.56
702.379	17154.32
702.724	17127.43
703.069	17245.85
703.415	16946.64
703.76	16918.62
704.105	16913.2
704.45	16843.82
704.795	16667.1
705.14	16673.21
705.485	16614.45
705.83	16678.86
706.175	16681.12
706.52	16539.42
706.865	16497.39
707.209	16401.57
707.554	16437.73
707.899	16416.49
708.243	16295.36
708.588	16237.51
708.932	16136.95
709.277	16171.3
709.621	16136.5
709.966	16037.52
710.31	16066.22
710.654	15877.75
710.998	15849.72
711.342	15880.68
711.687	15903.28
712.031	15822.15
712.375	15778.77
712.719	15755.49
713.063	15751.2
713.407	15810.18
713.75	15597.53
714.094	15624.87
714.438	15633.23
714.782	15648.15
715.125	15510.98
715.469	15496.06
715.812	15449.06
716.156	15398.89
716.499	15360.7
716.843	15324.54
717.186	15270.76
717.53	15353.24
717.873	15404.09
718.216	15332.68
718.559	15278.89
718.902	15184.88
719.246	15181.72
719.589	15192.34
719.932	15185.34
720.275	15188.72
720.617	15172.45
720.96	15172.68
721.303	15002.29
721.646	15066.92
721.989	14986.02
722.331	15125
722.674	15052.68
723.016	15084.55
723.359	15063.76
723.701	14989.86
724.044	14995.51
724.386	14776.76
724.729	14850.43
725.071	14903.76
725.413	14844.33
725.755	14817.21
726.097	14822.41
726.439	14766.59
726.782	14696.08
727.124	14736.53
727.465	14717.78
727.807	14781.73
728.149	14651.79
728.491	14755.29
728.833	14723.88
729.175	14640.26
729.516	14760.26
729.858	14718
730.199	14643.88
730.541	14675.29
730.882	14651.11
731.224	14723.2
731.565	14571.34
731.906	14615.18
732.248	14600.04
732.589	14625.58
732.93	14483.43
733.271	14543.09
733.612	14539.25
733.953	14581.74
734.294	14496.31
734.635	14462.42
734.976	14595.29
735.317	14484.79
735.658	14531.34
735.999	14526.14
736.339	14642.3
736.68	14501.06
737.021	14444.79
737.361	14471
737.702	14487.27
738.042	14439.82
738.383	14478.69
738.723	14523.21
739.063	14511.68
739.404	14572.92
739.744	14459.93
740.084	14492.25
740.424	14631.23
740.764	14499.03
741.104	14572.7
741.444	14525.01
741.784	14534.96
742.124	14649.98
742.464	14670.77
742.804	14600.94
743.143	14581.96
743.483	14582.19
743.823	14615.41
744.162	14631
744.502	14677.55
744.841	14616.99
745.181	14808.85
745.52	14875.51
745.86	14814.95
746.199	14880.71
746.538	14896.3
746.877	14911.44
747.216	14905.79
747.556	14959.13
747.895	14993.02
748.234	15136.52
748.573	15205.9
748.911	15219.91
749.25	15259.46
749.589	15233.02
749.928	15292.45
750.267	15415.61
750.605	15514.82
750.944	15533.12
751.283	15568.83
751.621	15666.23
751.96	15694.93
752.298	15784.64
752.636	15888.14
752.975	15964.75
753.313	16034.8
753.651	16066.44
753.989	16203.84
754.327	16281.35
754.666	16296.72
755.004	16355.7
755.342	16535.81
755.679	16667.33
756.017	16635.01
756.355	16890.83
756.693	16942.8
757.031	17045.85
757.368	17094.89
757.706	17206.07
758.044	17247.65
758.381	17456.46
758.719	17395.22
759.056	17662.78
759.394	17709.34
759.731	17708.21
760.068	17806.51
760.405	17976.45
760.743	18048.99
761.08	18145.26
761.417	18203.33
761.754	18213.05
762.091	18453.5
762.428	18433.84
762.765	18545.02
763.102	18733.04
763.438	18704.11
763.775	18804.68
764.112	18941.17
764.449	19022.3
764.785	19020.26
765.122	19112.92
765.458	19226.81
765.795	19184.55
766.131	19289.18
766.467	19310.42
766.804	19243.08
767.14	19436.52
767.476	19462.06
767.812	19463.41
768.148	19621.15
768.485	19649.4
768.821	19566.46
769.157	19594.94
769.492	19628.83
769.828	19730.53
770.164	19603.75
770.5	19676.97
770.836	19670.41
771.171	19622.73
771.507	19818.43
771.842	19744.09
772.178	19771.66
772.513	19830.86
772.849	19864.99
773.184	19841.03
773.519	19836.74
773.855	19779.79
774.19	19741.15
774.525	19702.05
774.86	19692.34
775.195	19817.08
775.53	19719
775.865	19621.83
776.2	19598.55
776.535	19480.59
776.87	19587.93
777.205	19457.09
777.539	19476.75
777.874	19465
778.209	19450.31
778.543	19386.13
778.878	19318.33
779.212	19254.61
779.547	19215.96
779.881	19352.46
780.215	19112.01
780.55	19337.09
780.884	19142.52
781.218	19140.03
781.552	19050.32
781.886	19048.96
782.22	18911.79
782.554	18996.99
782.888	18778.91
783.222	18750.21
783.556	18700.27
783.889	18695.75
784.223	18695.53
784.557	18573.49
784.89	18693.04
785.224	18568.07
785.557	18549.09
785.891	18357.23
786.224	18390.22
786.558	18456.89
786.891	18165.14
787.224	18250.57
787.557	18143.9
787.891	18190.23
788.224	18209.89
788.557	18180.74
788.89	18105.48
789.223	18112.49
789.556	17871.14
789.888	17937.58
790.221	17906.17
790.554	17837.47
790.887	17813.97
791.219	17722.44
791.552	17661.43
791.884	17609.68
792.217	17618.94
792.549	17508.66
792.882	17465.28
793.214	17349.12
793.546	17393.64
793.879	17209.01
794.211	17152.97
794.543	17266.41
794.875	17105.28
795.207	17218.73
795.539	17091.05
795.871	17082.69
796.203	16948
796.535	16791.62
796.867	16851.96
797.198	16776.71
797.53	16816.48
797.862	16746.42
798.193	16717.95
798.525	16651.51
798.856	16593.66
799.188	16492.65
799.519	16476.83
799.85	16362.93
800.182	16369.48
800.513	16381.46
800.844	16187.79
801.175	16212.43
801.506	16186.21
801.837	16217.17
802.168	16084.75
802.499	16159.77
802.83	16014.92
803.161	15980.12
803.491	15990.51
803.822	15892.21
804.153	15827.13
804.483	15767.24
804.814	15672.78
805.145	15707.81
805.475	15658.32
805.805	15635.27
806.136	15593.69
806.466	15594.82
806.796	15539.68
807.126	15341.72
807.457	15396.86
807.787	15370.42
808.117	15308.27
808.447	15320.92
808.777	15314.82
809.107	15240.25
809.436	15238.22
809.766	15174.49
810.096	15071.89
810.426	15082.29
810.755	15137.43
811.085	14981.05
811.414	14976.53
811.744	14930.2
812.073	14834.16
812.403	14865.57
812.732	14823.99
813.061	14717.32
813.39	14736.53
813.719	14679.59
814.049	14795.29
814.378	14644.33
814.707	14670.77
815.036	14687.72
815.365	14522.08
815.693	14424
816.022	14505.81
816.351	14434.17
816.68	14283.89
817.008	14468.97
817.337	14250.67
817.665	14240.95
817.994	14243.21
818.322	14300.16
818.651	14155.53
818.979	14155.76
819.307	14183.1
819.636	14136.78
819.964	14037.57
820.292	14116.44
820.62	14122.76
820.948	14030.11
821.276	14082.09
821.604	13966.16
821.932	13991.24
822.259	13966.61
822.587	13960.51
822.915	13920.96
823.243	13922.09
823.57	13974.97
823.898	13927.29
824.225	13935.2
824.553	13962.99
824.88	13946.72
825.207	13949.66
825.535	13894.52
825.862	13951.7
826.189	13918.02
826.516	13978.81
826.843	14020.62
827.17	13912.15
827.497	13955.99
827.824	13991.47
828.151	13944.69
828.478	13960.28
828.805	14088.87
829.131	13984.24
829.458	13941.98
829.785	13874.18
830.111	13899.95
830.438	14018.81
830.764	13993.28
831.09	13952.15
831.417	13811.13
831.743	13919.38
832.069	13839.16
832.395	13896.1
832.722	13915.31
833.048	13915.09
833.374	13767.75
833.7	13782.89
834.026	13816.33
834.351	13797.12
834.677	13765.26
835.003	13872.83
835.329	13755.09
835.654	13727.29
835.98	13754.41
836.306	13742.21
836.631	13656.79
836.956	13715.32
837.282	13699.72
837.607	13636.68
837.932	13610.69
838.258	13610.69
838.583	13580.41
838.908	13457.02
839.233	13461.76
839.558	13492.05
839.883	13388.09
840.208	13373.63
840.533	13408.88
840.858	13425.61
841.182	13427.64
841.507	13367.3
841.832	13315.78
842.156	13322.56
842.481	13302.67
842.805	13239.85
843.13	13224.93
843.454	13169.12
843.778	13080.76
844.103	13069.23
844.427	13058.16
844.751	13077.82
845.075	13058.39
845.399	12989.91
845.723	12956.24
846.047	12923.02
846.371	12818.39
846.695	12796.7
847.019	12752.4
847.343	12674.44
847.666	12589.47
847.99	12573.65
848.313	12568
848.637	12511.28
848.96	12480.55
849.284	12374.11
849.607	12334.56
849.931	12317.84
850.254	12183.61
850.577	12188.8
850.9	12086.89
851.223	12130.05
851.546	12119.2
851.869	11993.55
852.192	11996.49
852.515	11879.43
852.838	11822.49
853.161	11886.89
853.483	11802.83
853.806	11763.28
854.129	11728.7
854.451	11627.46
854.774	11592.21
855.096	11605.32
855.419	11545.2
855.741	11539.1
856.063	11396.73
856.385	11442.38
856.708	11331.2
857.03	11266.12
857.352	11355.38
857.674	11268.6
857.996	11283.29
858.318	11161.49
858.64	11232.22
858.961	11162.84
859.283	11109.96
859.605	11106.35
859.926	11122.17
860.248	11100.47
860.57	11000.59
860.891	10991.32
861.212	10896.41
861.534	10904.09
861.855	10810.76
862.176	10922.17
862.498	10942.96
862.819	10892.57
863.14	10811.21
863.461	10842.85
863.782	10786.58
864.103	10813.25
864.424	10755.62
864.745	10741.16
865.065	10622.07
865.386	10676.75
865.707	10629.52
866.027	10649.41
866.348	10630.65
866.668	10578.9
866.989	10617.09
867.309	10522.18
867.63	10585.46
867.95	10579.81
868.27	10453.71
868.59	10455.06
868.91	10496.19
869.23	10445.8
869.55	10486.02
869.87	10502.75
870.19	10450.09
870.51	10429.75
870.83	10481.73
871.15	10309.53
871.469	10379.81
871.789	10327.16
872.109	10360.83
872.428	10234.05
872.748	10322.41
873.067	10237.67
873.386	10313.37
873.706	10241.51
874.025	10158.57
874.344	10142.53
874.663	10273.83
874.982	10180.72
875.301	10130.55
875.62	10152.7
875.939	10091.91
876.258	10159.03
876.577	10062.31
876.896	10035.19
877.214	10048.75
877.533	10015.75
877.852	10019.37
878.17	10035.87
878.489	9983.21
878.807	9946.83
879.125	9997.67
879.444	9934.4
879.762	9870.22
880.08	9904.12
880.398	9872.03
880.716	9888.07
881.034	9875.87
881.352	9810.34
881.67	9725.59
881.988	9814.4
882.306	9748.64
882.624	9709.09
882.941	9682.2
883.259	9630.9
883.577	9637.23
883.894	9592.71
884.212	9630
884.529	9586.16
884.846	9618.25
885.164	9561.08
885.481	9498.03
885.798	9566.05
886.115	9503.68
886.432	9497.12
886.75	9419.61
887.067	9419.39
887.383	9417.13
887.7	9453.06
888.017	9290.35
888.334	9373.06
888.651	9241.99
888.967	9275.21
889.284	9219.39
889.6	9168.32
889.917	9214.42
890.233	9241.08
890.55	9145.04
890.866	9161.76
891.182	9086.74
891.498	9080.86
891.815	9023.24
892.131	9042.22
892.447	9001.77
892.763	8920.19
893.079	8894.65
893.395	8877.93
893.71	8870.7
894.026	8776.92
894.342	8872.51
894.657	8745.5
894.973	8842.9
895.289	8759.29
895.604	8711.61
895.92	8672.51
896.235	8646.07
896.55	8643.81
896.865	8684.72
897.181	8536.7
897.496	8477.26
897.811	8512.52
898.126	8477.71
898.441	8421.45
898.756	8453.76
899.071	8368.34
899.386	8431.39
899.7	8308.91
900.015	8258.96
900.33	8262.81
900.644	8251.28
900.959	8253.09
901.273	8179.64
901.588	8171.51
901.902	8124.5
902.216	8069.14
902.531	8097.84
902.845	8045.86
903.159	7986.88
903.473	8030.04
903.787	7935.13
904.101	7921.57
904.415	7885.19
904.729	7854.23
905.042	7813.78
905.356	7785.76
905.67	7778.3
905.984	7776.04
906.297	7762.48
906.611	7664.18
906.924	7690.62
907.237	7658.53
907.551	7597.29
907.864	7561.35
908.177	7547.34
908.491	7524.52
908.804	7444.97
909.117	7425.99
909.43	7390.51
909.743	7381.02
910.056	7365.65
910.368	7305.09
910.681	7251.76
910.994	7252.89
911.307	7196.39
911.619	7192.55
911.932	7204.08
912.244	7196.17
912.557	7122.5
912.869	7044.98
913.181	7077.07
913.494	7123.17
913.806	7032.56
914.118	6948.49
914.43	6936.29
914.742	6911.43
915.054	6868.94
915.366	6825.55
915.678	6801.83
915.99	6755.73
916.302	6740.36
916.613	6713.69
916.925	6725.9
917.236	6743.75
917.548	6671.89
917.859	6635.5
918.171	6584.43
918.482	6614.04
918.794	6541.27
919.105	6547.37
919.416	6493.36
919.727	6501.5
920.038	6504.89
920.349	6381.5
920.66	6369.75
920.971	6383.31
921.282	6362.06
921.593	6321.16
921.903	6266.93
922.214	6217.21
922.525	6198.45
922.835	6195.29
923.146	6205.23
923.456	6149.87
923.767	6201.39
924.077	6136.08
924.387	6100.83
924.697	6083.43
925.008	6069.64
925.318	6016.99
925.628	5992.81
925.938	5943.32
926.248	5904
926.558	5891.34
926.867	5874.62
927.177	5867.61
927.487	5840.04
927.796	5758.92
928.106	5736.32
928.416	5729.76
928.725	5715.3
929.034	5705.81
929.344	5695.42
929.653	5636.21
929.962	5602.31
930.271	5608.64
930.581	5636.21
930.89	5550.11
931.199	5538.13
931.508	5533.39
931.817	5510.34
932.125	5458.13
932.434	5477.57
932.743	5393.05
933.051	5420.39
933.36	5351.47
933.669	5322.77
933.977	5306.72
934.286	5319.83
934.594	5280.74
934.902	5252.04
935.21	5222.89
935.519	5231.7
935.827	5179.72
936.135	5196.67
936.443	5191.7
936.751	5109.44
937.059	5156.45
937.367	5057.92
937.674	5067.64
937.982	5046.62
938.29	5062.21
938.597	5097.24
938.905	4929.11
939.213	4960.07
939.52	4934.76
939.827	4993.06
940.135	4897.92
940.442	4837.13
940.749	4871.48
941.056	4887.53
941.363	4842.33
941.67	4821.54
941.977	4772.5
942.284	4751.26
942.591	4762.78
942.898	4705.84
943.205	4695.22
943.511	4689.34
943.818	4701.77
944.125	4649.34
944.431	4587.2
944.738	4615.9
945.044	4524.37
945.35	4570.47
945.657	4496.58
945.963	4514.2
946.269	4447.09
946.575	4513.53
946.881	4487.76
947.187	4439.18
947.493	4397.6
947.799	4397.14
948.105	4390.14
948.41	4342.23
948.716	4328.67
949.022	4325.51
949.327	4307.2
949.633	4273.98
949.938	4262.91
950.244	4238.73
950.549	4175.23
950.854	4192.63
951.16	4240.31
951.465	4168
951.77	4188.56
952.075	4103.82
952.38	4117.83
952.685	4116.25
952.99	4093.42
953.294	4036.7
953.599	4004.16
953.904	4021.79
954.209	3988.79
954.513	3980.66
954.818	3935.91
955.122	3916.03
955.426	3958.51
955.731	3956.03
956.035	3899.76
956.339	3902.24
956.643	3875.8
956.948	3808.01
957.252	3841.9
957.556	3835.13
957.86	3804.39
958.163	3815.46
958.467	3752.19
958.771	3760.32
959.075	3751.74
959.378	3758.97
959.682	3717.39
959.985	3698.18
960.289	3710.61
960.592	3654.34
960.896	3661.8
961.199	3627.9
961.502	3616.15
961.805	3610.72
962.108	3547.45
962.411	3560.33
962.714	3564.17
963.017	3544.06
963.32	3553.55
963.623	3503.61
963.926	3531.86
964.228	3483.72
964.531	3459.32
964.833	3470.84
965.136	3420.67
965.438	3412.99
965.741	3382.03
966.043	3391.97
966.345	3383.84
966.648	3334.8
966.95	3381.58
967.252	3324.4
967.554	3316.72
967.856	3292.99
968.158	3287.79
968.46	3259.55
968.761	3286.21
969.063	3256.16
969.365	3216.61
969.666	3234.46
969.968	3248.25
970.269	3162.37
970.571	3200.34
970.872	3155.82
971.174	3133.45
971.475	3130.28
971.776	3125.09
972.077	3117.86
972.378	3120.12
972.679	3080.34
972.98	3102.94
973.281	3061.81
973.582	3037.18
973.883	3033.34
974.183	3029.95
974.484	2994.7
974.785	2988.37
975.085	2957.41
975.386	2989.27
975.686	2961.7
975.986	2943.17
976.287	2924.87
976.587	2887.35
976.887	2892.55
977.187	2869.73
977.487	2876.51
977.787	2828.82
978.087	2869.05
978.387	2843.74
978.687	2829.95
978.987	2805.1
979.286	2785.89
979.586	2774.59
979.885	2798.09
980.185	2731.88
980.484	2762.84
980.784	2716.96
981.083	2704.08
981.382	2727.36
981.682	2696.62
981.981	2665.21
982.28	2674.25
982.579	2670.86
982.878	2690.75
983.177	2643.29
983.475	2639
983.774	2608.26
984.073	2609.62
984.372	2592.9
984.67	2561.94
984.969	2537.98
985.267	2504.54
985.566	2535.72
985.864	2500.24
986.162	2503.63
986.461	2526.23
986.759	2522.17
987.057	2466.35
987.355	2493.69
987.653	2467.48
987.951	2431.32
988.249	2428.38
988.547	2410.3
988.844	2404.2
989.142	2421.6
989.44	2426.35
989.737	2368.5
990.035	2382.96
990.332	2348.16
990.63	2349.51
990.927	2363.3
991.224	2344.09
991.521	2306.58
991.819	2289.4
992.116	2300.02
992.413	2297.09
992.71	2243.98
993.006	2291.44
993.303	2271.78
993.6	2250.99
993.897	2259.35
994.193	2247.6
994.49	2247.82
994.787	2207.6
995.083	2186.81
995.379	2179.8
995.676	2173.47
995.972	2169.63
996.268	2172.12
996.565	2147.94
996.861	2163.08
997.157	2145.45
997.453	2132.12
997.749	2080.37
998.044	2101.61
998.34	2054.38
998.636	2070.65
998.932	2056.87
999.227	2056.19
999.523	2043.76
999.818	2019.35
1000.114	2036.3
1000.409	2001.73
1000.704	2017.77
1001	1978.68
1001.295	1976.64
1001.59	1978.9
1001.885	1994.27
1002.18	1960.82
1002.475	1923.54
1002.77	1872.92
1003.065	1890.32
1003.359	1906.14
1003.654	1889.64
1003.949	1888.28
1004.243	1886.02
1004.538	1845.35
1004.832	1838.57
1005.127	1833.37
1005.421	1828.17
1005.715	1835.86
1006.009	1829.75
1006.304	1772.58
1006.598	1786.59
1006.892	1783.43
1007.186	1777.33
1007.48	1747.5
1007.773	1747.95
1008.067	1715.18
1008.361	1730.32
1008.655	1742.3
1008.948	1714.5
1009.242	1753.37
1009.535	1679.48
1009.829	1681.06
1010.122	1668.18
1010.415	1674.73
1010.708	1679.25
1011.001	1651
1011.295	1621.62
1011.588	1639.02
1011.881	1613.49
1012.173	1592.7
1012.466	1621.17
1012.759	1568.74
1013.052	1614.84
1013.344	1579.82
1013.637	1548.18
1013.93	1563.55
1014.222	1528.75
1014.514	1556.77
1014.807	1522.19
1015.099	1492.14
1015.391	1515.19
1015.683	1507.73
1015.976	1518.58
1016.268	1482.87
1016.56	1462.31
1016.851	1471.35
1017.143	1458.01
1017.435	1451.68
1017.727	1439.71
1018.018	1433.15
1018.31	1440.84
1018.602	1393.38
1018.893	1392.7
1019.185	1385.7
1019.476	1390.67
1019.767	1375.98
1020.058	1386.38
1020.35	1364.23
1020.641	1347.73
1020.932	1330.11
1021.223	1342.54
1021.514	1334.63
1021.804	1312.03
1022.095	1315.19
1022.386	1324.91
1022.677	1289.66
1022.967	1258.02
1023.258	1265.7
1023.548	1285.36
1023.839	1270.22
1024.129	1267.28
1024.419	1272.25
1024.709	1216.66
1025	1224.57
1025.29	1218.7
1025.58	1225.7
1025.87	1196.78
1026.16	1222.99
1026.449	1193.39
1026.739	1179.38
1027.029	1159.04
1027.319	1172.14
1027.608	1162.43
1027.898	1168.3
1028.187	1147.51
1028.477	1136.44
1028.766	1135.54
1029.055	1110.23
1029.344	1130.11
1029.634	1119.04
1029.923	1102.54
1030.212	1089.21
1030.501	1066.38
1030.79	1086.95
1031.078	1092.6
1031.367	1069.1
1031.656	1068.64
1031.945	1042.66
1032.233	1018.48
1032.522	1056.89
1032.81	1026.16
1033.099	1014.86
1033.387	1011.24
1033.675	1005.6
1033.963	1017.57
1034.251	1005.37
1034.54	998.14
1034.828	971.02
1035.116	982.77
1035.403	959.27
1035.691	997.01
1035.979	985.03
1036.267	957.69
1036.554	966.95
1036.842	950.68
1037.129	914.52
1037.417	922.66
1037.704	909.33
1037.992	914.07
1038.279	929.89
1038.566	903.9
1038.853	903.9
1039.14	903.9
