Data from hue_170_FLMS001491_00082.txt Node
Date: Tue Feb 07 16:49:18 GMT 2017
User: dcchb
Spectrometer: FLMS00149
Trigger mode: 0
Integration Time (sec): 2.000000E-2
Scans to average: 10
Electric dark correction enabled: true
Nonlinearity correction enabled: false
Boxcar width: 0
XAxis mode: Wavelengths
Number of Pixels in Spectrum: 2048
>>>>>Begin Spectral Data<<<<<
341.393	-19.75
341.776	-19.75
342.16	-19.75
342.543	-61.1
342.927	-52.96
343.31	-57.94
343.693	-71.04
344.077	-73.98
344.46	-50.25
344.843	-57.71
345.226	-43.02
345.61	-34.89
345.993	-19.97
346.376	-14.77
346.759	7.15
347.142	25.68
347.525	22.74
347.908	39.69
348.291	100.25
348.674	120.82
349.057	107.26
349.44	126.47
349.823	159.91
350.206	152
350.588	184.54
350.971	228.61
351.354	242.62
351.737	230.42
352.119	248.27
352.502	252.56
352.884	277.2
353.267	272.9
353.65	292.34
354.032	308.83
354.414	316.74
354.797	320.81
355.179	329.17
355.562	329.62
355.944	325.56
356.326	340.47
356.709	343.18
357.091	336.86
357.473	331.66
357.855	368.95
358.238	336.18
358.62	344.99
359.002	346.57
359.384	340.02
359.766	333.01
360.148	351.54
360.53	332.11
360.912	332.34
361.294	321.26
361.676	352.9
362.057	342.73
362.439	336.86
362.821	343.18
363.203	330.98
363.584	321.49
363.966	309.06
364.348	312.68
364.729	331.43
365.111	321.94
365.493	320.58
365.874	316.74
366.256	329.62
366.637	322.62
367.019	328.04
367.4	316.74
367.781	312.68
368.163	308.61
368.544	325.1
368.925	316.29
369.306	311.77
369.688	312.9
370.069	326.91
370.45	337.76
370.831	328.95
371.212	318.1
371.593	326.46
371.974	311.55
372.355	306.8
372.736	320.36
373.117	300.25
373.498	343.86
373.879	286.01
374.26	333.92
374.641	312
375.021	300.47
375.402	318.32
375.783	333.01
376.163	307.03
376.544	327.36
376.925	318.55
377.305	316.97
377.686	330.08
378.066	345.44
378.447	353.35
378.827	335.73
379.208	337.08
379.588	329.85
379.968	333.24
380.349	351.54
380.729	353.13
381.109	333.01
381.489	341.38
381.87	341.83
382.25	352.67
382.63	340.25
383.01	344.31
383.39	335.95
383.77	365.56
384.15	348.83
384.53	355.61
384.91	361.71
385.29	345.44
385.67	347.7
386.049	362.62
386.429	354.71
386.809	356.06
387.189	358.32
387.568	344.76
387.948	348.61
388.328	359.23
388.707	375.27
389.087	371.43
389.466	377.76
389.846	358.78
390.225	367.14
390.605	368.72
390.984	378.66
391.363	367.36
391.743	375.72
392.122	402.39
392.501	378.89
392.881	388.15
393.26	387.25
393.639	370.98
394.018	391.32
394.397	402.39
394.776	389.51
395.155	384.99
395.534	381.37
395.913	391.09
396.292	396.29
396.671	409.17
397.05	395.84
397.429	401.71
397.808	414.14
398.186	399.9
398.565	418.44
398.944	378.89
399.323	405.55
399.701	415.27
400.08	422.5
400.458	398.1
400.837	414.82
401.215	413.92
401.594	403.97
401.972	411.2
402.351	423.18
402.729	416.18
403.107	434.93
403.486	445.78
403.864	431.99
404.242	443.29
404.62	437.19
404.999	443.75
405.377	457.76
405.755	454.37
406.133	460.24
406.511	451.65
406.889	461.15
407.267	476.51
407.645	455.5
408.023	461.6
408.401	465.44
408.779	475.38
409.156	492.33
409.534	490.98
409.912	504.08
410.29	500.47
410.667	516.51
411.045	517.64
411.422	518.32
411.8	519.9
412.178	523.97
412.555	525.55
412.933	509.96
413.31	537.08
413.687	555.15
414.065	546.57
414.442	545.89
414.819	544.99
415.197	570.97
415.574	546.12
415.951	569.84
416.328	581.82
416.705	590.18
417.082	594.93
417.46	592.67
417.837	584.76
418.214	587.92
418.591	608.03
418.967	608.71
419.344	626.11
419.721	632.22
420.098	612.33
420.475	659.11
420.852	660.46
421.228	634.25
421.605	651.88
421.982	666.11
422.358	659.56
422.735	671.08
423.111	670.63
423.488	676.28
423.864	692.78
424.241	689.39
424.617	724.19
424.994	693.68
425.37	718.09
425.746	695.72
426.123	763.06
426.499	718.09
426.875	764.87
427.251	753.12
427.627	741.14
428.003	791.31
428.379	770.74
428.756	802.38
429.132	781.82
429.507	800.8
429.883	803.74
430.259	811.19
430.635	817.75
431.011	835.15
431.387	808.26
431.763	869.72
432.138	872.89
432.514	855.94
432.89	859.78
433.265	892.32
433.641	897.07
434.016	904.07
434.392	930.96
434.767	942.49
435.143	951.98
435.518	968.7
435.894	956.05
436.269	1004.63
436.644	1023.84
437.02	975.71
437.395	1009.83
437.77	1008.7
438.145	1044.18
438.52	1033.33
438.895	1065.65
439.271	1065.2
439.646	1077.4
440.021	1106.55
440.395	1085.08
440.77	1095.03
441.145	1110.17
441.52	1125.54
441.895	1130.96
442.27	1147.68
442.645	1171.41
443.019	1160.56
443.394	1165.31
443.769	1182.71
444.143	1179.32
444.518	1226.1
444.892	1190.17
445.267	1233.78
445.641	1238.3
446.016	1221.58
446.39	1247.34
446.764	1261.13
447.139	1267.45
447.513	1311.97
447.887	1278.53
448.262	1285.76
448.636	1295.47
449.01	1331.63
449.384	1340.22
449.758	1334.12
450.132	1362.59
450.506	1362.82
450.88	1367.56
451.254	1396.04
451.628	1388.58
452.002	1434.68
452.376	1403.72
452.75	1433.55
453.123	1450.27
453.497	1475.58
453.871	1494.34
454.244	1504.06
454.618	1492.53
454.992	1535.24
455.365	1570.95
455.739	1587.44
456.112	1587.67
456.486	1628.8
456.859	1628.35
457.232	1627.9
457.606	1692.53
457.979	1688.46
458.352	1708.8
458.725	1752.86
459.099	1736.14
459.472	1776.82
459.845	1792.64
460.218	1827.21
460.591	1845.06
460.964	1869.7
461.337	1865.63
461.71	1917.83
462.083	1932.07
462.456	1962.58
462.829	1985.85
463.201	2033.31
463.574	2010.48
463.947	2057.94
464.32	2077.83
464.692	2134.77
465.065	2174.77
465.438	2176.36
465.81	2218.39
466.183	2250.93
466.555	2295.67
466.928	2338.84
467.3	2341.55
467.672	2383.58
468.045	2468.78
468.417	2452.73
468.789	2451.6
469.161	2554.88
469.534	2570.92
469.906	2630.13
470.278	2631.94
470.65	2718.94
471.022	2777.24
471.394	2851.59
471.766	2859.73
472.138	2918.26
472.51	2981.08
472.882	3023.79
473.253	3104.01
473.625	3168.42
473.997	3244.35
474.369	3237.8
474.74	3318.47
475.112	3427.17
475.484	3453.84
475.855	3540.61
476.227	3593.04
476.598	3723.89
476.97	3776.09
477.341	3848.4
477.713	3948.29
478.084	4015.4
478.455	4152.12
478.827	4199.58
479.198	4321.61
479.569	4378.78
479.94	4482.51
480.311	4577.2
480.682	4742.84
481.053	4894.48
481.424	4955.04
481.795	5025.32
482.166	5144.86
482.537	5176.5
482.908	5404.74
483.279	5466.44
483.65	5652.42
484.021	5784.17
484.391	5890.16
484.762	5988.46
485.133	6081.79
485.503	6245.4
485.874	6388.45
486.244	6455.34
486.615	6566.3
486.985	6713.19
487.356	6912.28
487.726	7016.23
488.097	7216.22
488.467	7273.4
488.837	7467.29
489.207	7542.32
489.578	7756.77
489.948	7853.04
490.318	7952.02
490.688	8089.87
491.058	8245.12
491.428	8371.22
491.798	8480.82
492.168	8726.92
492.538	8768.5
492.908	8902.73
493.278	9029.28
493.648	9151.09
494.017	9300.69
494.387	9330.74
494.757	9462.49
495.126	9631.3
495.496	9675.82
495.866	9736.16
496.235	9936.15
496.605	9973.21
496.974	10129.14
497.344	10214.34
497.713	10222.92
498.082	10380.21
498.452	10511.73
498.821	10586.08
499.19	10641.44
499.559	10794.21
499.928	10862.23
500.298	10934.54
500.667	11052.96
501.036	10984.94
501.405	11180.86
501.774	11167.98
502.143	11321.65
502.512	11430.8
502.88	11506.73
503.249	11438.71
503.618	11573.4
503.987	11632.15
504.356	11713.51
504.724	11752.6
505.093	11802.09
505.462	11853.61
505.83	11945.36
506.199	12052.48
506.567	12184.23
506.936	12101.74
507.304	12262.87
507.672	12349.2
508.041	12462.64
508.409	12432.13
508.777	12487.72
509.145	12602.07
509.514	12601.84
509.882	12596.19
510.25	12654.72
510.618	12705.8
510.986	12741.73
511.354	12872.12
511.722	12977.65
512.09	12948.28
512.458	12971.1
512.826	13025.56
513.193	13092.23
513.561	13094.49
513.929	13198.66
514.297	13275.27
514.664	13257.42
515.032	13238.21
515.4	13350.07
515.767	13318.66
516.135	13465.78
516.502	13270.53
516.869	13461.71
517.237	13474.36
517.604	13490.63
517.972	13632.78
518.339	13641.14
518.706	13588.48
519.073	13609.27
519.44	13725.43
519.808	13700.8
520.175	13675.26
520.542	13783.73
520.909	13827.57
521.276	13782.6
521.643	13894.47
522.009	13864.64
522.376	13882.71
522.743	13941.7
523.11	14069.6
523.477	14074.57
523.843	14111.18
524.21	14222.82
524.577	14247
524.943	14176.27
525.31	14304.4
525.676	14303.95
526.043	14346.66
526.409	14384.4
526.776	14415.81
527.142	14414.23
527.508	14319.09
527.874	14420.78
528.241	14451.74
528.607	14362.25
528.973	14523.38
529.339	14422.13
529.705	14529.93
530.071	14480.21
530.437	14504.84
530.803	14535.58
531.169	14565.86
531.535	14446.09
531.901	14397.05
532.267	14494.22
532.632	14512.08
532.998	14483.38
533.364	14498.97
533.73	14484.28
534.095	14519.53
534.461	14428.24
534.826	14387.79
535.192	14409.03
535.557	14441.12
535.923	14418.75
536.288	14374.45
536.653	14368.8
537.019	14280.44
537.384	14339.43
537.749	14362.7
538.114	14280.67
538.479	14255.59
538.845	14205.19
539.21	14043.39
539.575	14082.03
539.94	14073.67
540.305	14061.92
540.67	14044.07
541.034	13990.73
541.399	13923.62
541.764	13858.99
542.129	13894.92
542.494	13839.55
542.858	13830.06
543.223	13761.81
543.587	13802.04
543.952	13645.21
544.316	13729.27
544.681	13663.96
545.045	13687.46
545.41	13599.56
545.774	13593.68
546.138	13447.7
546.503	13547.13
546.867	13411.54
547.231	13433.46
547.595	13397.76
547.959	13345.33
548.324	13265.33
548.688	13215.16
549.052	13190.08
549.416	13197.99
549.779	13243.41
550.143	13189.4
550.507	13135.62
550.871	13134.71
551.235	13092.9
551.599	13169.96
551.962	13073.24
552.326	13072.79
552.689	12992.57
553.053	12845.23
553.417	12846.36
553.78	12959.57
554.143	12847.94
554.507	12903.76
554.87	12762.74
555.234	12881.38
555.597	12730.43
555.96	12719.58
556.323	12728.39
556.686	12702.63
557.05	12756.64
557.413	12802.97
557.776	12751.22
558.139	12792.8
558.502	12707.15
558.865	12688.85
559.228	12682.97
559.59	12673.71
559.953	12699.02
560.316	12798.67
560.679	12759.81
561.041	12660.83
561.404	12741.95
561.767	12723.87
562.129	12703.54
562.492	12803.42
562.854	12686.14
563.217	12698.56
563.579	12668.06
563.941	12753.93
564.304	12727.26
564.666	12724.55
565.028	12778.56
565.39	12780.37
565.753	12788.73
566.115	12711.67
566.477	12738.34
566.839	12830.54
567.201	12733.37
567.563	12755.96
567.925	12952.8
568.287	12805.23
568.648	12856.53
569.01	12883.19
569.372	12928.39
569.734	12914.83
570.095	12948.28
570.457	12991.44
570.819	12956.41
571.18	12947.6
571.542	13031.44
571.903	12954.83
572.265	13023.75
572.626	13022.17
572.987	12983.53
573.349	12988.5
573.71	13004.55
574.071	13018.56
574.432	13099.01
574.794	13087.48
575.155	13057.43
575.516	13035.28
575.877	13047.26
576.238	13055.17
576.599	13148.95
576.96	13066.92
577.32	13080.7
577.681	13078.22
578.042	13120.7
578.403	13085.67
578.763	13081.38
579.124	13094.26
579.485	13087.93
579.845	13135.39
580.206	13108.27
580.566	13111.89
580.927	13098.33
581.287	13167.7
581.648	13029.4
582.008	13129.51
582.368	13077.09
582.728	13018.78
583.089	13047.03
583.449	13043.41
583.809	13011.78
584.169	13036.63
584.529	13043.19
584.889	13095.16
585.249	12955.96
585.609	12897.66
585.969	12997.31
586.329	12962.96
586.688	12989.63
587.048	12962.74
587.408	12930.42
587.768	13015.62
588.127	13038.89
588.487	12945.34
588.846	13014.94
589.206	12874.6
589.565	12943.76
589.925	12942.63
590.284	12886.36
590.643	12921.16
591.003	12886.81
591.362	12932
591.721	12829.41
592.08	12842.29
592.44	12898.56
592.799	12875.06
593.158	12889.07
593.517	12878.9
593.876	12819.92
594.235	12761.61
594.593	12849.75
594.952	12842.06
595.311	12782.18
595.67	12842.52
596.029	12893.59
596.387	12841.39
596.746	12860.14
597.104	12649.53
597.463	12758
597.822	12800.71
598.18	12727.94
598.538	12724.78
598.897	12814.95
599.255	12715.29
599.613	12811.1
599.972	12764.33
600.33	12783.08
600.688	12805.68
601.046	12758.9
601.404	12806.81
601.762	12799.35
602.12	12804.78
602.478	12824.44
602.836	12780.37
603.194	12731.78
603.552	12713.48
603.91	12729.3
604.268	12813.82
604.625	12764.55
604.983	12747.38
605.341	12762.97
605.698	12845.23
606.056	12854.27
606.413	12763.87
606.771	12866.47
607.128	12855.4
607.485	12824.66
607.843	12773.14
608.2	12852.68
608.557	12863.08
608.914	12862.18
609.272	12868.73
609.629	12863.08
609.986	12928.39
610.343	12835.06
610.7	12922.29
611.057	12948.28
611.414	12963.64
611.771	12910.99
612.127	12946.92
612.484	13001.38
612.841	12921.38
613.198	12901.72
613.554	12938.78
613.911	12969.97
614.267	12972.91
614.624	12998.22
614.98	12969.52
615.337	13023.75
615.693	12966.81
616.05	12996.86
616.406	13006.35
616.762	13004.55
617.118	13054.49
617.475	12962.96
617.831	13069.4
618.187	13071.21
618.543	13041.15
618.899	13078.67
619.255	13035.05
619.611	13055.62
619.967	13155.95
620.323	13157.08
620.678	13108.95
621.034	13051.55
621.39	13080.7
621.746	13098.33
622.101	13185.56
622.457	13056.75
622.812	13160.02
623.168	13167.48
623.523	13147.14
623.879	13170.19
624.234	13063.53
624.589	13157.99
624.945	13081.61
625.3	13238.66
625.655	13055.84
626.01	13089.06
626.365	13179
626.72	13124.54
627.075	13059.68
627.43	13077.31
627.785	13041.15
628.14	13071.89
628.495	13058.78
628.85	13032.11
629.205	13011.78
629.559	13014.26
629.914	13009.74
630.269	13036.63
630.623	12979.46
630.978	12899.24
631.332	12947.15
631.687	12986.24
632.041	12932.23
632.396	12938.11
632.75	12869.86
633.104	12958.67
633.459	12875.28
633.813	12873.7
634.167	12862.18
634.521	12851.78
634.875	12873.48
635.229	12835.06
635.583	12857.43
635.937	12815.62
636.291	12839.58
636.645	12816.08
636.999	12712.58
637.352	12748.96
637.706	12717.77
638.06	12766.36
638.413	12746.92
638.767	12717.32
639.121	12685.91
639.474	12540.38
639.828	12537.21
640.181	12624.89
640.534	12640.49
640.888	12612.46
641.241	12533.6
641.594	12515.29
641.947	12564.56
642.301	12484.78
642.654	12524.33
643.007	12579.7
643.36	12564.1
643.713	12533.15
644.066	12563.43
644.419	12466.03
644.771	12466.71
645.124	12357.1
645.477	12281.63
645.83	12179.71
646.182	12226.49
646.535	12148.52
646.888	12160.73
647.24	12077.11
647.593	12166.38
647.945	12096.55
648.298	11988.75
648.65	12032.59
649.002	12042.31
649.355	11973.16
649.707	12129.99
650.059	12102.42
650.411	12315.75
650.763	12307.84
651.115	12376.54
651.467	12293.38
651.819	12298.12
652.171	12310.33
652.523	12242.08
652.875	12307.39
653.227	12255.19
653.578	12365.01
653.93	12333.38
654.282	12320.95
654.633	12249.76
654.985	12345.81
655.337	12232.36
655.688	12332.02
656.039	12395.97
656.391	12272.81
656.742	12295.86
657.094	12337.67
657.445	12333.6
657.796	12338.8
658.147	12318.91
658.498	12358.01
658.849	12444.79
659.2	12243.66
659.551	12289.76
659.902	12408.63
660.253	12339.48
660.604	12393.71
660.955	12299.03
661.306	12399.36
661.656	12254.51
662.007	12344.9
662.358	12308.07
662.708	12312.81
663.059	12375.41
663.409	12410.66
663.76	12407.95
664.11	12372.02
664.461	12404.33
664.811	12459.02
665.161	12451.11
665.511	12354.17
665.862	12374.28
666.212	12446.82
666.562	12348.97
666.912	12377.44
667.262	12440.49
667.612	12434.16
667.962	12457.67
668.312	12378.57
668.662	12498.12
669.011	12379.7
669.361	12416.54
669.711	12302.87
670.06	12349.2
670.41	12350.1
670.76	12266.71
671.109	12327.95
671.459	12371.12
671.808	12315.07
672.157	12378.12
672.507	12239.82
672.856	12249.31
673.205	12293.15
673.554	12306.94
673.904	12329.08
674.253	12297.9
674.602	12305.81
674.951	12123.21
675.3	12058.81
675.649	12210.22
675.998	12205.02
676.346	12196.2
676.695	12235.07
677.044	12164.34
677.393	12165.25
677.741	12171.8
678.09	12066.26
678.438	12158.47
678.787	12074.85
679.135	12107.62
679.484	12077.11
679.832	12080.73
680.181	11992.82
680.529	12026.27
680.877	11923.44
681.225	11939.04
681.573	12013.16
681.922	11920.05
682.27	11881.64
682.618	11904.24
682.966	11813.62
683.314	11832.82
683.661	11791.02
684.009	11752.6
684.357	11702.88
684.705	11740.4
685.053	11763.22
685.4	11686.16
685.748	11640.97
686.095	11621.98
686.443	11644.81
686.79	11591.02
687.138	11588.54
687.485	11544.24
687.832	11544.24
688.18	11517.35
688.527	11439.84
688.874	11388.77
689.221	11448.43
689.568	11389.9
689.915	11398.26
690.262	11337.7
690.609	11348.32
690.956	11291.6
691.303	11216.8
691.65	11195.33
691.997	11219.96
692.344	11120.3
692.69	11081.66
693.037	11080.08
693.383	11015.9
693.73	10965.5
694.077	10973.19
694.423	10978.16
694.769	10864.94
695.116	10939.29
695.462	10768.45
695.808	10786.07
696.155	10879.4
696.501	10751.04
696.847	10679.86
697.193	10619.75
697.539	10624.95
697.885	10544.95
698.231	10510.6
698.577	10452.3
698.923	10412.3
699.269	10537.04
699.614	10349.02
699.96	10328.68
700.306	10304.28
700.651	10240.55
700.997	10198.74
701.342	10176.6
701.688	10174.11
702.033	10169.14
702.379	10091.4
702.724	10062.7
703.069	10055.02
703.415	9950.84
703.76	9984.29
704.105	9941.35
704.45	9919.88
704.795	9837.85
705.14	9801.01
705.485	9764.63
705.83	9727.57
706.175	9714.69
706.52	9713.11
706.865	9657.06
707.209	9631.3
707.554	9612.09
707.899	9632.88
708.243	9569.16
708.588	9584.3
708.932	9444.64
709.277	9520.34
709.621	9452.77
709.966	9415.26
710.31	9457.75
710.654	9346.56
710.998	9418.2
711.342	9336.62
711.687	9337.07
712.031	9351.53
712.375	9235.15
712.719	9307.24
713.063	9213.68
713.407	9238.77
713.75	9180.01
714.094	9182.27
714.438	9158.32
714.782	9218.2
715.125	9104.31
715.469	9134.14
715.812	9059.11
716.156	9015.27
716.499	9040.58
716.843	9053.46
717.186	8936.86
717.53	9088.26
717.873	9028.83
718.216	9024.99
718.559	8944.31
718.902	8914.26
719.246	8905.67
719.589	8935.27
719.932	8828.16
720.275	8899.79
720.617	8870.87
720.96	8895.27
721.303	8862.06
721.646	8842.17
721.989	8731.66
722.331	8812.79
722.674	8818.21
723.016	8803.3
723.359	8842.39
723.701	8825.67
724.044	8731.66
724.386	8732.79
724.729	8761.72
725.071	8780.25
725.413	8763.98
725.755	8754.26
726.097	8643.76
726.439	8637.88
726.782	8648.95
727.124	8701.38
727.465	8715.62
727.807	8713.13
728.149	8666.81
728.491	8617.09
728.833	8683.53
729.175	8583.19
729.516	8607.37
729.858	8577.54
730.199	8609.18
730.541	8640.59
730.882	8583.19
731.224	8643.3
731.565	8580.93
731.906	8618.45
732.248	8629.74
732.589	8555.17
732.93	8555.85
733.271	8576.41
733.612	8626.36
733.953	8656.64
734.294	8588.39
734.635	8549.29
734.976	8658.9
735.317	8534.61
735.658	8521.27
735.999	8568.05
736.339	8608.5
736.68	8593.36
737.021	8628.84
737.361	8599.92
737.702	8657.31
738.042	8561.95
738.383	8585.45
738.723	8639.24
739.063	8580.71
739.404	8645.34
739.744	8630.87
740.084	8623.64
740.424	8642.4
740.764	8621.38
741.104	8711.1
741.444	8702.74
741.784	8674.49
742.124	8748.61
742.464	8713.13
742.804	8774.6
743.143	8751.1
743.483	8765.56
743.823	8778.89
744.162	8792
744.502	8855.73
744.841	8877.2
745.181	8933.47
745.52	8926.91
745.86	8987.02
746.199	9038.55
746.538	9081.71
746.877	9069.51
747.216	9088.04
747.556	9213.46
747.895	9242.61
748.234	9281.71
748.573	9246.68
748.911	9422.49
749.25	9493.45
749.589	9454.81
749.928	9580
750.267	9676.05
750.605	9701.81
750.944	9779.77
751.283	9806.66
751.621	10025.41
751.96	9992.87
752.298	10035.36
752.636	10232.19
752.975	10256.37
753.313	10349.7
753.651	10446.19
753.989	10501.33
754.327	10714.66
754.666	10659.07
755.004	10896.35
755.342	11113.07
755.679	11187.87
756.017	11235.78
756.355	11447.52
756.693	11516
757.031	11699.04
757.368	11872.6
757.706	12003.89
758.044	12164.12
758.381	12307.16
758.719	12471.68
759.056	12650.2
759.394	12732.69
759.731	12831.89
760.068	13045
760.405	13197.08
760.743	13330.64
761.08	13539.45
761.417	13704.19
761.754	13896.05
762.091	14014.69
762.428	14200.45
762.765	14324.06
763.102	14508.69
763.438	14623.94
763.775	14803.37
764.112	15042.46
764.449	15182.11
764.785	15319.74
765.122	15426.4
765.458	15592.05
765.795	15793.4
766.131	15967.18
766.467	16057.8
766.804	16180.28
767.14	16339.15
767.476	16438.81
767.812	16676.09
768.148	16769.19
768.485	16806.48
768.821	16912.24
769.157	17172.57
769.492	17189.52
769.828	17439.68
770.164	17367.37
770.5	17521.49
770.836	17652.56
771.171	17719.68
771.507	17800.8
771.842	17840.12
772.178	17979.56
772.513	18104.75
772.849	18154.69
773.184	18230.17
773.519	18295.48
773.855	18359.66
774.19	18438.98
774.525	18604.85
774.86	18629.71
775.195	18589.93
775.53	18751.51
775.865	18761.91
776.2	18725.3
776.535	18629.93
776.87	18775.01
777.205	18806.88
777.539	18876.03
777.874	18875.35
778.209	18909.47
778.543	19031.28
778.878	18974.11
779.212	19039.64
779.547	18968.68
779.881	19077.38
780.215	19117.83
780.55	19176.36
780.884	19156.7
781.218	19183.59
781.552	19149.02
781.886	19100.43
782.22	19113.09
782.554	19109.24
782.888	18985.63
783.222	18987.89
783.556	19073.31
783.889	19080.77
784.223	18993.99
784.557	18995.57
784.89	19013.65
785.224	18866.54
785.557	18874.22
785.891	18929.59
786.224	18983.37
786.558	18926.2
786.891	18886.2
787.224	18827.89
787.557	18868.35
787.891	18830.61
788.224	18869.48
788.557	18833.32
788.89	18835.13
789.223	18776.37
789.556	18635.13
789.888	18697.95
790.221	18713.32
790.554	18477.4
790.887	18605.53
791.219	18495.7
791.552	18503.38
791.884	18359.88
792.217	18529.15
792.549	18449.37
792.882	18316.27
793.214	18253.22
793.546	18263.84
793.879	18212.54
794.211	18106.33
794.543	18179.1
794.875	18074.69
795.207	18196.72
795.539	18064.75
795.871	18096.16
796.203	17993.79
796.535	17773.69
796.867	17823.63
797.198	17771.65
797.53	17845.77
797.862	17752.44
798.193	17725.1
798.525	17655.5
798.856	17756.28
799.188	17584.54
799.519	17432
799.85	17476.07
800.182	17533.92
800.513	17442.62
800.844	17252.34
801.175	17386.12
801.506	17422.96
801.837	17267.26
802.168	17218.67
802.499	17255.73
802.83	17252.12
803.161	17187.26
803.491	17145.45
803.822	17166.7
804.153	17097.09
804.483	16856.42
804.814	16897.1
805.145	16836.08
805.475	16881.96
805.805	16878.34
806.136	16782.75
806.466	16866.14
806.796	16811.22
807.126	16668.63
807.457	16628.4
807.787	16619.14
808.117	16601.29
808.447	16543.44
808.777	16562.19
809.107	16467.5
809.436	16426.15
809.766	16491.46
810.096	16374.63
810.426	16304.12
810.755	16258.7
811.085	16302.54
811.414	16299.15
811.744	16129.66
812.073	16107.97
812.403	16178.92
812.732	16049.66
813.061	16139.6
813.39	15936.9
813.719	15987.97
814.049	16109.32
814.378	15935.77
814.707	15879.05
815.036	15891.7
815.365	15809.44
815.693	15688.32
816.022	15765.15
816.351	15689.67
816.68	15583.69
817.008	15696.23
817.337	15554.31
817.665	15493.07
817.994	15561.77
818.322	15489.68
818.651	15454.65
818.979	15407.87
819.307	15434.09
819.636	15493.07
819.964	15341.66
820.292	15432.96
820.62	15418.27
820.948	15299.85
821.276	15450.13
821.604	15342.79
821.932	15422.56
822.259	15395.67
822.587	15328.33
822.915	15304.6
823.243	15323.58
823.57	15253.53
823.898	15250.14
824.225	15229.8
824.553	15227.09
824.88	15302.11
825.207	15393.41
825.535	15231.38
825.862	15368.32
826.189	15315.67
826.516	15334.88
826.843	15357.48
827.17	15345.5
827.497	15448.55
827.824	15355.9
828.151	15410.58
828.478	15258.5
828.805	15432.96
829.131	15340.98
829.458	15345.5
829.785	15283.36
830.111	15443.35
830.438	15369.45
830.764	15413.3
831.09	15338.27
831.417	15322.45
831.743	15360.87
832.069	15342.56
832.395	15239.51
832.722	15286.74
833.048	15241.55
833.374	15267.54
833.7	15216.92
834.026	15286.97
834.351	15276.58
834.677	15226.18
835.003	15238.84
835.329	15268.89
835.654	15149.8
835.98	15104.6
836.306	15067.77
836.631	15176.47
836.956	15100.31
837.282	15153.87
837.607	15031.16
837.932	15031.38
838.258	15072.51
838.583	14985.51
838.908	14917.26
839.233	14956.81
839.558	14899.86
839.883	14877.94
840.208	14796.81
840.533	14758.17
840.858	14794.55
841.182	14876.36
841.507	14767.66
841.832	14689.25
842.156	14694.22
842.481	14746.42
842.805	14602.7
843.13	14604.05
843.454	14580.1
843.778	14607.67
844.103	14565.86
844.427	14484.05
844.751	14427.56
845.075	14491.29
845.399	14344.17
845.723	14257.39
846.047	14296.49
846.371	14197.28
846.695	14244.96
847.019	14099.21
847.343	14019.21
847.666	13950.73
847.99	13900.11
848.313	13881.36
848.637	13899.44
848.96	13770.63
849.284	13759.33
849.607	13644.53
849.931	13704.87
850.254	13512.78
850.577	13489.05
850.9	13427.58
851.223	13410.18
851.546	13336.97
851.869	13246.12
852.192	13289.28
852.515	13222.17
852.838	13140.36
853.161	13089.06
853.483	13061.49
853.806	12942.85
854.129	12975.85
854.451	12937.2
854.774	12932.23
855.096	12854.72
855.419	12804.32
855.741	12750.77
856.063	12675.74
856.385	12663.76
856.708	12602.75
857.03	12618.34
857.352	12583.54
857.674	12523.2
857.996	12450.21
858.318	12494.73
858.64	12446.14
858.961	12371.57
859.283	12367.05
859.605	12228.07
859.926	12319.37
860.248	12259.25
860.57	12296.09
860.891	12233.04
861.212	12135.19
861.534	12097
861.855	12068.75
862.176	12065.81
862.498	12098.35
862.819	12102.65
863.14	12050.45
863.461	12021.07
863.782	11937.23
864.103	11965.02
864.424	11880.73
864.745	11888.19
865.065	11809.1
865.386	11815.2
865.707	11815.65
866.027	11871.92
866.348	11796.67
866.668	11751.02
866.989	11724.8
867.309	11685.48
867.63	11713.05
867.95	11720.51
868.27	11666.95
868.59	11604.58
868.91	11625.37
869.23	11584.24
869.55	11565.94
869.87	11600.74
870.19	11604.81
870.51	11525.71
870.83	11523.91
871.15	11504.47
871.469	11497.92
871.789	11540.4
872.109	11512.15
872.428	11414.08
872.748	11452.72
873.067	11419.05
873.386	11423.57
873.706	11329.56
874.025	11263.35
874.344	11295.21
874.663	11338.15
874.982	11270.13
875.301	11278.04
875.62	11257.25
875.939	11185.61
876.258	11208.89
876.577	11126.4
876.896	11220.41
877.214	11092.5
877.533	11171.82
877.852	11146.97
878.17	11061.09
878.489	11038.27
878.807	11073.97
879.125	11090.92
879.444	11045.5
879.762	11014.99
880.08	10997.37
880.398	11018.16
880.716	10939.29
881.034	10920.31
881.352	10973.41
881.67	10803.92
881.988	10807.09
882.306	10837.82
882.624	10798.05
882.941	10799.41
883.259	10748.33
883.577	10685.28
883.894	10653.87
884.212	10735
884.529	10618.85
884.846	10615.68
885.164	10612.52
885.481	10581.78
885.798	10597.15
886.115	10553.99
886.432	10460.43
886.75	10436.7
887.067	10481.22
887.383	10364.39
887.7	10474.67
888.017	10388.34
888.334	10304.96
888.651	10370.72
888.967	10285.75
889.284	10196.03
889.6	10203.26
889.917	10183.38
890.233	10174.34
890.55	10127.56
890.866	10152.64
891.182	10060.67
891.498	10089.82
891.815	10024.06
892.131	10022.93
892.447	9981.8
892.763	9952.87
893.079	9933.67
893.395	9922.37
893.71	9864.74
894.026	9801.47
894.342	9811.18
894.657	9702.48
894.973	9740.22
895.289	9674.24
895.604	9677.63
895.92	9602.6
896.235	9577.29
896.55	9582.94
896.865	9544.07
897.181	9469.27
897.496	9553.56
897.811	9427.24
898.126	9448.71
898.441	9348.37
898.756	9363.28
899.071	9269.73
899.386	9257.3
899.7	9200.13
900.015	9179.33
900.33	9081.26
900.644	9131.2
900.959	9180.69
901.273	9167.36
901.588	9018.66
901.902	8998.1
902.216	8978.89
902.531	8986.12
902.845	8880.13
903.159	8929.4
903.473	8841.72
903.787	8756.75
904.101	8756.97
904.415	8763.3
904.729	8759.91
905.042	8663.19
905.356	8608.28
905.67	8585.45
905.984	8640.82
906.297	8515.4
906.611	8483.08
906.924	8460.03
907.237	8461.61
907.551	8400.6
907.864	8378.68
908.177	8330.09
908.491	8308.62
908.804	8241.73
909.117	8222.75
909.43	8200.6
909.743	8072.25
910.056	8133.94
910.368	8130.77
910.681	8039.7
910.994	8067.05
911.307	7998.35
911.619	7971.01
911.932	8022.76
912.244	7895.07
912.557	7820.95
912.869	7799.03
913.181	7683.33
913.494	7758.36
913.806	7702.54
914.118	7691.69
914.43	7665.25
914.742	7685.81
915.054	7615.76
915.366	7599.72
915.678	7558.81
915.99	7497.12
916.302	7476.55
916.613	7408.76
916.925	7398.14
917.236	7377.35
917.548	7338.71
917.859	7372.15
918.171	7321.08
918.482	7256.45
918.794	7275.88
919.105	7181.2
919.416	7161.53
919.727	7149.78
920.038	7149.11
920.349	7150.91
920.66	7037.47
920.971	7066.4
921.282	7064.81
921.593	6956.79
921.903	6911.15
922.214	6921.99
922.525	6881.77
922.835	6881.09
923.146	6856.68
923.456	6820.3
923.767	6776.46
924.077	6762.22
924.387	6750.7
924.697	6687.65
925.008	6741.43
925.318	6596.58
925.628	6575.79
925.938	6603.13
926.248	6533.3
926.558	6532.85
926.867	6494.43
927.177	6482
927.487	6459.41
927.796	6436.13
928.106	6396.58
928.416	6388.9
928.725	6365.85
929.034	6328.11
929.344	6291.5
929.653	6275
929.962	6234.78
930.271	6215.12
930.581	6218.06
930.89	6152.3
931.199	6143.26
931.508	6158.85
931.817	6180.32
932.125	6089.02
932.434	6044.05
932.743	6007.67
933.051	5981.45
933.36	5988.23
933.669	5954.11
933.977	5900.78
934.286	5905.3
934.594	5919.99
934.902	5878.86
935.21	5828.69
935.519	5853.77
935.827	5804.06
936.135	5743.04
936.443	5666.43
936.751	5669.37
937.059	5682.7
937.367	5620.33
937.674	5663.04
937.982	5574.23
938.29	5576.04
938.597	5590.05
938.905	5532.65
939.213	5482.03
939.52	5515.48
939.827	5486.55
940.135	5501.69
940.442	5403.16
940.749	5399.1
941.056	5405.42
941.363	5365.2
941.67	5358.87
941.977	5264.86
942.284	5217.86
942.591	5300.11
942.898	5186.22
943.205	5250.85
943.511	5178.76
943.818	5159.55
944.125	5107.8
944.431	5125.88
944.738	5090.18
945.044	5084.3
945.35	5018.99
945.657	5062.16
945.963	4982.61
946.269	4988.94
946.575	5000.24
946.881	4951.2
947.187	4945.32
947.493	4921.37
947.799	4893.57
948.105	4879.56
948.41	4828.49
948.716	4851.99
949.022	4823.07
949.327	4771.54
949.633	4749.39
949.938	4719.11
950.244	4720.24
950.549	4687.48
950.854	4709.85
951.16	4680.24
951.465	4637.08
951.77	4655.39
952.075	4630.3
952.38	4579
952.685	4570.87
952.99	4576.97
953.294	4528.84
953.599	4502.4
953.904	4481.15
954.209	4428.27
954.513	4428.73
954.818	4458.56
955.122	4370.42
955.426	4428.95
955.731	4357.99
956.035	4354.38
956.339	4335.39
956.643	4299.69
956.948	4297.2
957.252	4244.1
957.556	4236.19
957.86	4238
958.163	4232.57
958.467	4205.45
958.771	4195.51
959.075	4186.92
959.378	4165.46
959.682	4138.34
959.985	4117.1
960.289	4092.01
960.592	4067.83
960.896	4076.64
961.199	4047.04
961.502	4081.84
961.805	4013.6
962.108	4011.11
962.411	3983.09
962.714	3973.14
963.017	3962.97
963.32	3933.15
963.623	3941.96
963.926	3879.81
964.228	3908.51
964.531	3845.92
964.833	3852.92
965.136	3809.76
965.438	3797.56
965.741	3791.23
966.043	3783.77
966.345	3772.47
966.648	3761.17
966.95	3747.61
967.252	3686.82
967.554	3678.91
967.856	3689.31
968.158	3629.42
968.46	3631.46
968.761	3638.69
969.063	3623.32
969.365	3602.53
969.666	3600.27
969.968	3564.12
970.269	3584.68
970.571	3542.19
970.872	3538.35
971.174	3489.99
971.475	3494.96
971.776	3487.28
972.077	3460.39
972.378	3444.8
972.679	3453.38
972.98	3452.03
973.281	3410.9
973.582	3389.43
973.883	3372.03
974.183	3389.88
974.484	3321.64
974.785	3318.47
975.085	3361.86
975.386	3326.16
975.686	3290.22
975.986	3257.91
976.287	3238.02
976.587	3229.89
976.887	3205.71
977.187	3188.08
977.487	3193.73
977.787	3201.19
978.087	3155.54
978.387	3151.7
978.687	3167.74
978.987	3127.29
979.286	3123.67
979.586	3152.83
979.885	3094.3
980.185	3089.55
980.484	3073.96
980.784	3021.76
981.083	3077.12
981.382	3066.05
981.682	2995.77
981.981	3036.45
982.28	3001.42
982.579	2957.8
982.878	2920.29
983.177	2954.87
983.475	2925.94
983.774	2898.37
984.073	2928.43
984.372	2877.35
984.67	2852.5
984.969	2827.19
985.267	2840.74
985.566	2886.62
985.864	2819.95
986.162	2805.04
986.461	2803.68
986.759	2745.15
987.057	2751.93
987.355	2758.26
987.653	2763.23
987.951	2769.56
988.249	2690.92
988.547	2712.39
988.844	2704.25
989.142	2686.17
989.44	2658.15
989.737	2646.85
990.035	2655.21
990.332	2591.03
990.63	2620.86
990.927	2631.26
991.224	2576.57
991.521	2592.62
991.819	2575.44
992.116	2541.32
992.413	2537.02
992.71	2524.37
993.006	2523.24
993.303	2525.95
993.6	2498.83
993.897	2505.16
994.193	2476.91
994.49	2443.01
994.787	2445.27
995.083	2420.64
995.379	2469.91
995.676	2399.85
995.972	2389.23
996.268	2366.18
996.565	2395.78
996.861	2387.2
997.157	2355.56
997.453	2344.94
997.749	2343.13
998.044	2302.23
998.34	2288.67
998.636	2283.47
998.932	2290.7
999.227	2238.73
999.523	2257.26
999.818	2267.43
1000.114	2215
1000.409	2203.02
1000.704	2254.77
1001	2220.42
1001.295	2162.57
1001.59	2181.55
1001.885	2182
1002.18	2160.31
1002.475	2144.94
1002.77	2138.16
1003.065	2115.79
1003.359	2125.96
1003.654	2111.5
1003.949	2106.07
1004.243	2057.71
1004.538	2079.18
1004.832	2055.45
1005.127	2037.6
1005.421	2019.75
1005.715	2012.97
1006.009	1982.46
1006.304	1992.63
1006.598	2006.19
1006.892	1953.08
1007.186	1955.8
1007.48	1931.84
1007.773	1922.12
1008.067	1944.95
1008.361	1903.37
1008.655	1904.27
1008.948	1883.48
1009.242	1888
1009.535	1893.65
1009.829	1831.96
1010.122	1826.08
1010.415	1835.35
1010.708	1812.97
1011.001	1783.82
1011.295	1803.03
1011.588	1803.26
1011.881	1774.78
1012.173	1769.59
1012.466	1766.87
1012.759	1753.77
1013.052	1731.62
1013.344	1744.28
1013.637	1726.42
1013.93	1699.76
1014.222	1682.58
1014.514	1697.27
1014.807	1683.26
1015.099	1648.69
1015.391	1680.1
1015.683	1629.48
1015.976	1632.41
1016.268	1639.42
1016.56	1641.23
1016.851	1604.62
1017.143	1614.56
1017.435	1584.51
1017.727	1544.28
1018.018	1598.07
1018.31	1551.29
1018.602	1545.86
1018.893	1554.22
1019.185	1537.95
1019.476	1539.08
1019.767	1497.5
1020.058	1519.42
1020.35	1497.73
1020.641	1488.24
1020.932	1471.51
1021.223	1464.74
1021.514	1458.63
1021.804	1450.5
1022.095	1425.19
1022.386	1419.31
1022.677	1412.08
1022.967	1422.48
1023.258	1401.01
1023.548	1372.76
1023.839	1402.36
1024.129	1375.25
1024.419	1369.37
1024.709	1354.46
1025	1347.22
1025.29	1347.9
1025.58	1307
1025.87	1326.66
1026.16	1308.81
1026.449	1309.03
1026.739	1288.02
1027.029	1286.21
1027.319	1303.16
1027.608	1262.93
1027.898	1248.7
1028.187	1225.65
1028.477	1256.83
1028.766	1253.44
1029.055	1197.85
1029.344	1228.13
1029.634	1235.14
1029.923	1187.45
1030.212	1177.29
1030.501	1175.7
1030.79	1162.82
1031.078	1150.39
1031.367	1153.56
1031.656	1160.11
1031.945	1158.98
1032.233	1137.96
1032.522	1136.16
1032.81	1139.77
1033.099	1121.24
1033.387	1115.14
1033.675	1111.98
1033.963	1095.93
1034.251	1098.42
1034.54	1098.19
1034.828	1049.83
1035.116	1076.05
1035.403	1086.44
1035.691	1051.19
1035.979	1024.97
1036.267	1042.37
1036.554	1034.46
1036.842	1009.61
1037.129	1004.63
1037.417	1031.75
1037.704	998.53
1037.992	995.82
1038.279	990.85
1038.566	973.9
1038.853	973.9
1039.14	973.9
