Data from hue_36_FLMS001491_00078.txt Node
Date: Tue Feb 07 17:30:17 GMT 2017
User: dcchb
Spectrometer: FLMS00149
Trigger mode: 0
Integration Time (sec): 2.000000E-2
Scans to average: 10
Electric dark correction enabled: true
Nonlinearity correction enabled: false
Boxcar width: 0
XAxis mode: Wavelengths
Number of Pixels in Spectrum: 2048
>>>>>Begin Spectral Data<<<<<
341.393	-2.99
341.776	-2.99
342.16	-2.99
342.543	-52.26
342.927	-63.56
343.31	-92.26
343.693	-77.79
344.077	-74.63
344.46	-56.78
344.843	-66.5
345.226	-48.42
345.61	-40.51
345.993	-7.51
346.376	6.95
346.759	19.83
347.142	30.23
347.525	60.73
347.908	54.63
348.291	85.59
348.674	95.76
349.057	110.68
349.44	109.77
349.823	167.4
350.206	163.56
350.588	183.89
350.971	205.36
351.354	232.03
351.737	219.15
352.119	256.21
352.502	289.65
352.884	272.48
353.267	276.77
353.65	293.5
354.032	302.53
354.414	311.8
354.797	318.13
355.179	328.52
355.562	307.28
355.944	308.86
356.326	332.36
356.709	328.07
357.091	325.36
357.473	349.99
357.855	366.49
358.238	334.4
358.62	354.96
359.002	337.79
359.384	329.2
359.766	335.3
360.148	329.2
360.53	341.63
360.912	349.31
361.294	344.12
361.676	339.37
362.057	340.27
362.439	343.44
362.821	333.95
363.203	317.68
363.584	322.65
363.966	340.5
364.348	314.96
364.729	324.91
365.111	313.83
365.493	312.25
365.874	319.26
366.256	331.46
366.637	330.1
367.019	322.87
367.4	331.23
367.781	290.56
368.163	318.13
368.544	338.69
368.925	314.96
369.306	343.21
369.688	315.64
370.069	317
370.45	292.59
370.831	298.24
371.212	318.81
371.593	320.61
371.974	310.22
372.355	319.48
372.736	326.04
373.117	318.35
373.498	331.01
373.879	313.38
374.26	335.75
374.641	310.22
375.021	324.45
375.402	320.61
375.783	336.21
376.163	330.78
376.544	336.21
376.925	338.92
377.305	327.39
377.686	337.11
378.066	334.17
378.447	307.73
378.827	319.26
379.208	336.66
379.588	327.39
379.968	346.38
380.349	355.19
380.729	340.73
381.109	320.16
381.489	340.5
381.87	343.44
382.25	348.18
382.63	339.82
383.01	334.17
383.39	342.53
383.77	361.52
384.15	327.62
384.53	362.19
384.91	352.02
385.29	343.21
385.67	351.12
386.049	358.58
386.429	320.39
386.809	359.71
387.189	373.72
387.568	352.48
387.948	359.26
388.328	365.36
388.707	372.14
389.087	337.11
389.466	370.78
389.846	384.57
390.225	354.96
390.605	370.78
390.984	356.54
391.363	372.36
391.743	360.61
392.122	355.87
392.501	371.01
392.881	365.58
393.26	389.76
393.639	379.14
394.018	355.19
394.397	365.13
394.776	375.98
395.155	394.28
395.534	399.93
395.913	391.57
396.292	371.69
396.671	378.69
397.05	393.61
397.429	397
397.808	382.98
398.186	404.9
398.565	394.51
398.944	401.97
399.323	411.01
399.701	389.99
400.08	394.51
400.458	390.44
400.837	398.35
401.215	409.65
401.594	404.23
401.972	397.9
402.351	403.32
402.729	404
403.107	413.27
403.486	408.07
403.864	401.06
404.242	409.88
404.62	412.36
404.999	394.28
405.377	399.03
405.755	434.96
406.133	429.31
406.511	431.34
406.889	416.66
407.267	445.36
407.645	419.37
408.023	424.57
408.401	435.64
408.779	422.98
409.156	422.53
409.534	427.95
409.912	437.45
410.29	431.8
410.667	444.45
411.045	455.07
411.422	456.65
411.8	448.29
412.178	462.76
412.555	498.46
412.933	464.56
413.31	472.02
413.687	463.89
414.065	476.09
414.442	474.06
414.819	475.86
415.197	495.75
415.574	489.87
415.951	502.98
416.328	502.98
416.705	489.42
417.082	503.21
417.46	494.85
417.837	523.55
418.214	520.38
418.591	526.94
418.967	512.92
419.344	511.79
419.721	495.07
420.098	511.57
420.475	558.35
420.852	528.74
421.228	540.27
421.605	522.42
421.982	524.68
422.358	538.69
422.735	540.04
423.111	523.77
423.488	550.89
423.864	536.2
424.241	556.54
424.617	566.48
424.994	543.43
425.37	582.53
425.746	576.88
426.123	557.22
426.499	560.61
426.875	554.73
427.251	605.58
427.627	589.08
428.003	596.09
428.379	583.66
428.756	587.27
429.132	614.16
429.507	601.51
429.883	589.31
430.259	606.71
430.635	619.59
431.011	618.91
431.387	642.86
431.763	628.4
432.138	633.15
432.514	645.8
432.89	654.39
433.265	684.9
433.641	639.47
434.016	674.95
434.392	673.82
434.767	678.8
435.143	673.6
435.518	702.52
435.894	705.24
436.269	695.07
436.644	697.33
437.02	698.91
437.395	702.07
437.77	704.11
438.145	711.79
438.52	731.68
438.895	698
439.271	742.52
439.646	743.2
440.021	753.82
440.395	740.71
440.77	723.09
441.145	753.82
441.52	737.1
441.895	774.84
442.27	752.47
442.645	757.89
443.019	775.29
443.394	753.14
443.769	773.71
444.143	785.91
444.518	796.76
444.892	771
445.267	780.71
445.641	805.35
446.016	801.05
446.39	804.89
446.764	813.48
447.139	810.32
447.513	815.97
447.887	825.23
448.262	812.13
448.636	823.65
449.01	852.35
449.384	845.35
449.758	842.63
450.132	866.36
450.506	873.37
450.88	856.64
451.254	868.85
451.628	879.92
452.002	872.01
452.376	895.29
452.75	892.12
453.123	881.5
453.497	910.65
453.871	921.28
454.244	934.61
454.618	927.83
454.992	927.15
455.365	956.3
455.739	963.53
456.112	967.38
456.486	989.97
456.859	972.35
457.232	981.84
457.606	990.2
457.979	997.21
458.352	1014.38
458.725	1028.39
459.099	1027.04
459.472	1046.24
459.845	1065.68
460.218	1092.12
460.591	1076.07
460.964	1062.74
461.337	1105.23
461.71	1116.07
462.083	1127.15
462.456	1156.07
462.829	1128.73
463.201	1169.4
463.574	1187.03
463.947	1181.61
464.32	1217.76
464.692	1204.88
465.065	1219.8
465.438	1253.92
465.81	1259.12
466.183	1275.62
466.555	1279.68
466.928	1302.51
467.3	1323.07
467.672	1324.65
468.045	1372.11
468.417	1393.13
468.789	1357.42
469.161	1410.53
469.534	1417.08
469.906	1456.18
470.278	1453.46
470.65	1472.45
471.022	1514.71
471.394	1543.86
471.766	1547.02
472.138	1615.95
472.51	1674.25
472.882	1636.96
473.253	1689.39
473.625	1708.15
473.997	1769.61
474.369	1785.66
474.74	1808.48
475.112	1854.58
475.484	1849.61
475.855	1922.6
476.227	1964.86
476.598	2012.77
476.97	2027.46
477.341	2105.88
477.713	2136.61
478.084	2140
478.455	2239.21
478.827	2238.53
479.198	2349.26
479.569	2385.64
479.94	2443.04
480.311	2473.78
480.682	2572.53
481.053	2622.47
481.424	2662.47
481.795	2761.68
482.166	2785.86
482.537	2848.91
482.908	2970.03
483.279	3027.43
483.65	3096.36
484.021	3190.82
484.391	3264.26
484.762	3287.77
485.133	3370.02
485.503	3446.41
485.874	3624.93
486.244	3644.82
486.615	3754.65
486.985	3790.13
487.356	3941.31
487.726	4035.32
488.097	4113.73
488.467	4162.55
488.837	4320.28
489.207	4418.13
489.578	4469.43
489.948	4572.93
490.318	4667.39
490.688	4752.36
491.058	4827.61
491.428	5000.49
491.798	5072.8
492.168	5160.94
492.538	5262.86
492.908	5335.85
493.278	5444.32
493.648	5534.94
494.017	5656.52
494.387	5770.41
494.757	5834.59
495.126	5958.66
495.496	6018.54
495.866	6094.02
496.235	6203.4
496.605	6275.48
496.974	6390.74
497.344	6489.26
497.713	6584.4
498.082	6607
498.452	6756.38
498.821	6817.17
499.19	6905.52
499.559	6956.37
499.928	7018.29
500.298	7100.77
500.667	7244.95
501.036	7207.66
501.405	7441.33
501.774	7380.77
502.143	7531.95
502.512	7614.66
502.88	7662.79
503.249	7731.27
503.618	7825.5
503.987	7896.91
504.356	8029.56
504.724	8065.72
505.093	8119.96
505.462	8191.37
505.83	8252.83
506.199	8398.37
506.567	8478.59
506.936	8465.03
507.304	8582.32
507.672	8687.17
508.041	8716.78
508.409	8799.03
508.777	8881.97
509.145	8965.81
509.514	8949.76
509.882	9080.38
510.25	9105.24
510.618	9222.3
510.986	9259.59
511.354	9283.09
511.722	9382.75
512.09	9488.73
512.458	9445.34
512.826	9605.11
513.193	9674.27
513.561	9743.19
513.929	9794.71
514.297	9870.19
514.664	9962.62
515.032	9990.64
515.4	10054.14
515.767	10141.15
516.135	10188.83
516.502	10095.5
516.869	10398.54
517.237	10322.61
517.604	10408.26
517.972	10525.09
518.339	10527.58
518.706	10553.11
519.073	10644.64
519.44	10699.32
519.808	10787.23
520.175	10781.81
520.542	10951.29
520.909	11011.86
521.276	11007.56
521.643	11192.64
522.009	11215.02
522.376	11236.71
522.743	11257.5
523.11	11343.37
523.477	11531.62
523.843	11602.12
524.21	11657.04
524.577	11723.03
524.943	11749.24
525.31	11875.56
525.676	11976.8
526.043	12042.34
526.409	12025.39
526.776	12143.8
527.142	12193.97
527.508	12376.34
527.874	12375.44
528.241	12494.98
528.607	12575.43
528.973	12604.58
529.339	12600.74
529.705	12791.25
530.071	12809.55
530.437	12940.85
530.803	12988.53
531.169	13080.5
531.535	13022.88
531.901	13092.03
532.267	13255.87
532.632	13253.38
532.998	13276.43
533.364	13414.73
533.73	13423.77
534.095	13579.7
534.461	13597.78
534.826	13709.41
535.192	13637.55
535.557	13789.86
535.923	13745.12
536.288	13889.07
536.653	13959.8
537.019	13996.64
537.384	13945.57
537.749	14085.45
538.114	14117.09
538.479	14175.84
538.845	14194.82
539.21	14240.92
539.575	14240.47
539.94	14406.57
540.305	14519.56
540.67	14431.88
541.034	14530.41
541.399	14549.17
541.764	14731.53
542.129	14774.47
542.494	14736.51
542.858	14811.98
543.223	14887.46
543.587	14975.59
543.952	15004.52
544.316	15053.11
544.681	15096.72
545.045	15176.95
545.41	15223.72
545.774	15238.19
546.138	15292.2
546.503	15334.23
546.867	15304.17
547.231	15528.8
547.595	15529.25
547.959	15601.79
548.324	15585.52
548.688	15621.68
549.052	15746.2
549.416	15741.9
549.779	15794.56
550.143	15896.25
550.507	16035.23
550.871	15939.19
551.235	15997.49
551.599	16137.15
551.962	16186.86
552.326	16249.01
552.689	16332.4
553.053	16264.83
553.417	16309.57
553.78	16494.65
554.143	16379.4
554.507	16584.37
554.87	16635.66
555.234	16784.13
555.597	16667.08
555.96	16804.47
556.323	16787.75
556.686	16898.93
557.05	16936
557.413	16972.38
557.776	17050.79
558.139	17157.68
558.502	17194.75
558.865	17119.27
559.228	17357.91
559.59	17331.92
559.953	17376.44
560.316	17548.41
560.679	17564
561.041	17717.44
561.404	17788.63
561.767	17901.17
562.129	17937.55
562.492	18051.22
562.854	17988.85
563.217	17923.54
563.579	18065.68
563.941	18150.43
564.304	18227.94
564.666	18407.82
565.028	18420.48
565.39	18506.12
565.753	18574.14
566.115	18612.79
566.477	18725.1
566.839	18707.7
567.201	18816.4
567.563	18777.3
567.925	19008.94
568.287	19051.65
568.648	19020.46
569.01	19177.74
569.372	19288.93
569.734	19300
570.095	19342.94
570.457	19524.18
570.819	19519.2
571.18	19536.83
571.542	19702.7
571.903	19815.02
572.265	19814.56
572.626	19881.23
572.987	19980.44
573.349	20106.99
573.71	20169.13
574.071	20216.36
574.432	20398.96
574.794	20463.13
575.155	20602.79
575.516	20630.36
575.877	20716.23
576.238	20830.58
576.599	20963.69
576.96	21092.27
577.32	21158.03
577.681	21280.74
578.042	21370.23
578.403	21535.65
578.763	21574.74
579.124	21836.88
579.485	21857.22
579.845	22095.18
580.206	22201.39
580.566	22297.89
580.927	22455.62
581.287	22640.93
581.648	22700.14
582.008	23014.25
582.368	23000.69
582.728	23159.11
583.089	23301.7
583.449	23505.99
583.809	23789.83
584.169	23973.32
584.529	24085.19
584.889	24489.02
585.249	24444.5
585.609	24662.35
585.969	25041.32
586.329	25031.15
586.688	25401.31
587.048	25554.07
587.408	25641.76
587.768	25796.78
588.127	26058.92
588.487	26357.89
588.846	26635.18
589.206	26575.06
589.565	26991.55
589.925	27224.31
590.284	27316.06
590.643	27616.39
591.003	27873.79
591.362	28143.61
591.721	28332.76
592.08	28596.93
592.44	28906.75
592.799	29006.41
593.158	29203.7
593.517	29423.58
593.876	29720.97
594.235	29891.81
594.593	30239.83
594.952	30367.96
595.311	30577.44
595.67	30793.03
596.029	31260.82
596.387	31354.15
596.746	31608.38
597.104	31653.12
597.463	31913.91
597.822	32236.38
598.18	32233.22
598.538	32295.59
598.897	32804.73
599.255	32742.81
599.613	33371.95
599.972	33397.71
600.33	33558.84
600.688	33704.82
601.046	34018.94
601.404	34247.63
601.762	34540.73
602.12	34629.54
602.478	34762.19
602.836	35083.77
603.194	34912.7
603.552	35348.39
603.91	35427.26
604.268	35699.8
604.625	35803.97
604.983	36029.96
605.341	35928.04
605.698	36188.37
606.056	36462.26
606.413	36475.82
606.771	36802.59
607.128	36932.31
607.485	36975.24
607.843	37190.15
608.2	37460.2
608.557	37767.09
608.914	37716.92
609.272	37779.52
609.629	38110.58
609.986	38256.79
610.343	38304.47
610.7	38546.27
611.057	38592.38
611.414	38713.28
611.771	38965.92
612.127	39107.62
612.484	39058.58
612.841	39330.43
613.198	39367.72
613.554	39469.19
613.911	39732.68
614.267	39758.22
614.624	39840.48
614.98	39961.6
615.337	40243.18
615.693	40365.44
616.05	40279.34
616.406	40540.12
616.762	40561.14
617.118	40710.29
617.475	40683.39
617.831	40930.84
618.187	41114.34
618.543	41112.31
618.899	41381.45
619.255	41243.15
619.611	41272.98
619.967	41520.89
620.323	41798.39
620.678	41586.19
621.034	41566.76
621.39	41648.11
621.746	41709.81
622.101	42121.1
622.457	41918.39
622.812	42033.19
623.168	42166.29
623.523	42077.48
623.879	42265.72
624.234	42078.61
624.589	42312.73
624.945	42450.8
625.3	42420.75
625.655	42474.98
626.01	42518.83
626.365	42570.35
626.72	42579.84
627.075	42568.09
627.43	42589.56
627.785	42548.43
628.14	42641.08
628.495	42762.43
628.85	42644.25
629.205	42694.41
629.559	42983.22
629.914	42761.76
630.269	42814.86
630.623	42777.58
630.978	42688.31
631.332	42854.18
631.687	42945.25
632.041	42682.44
632.396	42889.66
632.75	42674.98
633.104	42877.69
633.459	42850.57
633.813	42782.1
634.167	42731.25
634.521	42792.26
634.875	42839.27
635.229	42757.69
635.583	42636.11
635.937	42651.93
636.291	42783
636.645	42673.4
636.999	42556.79
637.352	42823.68
637.706	42407.64
638.06	42738.71
638.413	42584.81
638.767	42490.58
639.121	42656.68
639.474	42478.15
639.828	42518.83
640.181	42571.48
640.534	42552.27
640.888	42344.37
641.241	42282.22
641.594	42475.44
641.947	42552.27
642.301	42352.05
642.654	42416.91
643.007	42487.41
643.36	42387.53
643.713	42269.11
644.066	42525.61
644.419	42136.24
644.771	41763.37
645.124	41728.34
645.477	41529.02
645.83	41334.9
646.182	41177.62
646.535	41067.79
646.888	41235.47
647.24	40894.01
647.593	41195.7
647.945	41131.52
648.298	41010.62
648.65	40916.16
649.002	40756.61
649.355	40950.05
649.707	40973.1
650.059	41098.52
650.411	41567.21
650.763	41616.48
651.115	41919.75
651.467	41766.75
651.819	41824.83
652.171	41612.63
652.523	41644.27
652.875	41650.15
653.227	41454.67
653.578	41675.01
653.93	41694.21
654.282	41446.09
654.633	41311.17
654.985	41505.74
655.337	41515.91
655.688	41559.3
656.039	41744.16
656.391	41385.97
656.742	41427.55
657.094	41515.91
657.445	41652.41
657.796	41348.91
658.147	41480.89
658.498	41496.71
658.849	41559.75
659.2	41380.55
659.551	41557.49
659.902	41430.72
660.253	41460.77
660.604	41545.97
660.955	41428.46
661.306	41411.51
661.656	41271.17
662.007	41343.72
662.358	41421
662.708	41265.98
663.059	41289.25
663.409	41014.68
663.76	41474.56
664.11	41267.56
664.461	41329.03
664.811	41348.69
665.161	41227.33
665.511	41112.76
665.862	41207.45
666.212	41239.99
666.562	41335.35
666.912	41088.81
667.262	41103.04
667.612	41066.43
667.962	41260.33
668.312	41098.52
668.662	41256.94
669.011	41189.14
669.361	41099.65
669.711	41213.78
670.06	40974.01
670.41	40954.35
670.76	40900.56
671.109	41083.38
671.459	41111.63
671.808	40929.71
672.157	41061.46
672.507	40716.61
672.856	40868.25
673.205	40978.75
673.554	41060.11
673.904	40910.28
674.253	41028.47
674.602	41033.89
674.951	40357.07
675.3	40234.59
675.649	40817.85
675.998	40778.76
676.346	40919.55
676.695	40962.93
677.044	40520.01
677.393	40700.79
677.741	40906.21
678.09	40672.32
678.438	40609.27
678.787	40640
679.135	40692.43
679.484	40342.84
679.832	40581.02
680.181	40275.27
680.529	40491.76
680.877	40385.1
681.225	40254.03
681.573	40499.9
681.922	40274.82
682.27	40098.1
682.618	40209.73
682.966	40098.78
683.314	40081.83
683.661	39994.6
684.009	39860.14
684.357	39699.46
684.705	39710.09
685.053	39898.33
685.4	39705.57
685.748	39595.51
686.095	39483.65
686.443	39450.88
686.79	39408.17
687.138	39571.78
687.485	39419.92
687.832	39221.29
688.18	39321.4
688.527	39072.81
688.874	39105.13
689.221	38935.64
689.568	38888.64
689.915	38864.68
690.262	38956.43
690.609	38730.68
690.956	38514.41
691.303	38518.03
691.65	38341.76
691.997	38468.31
692.344	38045.95
692.69	38180.18
693.037	38128.21
693.383	37945.61
693.73	37895.9
694.077	37755.33
694.423	37801.89
694.769	37673.3
695.116	37678.05
695.462	37482.8
695.808	37509.69
696.155	37554.44
696.501	37229.02
696.847	37187.67
697.193	37060.66
697.539	37084.84
697.885	36800.56
698.231	36793.55
698.577	36676.72
698.923	36662.26
699.269	36608.25
699.614	36395.6
699.96	36421.58
700.306	36396.73
700.651	36327.12
700.997	35956.74
701.342	35996.51
701.688	36067.47
702.033	35907.47
702.379	35882.39
702.724	35751.55
703.069	35722.17
703.415	35412.12
703.76	35602.17
704.105	35508.16
704.45	35328.73
704.795	35142.97
705.14	35113.82
705.485	34951.34
705.83	34768.97
706.175	34934.39
706.52	34769.88
706.865	34712.93
707.209	34715.64
707.554	34550
707.899	34642.87
708.243	34397.23
708.588	34368.76
708.932	34153.62
709.277	34156.79
709.621	34190.46
709.966	33888.32
710.31	34072.95
710.654	33651.71
710.998	33839.51
711.342	33799.28
711.687	33710.7
712.031	33622.11
712.375	33479.52
712.719	33485.16
713.063	33486.75
713.407	33467.09
713.75	33338.05
714.094	33246.98
714.438	33126.08
714.782	33209.24
715.125	32991.62
715.469	33143.7
715.812	32950.04
716.156	32924.95
716.499	32879.08
716.843	32914.56
717.186	32581.69
717.53	32855.35
717.873	32751.17
718.216	32623.04
718.559	32551.63
718.902	32317.29
719.246	32388.24
719.589	32345.53
719.932	32056.95
720.275	32157.06
720.617	32164.52
720.96	32074.13
721.303	32008.14
721.646	32019.89
721.989	31839.11
722.331	32015.6
722.674	31739.45
723.016	31989.38
723.359	31838.65
723.701	31759.11
724.044	31565.22
724.386	31406.12
724.729	31589.62
725.071	31593.69
725.413	31534.93
725.755	31466.69
726.097	31390.08
726.439	31193.02
726.782	31209.52
727.124	31270.76
727.465	31089.52
727.807	31036.87
728.149	30963.65
728.491	30887.04
728.833	30936.08
729.175	30942.63
729.516	30833.71
729.858	30928.85
730.199	30671.23
730.541	30580.83
730.882	30736.76
731.224	30764.33
731.565	30429.88
731.906	30528.18
732.248	30608.18
732.589	30327.51
732.93	30334.29
733.271	30328.86
733.612	30332.71
733.953	30419.93
734.294	30258.81
734.635	30126.83
734.976	30175.65
735.317	30073.5
735.658	30059.72
735.999	30076.67
736.339	30090.23
736.68	29957.12
737.021	29925.26
737.361	29707.86
737.702	29858.59
738.042	29823.34
738.383	29781.99
738.723	29844.81
739.063	29628.32
739.404	29772.27
739.744	29628.54
740.084	29469.9
740.424	29518.94
740.764	29532.95
741.104	29591.48
741.444	29296.8
741.784	29316.46
742.124	29282.79
742.464	29336.12
742.804	29190.81
743.143	29123.7
743.483	29138.39
743.823	28939.97
744.162	29013.64
744.502	28952.18
744.841	28885.29
745.181	28881.22
745.52	28868.79
745.86	28897.49
746.199	28831.73
746.538	28622.47
746.877	28772.97
747.216	28732.3
747.556	28669.92
747.895	28683.94
748.234	28480.1
748.573	28528.68
748.911	28393.32
749.25	28434.68
749.589	28275.13
749.928	28379.08
750.267	28376.82
750.605	28276.94
750.944	28153.78
751.283	28139.09
751.621	28172.76
751.96	27968.7
752.298	28041.47
752.636	27997.63
752.975	27818.42
753.313	27866.1
753.651	27946.78
753.989	27742.72
754.327	27750.17
754.666	27613
755.004	27688.48
755.342	27621.59
755.679	27561.48
756.017	27410.3
756.355	27452.56
756.693	27259.34
757.031	27308.83
757.368	27022.06
757.706	27085.56
758.044	26947.71
758.381	27126.91
758.719	26993.36
759.056	26966.92
759.394	26837.2
759.731	26607.83
760.068	26658.68
760.405	26454.39
760.743	26478.57
761.08	26455.75
761.417	26383.88
761.754	26288.97
762.091	26258.69
762.428	26178.01
762.765	26000.62
763.102	26130.1
763.438	25905.25
763.775	25769.44
764.112	25801.75
764.449	25804.46
764.785	25775.08
765.122	25534.19
765.458	25483.34
765.795	25442.21
766.131	25302.1
766.467	25287.87
766.804	25124.93
767.14	25030.47
767.476	24979.85
767.812	24918.38
768.148	24971.26
768.485	24745.28
768.821	24580.31
769.157	24642.46
769.492	24485.85
769.828	24549.35
770.164	24305.07
770.5	24218.97
770.836	24145.3
771.171	23949.6
771.507	24040.89
771.842	23779.88
772.178	23858.75
772.513	23820.11
772.849	23730.84
773.184	23593
773.519	23606.55
773.855	23376.05
774.19	23411.08
774.525	23333.79
774.86	23348.48
775.195	23195.49
775.53	23142.61
775.865	22897.65
776.2	22811.32
776.535	22737.42
776.87	22763.86
777.205	22590.54
777.539	22536.75
777.874	22602.29
778.209	22470.99
778.543	22368.62
778.878	22241.39
779.212	22211.79
779.547	22183.54
779.881	22055.41
780.215	21865.58
780.55	22008.18
780.884	21841.63
781.218	21847.28
781.552	21671.69
781.886	21748.98
782.22	21541.3
782.554	21525.03
782.888	21299.04
783.222	21185.38
783.556	21095.21
783.889	21150.12
784.223	20966.85
784.557	20877.59
784.89	20943.8
785.224	20796.68
785.557	20654.32
785.891	20659.06
786.224	20603.24
786.558	20588.78
786.891	20315.34
787.224	20312.63
787.557	20267.66
787.891	20199.86
788.224	20259.52
788.557	20070.83
788.89	20121
789.223	20060.21
789.556	19911.51
789.888	19788.8
790.221	19683.49
790.554	19568.24
790.887	19592.87
791.219	19452.99
791.552	19482.37
791.884	19417.74
792.217	19295.26
792.549	19222.04
792.882	19095.71
793.214	19154.47
793.546	18991.76
793.879	18964.64
794.211	18774.59
794.543	18939.78
794.875	18826.57
795.207	18917.86
795.539	18723.52
795.871	18753.8
796.203	18488.95
796.535	18439.91
796.867	18377.31
797.198	18235.62
797.53	18428.39
797.862	18212.35
798.193	18308.61
798.525	18169.64
798.856	18096.87
799.188	17947.04
799.519	17936.42
799.85	17762.87
800.182	17842.19
800.513	17793.37
800.844	17524
801.175	17694.62
801.506	17601.29
801.837	17603.32
802.168	17528.52
802.499	17566.71
802.83	17265.93
803.161	17323.1
803.491	17322.2
803.822	17275.42
804.153	17213.28
804.483	17081.53
804.814	17082.43
805.145	17028.42
805.475	17044.47
805.805	16936
806.136	17015.99
806.466	16954.75
806.796	17028.87
807.126	16795.66
807.457	16701.65
807.787	16686.96
808.117	16614.2
808.447	16629.11
808.777	16561.99
809.107	16522.45
809.436	16412.17
809.766	16369.23
810.096	16270.25
810.426	16281.1
810.755	16310.7
811.085	16256.47
811.414	16120.88
811.744	16160.42
812.073	16164.72
812.403	16073.42
812.732	15979.86
813.061	16039.97
813.39	15881.11
813.719	15863.93
814.049	15944.38
814.378	15827.32
814.707	15701.45
815.036	15701.68
815.365	15673.66
815.693	15532.64
816.022	15540.33
816.351	15505.75
816.68	15403.15
817.008	15532.64
817.337	15299.65
817.665	15310.05
817.994	15240.67
818.322	15315.25
818.651	15250.62
818.979	15164.29
819.307	15240.9
819.636	15136.49
819.964	15038.19
820.292	15137.4
820.62	15066.21
820.948	15040.45
821.276	15090.17
821.604	15048.81
821.932	15083.84
822.259	15052.43
822.587	14970.62
822.915	15022.83
823.243	14983.73
823.57	14922.04
823.898	15052.2
824.225	14972.88
824.553	15015.37
824.88	14938.99
825.207	15038.42
825.535	14942.38
825.862	14950.06
826.189	14839.1
826.516	15014.69
826.843	15040.45
827.17	15051.07
827.497	15062.37
827.824	14968.14
828.151	14966.56
828.478	14941.02
828.805	14988.02
829.131	14926.78
829.458	14906.22
829.785	14831.42
830.111	14905.54
830.438	14968.36
830.764	14861.47
831.09	14943.96
831.417	14820.12
831.743	14950.96
832.069	14943.28
832.395	14828.25
832.722	14801.81
833.048	14795.94
833.374	14763.17
833.7	14841.81
834.026	14771.76
834.351	14812.44
834.677	14765.2
835.003	14779.89
835.329	14708.48
835.654	14702.38
835.98	14584.19
836.306	14638.43
836.631	14651.08
836.956	14797.29
837.282	14616.73
837.607	14569.5
837.932	14526.57
838.258	14504.19
838.583	14540.8
838.908	14422.84
839.233	14503.06
839.558	14395.72
839.883	14367.25
840.208	14336.52
840.533	14362.28
840.858	14267.14
841.182	14277.99
841.507	14286.8
841.832	14191.21
842.156	14260.59
842.481	14190.08
842.805	14180.14
843.13	14034.6
843.454	14064.88
843.778	14080.03
844.103	14049.74
844.427	13993.02
844.751	13963.42
845.075	14002.97
845.399	13903.08
845.723	13774.04
846.047	13851.33
846.371	13680.04
846.695	13703.31
847.019	13638.23
847.343	13551.68
847.666	13457.44
847.99	13469.87
848.313	13412.92
848.637	13313.72
848.96	13319.59
849.284	13306.71
849.607	13184
849.931	13189.2
850.254	13048.41
850.577	12953.95
850.9	12949.66
851.223	12873.28
851.546	12854.52
851.869	12741.98
852.192	12847.06
852.515	12695.88
852.838	12638.03
853.161	12621.98
853.483	12565.94
853.806	12500.86
854.129	12590.8
854.451	12478.49
854.774	12428.32
855.096	12367.53
855.419	12326.17
855.741	12330.24
856.063	12287.53
856.385	12225.84
856.708	12131.83
857.03	12197.59
857.352	12177.25
857.674	12036.92
857.996	11989.91
858.318	11974.77
858.64	11975.9
858.961	11947.2
859.283	11849.35
859.605	11848.9
859.926	11797.37
860.248	11752.63
860.57	11750.59
860.891	11737.94
861.212	11657.26
861.534	11689.13
861.855	11572.52
862.176	11673.99
862.498	11659.07
862.819	11657.26
863.14	11610.71
863.461	11505.4
863.782	11558.28
864.103	11429.02
864.424	11475.8
864.745	11469.25
865.065	11412.07
865.386	11385.18
865.707	11374.79
866.027	11371.4
866.348	11384.5
866.668	11414.11
866.989	11351.51
867.309	11228.8
867.63	11243.04
867.95	11241.23
868.27	11153.32
868.59	11136.15
868.91	11115.81
869.23	11162.36
869.55	11143.15
869.87	11178.41
870.19	11088.69
870.51	11115.81
870.83	11148.35
871.15	10998.75
871.469	11067.22
871.789	11080.56
872.109	10995.36
872.428	10880.56
872.748	11007.79
873.067	10966.21
873.386	10962.82
873.706	10941.35
874.025	10844.18
874.344	10787.91
874.663	10827.23
874.982	10831.07
875.301	10812.54
875.62	10791.07
875.939	10790.62
876.258	10701.36
876.577	10669.04
876.896	10742.71
877.214	10710.4
877.533	10678.08
877.852	10625.2
878.17	10624.97
878.489	10591.3
878.807	10681.47
879.125	10597.63
879.444	10541.36
879.762	10591.08
880.08	10549.27
880.398	10500.23
880.716	10471.31
881.034	10474.92
881.352	10517.86
881.67	10430.86
881.988	10376.85
882.306	10378.88
882.624	10370.07
882.941	10321.03
883.259	10279.22
883.577	10250.75
883.894	10260.69
884.212	10279.67
884.529	10207.81
884.846	10166.68
885.164	10173.91
885.481	10192.44
885.798	10143.41
886.115	10136.63
886.432	10016.86
886.75	10056.4
887.067	10109.28
887.383	10013.92
887.7	10003.07
888.017	9905.67
888.334	9995.39
888.651	9901.15
888.967	9850.76
889.284	9867.71
889.6	9781.83
889.917	9728.95
890.233	9807.6
890.55	9716.07
890.866	9737.99
891.182	9726.02
891.498	9678.11
891.815	9619.8
892.131	9626.58
892.447	9554.72
892.763	9525.12
893.079	9503.42
893.395	9471.33
893.71	9517.89
894.026	9444.67
894.342	9411.22
894.657	9307.5
894.973	9272.92
895.289	9338.23
895.604	9300.49
895.92	9209.64
896.235	9225.46
896.55	9141.62
896.865	9164.45
897.181	9081.51
897.496	9138.69
897.811	9106.82
898.126	9068.18
898.441	9052.13
898.756	9029.76
899.071	8939.14
899.386	8934.17
899.7	8916.32
900.015	8878.35
900.33	8770.33
900.644	8726.72
900.959	8779.15
901.273	8674.74
901.588	8753.16
901.902	8694.18
902.216	8595.42
902.531	8630.68
902.845	8597.01
903.159	8559.72
903.473	8495.54
903.787	8545.48
904.101	8441.3
904.415	8436.78
904.729	8380.29
905.042	8353.62
905.356	8291.25
905.67	8283.57
905.984	8287.64
906.297	8244.02
906.611	8201.99
906.924	8225.26
907.237	8239.27
907.551	8084.25
907.864	8091.03
908.177	8059.39
908.491	8054.42
908.804	7991.37
909.117	7985.27
909.43	7927.19
909.743	7824.6
910.056	7867.08
910.368	7821.88
910.681	7707.99
910.994	7769.91
911.307	7757.25
911.619	7672.51
911.932	7700.76
912.244	7654.21
912.557	7657.82
912.869	7550.71
913.181	7532.4
913.494	7571.27
913.806	7455.79
914.118	7434.78
914.43	7411.27
914.742	7368.56
915.054	7444.04
915.366	7349.13
915.678	7282.92
915.99	7241.11
916.302	7187.1
916.613	7169.7
916.925	7187.55
917.236	7161.56
917.548	7107.78
917.859	7126.31
918.171	7030.04
918.482	7033.88
918.794	6952.3
919.105	7037.27
919.416	6873.89
919.727	6874.57
920.038	6899.65
920.349	6809.26
920.66	6828.46
920.971	6775.13
921.282	6750.27
921.593	6754.79
921.903	6705.76
922.214	6692.2
922.525	6681.35
922.835	6592.09
923.146	6550.73
923.456	6561.13
923.767	6504.63
924.077	6504.18
924.387	6494.91
924.697	6385.31
925.008	6431.19
925.318	6443.16
925.628	6385.09
925.938	6330.4
926.248	6328.14
926.558	6240.91
926.867	6294.02
927.177	6211.08
927.487	6208.37
927.796	6127.69
928.106	6172.44
928.416	6155.49
928.725	6113.23
929.034	6052.67
929.344	6081.59
929.653	6035.94
929.962	6039.33
930.271	5938.54
930.581	5945.55
930.89	5885.66
931.199	5889.05
931.508	5844.54
931.817	5830.75
932.125	5868.72
932.434	5826.68
932.743	5786.68
933.051	5731.77
933.36	5706.69
933.669	5650.87
933.977	5664.65
934.286	5682.73
934.594	5629.85
934.902	5598.89
935.21	5569.74
935.519	5557.99
935.827	5576.52
936.135	5514.83
936.443	5500.14
936.751	5476.41
937.059	5494.49
937.367	5393.02
937.674	5416.52
937.982	5380.59
938.29	5334.49
938.597	5370.65
938.905	5218.11
939.213	5276.64
939.52	5246.81
939.827	5276.41
940.135	5216.53
940.442	5183.54
940.749	5174.95
941.056	5186.93
941.363	5093.59
941.67	5131.11
941.977	5070.77
942.284	5053.14
942.591	5083.65
942.898	4990.55
943.205	5041.84
943.511	5025.35
943.818	4994.39
944.125	4936.99
944.431	4915.07
944.738	4915.75
945.044	4859.02
945.35	4844.11
945.657	4859.02
945.963	4779.25
946.269	4760.27
946.575	4777.9
946.881	4715.07
947.187	4727.28
947.493	4681.4
947.799	4624.91
948.105	4664.45
948.41	4617.9
948.716	4627.84
949.022	4606.83
949.327	4578.13
949.633	4534.97
949.938	4518.02
950.244	4548.75
950.549	4494.74
950.854	4479.15
951.16	4448.41
951.465	4431.69
951.77	4446.83
952.075	4376.1
952.38	4365.48
952.685	4406.16
952.99	4374.52
953.294	4357.8
953.599	4296.55
953.904	4263.11
954.209	4256.55
954.513	4273.73
954.818	4221.98
955.122	4213.62
955.426	4167.52
955.731	4217.69
956.035	4189.89
956.339	4157.12
956.643	4144.02
956.948	4104.92
957.252	4072.83
957.556	4094.53
957.86	4061.53
958.163	4033.74
958.467	4064.47
958.771	4020.4
959.075	4040.06
959.378	3972.49
959.682	3984.02
959.985	3962.1
960.289	3905.38
960.592	3931.59
960.896	3898.37
961.199	3851.59
961.502	3832.39
961.805	3860.86
962.108	3834.64
962.411	3826.74
962.714	3770.24
963.017	3751.48
963.32	3765.95
963.623	3744.7
963.926	3722.78
964.228	3721.43
964.531	3679.17
964.833	3649.11
965.136	3653.18
965.438	3596.91
965.741	3622.22
966.043	3579.06
966.345	3621.54
966.648	3529.79
966.95	3563.24
967.252	3557.14
967.554	3489.8
967.856	3483.92
968.158	3485.95
968.46	3468.55
968.761	3448.89
969.063	3444.82
969.365	3417.71
969.666	3430.14
969.968	3414.09
970.269	3379.74
970.571	3403.24
970.872	3361.66
971.174	3317.14
971.475	3331.61
971.776	3319.4
972.077	3331.16
972.378	3307.88
972.679	3274.21
972.98	3251.38
973.281	3277.15
973.582	3252.97
973.883	3228.33
974.183	3267.65
974.484	3218.39
974.785	3161.44
975.085	3163.48
975.386	3174.1
975.686	3140.88
975.986	3109.01
976.287	3092.74
976.587	3092.07
976.887	3054.1
977.187	3053.87
977.487	3064.5
977.787	3041.67
978.087	3027.66
978.387	3029.47
978.687	2982.69
978.987	2949.47
979.286	2941.56
979.586	2958.06
979.885	2951.05
980.185	2927.55
980.484	2895.91
980.784	2896.82
981.083	2899.75
981.382	2899.98
981.682	2875.8
981.981	2871.51
982.28	2819.76
982.579	2829.25
982.878	2801.9
983.177	2809.59
983.475	2789.02
983.774	2807.33
984.073	2727.33
984.372	2736.59
984.67	2725.07
984.969	2738.85
985.267	2720.32
985.566	2731.85
985.864	2690.95
986.162	2689.59
986.461	2646.65
986.759	2624.73
987.057	2587.45
987.355	2645.52
987.653	2601.01
987.951	2608.91
988.249	2596.94
988.547	2556.26
988.844	2572.53
989.142	2563.72
989.44	2541.57
989.737	2513.32
990.035	2497.28
990.332	2500.44
990.63	2520.78
990.927	2535.24
991.224	2523.49
991.521	2494.79
991.819	2428.13
992.116	2450.27
992.413	2453.89
992.71	2409.15
993.006	2430.16
993.303	2352.88
993.6	2383.38
993.897	2364.18
994.193	2375.93
994.49	2363.72
994.787	2319.88
995.083	2347.23
995.379	2373.21
995.676	2322.14
995.972	2322.59
996.268	2289.83
996.565	2270.84
996.861	2256.38
997.157	2257.51
997.453	2248.25
997.749	2226.55
998.044	2215.03
998.34	2234.24
998.636	2190.39
998.932	2170.28
999.227	2178.19
999.523	2169.38
999.818	2139.55
1000.114	2157.85
1000.409	2151.53
1000.704	2099.1
1001	2076.27
1001.295	2109.04
1001.59	2094.35
1001.885	2105.88
1002.18	2070.17
1002.475	2045.99
1002.77	2030.62
1003.065	2043.73
1003.359	2041.92
1003.654	1999.44
1003.949	2034.92
1004.243	1957.18
1004.538	1964.86
1004.832	1981.59
1005.127	1976.61
1005.421	1956.28
1005.715	1942.27
1006.009	1928.93
1006.304	1926.45
1006.598	1921.02
1006.892	1901.81
1007.186	1897.75
1007.48	1870.18
1007.773	1861.36
1008.067	1879.22
1008.361	1843.51
1008.655	1841.48
1008.948	1826.56
1009.242	1829.05
1009.535	1788.82
1009.829	1780.01
1010.122	1762.84
1010.415	1791.99
1010.708	1767.13
1011.001	1754.02
1011.295	1754.25
1011.588	1714.93
1011.881	1696.85
1012.173	1703.63
1012.466	1716.96
1012.759	1667.47
1013.052	1677.41
1013.344	1678.32
1013.637	1671.31
1013.93	1630.18
1014.222	1645.55
1014.514	1607.81
1014.807	1589.73
1015.099	1625.44
1015.391	1608.49
1015.683	1606.91
1015.976	1595.38
1016.268	1589.28
1016.56	1551.54
1016.851	1565.33
1017.143	1565.55
1017.435	1545.67
1017.727	1554.25
1018.018	1511.77
1018.31	1519.9
1018.602	1505.21
1018.893	1487.81
1019.185	1507.02
1019.476	1471.77
1019.767	1460.24
1020.058	1460.24
1020.35	1440.81
1020.641	1416.4
1020.932	1418.66
1021.223	1423.18
1021.514	1419.12
1021.804	1388.38
1022.095	1392.22
1022.386	1371.66
1022.677	1399.23
1022.967	1365.33
1023.258	1369.85
1023.548	1332.79
1023.839	1351.09
1024.129	1317.42
1024.419	1342.96
1024.709	1332.11
1025	1316.07
1025.29	1287.37
1025.58	1273.58
1025.87	1262.96
1026.16	1265.67
1026.449	1268.61
1026.739	1259.57
1027.029	1255.73
1027.319	1199.23
1027.608	1236.75
1027.898	1216.41
1028.187	1197.88
1028.477	1217.54
1028.766	1194.26
1029.055	1194.71
1029.344	1191.32
1029.634	1169.4
1029.923	1168.05
1030.212	1162.4
1030.501	1161.72
1030.79	1123.98
1031.078	1123.76
1031.367	1121.95
1031.656	1110.65
1031.945	1127.6
1032.233	1105.9
1032.522	1106.58
1032.81	1087.6
1033.099	1066.13
1033.387	1102.06
1033.675	1070.2
1033.963	1080.14
1034.251	1065.9
1034.54	1043.31
1034.828	1044.44
1035.116	1034.27
1035.403	1011.22
1035.691	1030.65
1035.979	999.47
1036.267	997.21
1036.554	996.75
1036.842	1005.34
1037.129	1005.11
1037.417	997.88
1037.704	975.06
1037.992	980.26
1038.279	1006.47
1038.566	960.37
1038.853	960.37
1039.14	960.37
