Data from hue_30_FLMS001491_94.txt Node
Date: Mon Feb 06 15:06:24 GMT 2017
User: dcchb
Spectrometer: FLMS00149
Trigger mode: 0
Integration Time (sec): 2.000000E-2
Scans to average: 10
Electric dark correction enabled: true
Nonlinearity correction enabled: false
Boxcar width: 0
XAxis mode: Wavelengths
Number of Pixels in Spectrum: 2048
>>>>>Begin Spectral Data<<<<<
341.393	-10.13
341.776	-10.13
342.16	-10.13
342.543	-81.99
342.927	-46.51
343.31	-62.33
343.693	-77.92
344.077	-58.04
344.46	-58.71
344.843	-53.97
345.226	-60.52
345.61	-31.37
345.993	-17.81
346.376	-5.38
346.759	11.34
347.142	31.91
347.525	37.1
347.908	46.59
348.291	99.25
348.674	85.01
349.057	114.84
349.44	124.33
349.823	127.04
350.206	152.35
350.588	184.22
350.971	200.72
351.354	216.31
351.737	233.03
352.119	250.43
352.502	249.3
352.884	254.95
353.267	252.69
353.65	277.32
354.032	308.51
354.414	308.73
354.797	310.99
355.179	321.62
355.562	306.47
355.944	342.63
356.326	320.49
356.709	329.53
357.091	321.39
357.473	339.02
357.855	332.01
358.238	346.25
358.62	325.91
359.002	334.72
359.384	337.66
359.766	337.89
360.148	338.56
360.53	346.7
360.912	328.17
361.294	329.75
361.676	329.53
362.057	318.68
362.439	349.64
362.821	319.58
363.203	312.12
363.584	334.04
363.966	335.4
364.348	306.93
364.729	313.48
365.111	315.51
365.493	332.69
365.874	319.13
366.256	323.88
366.637	325.46
367.019	330.43
367.4	318.23
367.781	321.39
368.163	310.32
368.544	301.73
368.925	312.35
369.306	314.38
369.688	296.76
370.069	311.45
370.45	320.03
370.831	315.06
371.212	318.23
371.593	318.45
371.974	327.49
372.355	303.31
372.736	300.83
373.117	300.83
373.498	319.58
373.879	299.7
374.26	327.94
374.641	301.73
375.021	310.99
375.402	317.32
375.783	309.86
376.163	318.23
376.544	333.82
376.925	323.42
377.305	301.5
377.686	304.22
378.066	305.12
378.447	317.77
378.827	314.38
379.208	321.16
379.588	315.06
379.968	314.38
380.349	320.71
380.729	326.81
381.109	331.79
381.489	327.27
381.87	351.67
382.25	320.26
382.63	322.29
383.01	336.53
383.39	327.27
383.77	336.53
384.15	343.99
384.53	331.79
384.91	336.08
385.29	335.4
385.67	335.4
386.049	372.69
386.429	340.15
386.809	330.43
387.189	354.61
387.568	367.26
387.948	344.44
388.328	350.77
388.707	347.15
389.087	353.48
389.466	351.9
389.846	357.32
390.225	374.72
390.605	360.03
390.984	367.49
391.363	376.3
391.743	353.25
392.122	339.69
392.501	354.61
392.881	354.84
393.26	380.15
393.639	364.33
394.018	353.48
394.397	364.78
394.776	359.13
395.155	358
395.534	342.18
395.913	353.93
396.292	362.52
396.671	359.58
397.05	388.51
397.429	371.11
397.808	377.21
398.186	383.54
398.565	361.16
398.944	380.15
399.323	382.63
399.701	393.93
400.08	387.38
400.458	370.88
400.837	383.31
401.215	368.17
401.594	370.43
401.972	374.95
402.351	392.8
402.729	393.25
403.107	400.71
403.486	400.48
403.864	414.04
404.242	363.2
404.62	390.99
404.999	424.66
405.377	402.52
405.755	383.31
406.133	409.98
406.511	407.72
406.889	388.28
407.267	416.98
407.645	415.4
408.023	427.38
408.401	405.46
408.779	423.99
409.156	424.21
409.534	417.88
409.912	416.3
410.29	428.28
410.667	424.66
411.045	417.88
411.422	423.99
411.8	420.37
412.178	457.43
412.555	450.2
412.933	433.03
413.31	442.29
413.687	455.62
414.065	458.34
414.442	455.85
414.819	470.31
415.197	458.79
415.574	452.69
415.951	474.61
416.328	472.57
416.705	466.24
417.082	470.99
417.46	459.69
417.837	471.22
418.214	477.77
418.591	486.81
418.967	486.81
419.344	487.49
419.721	494.72
420.098	497.88
420.475	482.97
420.852	485.91
421.228	507.15
421.605	493.36
421.982	509.41
422.358	487.71
422.735	500.37
423.111	498.79
423.488	521.61
423.864	514.83
424.241	527.71
424.617	535.4
424.994	536.98
425.37	511.22
425.746	520.93
426.123	523.42
426.499	531.1
426.875	555.51
427.251	539.01
427.627	550.31
428.003	537.2
428.379	556.64
428.756	552.8
429.132	541.27
429.507	573.36
429.883	549.18
430.259	590.76
430.635	583.08
431.011	580.14
431.387	566.58
431.763	605.22
432.138	594.38
432.514	621.04
432.89	616.75
433.265	617.43
433.641	604.55
434.016	597.99
434.392	621.04
434.767	630.99
435.143	619.01
435.518	636.18
435.894	620.82
436.269	647.03
436.644	650.42
437.02	662.85
437.395	628.73
437.77	647.26
438.145	676.18
438.52	659.23
438.895	687.71
439.271	660.14
439.646	674.15
440.021	689.74
440.395	698.1
440.77	680.48
441.145	672.34
441.52	684.77
441.895	699.46
442.27	705.33
442.645	669.86
443.019	739.68
443.394	699.46
443.769	729.29
444.143	720.7
444.518	747.59
444.892	722.06
445.267	750.31
445.641	735.62
446.016	741.27
446.39	725.22
446.764	737.88
447.139	748.72
447.513	736.07
447.887	769.29
448.262	741.49
448.636	761.6
449.01	781.49
449.384	787.59
449.758	789.85
450.132	783.3
450.506	790.53
450.88	792.34
451.254	796.41
451.628	797.31
452.002	802.51
452.376	807.7
452.75	815.61
453.123	804.09
453.497	840.47
453.871	849.51
454.244	838.66
454.618	840.47
454.992	859.23
455.365	859.91
455.739	861.04
456.112	891.09
456.486	874.6
456.859	894.71
457.232	917.08
457.606	905.78
457.979	911.43
458.352	906.23
458.725	918.21
459.099	937.19
459.472	950.98
459.845	923.86
460.218	958.89
460.591	960.92
460.964	981.03
461.337	995.04
461.71	1025.78
462.083	1012.45
462.456	1024.42
462.829	1021.94
463.201	1056.06
463.574	1069.84
463.947	1061.48
464.32	1079.11
464.692	1080.01
465.065	1092.22
465.438	1114.36
465.81	1154.36
466.183	1129.05
466.555	1141.26
466.928	1164.98
467.3	1163.4
467.672	1187.81
468.045	1225.09
468.417	1210.41
468.789	1219.45
469.161	1241.82
469.534	1258.31
469.906	1280.23
470.278	1304.19
470.65	1292.21
471.022	1337.18
471.394	1338.09
471.766	1367.46
472.138	1382.83
472.51	1405.2
472.882	1430.29
473.253	1459.89
473.625	1483.39
473.997	1485.88
474.369	1502.6
474.74	1548.25
475.112	1541.02
475.484	1609.94
475.855	1640.23
476.227	1662.37
476.598	1684.07
476.97	1721.13
477.341	1756.83
477.713	1801.58
478.084	1772.88
478.455	1858.52
478.827	1879.31
479.198	1924.51
479.569	1934.45
479.94	1996.15
480.311	2046.54
480.682	2056.26
481.053	2146.88
481.424	2174.22
481.795	2212.41
482.166	2250.83
482.537	2317.95
482.908	2360.43
483.279	2381
483.65	2441.33
484.021	2479.75
484.391	2526.3
484.762	2534.66
485.133	2607.88
485.503	2686.07
485.874	2753.42
486.244	2757.26
486.615	2841.55
486.985	2886.75
487.356	2988.21
487.726	2975.78
488.097	3054.2
488.467	3083.8
488.837	3165.38
489.207	3238.15
489.578	3235.89
489.948	3345.27
490.318	3422.78
490.688	3397.92
491.058	3495.32
491.428	3578.71
491.798	3618.93
492.168	3686.27
492.538	3781.41
492.908	3773.28
493.278	3851.47
493.648	3880.39
494.017	3958.81
494.387	3987.06
494.757	4045.59
495.126	4093.04
495.496	4099.82
495.866	4158.13
496.235	4216.65
496.605	4247.84
496.974	4332.81
497.344	4338.91
497.713	4429.08
498.082	4451.45
498.452	4536.19
498.821	4556.98
499.19	4568.06
499.559	4635.85
499.928	4670.2
500.298	4668.17
500.667	4767.6
501.036	4768.5
501.405	4812.8
501.774	4838.79
502.143	4845.79
502.512	4900.25
502.88	4929.86
503.249	4941.83
503.618	4987.71
503.987	5066.12
504.356	5132.34
504.724	5101.15
505.093	5166.23
505.462	5140.47
505.83	5232.45
506.199	5300.92
506.567	5331.2
506.936	5363.52
507.304	5356.29
507.672	5458.2
508.041	5474.47
508.409	5442.39
508.777	5483.06
509.145	5549.95
509.514	5553.34
509.882	5652.55
510.25	5649.16
510.618	5676.96
510.986	5695.49
511.354	5747.46
511.722	5795.37
512.09	5853.67
512.458	5848.25
512.826	5865.65
513.193	5880.34
513.561	5905.42
513.929	5958.08
514.297	5993.11
514.664	6022.48
515.032	6039.21
515.4	6086.89
515.767	6049.15
516.135	6134.34
516.502	6099.99
516.869	6182.48
517.237	6251.63
517.604	6214.79
517.972	6237.62
518.339	6281.23
518.706	6300.67
519.073	6342.47
519.44	6399.65
519.808	6433.32
520.175	6401.68
520.542	6476.71
520.909	6492.3
521.276	6519.64
521.643	6598.06
522.009	6645.52
522.376	6660.43
522.743	6662.01
523.11	6670.83
523.477	6795.57
523.843	6785.4
524.21	6853.87
524.577	6877.6
524.943	6876.25
525.31	6939.29
525.676	6966.64
526.043	7049.35
526.409	7063.59
526.776	7065.62
527.142	7097.26
527.508	7155.56
527.874	7245.73
528.241	7257.7
528.607	7269.23
528.973	7309.91
529.339	7309.23
529.705	7339.28
530.071	7494.53
530.437	7470.35
530.803	7525.04
531.169	7562.33
531.535	7564.59
531.901	7585.38
532.267	7603.91
532.632	7654.3
532.998	7671.25
533.364	7687.98
533.73	7763.45
534.095	7828.99
534.461	7822.66
534.826	7887.29
535.192	7920.29
535.557	7969.78
535.923	7939.49
536.288	8024.24
536.653	8087.74
537.019	8060.85
537.384	8094.29
537.749	8179.71
538.114	8071.92
538.479	8195.76
538.845	8220.84
539.21	8253.84
539.575	8247.28
539.94	8281.18
540.305	8374.96
540.67	8342.65
541.034	8414.28
541.399	8381.29
541.764	8400.5
542.129	8498.35
542.494	8527.73
542.858	8559.37
543.223	8575.18
543.587	8647.72
543.952	8710.55
544.316	8708.06
544.681	8719.81
545.045	8720.49
545.41	8758.68
545.774	8842.07
546.138	8851.11
546.503	8900.83
546.867	8913.71
547.231	9002.97
547.595	8988.73
547.959	9081.61
548.324	9032.57
548.688	9032.57
549.052	9070.76
549.416	9147.82
549.779	9179.01
550.143	9159.58
550.507	9222.85
550.871	9281.83
551.235	9320.93
551.599	9336.97
551.962	9388.95
552.326	9377.42
552.689	9459
553.053	9444.31
553.417	9485.89
553.78	9574.71
554.143	9558.66
554.507	9601.37
554.87	9590.98
555.234	9732.22
555.597	9595.95
555.96	9684.53
556.323	9716.17
556.686	9812.21
557.05	9777.41
557.413	9853.34
557.776	9912.1
558.139	9920.46
558.502	9960.91
558.865	10015.82
559.228	10083.85
559.59	10037.07
559.953	10052.21
560.316	10132.21
560.679	10202.71
561.041	10214.69
561.404	10230.28
561.767	10293.56
562.129	10267.79
562.492	10387.79
562.854	10342.82
563.217	10399.77
563.579	10461.24
563.941	10430.95
564.304	10487.22
564.666	10494.91
565.028	10517.05
565.39	10611.06
565.753	10659.65
566.115	10628.69
566.477	10746.43
566.839	10817.16
567.201	10874.11
567.563	10804.96
567.925	10865.97
568.287	10865.75
568.648	10924.73
569.01	11039.53
569.372	11085.85
569.734	10997.27
570.095	11151.16
570.457	11181.44
570.819	11207.43
571.18	11192.06
571.542	11335.11
571.903	11263.48
572.265	11321.55
572.626	11438.61
572.987	11449.91
573.349	11512.06
573.71	11694.88
574.071	11624.6
574.432	11784.82
574.794	11884.25
575.155	11852.84
575.516	11845.83
575.877	11964.47
576.238	12121.53
576.599	12108.2
576.96	12276.33
577.32	12306.16
577.681	12423.44
578.042	12599.94
578.403	12654.4
578.763	12631.57
579.124	12823.89
579.485	12902.75
579.845	13127.38
580.206	13113.6
580.566	13280.15
580.927	13352.69
581.287	13511.33
581.648	13600.59
582.008	13885.1
582.368	14028.37
582.728	14150.18
583.089	14349.04
583.449	14399.21
583.809	14580.68
584.169	14793.1
584.529	14851.4
584.889	15157.61
585.249	15385.63
585.609	15444.83
585.969	15653.42
586.329	15838.04
586.688	16011.15
587.048	16214.53
587.408	16447.29
587.768	16706.04
588.127	16899.94
588.487	17181.06
588.846	17439.36
589.206	17632.12
589.565	17887.48
589.925	18218.32
590.284	18325.89
590.643	18636.39
591.003	18821.47
591.362	19249.03
591.721	19324.51
592.08	19621.9
592.44	19885.4
592.799	20179.62
593.158	20385.04
593.517	20695.09
593.876	20972.15
594.235	21172.37
594.593	21335.98
594.952	21657.55
595.311	21925.79
595.67	22194.94
596.029	22500.92
596.387	22848.03
596.746	23048.7
597.104	23221.58
597.463	23420.9
597.822	23782.24
598.18	23946.08
598.538	24146.3
598.897	24631.94
599.255	24583.58
599.613	25129.55
599.972	25108.53
600.33	25431.69
600.688	25668.97
601.046	26032.13
601.404	26263.08
601.762	26462.85
602.12	26805.67
602.478	27029.84
602.836	27186.45
603.194	27332.66
603.552	27538.98
603.91	27673.44
604.268	27987.78
604.625	28072.07
604.983	28461.44
605.341	28512.06
605.698	28891.49
606.056	29082.67
606.413	29243.12
606.771	29507.52
607.128	29636.55
607.485	29726.94
607.843	29962.42
608.2	30146.82
608.557	30530.99
608.914	30423.88
609.272	30876.74
609.629	31160.58
609.986	31206.23
610.343	31262.27
610.7	31575.71
611.057	31769.6
611.414	31792.88
611.771	32095.24
612.127	32290.49
612.484	32397.61
612.841	32540.88
613.198	32493.65
613.554	32673.53
613.911	33025.84
614.267	33151.04
614.624	33121.43
614.98	33480.97
615.337	33596.22
615.693	33674.86
616.05	33735.2
616.406	34045.25
616.762	33960.28
617.118	33981.52
617.475	34222.42
617.831	34384.67
618.187	34520.72
618.543	34630.77
618.899	34899.69
619.255	34882.29
619.611	34998.22
619.967	35116.63
620.323	35180.59
620.678	35196.86
621.034	35170.87
621.39	35425.33
621.746	35398.89
622.101	35877.29
622.457	35606.79
622.812	35682.72
623.168	35912.32
623.523	35931.98
623.879	35954.13
624.234	35900.79
624.589	36146.66
624.945	36215.14
625.3	36326.77
625.655	36231.86
626.01	36396.37
626.365	36544.84
626.72	36427.33
627.075	36495.35
627.43	36410.38
627.785	36527.44
628.14	36687.44
628.495	36646.54
628.85	36618.29
629.205	36745.97
629.559	36782.8
629.914	36720.88
630.269	36749.13
630.623	36757.49
630.978	36712.52
631.332	36973.76
631.687	36976.47
632.041	36963.82
632.396	36884.95
632.75	36793.88
633.104	36917.26
633.459	36766.76
633.813	36867.77
634.167	36835.01
634.521	36844.95
634.875	36847.44
635.229	36867.55
635.583	36706.2
635.937	36705.07
636.291	36817.38
636.645	36831.62
636.999	36734.67
637.352	36990.48
637.706	36781
638.06	36846.98
638.413	36974.89
638.767	36669.59
639.121	36910.71
639.474	36697.16
639.828	36699.64
640.181	36779.41
640.534	36771.05
640.888	36694.22
641.241	36581.45
641.594	36660.1
641.947	36708.68
642.301	36638.18
642.654	36525.64
643.007	36656.71
643.36	36551.4
643.713	36554.56
644.066	36644.95
644.419	36294.91
644.771	36204.06
645.124	35738.31
645.477	35641.59
645.83	35688.82
646.182	35607.02
646.535	35489.5
646.888	35556.62
647.24	35341.71
647.593	35656.28
647.945	35415.38
648.298	35370.64
648.65	35355.04
649.002	35187.37
649.355	35341.71
649.707	35232.56
650.059	35493.57
650.411	35876.84
650.763	35879.78
651.115	36221.91
651.467	36113.9
651.819	36180.33
652.171	36024.63
652.523	36062.6
652.875	35985.08
653.227	35940.57
653.578	36138.75
653.93	36075.7
654.282	35914.8
654.633	35743.51
654.985	35920
655.337	35877.52
655.688	35922.04
656.039	36019.43
656.391	35641.37
656.742	35779.67
657.094	35835.48
657.445	35978.31
657.796	35764.75
658.147	35831.87
658.498	35842.72
658.849	35781.02
659.2	35866.44
659.551	35598.65
659.902	35789.61
660.253	35789.61
660.604	35824.64
660.955	35567.47
661.306	35851.98
661.656	35621.93
662.007	35724.3
662.358	35625.09
662.708	35752.55
663.059	35692.44
663.409	35407.92
663.76	35693.57
664.11	35687.92
664.461	35770.4
664.811	35760.01
665.161	35703.74
665.511	35539.45
665.862	35751.87
666.212	35822.38
666.562	35729.27
666.912	35743.96
667.262	35616.73
667.612	35630.29
667.962	35645.66
668.312	35602.72
668.662	35807.24
669.011	35503.29
669.361	35597.98
669.711	35627.58
670.06	35540.8
670.41	35392.11
670.76	35461.93
671.109	35588.49
671.459	35499
671.808	35371.77
672.157	35394.37
672.507	35333.35
672.856	35316.63
673.205	35366.34
673.554	35400.69
673.904	35377.87
674.253	35327.93
674.602	35221.04
674.951	34867.37
675.3	34704.21
675.649	35296.06
675.998	35260.58
676.346	35223.3
676.695	35243.86
677.044	35130.19
677.393	35181.72
677.741	35237.53
678.09	35056.97
678.438	34967.94
678.787	35108.5
679.135	35126.12
679.484	34899.24
679.832	34962.51
680.181	34825.12
680.529	34880.48
680.877	34857.43
681.225	34742.63
681.573	34929.52
681.922	34724.55
682.27	34633.93
682.618	34582.41
682.966	34522.98
683.314	34489.98
683.661	34594.39
684.009	34273.27
684.357	34306.26
684.705	34313.49
685.053	34170.9
685.4	34237.79
685.748	34083.21
686.095	34068.3
686.443	33998.47
686.79	33824.24
687.138	33919.15
687.485	33936.78
687.832	33825.59
688.18	33879.15
688.527	33735.88
688.874	33700.17
689.221	33554.19
689.568	33509.67
689.915	33485.04
690.262	33356.91
690.609	33333.4
690.956	33174.99
691.303	33130.7
691.65	32961.66
691.997	33000.08
692.344	32859.07
692.69	32794.43
693.037	32755.57
693.383	32590.6
693.73	32672.18
694.077	32477.61
694.423	32373.88
694.769	32375.24
695.116	32365.52
695.462	32244.17
695.808	32207.78
696.155	32129.14
696.501	31904.51
696.847	32089.59
697.193	31823.16
697.539	31893.44
697.885	31657.74
698.231	31659.77
698.577	31533.68
698.923	31443.51
699.269	31356.73
699.614	31359.22
699.96	31218.2
700.306	31245.32
700.651	31065.44
700.997	30904.09
701.342	30858.67
701.688	30753.13
702.033	30593.36
702.379	30674.94
702.724	30638.33
703.069	30641.04
703.415	30277.89
703.76	30392.01
704.105	30254.39
704.45	30340.71
704.795	30062.98
705.14	29992.25
705.485	29970.1
705.83	29827.28
706.175	29827.51
706.52	29826.6
706.865	29761.29
707.209	29728.98
707.554	29518.59
707.899	29759.49
708.243	29463.22
708.588	29592.48
708.932	29219.39
709.277	29247.63
709.621	29299.84
709.966	29047.19
710.31	29093.51
710.654	29007.87
710.998	28976.23
711.342	29008.55
711.687	28800.87
712.031	28708.89
712.375	28609.91
712.719	28724.26
713.063	28601.78
713.407	28649.01
713.75	28580.31
714.094	28385.51
714.438	28332.4
714.782	28420.99
715.125	28200.2
715.469	28346.87
715.812	28100.55
716.156	28016.71
716.499	28109.13
716.843	27917.95
717.186	27802.93
717.53	27986.2
717.873	27918.86
718.216	27846.54
718.559	27790.95
718.902	27591.18
719.246	27643.61
719.589	27501.47
719.932	27440.22
720.275	27513.22
720.617	27449.72
720.96	27395.25
721.303	27436.84
721.646	27426.89
721.989	27199.1
722.331	27244.3
722.674	27196.16
723.016	27101.7
723.359	27082.27
723.701	27192.55
724.044	26939.45
724.386	26942.61
724.729	26937.19
725.071	26987.36
725.413	26840.92
725.755	26820.81
726.097	26805.67
726.439	26665.1
726.782	26575.16
727.124	26745.78
727.465	26648.83
727.807	26631.88
728.149	26499.46
728.491	26455.17
728.833	26429.18
729.175	26398.22
729.516	26334.72
729.858	26244.32
730.199	26251.33
730.541	26183.08
730.882	26155.96
731.224	26271.44
731.565	26094.72
731.906	26020.15
732.248	26080.71
732.589	26014.73
732.93	25901.73
733.271	25953.48
733.612	25870.1
733.953	25875.07
734.294	25793.94
734.635	25816.54
734.976	25876.88
735.317	25683.66
735.658	25759.37
735.999	25716.65
736.339	25642.98
736.68	25665.81
737.021	25547.17
737.361	25372.48
737.702	25653.61
738.042	25531.8
738.383	25374.97
738.723	25479.82
739.063	25383.1
739.404	25414.29
739.744	25204.8
740.084	25141.98
740.424	25259.04
740.764	25310.79
741.104	25173.17
741.444	25167.74
741.784	24976.11
742.124	25095.65
742.464	24971.14
742.804	25057.46
743.143	24976.33
743.483	24930.69
743.823	24844.13
744.162	24831.48
744.502	24816.56
744.841	24767.07
745.181	24923.68
745.52	24715.32
745.86	24777.92
746.199	24636.91
746.538	24638.49
746.877	24696.79
747.216	24574.99
747.556	24555.55
747.895	24642.78
748.234	24490.02
748.573	24345.16
748.911	24368.67
749.25	24395.11
749.589	24404.15
749.928	24294.09
750.267	24299.52
750.605	24266.52
750.944	24279.86
751.283	24215.9
751.621	24137.94
751.96	24017.26
752.298	23993.31
752.636	24093.87
752.975	23932.97
753.313	23860.21
753.651	24017.26
753.989	23770.26
754.327	23829.25
754.666	23629.25
755.004	23715.35
755.342	23685.07
755.679	23707.89
756.017	23523.27
756.355	23654.79
756.693	23444.85
757.031	23512.87
757.368	23330.05
757.706	23298.64
758.044	23372.31
758.381	23180.68
758.719	23188.13
759.056	23222.26
759.394	23074.24
759.731	22984.52
760.068	22950.63
760.405	22923.06
760.743	22834.92
761.08	22788.82
761.417	22794.92
761.754	22726.9
762.091	22589.05
762.428	22500.92
762.765	22364.2
763.102	22415.72
763.438	22269.29
763.775	22300.92
764.112	22315.84
764.449	22260.7
764.785	22193.13
765.122	22004.21
765.458	21884.21
765.795	21931.9
766.131	21947.71
766.467	21743.65
766.804	21742.07
767.14	21596.99
767.476	21592.24
767.812	21543.2
768.148	21531.68
768.485	21435.86
768.821	21317.67
769.157	21273.16
769.492	21113.16
769.828	21102.54
770.164	20985.03
770.5	20917.23
770.836	20926.27
771.171	20793.17
771.507	20772.83
771.842	20712.72
772.178	20557.02
772.513	20565.15
772.849	20582.1
773.184	20402.67
773.519	20366.96
773.855	20266.18
774.19	20270.7
774.525	20112.51
774.86	20173.98
775.195	20086.29
775.53	19942.34
775.865	19868.45
776.2	19789.35
776.535	19639.3
776.87	19614.89
777.205	19543.48
777.539	19400.44
777.874	19467.78
778.209	19312.08
778.543	19294.22
778.878	19206.09
779.212	19157.28
779.547	19008.58
779.881	19109.37
780.215	18977.62
780.55	18985.53
780.884	18941.69
781.218	18778.31
781.552	18765.65
781.886	18745.76
782.22	18613.34
782.554	18549.16
782.888	18398.43
783.222	18226.46
783.556	18264.42
783.889	18208.15
784.223	18070.08
784.557	18115.27
784.89	18053.58
785.224	17872.34
785.557	17929.97
785.891	17836.86
786.224	17815.17
786.558	17664.44
786.891	17620.82
787.224	17525.46
787.557	17483.2
787.891	17449.53
788.224	17355.52
788.557	17385.8
788.89	17378.34
789.223	17266.71
789.556	17153.94
789.888	17122.76
790.221	17041.63
790.554	16917.56
790.887	16964.57
791.219	16871.92
791.552	16831.69
791.884	16654.52
792.217	16700.17
792.549	16624.92
792.882	16438.03
793.214	16463.56
793.546	16472.6
793.879	16367.3
794.211	16342.66
794.543	16408.2
794.875	16309.22
795.207	16303.34
795.539	16110.81
795.871	16115.1
796.203	16012.5
796.535	15953.3
796.867	15871.26
797.198	15846.63
797.53	15826.52
797.862	15651.16
798.193	15771.38
798.525	15613.42
798.856	15641.66
799.188	15513.76
799.519	15496.58
799.85	15422.24
800.182	15423.82
800.513	15403.25
800.844	15316.25
801.175	15365.74
801.506	15337.27
801.837	15109.48
802.168	15046.2
802.499	15063.15
802.83	14996.71
803.161	15047.56
803.491	14974.79
803.822	14937.73
804.153	14883.94
804.483	14734.57
804.814	14696.83
805.145	14677.62
805.475	14756.49
805.805	14677.85
806.136	14627.45
806.466	14615.7
806.796	14513.33
807.126	14429.27
807.457	14406.44
807.787	14477.18
808.117	14392.21
808.447	14265.66
808.777	14427.69
809.107	14189.73
809.436	14252.32
809.766	14266.56
810.096	14155.38
810.426	14106.34
810.755	14145.89
811.085	14060.01
811.414	14012.33
811.744	13970.52
812.073	13900.69
812.403	13943.86
812.732	13818.66
813.061	13801.26
813.39	13758.78
813.719	13650.98
814.049	13789.51
814.378	13698.89
814.707	13653.02
815.036	13628.16
815.365	13586.13
815.693	13415.51
816.022	13370.31
816.351	13406.7
816.68	13370.76
817.008	13317.88
817.337	13253.93
817.665	13183.88
817.994	13265.68
818.322	13249.41
818.651	13190.66
818.979	13178.9
819.307	13141.17
819.636	13120.38
819.964	13018.46
820.292	13119.7
820.62	12998.34
820.948	12995.41
821.276	13026.59
821.604	12957.22
821.932	13002.86
822.259	12985.46
822.587	12893.04
822.915	12971.68
823.243	13004.22
823.57	12896.88
823.898	12912.25
824.225	12937.1
824.553	12881.96
824.88	12964.9
825.207	12967.16
825.535	12892.81
825.862	12913.15
826.189	12902.3
826.516	12989.76
826.843	13022.75
827.17	12969.19
827.497	13043.54
827.824	12919.02
828.151	12907.73
828.478	12933.94
828.805	12936.65
829.131	12915.63
829.458	12846.71
829.785	12776.2
830.111	12912.7
830.438	12895.3
830.764	12854.17
831.09	12819.82
831.417	12795.41
831.743	12922.64
832.069	12879.03
832.395	12850.1
832.722	12774.4
833.048	12772.36
833.374	12812.13
833.7	12714.06
834.026	12742.53
834.351	12773.49
834.677	12729.2
835.003	12731.23
835.329	12717.9
835.654	12649.43
835.98	12623.89
836.306	12627.28
836.631	12618.02
836.956	12630.22
837.282	12666.15
837.607	12531.46
837.932	12547.74
838.258	12579.37
838.583	12512.26
838.908	12455.08
839.233	12481.52
839.558	12538.92
839.883	12427.29
840.208	12359.04
840.533	12441.75
840.858	12428.87
841.182	12411.47
841.507	12334.41
841.832	12321.3
842.156	12208.99
842.481	12226.61
842.805	12269.78
843.13	12196.56
843.454	12257.57
843.778	12137.8
844.103	12133.06
844.427	12085.15
844.751	12060.52
845.075	12049.67
845.399	11978.94
845.723	11926.28
846.047	11899.84
846.371	11806.96
846.695	11906.62
847.019	11748.66
847.343	11707.31
847.666	11616.46
847.99	11553.86
848.313	11538.27
848.637	11434.54
848.96	11482.68
849.284	11467.31
849.607	11372.62
849.931	11312.29
850.254	11280.42
850.577	11254.66
850.9	11141.9
851.223	11072.97
851.546	11069.36
851.869	11031.16
852.192	11062.12
852.515	10945.29
852.838	10909.13
853.161	10902.13
853.483	10854.67
853.806	10793.2
854.129	10817.61
854.451	10715.01
854.774	10730.61
855.096	10669.59
855.419	10643.38
855.741	10556.83
856.063	10513.89
856.385	10548.01
856.708	10491.52
857.03	10425.53
857.352	10416.27
857.674	10382.59
857.996	10405.64
858.318	10308.92
858.64	10304.86
858.961	10326.55
859.283	10290.39
859.605	10175.37
859.926	10218.98
860.248	10221.69
860.57	10131.53
860.891	10154.13
861.212	10078.42
861.534	10093.79
861.855	10032.09
862.176	10057.86
862.498	10076.84
862.819	10055.15
863.14	9966.11
863.461	9936.5
863.782	9924.53
864.103	9899.67
864.424	9877.07
864.745	9926.56
865.065	9900.8
865.386	9829.16
865.707	9800.01
866.027	9818.54
866.348	9777.86
866.668	9830.07
866.989	9739
867.309	9704.19
867.63	9715.49
867.95	9717.98
868.27	9614.7
868.59	9671.43
868.91	9668.49
869.23	9658.32
869.55	9631.65
869.87	9628.72
870.19	9562.73
870.51	9633.01
870.83	9581.71
871.15	9569.51
871.469	9539.45
871.789	9585.1
872.109	9517.76
872.428	9461.04
872.748	9534.25
873.067	9508.49
873.386	9454.94
873.706	9398.89
874.025	9412.22
874.344	9337.65
874.663	9352.79
874.982	9384.88
875.301	9333.58
875.62	9282.28
875.939	9305.79
876.258	9233.02
876.577	9240.93
876.896	9276.63
877.214	9227.6
877.533	9167.26
877.852	9248.16
878.17	9214.72
878.489	9220.14
878.807	9177.88
879.125	9110.54
879.444	9154.83
879.762	9125.9
880.08	9160.25
880.398	9113.7
880.716	9018.79
881.034	9026.25
881.352	9066.7
881.67	9058.79
881.988	9080.71
882.306	9041.16
882.624	8967.49
882.941	8941.73
883.259	8946.93
883.577	8876.42
883.894	8848.85
884.212	8866.25
884.529	8788.96
884.846	8866.25
885.164	8852.92
885.481	8746.03
885.798	8796.42
886.115	8737.67
886.432	8829.87
886.75	8675.97
887.067	8699.47
887.383	8621.74
887.7	8611.34
888.017	8618.35
888.334	8593.71
888.651	8607.5
888.967	8546.94
889.284	8552.36
889.6	8512.81
889.917	8425.36
890.233	8440.27
890.55	8386.04
890.866	8452.02
891.182	8412.25
891.498	8344.46
891.815	8324.12
892.131	8316.43
892.447	8261.52
892.763	8275.31
893.079	8242.09
893.395	8214.74
893.71	8227.4
894.026	8140.17
894.342	8144.24
894.657	8121.86
894.973	8128.87
895.289	8047.74
895.604	8052.03
895.92	7977.23
896.235	7989.21
896.55	7958.93
896.865	7911.7
897.181	7902.66
897.496	7904.69
897.811	7937.91
898.126	7850.68
898.441	7773.85
898.756	7763.45
899.071	7745.83
899.386	7754.19
899.7	7710.57
900.015	7622.67
900.33	7614.08
900.644	7624.25
900.959	7612.27
901.273	7575.44
901.588	7516.45
901.902	7488.21
902.216	7421.54
902.531	7454.99
902.845	7507.87
903.159	7347.87
903.473	7380.19
903.787	7281.21
904.101	7271.04
904.415	7317.82
904.729	7216.12
905.042	7213.41
905.356	7186.97
905.67	7184.94
905.984	7108.56
906.297	7099.74
906.611	7028.11
906.924	7078.05
907.237	7053.87
907.551	7015
907.864	7018.16
908.177	6959.18
908.491	6885.51
908.804	6897.26
909.117	6795.57
909.43	6868.11
909.743	6786.98
910.056	6810.26
910.368	6748.57
910.681	6759.86
910.994	6710.83
911.307	6662.01
911.619	6654.78
911.932	6669.47
912.244	6561.9
912.557	6630.38
912.869	6547.21
913.181	6563.94
913.494	6524.16
913.806	6499.53
914.118	6438.07
914.43	6460.89
914.742	6410.5
915.054	6339.08
915.366	6363.49
915.678	6358.97
915.99	6328.92
916.302	6262.25
916.613	6262.93
916.925	6189.94
917.236	6250.5
917.548	6163.5
917.859	6200.56
918.171	6143.38
918.482	6096.83
918.794	6041.69
919.105	6057.06
919.416	5997.62
919.727	6010.05
920.038	5992.88
920.349	5950.62
920.66	5917.4
920.971	5943.61
921.282	5824.97
921.593	5803.28
921.903	5836.27
922.214	5772.77
922.525	5786.1
922.835	5675.15
923.146	5709.72
923.456	5674.7
923.767	5717.63
924.077	5655.49
924.387	5615.26
924.697	5589.73
925.008	5617.52
925.318	5546.34
925.628	5537.75
925.938	5570.07
926.248	5516.51
926.558	5431.76
926.867	5430.86
927.177	5432.67
927.487	5396.06
927.796	5352.22
928.106	5363.97
928.416	5369.62
928.725	5338.89
929.034	5281.03
929.344	5288.94
929.653	5242.62
929.962	5159
930.271	5189.74
930.581	5203.52
930.89	5176.4
931.199	5088.95
931.508	5075.16
931.817	5081.04
932.125	5086.24
932.434	5014.15
932.743	5020.02
933.051	5017.76
933.36	4949.29
933.669	5007.82
933.977	4919.01
934.286	4955.84
934.594	4892.12
934.902	4802.18
935.21	4861.61
935.519	4845.34
935.827	4863.42
936.135	4806.02
936.443	4761.5
936.751	4739.35
937.059	4726.47
937.367	4695.74
937.674	4720.14
937.982	4700.48
938.29	4647.15
938.597	4664.33
938.905	4557.66
939.213	4612.35
939.52	4583.88
939.827	4551.11
940.135	4572.8
940.442	4510.66
940.749	4488.74
941.056	4501.84
941.363	4380.04
941.67	4453.48
941.977	4412.81
942.284	4415.07
942.591	4402.41
942.898	4335.75
943.205	4332.81
943.511	4304.34
943.818	4304.56
944.125	4297.56
944.431	4228.86
944.738	4250.55
945.044	4248.29
945.35	4188.63
945.657	4168.97
945.963	4221.85
946.269	4189.31
946.575	4143.89
946.881	4125.36
947.187	4136.43
947.493	4117.45
947.799	4104.34
948.105	4050.11
948.41	4097.11
948.716	4041.52
949.022	4044
949.327	4017.11
949.633	3980.73
949.938	3953.38
950.244	3967.85
950.549	3912.26
950.854	3891.47
951.16	3853.95
951.465	3845.14
951.77	3846.27
952.075	3851.69
952.38	3838.81
952.685	3820.28
952.99	3792.71
953.294	3789.1
953.599	3778.7
953.904	3742.32
954.209	3724.92
954.513	3704.58
954.818	3729.66
955.122	3698.02
955.426	3643.34
955.731	3659.38
956.035	3633.85
956.339	3613.73
956.643	3630.46
956.948	3554.75
957.252	3579.38
957.556	3566.95
957.86	3550.23
958.163	3523.79
958.467	3524.02
958.771	3543
959.075	3510.91
959.378	3443.34
959.682	3453.74
959.985	3440.86
960.289	3436.79
960.592	3390.01
960.896	3398.82
961.199	3377.13
961.502	3328.77
961.805	3329.9
962.108	3302.33
962.411	3307.3
962.714	3287.19
963.017	3273.85
963.32	3274.98
963.623	3268.21
963.926	3229.79
964.228	3234.53
964.531	3238.38
964.833	3197.25
965.136	3169.68
965.438	3090.13
965.741	3176.68
966.043	3143.69
966.345	3129.68
966.648	3107.76
966.95	3135.55
967.252	3060.75
967.554	3082.9
967.856	3076.57
968.158	3035.67
968.46	3033.86
968.761	3013.97
969.063	3049.68
969.365	3006.29
969.666	2985.27
969.968	2982.34
970.269	2952.73
970.571	2949.34
970.872	2985.5
971.174	2908.89
971.475	2942.34
971.776	2872.06
972.077	2902.11
972.378	2893.3
972.679	2882
972.98	2876.12
973.281	2856.69
973.582	2813.98
973.883	2813.75
974.183	2799.52
974.484	2814.21
974.785	2778.5
975.085	2785.28
975.386	2800.65
975.686	2778.73
975.986	2700.99
976.287	2711.61
976.587	2715
976.887	2715.23
977.187	2696.69
977.487	2671.61
977.787	2667.99
978.087	2633.87
978.387	2653.98
978.687	2644.94
978.987	2614.44
979.286	2645.4
979.586	2631.61
979.885	2591.61
980.185	2560.2
980.484	2529.69
980.784	2530.37
981.083	2528.11
981.382	2540.09
981.682	2541.67
981.981	2489.02
982.28	2475.23
982.579	2466.64
982.878	2483.14
983.177	2468.23
983.475	2450.37
983.774	2422.13
984.073	2419.87
984.372	2412.41
984.67	2424.39
984.969	2375.57
985.267	2390.49
985.566	2379.19
985.864	2367.44
986.162	2322.92
986.461	2350.04
986.759	2301.22
987.057	2300.32
987.355	2331.05
987.653	2344.84
987.951	2276.59
988.249	2263.03
988.547	2270.94
988.844	2303.94
989.142	2264.84
989.44	2238.18
989.737	2222.13
990.035	2233.2
990.332	2174.9
990.63	2162.25
990.927	2195.24
991.224	2219.19
991.521	2152.75
991.819	2171.51
992.116	2168.57
992.413	2136.94
992.71	2132.64
993.006	2124.05
993.303	2126.77
993.6	2125.64
993.897	2078.18
994.193	2074.79
994.49	2069.82
994.787	2054.45
995.083	2055.36
995.379	2046.77
995.676	2074.11
995.972	2054.45
996.268	2020.33
996.565	2007.22
996.861	1991.85
997.157	1974.45
997.453	1959.31
997.749	1964.28
998.044	1944.4
998.34	1940.56
998.636	1966.09
998.932	1906.88
999.227	1901.46
999.523	1930.61
999.818	1913.44
1000.114	1855.59
1000.409	1875.02
1000.704	1871.63
1001	1865.53
1001.295	1823.5
1001.59	1869.37
1001.885	1846.32
1002.18	1850.16
1002.475	1840.45
1002.77	1766.55
1003.065	1790.73
1003.359	1782.82
1003.654	1765.19
1003.949	1755.93
1004.243	1756.38
1004.538	1722.71
1004.832	1759.77
1005.127	1749.15
1005.421	1734.69
1005.715	1748.92
1006.009	1689.26
1006.304	1713.67
1006.598	1680.22
1006.892	1691.75
1007.186	1694.24
1007.48	1665.08
1007.773	1639.77
1008.067	1656.5
1008.361	1628.25
1008.655	1619.89
1008.948	1599.55
1009.242	1613.33
1009.535	1591.64
1009.829	1599.77
1010.122	1563.39
1010.415	1553.45
1010.708	1532.43
1011.001	1533.56
1011.295	1563.62
1011.588	1555.26
1011.881	1528.82
1012.173	1521.81
1012.466	1532.88
1012.759	1500.34
1013.052	1491.53
1013.344	1476.39
1013.637	1456.28
1013.93	1462.83
1014.222	1472.55
1014.514	1468.7
1014.807	1445.65
1015.099	1421.47
1015.391	1435.03
1015.683	1413.34
1015.976	1409.04
1016.268	1422.6
1016.56	1409.04
1016.851	1366.11
1017.143	1348.71
1017.435	1386.67
1017.727	1357.97
1018.018	1347.58
1018.31	1368.37
1018.602	1371.98
1018.893	1301.93
1019.185	1364.53
1019.476	1313
1019.767	1316.62
1020.058	1309.16
1020.35	1257.18
1020.641	1288.37
1020.932	1252.21
1021.223	1269.61
1021.514	1264.64
1021.804	1254.92
1022.095	1226.9
1022.386	1227.35
1022.677	1226.45
1022.967	1226.45
1023.258	1198.2
1023.548	1195.72
1023.839	1202.5
1024.129	1193.23
1024.419	1169.96
1024.709	1141.03
1025	1138.09
1025.29	1138.54
1025.58	1131.99
1025.87	1145.1
1026.16	1115.72
1026.449	1141.48
1026.739	1126.57
1027.029	1133.8
1027.319	1093.35
1027.608	1092.67
1027.898	1080.01
1028.187	1086.12
1028.477	1093.12
1028.766	1073.23
1029.055	1080.69
1029.344	1062.61
1029.634	1047.92
1029.923	1035.95
1030.212	1048.6
1030.501	1026.91
1030.79	1037.76
1031.078	1025.55
1031.367	1041.37
1031.656	1009.06
1031.945	986.23
1032.233	1014.48
1032.522	989.17
1032.81	1002.05
1033.099	968.15
1033.387	990.75
1033.675	980.13
1033.963	957.31
1034.251	950.53
1034.54	959.57
1034.828	919.79
1035.116	951.43
1035.403	950.53
1035.691	915.95
1035.979	920.24
1036.267	912.56
1036.554	936.51
1036.842	901.04
1037.129	896.74
1037.417	889.51
1037.704	881.83
1037.992	875.73
1038.279	871.88
1038.566	873.47
1038.853	873.47
1039.14	873.47
