Data from hue_240_FLMS001491_00037.txt Node
Date: Tue Feb 07 16:35:24 GMT 2017
User: dcchb
Spectrometer: FLMS00149
Trigger mode: 0
Integration Time (sec): 2.000000E-2
Scans to average: 10
Electric dark correction enabled: true
Nonlinearity correction enabled: false
Boxcar width: 0
XAxis mode: Wavelengths
Number of Pixels in Spectrum: 2048
>>>>>Begin Spectral Data<<<<<
341.393	-9.94
341.776	-9.94
342.16	-9.94
342.543	-65.99
342.927	-95.82
343.31	-78.64
343.693	-72.31
344.077	-95.59
344.46	-62.37
344.843	-42.94
345.226	-23.73
345.61	-43.39
345.993	-20.56
346.376	-3.16
346.759	12.88
347.142	15.37
347.525	57.17
347.908	63.73
348.291	82.03
348.674	104.4
349.057	107.12
349.44	109.6
349.823	134.46
350.206	156.61
350.588	169.49
350.971	194.57
351.354	228.02
351.737	220.11
352.119	263.27
352.502	250.39
352.884	264.17
353.267	254.23
353.65	279.09
354.032	305.3
354.414	297.85
354.797	294.68
355.179	317.28
355.562	326.77
355.944	318.64
356.326	286.09
356.709	315.02
357.091	333.1
357.473	316.15
357.855	322.48
358.238	307.34
358.62	321.8
359.002	330.39
359.384	318.41
359.766	318.86
360.148	325.19
360.53	330.16
360.912	322.25
361.294	333.1
361.676	321.57
362.057	337.17
362.439	313.44
362.821	309.14
363.203	328.58
363.584	314.12
363.966	309.37
364.348	312.08
364.729	321.12
365.111	304.85
365.493	298.07
365.874	315.47
366.256	307.34
366.637	293.55
367.019	300.56
367.4	284.74
367.781	275.7
368.163	301.46
368.544	301.01
368.925	313.89
369.306	312.31
369.688	312.76
370.069	297.17
370.45	302.14
370.831	319.09
371.212	289.71
371.593	290.39
371.974	310.95
372.355	319.54
372.736	297.39
373.117	317.73
373.498	322.03
373.879	294.91
374.26	294.68
374.641	287
375.021	323.38
375.402	309.37
375.783	285.42
376.163	324.51
376.544	308.01
376.925	312.08
377.305	307.79
377.686	311.18
378.066	311.18
378.447	326.09
378.827	314.57
379.208	299.88
379.588	305.08
379.968	330.16
380.349	321.57
380.729	314.79
381.109	339.88
381.489	307.56
381.87	321.8
382.25	319.09
382.63	340.56
383.01	336.71
383.39	324.74
383.77	327.67
384.15	313.21
384.53	338.07
384.91	326.09
385.29	340.56
385.67	334.23
386.049	349.6
386.429	334.23
386.809	329.93
387.189	347.56
387.568	347.34
387.948	337.62
388.328	324.06
388.707	345.08
389.087	342.14
389.466	334.45
389.846	329.26
390.225	345.75
390.605	361.8
390.984	343.72
391.363	357.73
391.743	360.22
392.122	371.06
392.501	382.14
392.881	363.83
393.26	356.6
393.639	381.01
394.018	352.08
394.397	377.62
394.776	348.24
395.155	360.22
395.534	360.22
395.913	384.4
396.292	377.62
396.671	393.89
397.05	388.01
397.429	379.88
397.808	386.66
398.186	397.05
398.565	383.04
398.944	395.92
399.323	375.36
399.701	365.64
400.08	401.35
400.458	390.05
400.837	411.06
401.215	402.48
401.594	398.41
401.972	416.71
402.351	387.56
402.729	410.84
403.107	385.07
403.486	387.56
403.864	395.02
404.242	416.49
404.62	409.93
404.999	431.18
405.377	421.01
405.755	441.34
406.133	435.47
406.511	432.76
406.889	442.25
407.267	427.56
407.645	442.7
408.023	457.84
408.401	465.3
408.779	440.67
409.156	451.51
409.534	475.47
409.912	470.95
410.29	479.99
410.667	481.12
411.045	485.41
411.422	486.09
411.8	507.33
412.178	519.08
412.555	535.13
412.933	505.3
413.31	526.31
413.687	528.57
414.065	542.36
414.442	542.36
414.819	537.16
415.197	542.58
415.574	554.56
415.951	567.89
416.328	562.25
416.705	579.87
417.082	586.65
417.46	616.25
417.837	611.96
418.214	596.37
418.591	617.61
418.967	615.58
419.344	654.22
419.721	630.04
420.098	618.06
420.475	631.4
420.852	652.19
421.228	649.02
421.605	659.64
421.982	666.2
422.358	677.72
422.735	686.54
423.111	705.29
423.488	681.11
423.864	699.42
424.241	743.71
424.617	728.57
424.994	754.56
425.37	749.36
425.746	719.08
426.123	766.76
426.499	779.64
426.875	784.39
427.251	789.36
427.627	810.15
428.003	792.75
428.379	822.13
428.756	828.9
429.132	817.83
429.507	857.83
429.883	870.94
430.259	858.06
430.635	860.54
431.011	886.3
431.387	888.11
431.763	890.82
432.138	914.78
432.514	901.45
432.89	917.72
433.265	963.36
433.641	968.11
434.016	974.21
434.392	982.8
434.767	998.62
435.143	993.87
435.518	1028
435.894	1058.96
436.269	1053.53
436.644	1088.78
437.02	1089.69
437.395	1100.99
437.77	1153.64
438.145	1147.31
438.52	1146.41
438.895	1150.03
439.271	1179.4
439.646	1196.35
440.021	1218.27
440.395	1205.17
440.77	1204.04
441.145	1203.58
441.52	1251.94
441.895	1263.24
442.27	1280.64
442.645	1266.18
443.019	1306.18
443.394	1285.84
443.769	1321.77
444.143	1295.79
444.518	1343.02
444.892	1346.41
445.267	1368.33
445.641	1357.03
446.016	1385.27
446.39	1369.91
446.764	1408.78
447.139	1376.46
447.513	1405.39
447.887	1399.29
448.262	1422.56
448.636	1430.24
449.01	1428.89
449.384	1444.48
449.758	1463.46
450.132	1489.9
450.506	1483.8
450.88	1468.89
451.254	1512.05
451.628	1542.11
452.002	1557.25
452.376	1546.4
452.75	1558.38
453.123	1567.87
453.497	1598.6
453.871	1594.76
454.244	1666.17
454.618	1642.44
454.992	1644.25
455.365	1679.5
455.739	1670.01
456.112	1701.88
456.486	1723.12
456.859	1732.16
457.232	1754.08
457.606	1743.68
457.979	1787.98
458.352	1832.49
458.725	1830.23
459.099	1842.44
459.472	1876.79
459.845	1897.58
460.218	1933.06
460.591	1932.38
460.964	1940.97
461.337	1967.41
461.71	1999.04
462.083	2008.08
462.456	2015.77
462.829	2005.15
463.201	2024.81
463.574	2078.14
463.947	2116.78
464.32	2129.21
464.692	2164.01
465.065	2154.52
465.438	2176.67
465.81	2228.64
466.183	2233.61
466.555	2297.34
466.928	2295.98
467.3	2289.21
467.672	2292.14
468.045	2365.36
468.417	2340.28
468.789	2395.64
469.161	2448.98
469.534	2497.34
469.906	2508.41
470.278	2507.05
470.65	2531.68
471.022	2598.8
471.394	2626.15
471.766	2612.13
472.138	2708.86
472.51	2772.13
472.882	2761.74
473.253	2767.38
473.625	2802.86
473.997	2846.25
474.369	2850.32
474.74	2938
475.112	2948.85
475.484	3034.72
475.855	3067.94
476.227	3081.95
476.598	3163.08
476.97	3137.77
477.341	3247.15
477.713	3247.82
478.084	3279.46
478.455	3357.65
478.827	3408.05
479.198	3450.98
479.569	3462.51
479.94	3580.7
480.311	3567.82
480.682	3660.69
481.053	3669.73
481.424	3788.37
481.795	3839.22
482.166	3819.33
482.537	3888.71
482.908	3963.96
483.279	3974.36
483.65	4044.41
484.021	4143.62
484.391	4110.17
484.762	4181.36
485.133	4240.79
485.503	4284.63
485.874	4347.46
486.244	4352.88
486.615	4477.17
486.985	4488.47
487.356	4539.54
487.726	4565.98
488.097	4644.62
488.467	4665.19
488.837	4736.15
489.207	4777.05
489.578	4833.09
489.948	4898.63
490.318	4961.45
490.688	4998.51
491.058	5010.26
491.428	5108.34
491.798	5171.84
492.168	5247.77
492.538	5248.68
492.908	5283.25
493.278	5408.45
493.648	5367.32
494.017	5367.54
494.387	5425.62
494.757	5480.31
495.126	5546.29
495.496	5520.98
495.866	5545.62
496.235	5652.73
496.605	5669.68
496.974	5712.84
497.344	5764.59
497.713	5787.42
498.082	5783.35
498.452	5869.45
498.821	5807.98
499.19	5861.77
499.559	5938.15
499.928	5946.06
500.298	5960.07
500.667	6041.88
501.036	5999.39
501.405	6109.22
501.774	6082.1
502.143	6131.36
502.512	6089.56
502.88	6197.13
503.249	6166.62
503.618	6233.28
503.987	6207.75
504.356	6225.37
504.724	6254.98
505.093	6314.64
505.462	6282.77
505.83	6331.58
506.199	6310.57
506.567	6418.14
506.936	6412.49
507.304	6447.74
507.672	6453.84
508.041	6492.03
508.409	6514.63
508.777	6576.55
509.145	6615.19
509.514	6537.91
509.882	6614.29
510.25	6595.76
510.618	6610
510.986	6650.67
511.354	6704.68
511.722	6749.43
512.09	6782.19
512.458	6744.46
512.826	6807.73
513.193	6787.62
513.561	6868.29
513.929	6895.64
514.297	6898.58
514.664	6932.7
515.032	6897.67
515.4	6982.87
515.767	6927.95
516.135	7032.81
516.502	6971.79
516.869	7017.67
517.237	7065.12
517.604	6974.73
517.972	7054.73
518.339	7061.74
518.706	7058.35
519.073	7100.38
519.44	7156.2
519.808	7143.32
520.175	7136.76
520.542	7218.12
520.909	7191
521.276	7218.12
521.643	7260.6
522.009	7275.74
522.376	7263.54
522.743	7270.32
523.11	7287.94
523.477	7387.38
523.843	7363.87
524.21	7427.38
524.577	7417.66
524.943	7449.75
525.31	7427.6
525.676	7525.68
526.043	7578.33
526.409	7518.9
526.776	7568.39
527.142	7573.36
527.508	7591.44
527.874	7635.73
528.241	7659.01
528.607	7709.4
528.973	7640.48
529.339	7671.89
529.705	7675.5
530.071	7688.39
530.437	7710.08
530.803	7774.26
531.169	7733.36
531.535	7685
531.901	7709.85
532.267	7692.45
532.632	7751.89
532.998	7724.32
533.364	7705.11
533.73	7675.96
534.095	7784.65
534.461	7798.44
534.826	7779.68
535.192	7765.9
535.557	7834.82
535.923	7828.72
536.288	7757.08
536.653	7853.13
537.019	7782.85
537.384	7799.57
537.749	7813.35
538.114	7726.12
538.479	7735.84
538.845	7797.76
539.21	7719.12
539.575	7790.08
539.94	7741.27
540.305	7856.06
540.67	7774.03
541.034	7747.82
541.399	7743.3
541.764	7773.13
542.129	7743.98
542.494	7699.68
542.858	7765.67
543.223	7756.63
543.587	7768.84
543.952	7740.81
544.316	7710.08
544.681	7673.47
545.045	7679.8
545.41	7729.74
545.774	7759.12
546.138	7736.29
546.503	7649.29
546.867	7630.99
547.231	7730.87
547.595	7695.84
547.959	7702.17
548.324	7602.74
548.688	7657.65
549.052	7696.07
549.416	7628.27
549.779	7657.88
550.143	7672.11
550.507	7692.45
550.871	7666.69
551.235	7608.16
551.599	7719.35
551.962	7647.03
552.326	7639.35
552.689	7588.73
553.053	7562.96
553.417	7581.27
553.78	7625.11
554.143	7659.23
554.507	7636.18
554.87	7640.48
555.234	7679.12
555.597	7635.28
555.96	7598.9
556.323	7706.01
556.686	7687.48
557.05	7666.24
557.413	7712.79
557.776	7699.23
558.139	7697.2
558.502	7674.6
558.865	7676.18
559.228	7754.37
559.59	7698.33
559.953	7757.08
560.316	7847.7
560.679	7744.66
561.041	7831.43
561.404	7778.33
561.767	7861.49
562.129	7776.29
562.492	7843.86
562.854	7858.1
563.217	7852.22
563.579	7943.52
563.941	7881.6
564.304	7946.01
564.666	7919.79
565.028	7978.77
565.39	7982.84
565.753	8033.46
566.115	8024.2
566.477	8002.95
566.839	8059.68
567.201	8095.61
567.563	8084.31
567.925	8077.3
568.287	8120.01
568.648	8126.34
569.01	8123.18
569.372	8158.88
569.734	8202.27
570.095	8244.08
570.457	8270.29
570.819	8308.48
571.18	8240.91
571.542	8310.29
571.903	8317.75
572.265	8331.08
572.626	8313
572.987	8360.68
573.349	8378.54
573.71	8406.11
574.071	8377.63
574.432	8466.67
574.794	8493.56
575.155	8479.1
575.516	8462.83
575.877	8465.09
576.238	8489.49
576.599	8564.07
576.96	8548.93
577.32	8589.38
577.681	8623.73
578.042	8571.98
578.403	8646.55
578.763	8651.3
579.124	8714.12
579.485	8698.53
579.845	8681.81
580.206	8697.17
580.566	8697.4
580.927	8777.85
581.287	8792.31
581.648	8704.18
582.008	8764.06
582.368	8744.4
582.728	8744.63
583.089	8727.45
583.449	8826.43
583.809	8778.3
584.169	8791.86
584.529	8832.54
584.889	8889.71
585.249	8845.64
585.609	8804.51
585.969	8833.44
586.329	8938.97
586.688	8907.56
587.048	8898.75
587.408	8879.54
587.768	8933.1
588.127	8878.41
588.487	8902.82
588.846	8948.47
589.206	8946.66
589.565	8926.54
589.925	8952.98
590.284	8949.14
590.643	9048.8
591.003	9012.42
591.362	9070.04
591.721	8990.95
592.08	9004.51
592.44	9083.6
592.799	9027.56
593.158	9110.04
593.517	9062.13
593.876	9096.71
594.235	9080.44
594.593	9032.76
594.952	9054.68
595.311	9062.81
595.67	9117.5
596.029	9183.71
596.387	9082.25
596.746	9086.99
597.104	9122.25
597.463	9125.18
597.822	9096.48
598.18	9161.34
598.538	9109.37
598.897	9185.3
599.255	9073.66
599.613	9218.51
599.972	9102.13
600.33	9135.35
600.688	9120.89
601.046	9184.39
601.404	9128.8
601.762	9224.84
602.12	9217.84
602.478	9214
602.836	9155.24
603.194	9119.99
603.552	9187.56
603.91	9155.01
604.268	9243.37
604.625	9230.49
604.983	9233.88
605.341	9163.37
605.698	9193.66
606.056	9174.9
606.413	9233.43
606.771	9242.69
607.128	9224.39
607.485	9241.79
607.843	9278.17
608.2	9311.39
608.557	9323.82
608.914	9332.86
609.272	9332.64
609.629	9311.62
609.986	9360.43
610.343	9343.03
610.7	9443.59
611.057	9360.21
611.414	9424.84
611.771	9378.74
612.127	9428.23
612.484	9382.58
612.841	9481.33
613.198	9414.67
613.554	9442.01
613.911	9457.83
614.267	9513.65
614.624	9374.67
614.98	9454.21
615.337	9536.02
615.693	9522.46
616.05	9507.09
616.406	9503.48
616.762	9487.89
617.118	9498.28
617.475	9450.37
617.831	9548.45
618.187	9662.34
618.543	9581.89
618.899	9568.56
619.255	9583.25
619.611	9584.38
619.967	9567.66
620.323	9617.83
620.678	9545.74
621.034	9532.18
621.39	9535.12
621.746	9541.22
622.101	9691.72
622.457	9547.09
622.812	9569.69
623.168	9602.01
623.523	9618.5
623.879	9608.11
624.234	9525.85
624.589	9551.84
624.945	9540.09
625.3	9596.13
625.655	9529.01
626.01	9627.54
626.365	9543.03
626.72	9569.01
627.075	9541.22
627.43	9579.86
627.785	9546.64
628.14	9531.5
628.495	9536.02
628.85	9536.47
629.205	9507.77
629.559	9541.22
629.914	9543.03
630.269	9557.26
630.623	9472.97
630.978	9470.94
631.332	9485.63
631.687	9477.04
632.041	9430.26
632.396	9451.95
632.75	9406.31
633.104	9464.61
633.459	9413.09
633.813	9481.33
634.167	9419.41
634.521	9409.92
634.875	9433.65
635.229	9433.88
635.583	9324.05
635.937	9280.66
636.291	9375.35
636.645	9322.24
636.999	9248.12
637.352	9270.26
637.706	9294.67
638.06	9313.2
638.413	9264.62
638.767	9229.14
639.121	9253.54
639.474	9181
639.828	9251.96
640.181	9220.1
640.534	9191.17
640.888	9213.54
641.241	9145.3
641.594	9124.96
641.947	9217.61
642.301	9154.34
642.654	9172.19
643.007	9160.21
643.36	9217.16
643.713	9100.78
644.066	9145.07
644.419	9096.94
644.771	9010.61
645.124	8960.67
645.477	9026.88
645.83	8912.99
646.182	8845.87
646.535	8828.92
646.888	8833.44
647.24	8781.92
647.593	8796.15
647.945	8789.6
648.298	8781.69
648.65	8741.69
649.002	8742.82
649.355	8770.39
649.707	8836.6
650.059	8801.8
650.411	8912.31
650.763	8876.83
651.115	8995.24
651.467	9005.64
651.819	8957.96
652.171	8960.44
652.523	8953.44
652.875	8945.98
653.227	8920.22
653.578	8975.36
653.93	8915.7
654.282	8920.67
654.633	8880.9
654.985	8938.97
655.337	8926.32
655.688	8931.52
656.039	8953.44
656.391	8935.81
656.742	8896.49
657.094	8894.91
657.445	8955.92
657.796	8985.98
658.147	8914.34
658.498	8875.47
658.849	8817.17
659.2	8898.3
659.551	8923.61
659.902	8898.07
660.253	8917.73
660.604	8931.29
660.955	8856.49
661.306	8967
661.656	8889.94
662.007	8901.23
662.358	8893.1
662.708	8885.19
663.059	8962.02
663.409	8810.39
663.76	8900.33
664.11	8912.08
664.461	8974.68
664.811	8898.3
665.161	8852.2
665.511	8875.92
665.862	8945.53
666.212	8931.97
666.562	8967.45
666.912	8897.85
667.262	8858.07
667.612	8928.35
667.962	8937.39
668.312	8860.11
668.662	8889.94
669.011	8932.42
669.361	8866.66
669.711	8852.42
670.06	8884.74
670.41	8797.51
670.76	8801.58
671.109	8839.32
671.459	8850.84
671.808	8830.05
672.157	8850.84
672.507	8798.86
672.856	8834.57
673.205	8803.38
673.554	8825.98
673.904	8747.34
674.253	8836.83
674.602	8770.84
674.951	8648.36
675.3	8609.94
675.649	8771.29
675.998	8739.66
676.346	8737.62
676.695	8736.27
677.044	8693.1
677.393	8661.24
677.741	8736.49
678.09	8748.47
678.438	8657.4
678.787	8678.64
679.135	8743.05
679.484	8635.03
679.832	8707.12
680.181	8624.18
680.529	8662.6
680.877	8612.43
681.225	8496.73
681.573	8633.22
681.922	8596.16
682.27	8567.68
682.618	8576.27
682.966	8537.4
683.314	8575.82
683.661	8527.91
684.009	8468.03
684.357	8477.97
684.705	8501.7
685.053	8424.86
685.4	8462.15
685.748	8376.28
686.095	8374.02
686.443	8405.43
686.79	8363.85
687.138	8330.18
687.485	8299.22
687.832	8284.3
688.18	8279.33
688.527	8190.52
688.874	8244.08
689.221	8225.09
689.568	8178.09
689.915	8178.54
690.262	8165.89
690.609	8227.81
690.956	8112.1
691.303	8111.2
691.65	8052.22
691.997	8086.12
692.344	8018.09
692.69	7981.71
693.037	7959.79
693.383	7917.98
693.73	7971.32
694.077	7891.77
694.423	7854.71
694.769	7868.95
695.116	7815.61
695.462	7788.95
695.808	7745.79
696.155	7769.29
696.501	7732.45
696.847	7741.94
697.193	7683.87
697.539	7713.02
697.885	7605.45
698.231	7589.18
698.577	7632.57
698.923	7620.36
699.269	7484.55
699.614	7493.59
699.96	7448.62
700.306	7494.27
700.651	7415.4
700.997	7350.77
701.342	7308.06
701.688	7390.09
702.033	7352.35
702.379	7407.26
702.724	7268.06
703.069	7318.68
703.415	7278.45
703.76	7226.93
704.105	7254.72
704.45	7213.82
704.795	7178.34
705.14	7125.46
705.485	7120.49
705.83	7136.99
706.175	7125.91
706.52	7080.27
706.865	7051.57
707.209	7038.46
707.554	7002.08
707.899	7051.57
708.243	6969.08
708.588	7001.4
708.932	6886.82
709.277	6924.34
709.621	6961.62
709.966	6873.49
710.31	6878.69
710.654	6849.99
710.998	6808.63
711.342	6841.18
711.687	6801.18
712.031	6820.39
712.375	6753.27
712.719	6768.41
713.063	6778.58
713.407	6769.99
713.75	6747.62
714.094	6754.85
714.438	6703.33
714.782	6655.64
715.125	6623.78
715.469	6651.35
715.812	6641.63
716.156	6583.78
716.499	6585.59
716.843	6612.03
717.186	6535.65
717.53	6568.87
717.873	6655.42
718.216	6619.26
718.559	6538.13
718.902	6539.26
719.246	6525.25
719.589	6531.13
719.932	6489.77
720.275	6456.33
720.617	6449.1
720.96	6458.36
721.303	6462.88
721.646	6502.43
721.989	6467.63
722.331	6438.25
722.674	6472.37
723.016	6493.16
723.359	6466.04
723.701	6450.9
724.044	6351.02
724.386	6417.01
724.729	6445.03
725.071	6387.4
725.413	6427.63
725.755	6366.16
726.097	6327.74
726.439	6320.96
726.782	6343.56
727.124	6408.42
727.465	6370
727.807	6410.23
728.149	6334.3
728.491	6337.46
728.833	6339.27
729.175	6350.34
729.516	6277.8
729.858	6341.08
730.199	6324.81
730.541	6324.35
730.882	6341.53
731.224	6294.07
731.565	6246.62
731.906	6300.85
732.248	6293.39
732.589	6240.29
732.93	6261.08
733.271	6233.51
733.612	6303.34
733.953	6261.76
734.294	6216.56
734.635	6218.59
734.976	6255.65
735.317	6271.02
735.658	6250.91
735.999	6301.08
736.339	6241.87
736.68	6264.24
737.021	6213.85
737.361	6223.79
737.702	6271.47
738.042	6310.12
738.383	6242.77
738.723	6263.11
739.063	6218.37
739.404	6278.93
739.744	6263.79
740.084	6256.33
740.424	6307.86
740.764	6285.94
741.104	6279.61
741.444	6223.57
741.784	6277.35
742.124	6331.58
742.464	6305.82
742.804	6314.41
743.143	6337.91
743.483	6375.43
743.823	6316.67
744.162	6388.08
744.502	6389.21
744.841	6411.36
745.181	6434.86
745.52	6389.21
745.86	6470.56
746.199	6471.24
746.538	6474.18
746.877	6503.11
747.216	6556.21
747.556	6619.26
747.895	6585.36
748.234	6612.93
748.573	6634.4
748.911	6579.26
749.25	6725.02
749.589	6671.69
749.928	6760.27
750.267	6809.09
750.605	6799.14
750.944	6859.71
751.283	6889.99
751.621	6989.42
751.96	6968.4
752.298	7075.07
752.636	7127.04
752.975	7162.07
753.313	7122.75
753.651	7239.58
753.989	7291.33
754.327	7397.55
754.666	7474.38
755.004	7509.18
755.342	7639.8
755.679	7699.23
756.017	7689.74
756.355	7832.11
756.693	7873.92
757.031	7970.41
757.368	7989.85
757.706	8141.03
758.044	8176.28
758.381	8280.69
758.719	8361.14
759.056	8502.6
759.394	8555.26
759.731	8540.34
760.068	8728.36
760.405	8782.14
760.743	8837.28
761.08	8969.03
761.417	9096.94
761.754	9146.65
762.091	9239.08
762.428	9279.53
762.765	9384.39
763.102	9518.39
763.438	9644.94
763.775	9669.35
764.112	9730.82
764.449	9915.9
764.785	9947.99
765.122	9930.36
765.458	10060.75
765.795	10191.82
766.131	10199.28
766.467	10292.38
766.804	10378.94
767.14	10378.03
767.476	10533.96
767.812	10547.29
768.148	10677.91
768.485	10678.14
768.821	10674.52
769.157	10850.79
769.492	10842.65
769.828	10965.36
770.164	10942.76
770.5	11028.64
770.836	11057.79
771.171	11036.55
771.507	11192.25
771.842	11149.09
772.178	11219.14
772.513	11256.65
772.849	11328.97
773.184	11361.06
773.519	11375.29
773.855	11389.98
774.19	11418.23
774.525	11497.1
774.86	11476.76
775.195	11500.71
775.53	11432.92
775.865	11508.17
776.2	11514.73
776.535	11448.29
776.87	11561.05
777.205	11464.56
777.539	11505.69
777.874	11480.83
778.209	11509.3
778.543	11562.63
778.878	11495.06
779.212	11524.89
779.547	11545.69
779.881	11552.69
780.215	11604.89
780.55	11681.27
780.884	11619.13
781.218	11577.32
781.552	11579.36
781.886	11496.65
782.22	11494.16
782.554	11599.24
782.888	11432.24
783.222	11501.62
783.556	11425.46
783.889	11444.44
784.223	11331.91
784.557	11370.77
784.89	11423.65
785.224	11457.33
785.557	11339.14
785.891	11334.17
786.224	11378.68
786.558	11368.29
786.891	11274.73
787.224	11229.08
787.557	11307.95
787.891	11242.42
788.224	11280.38
788.557	11207.16
788.89	11236.77
789.223	11233.38
789.556	11171.46
789.888	11166.49
790.221	11179.82
790.554	11130.1
790.887	11039.71
791.219	11006.04
791.552	11010.78
791.884	11004.68
792.217	10942.31
792.549	10924.46
792.882	10841.97
793.214	10854.63
793.546	10859.15
793.879	10836.78
794.211	10687.63
794.543	10764.69
794.875	10756.78
795.207	10833.61
795.539	10720.62
795.871	10714.52
796.203	10650.57
796.535	10639.95
796.867	10658.02
797.198	10577.35
797.53	10590.46
797.862	10549.33
798.193	10427.75
798.525	10416.45
798.856	10515.2
799.188	10420.52
799.519	10387.75
799.85	10349.33
800.182	10360.63
800.513	10344.36
800.844	10313.4
801.175	10363.12
801.506	10261.88
801.837	10243.57
802.168	10256.68
802.499	10229.11
802.83	10126.74
803.161	10143.01
803.491	10177.13
803.822	10111.37
804.153	10064.59
804.483	10031.15
804.814	9999.74
805.145	10040.87
805.475	9938.5
805.805	9968.33
806.136	9933.75
806.466	9863.47
806.796	10002.45
807.126	9911.38
807.457	9905.73
807.787	9835.9
808.117	9798.16
808.447	9814.43
808.777	9789.57
809.107	9709.12
809.436	9707.32
809.766	9697.82
810.096	9644.94
810.426	9666.19
810.755	9623.48
811.085	9655.11
811.414	9581.67
811.744	9554.78
812.073	9554.78
812.403	9521.11
812.732	9465.74
813.061	9453.76
813.39	9400.66
813.719	9391.62
814.049	9407.21
814.378	9376.48
814.707	9371.96
815.036	9300.09
815.365	9314.11
815.693	9264.16
816.022	9233.2
816.351	9223.49
816.68	9216.25
817.008	9213.09
817.337	9116.82
817.665	9141.23
817.994	9174.9
818.322	9186.2
818.651	9147.56
818.979	9076.6
819.307	9147.56
819.636	9166.09
819.964	9054.9
820.292	9086.77
820.62	9085.86
820.948	9073.89
821.276	9085.18
821.604	9031.63
821.932	9064.62
822.259	9065.3
822.587	9096.94
822.915	9052.87
823.243	9139.87
823.57	9114.34
823.898	9107.33
824.225	9048.8
824.553	9076.6
824.88	9070.72
825.207	9105.75
825.535	9045.64
825.862	9063.49
826.189	9017.62
826.516	9066.88
826.843	9101
827.17	9120.89
827.497	9071.4
827.824	9111.62
828.151	9157.05
828.478	9048.8
828.805	9112.3
829.131	9018.52
829.458	9110.49
829.785	9017.62
830.111	9055.36
830.438	9093.32
830.764	9047.45
831.09	9097.16
831.417	9061.46
831.743	9044.28
832.069	9040.89
832.395	8951.86
832.722	9005.41
833.048	9055.36
833.374	8970.39
833.7	9019.65
834.026	8977.62
834.351	9025.75
834.677	9018.75
835.003	8994.57
835.329	8970.39
835.654	8983.94
835.98	8898.75
836.306	8976.49
836.631	8927.22
836.956	8909.6
837.282	8948.47
837.607	8853.78
837.932	8893.55
838.258	8856.72
838.583	8943.04
838.908	8776.94
839.233	8804.29
839.558	8868.47
839.883	8778.3
840.208	8776.04
840.533	8781.46
840.858	8790.73
841.182	8790.96
841.507	8787.11
841.832	8654.91
842.156	8730.17
842.481	8692.2
842.805	8675.7
843.13	8631.41
843.454	8634.8
843.778	8584.18
844.103	8601.13
844.427	8555.93
844.751	8626.67
845.075	8501.92
845.399	8537.4
845.723	8414.69
846.047	8452.89
846.371	8362.49
846.695	8378.76
847.019	8353.45
847.343	8329.72
847.666	8265.09
847.99	8223.06
848.313	8188.94
848.637	8184.19
848.96	8213.12
849.284	8175.15
849.607	8147.81
849.931	8073.23
850.254	8011.54
850.577	8048.38
850.9	8001.15
851.223	7924.09
851.546	7912.56
851.869	7875.27
852.192	7946.01
852.515	7864.88
852.838	7816.07
853.161	7803.64
853.483	7733.81
853.806	7718.67
854.129	7641.61
854.451	7674.83
854.774	7625.56
855.096	7667.59
855.419	7592.12
855.741	7613.13
856.063	7534.04
856.385	7496.3
856.708	7512.57
857.03	7462.85
857.352	7484.77
857.674	7378.11
857.996	7402.74
858.318	7390.54
858.64	7399.13
858.961	7339.47
859.283	7332.69
859.605	7289.3
859.926	7308.06
860.248	7303.99
860.57	7269.19
860.891	7285.68
861.212	7216.99
861.534	7213.37
861.855	7196.87
862.176	7183.09
862.498	7176.99
862.819	7170.88
863.14	7198.45
863.461	7122.75
863.782	7129.3
864.103	7081.85
864.424	7124.33
864.745	7052.02
865.065	7050.44
865.386	7047.05
865.707	7027.16
866.027	7068.97
866.348	7026.48
866.668	7026.93
866.989	7000.95
867.309	6912.81
867.63	7007.27
867.95	6995.52
868.27	6917.33
868.59	6955.75
868.91	6953.94
869.23	6914.85
869.55	6887.05
869.87	6958.01
870.19	6898.12
870.51	6872.36
870.83	6894.96
871.15	6792.36
871.469	6847.73
871.789	6834.4
872.109	6846.83
872.428	6822.19
872.748	6797.34
873.067	6748.98
873.386	6824.23
873.706	6789.88
874.025	6749.65
874.344	6717.56
874.663	6695.42
874.982	6768.41
875.301	6737.22
875.62	6752.59
875.939	6670.79
876.258	6695.87
876.577	6644.12
876.896	6706.49
877.214	6643.67
877.533	6632.59
877.852	6630.79
878.17	6635.08
878.489	6617.68
878.807	6645.47
879.125	6588.3
879.444	6596.44
879.762	6607.06
880.08	6565.25
880.398	6518.7
880.716	6567.51
881.034	6500.62
881.352	6552.82
881.67	6508.98
881.988	6478.02
882.306	6485.71
882.624	6420.62
882.941	6485.03
883.259	6482.99
883.577	6409.55
883.894	6454.75
884.212	6432.83
884.529	6360.96
884.846	6358.7
885.164	6359.83
885.481	6270.8
885.798	6297.69
886.115	6322.09
886.432	6258.14
886.75	6273.06
887.067	6254.07
887.383	6202.1
887.7	6237.58
888.017	6241.87
888.334	6252.49
888.651	6209.55
888.967	6170.01
889.284	6188.31
889.6	6165.26
889.917	6127.3
890.233	6090.91
890.55	6079.84
890.866	6110.8
891.182	6083.68
891.498	6029.67
891.815	6006.62
892.131	6005.72
892.447	6019.28
892.763	5924.14
893.079	5956
893.395	5934.08
893.71	5906.29
894.026	5875.55
894.342	5932.73
894.657	5838.04
894.973	5869.45
895.289	5855.21
895.604	5850.02
895.92	5813.86
896.235	5769.57
896.55	5782.22
896.865	5758.04
897.181	5736.8
897.496	5742.9
897.811	5676.23
898.126	5642.56
898.441	5656.57
898.756	5648.67
899.071	5593.53
899.386	5657.48
899.7	5539.74
900.015	5527.31
900.33	5561.44
900.644	5522.57
900.959	5513.75
901.273	5523.7
901.588	5499.74
901.902	5382.01
902.216	5418.16
902.531	5441.21
902.845	5353.31
903.159	5355.79
903.473	5342.91
903.787	5341.78
904.101	5288.45
904.415	5262.91
904.729	5280.09
905.042	5248.68
905.356	5256.13
905.67	5211.84
905.984	5227.43
906.297	5192.86
906.611	5168
906.924	5193.99
907.237	5128
907.551	5146.31
907.864	5066.31
908.177	5044.39
908.491	5038.96
908.804	5010.94
909.117	4979.76
909.43	4943.15
909.743	4944.5
910.056	4937.95
910.368	4968.46
910.681	4926.88
910.994	4859.76
911.307	4836.26
911.619	4841
911.932	4839.87
912.244	4832.64
912.557	4781.57
912.869	4773.89
913.181	4772.08
913.494	4751.29
913.806	4693.89
914.118	4709.03
914.43	4668.58
914.742	4724.85
915.054	4645.53
915.366	4662.48
915.678	4674.23
915.99	4572.76
916.302	4551.52
916.613	4540.67
916.925	4535.47
917.236	4516.72
917.548	4490.05
917.859	4493.22
918.171	4469.04
918.482	4461.13
918.794	4397.85
919.105	4461.13
919.416	4380.9
919.727	4393.33
920.038	4407.79
920.349	4339.55
920.66	4347.68
920.971	4360.56
921.282	4351.3
921.593	4337.51
921.903	4277.85
922.214	4259.78
922.525	4256.84
922.835	4239.21
923.146	4175.26
923.456	4198.76
923.767	4174.35
924.077	4211.19
924.387	4133.45
924.697	4160.79
925.008	4106.56
925.318	4106.33
925.628	4096.39
925.938	4110.17
926.248	4046.9
926.558	4048.93
926.867	4051.64
927.177	3983.62
927.487	3965.32
927.796	4009.39
928.106	3960.35
928.416	3948.82
928.725	3933.23
929.034	3905.89
929.344	3956.96
929.653	3900.01
929.962	3878.54
930.271	3826.34
930.581	3823.63
930.89	3785.21
931.199	3788.37
931.508	3732.56
931.817	3792.44
932.125	3745.66
932.434	3797.41
932.743	3723.52
933.051	3706.12
933.36	3693.24
933.669	3662.28
933.977	3655.27
934.286	3653.92
934.594	3668.6
934.902	3629.74
935.21	3609.85
935.519	3615.72
935.827	3556.06
936.135	3553.13
936.443	3511.32
936.751	3519.91
937.059	3520.13
937.367	3501.15
937.674	3489.63
937.982	3457.31
938.29	3477.87
938.597	3443.3
938.905	3436.29
939.213	3423.64
939.52	3431.32
939.827	3397.42
940.135	3374.83
940.442	3371.66
940.749	3374.83
941.056	3374.6
941.363	3335.28
941.67	3298.44
941.977	3283.98
942.284	3294.6
942.591	3276.07
942.898	3227.03
943.205	3258.45
943.511	3258.9
943.818	3209.63
944.125	3190.88
944.431	3189.29
944.738	3193.36
945.044	3167.37
945.35	3128.96
945.657	3095.51
945.963	3117.43
946.269	3142.52
946.575	3097.55
946.881	3080.82
947.187	3085.34
947.493	3046.93
947.799	3023.2
948.105	3037.21
948.41	3070.43
948.716	3010.54
949.022	2970.54
949.327	3011.45
949.633	2967.83
949.938	2967.38
950.244	2934.39
950.549	2943.65
950.854	2944.56
951.16	2913.14
951.465	2920.83
951.77	2888.29
952.075	2888.96
952.38	2885.35
952.685	2851.9
952.99	2840.83
953.294	2820.26
953.599	2829.08
953.904	2803.54
954.209	2786.14
954.513	2784.56
954.818	2766.48
955.122	2804.22
955.426	2779.36
955.731	2732.58
956.035	2734.39
956.339	2699.59
956.643	2688.06
956.948	2692.81
957.252	2661.62
957.556	2685.58
957.86	2632.02
958.163	2634.51
958.467	2632.25
958.771	2644
959.075	2617.33
959.378	2602.42
959.682	2612.36
959.985	2587.73
960.289	2606.03
960.592	2549.99
960.896	2543.66
961.199	2530.1
961.502	2530.78
961.805	2521.29
962.108	2498.92
962.411	2520.39
962.714	2502.08
963.017	2528.75
963.32	2477.67
963.623	2473.38
963.926	2458.47
964.228	2489.43
964.531	2459.14
964.833	2412.82
965.136	2391.12
965.438	2375.08
965.741	2414.63
966.043	2377.56
966.345	2384.34
966.648	2367.4
966.95	2368.98
967.252	2349.99
967.554	2350.22
967.856	2312.93
968.158	2315.87
968.46	2288.75
968.761	2321.97
969.063	2297.57
969.365	2275.65
969.666	2310.67
969.968	2262.99
970.269	2274.74
970.571	2239.04
970.872	2278.13
971.174	2260.28
971.475	2235.65
971.776	2241.75
972.077	2195.87
972.378	2206.27
972.679	2192.26
972.98	2184.35
973.281	2171.69
973.582	2145.25
973.883	2143.9
974.183	2119.49
974.484	2157.91
974.785	2135.09
975.085	2140.73
975.386	2120.4
975.686	2115.65
975.986	2095.54
976.287	2107.74
976.587	2064.13
976.887	2026.84
977.187	2070.91
977.487	2034.3
977.787	2035.88
978.087	2033.39
978.387	2028.42
978.687	2016.67
978.987	2015.99
979.286	2005.37
979.586	1983.68
979.885	1983.22
980.185	1982.09
980.484	1954.75
980.784	1954.3
981.083	1940.51
981.382	1916.79
981.682	1933.73
981.981	1932.38
982.28	1933.28
982.579	1898.93
982.878	1910.23
983.177	1884.02
983.475	1893.06
983.774	1869.33
984.073	1833.4
984.372	1858.71
984.67	1845.15
984.969	1879.5
985.267	1847.18
985.566	1821.42
985.864	1825.71
986.162	1808.54
986.461	1810.12
986.759	1789.33
987.057	1764.7
987.355	1776.45
987.653	1778.71
987.951	1770.12
988.249	1782.55
988.547	1757.02
988.844	1749.56
989.142	1724.93
989.44	1722.67
989.737	1730.8
990.035	1721.31
990.332	1717.92
990.63	1726.73
990.927	1720.41
991.224	1679.05
991.521	1674.31
991.819	1685.83
992.116	1664.59
992.413	1668.88
992.71	1666.4
993.006	1657.13
993.303	1657.81
993.6	1670.24
993.897	1626.17
994.193	1599.05
994.49	1614.65
994.787	1613.97
995.083	1589.34
995.379	1581.88
995.676	1584.59
995.972	1565.38
996.268	1552.05
996.565	1577.13
996.861	1571.03
997.157	1524.25
997.453	1541.43
997.749	1542.33
998.044	1523.35
998.34	1524.03
998.636	1513.86
998.932	1517.93
999.227	1476.35
999.523	1507.3
999.818	1485.16
1000.114	1486.97
1000.409	1468.89
1000.704	1456.01
1001	1461.88
1001.295	1442
1001.59	1437.7
1001.885	1430.92
1002.18	1420.3
1002.475	1404.03
1002.77	1406.29
1003.065	1432.73
1003.359	1403.35
1003.654	1396.57
1003.949	1402.67
1004.243	1367.2
1004.538	1367.42
1004.832	1360.42
1005.127	1351.15
1005.421	1340.3
1005.715	1339.63
1006.009	1322.45
1006.304	1327.87
1006.598	1314.32
1006.892	1323.58
1007.186	1297.14
1007.48	1313.41
1007.773	1299.85
1008.067	1301.66
1008.361	1294.43
1008.655	1279.29
1008.948	1251.04
1009.242	1265.05
1009.535	1247.42
1009.829	1290.81
1010.122	1261.89
1010.415	1234.32
1010.708	1230.48
1011.001	1225.73
1011.295	1196.8
1011.588	1206.75
1011.881	1173.98
1012.173	1195.22
1012.466	1215.79
1012.759	1181.44
1013.052	1166.75
1013.344	1181.44
1013.637	1157.71
1013.93	1154.55
1014.222	1123.13
1014.514	1155
1014.807	1135.11
1015.099	1155.22
1015.391	1145.05
1015.683	1134.21
1015.976	1120.87
1016.268	1122.91
1016.56	1107.54
1016.851	1113.42
1017.143	1113.19
1017.435	1086.3
1017.727	1048.79
1018.018	1078.84
1018.31	1076.13
1018.602	1067.54
1018.893	1061.44
1019.185	1040.88
1019.476	1039.29
1019.767	1043.36
1020.058	1034.55
1020.35	1045.17
1020.641	1002.69
1020.932	1034.32
1021.223	1053.31
1021.514	1015.79
1021.804	1010.82
1022.095	977.83
1022.386	983.25
1022.677	979.64
1022.967	985.96
1023.258	980.77
1023.548	1003.36
1023.839	955.23
1024.129	978.28
1024.419	943.03
1024.709	935.12
1025	936.02
1025.29	959.07
1025.58	946.19
1025.87	918.85
1026.16	926.3
1026.449	920.43
1026.739	880.65
1027.029	927.21
1027.319	900.77
1027.608	893.76
1027.898	903.71
1028.187	900.09
1028.477	865.74
1028.766	882.01
1029.055	886.08
1029.344	881.56
1029.634	874.1
1029.923	869.13
1030.212	864.84
1030.501	855.12
1030.79	822.58
1031.078	823.03
1031.367	811.73
1031.656	838.4
1031.945	813.99
1032.233	811.05
1032.522	816.25
1032.81	799.75
1033.099	786.87
1033.387	788
1033.675	806.76
1033.963	798.4
1034.251	796.14
1034.54	803.59
1034.828	782.13
1035.116	760.88
1035.403	781.22
1035.691	759.08
1035.979	749.81
1036.267	755.69
1036.554	778.96
1036.842	742.81
1037.129	737.83
1037.417	742.13
1037.704	738.74
1037.992	730.15
1038.279	722.47
1038.566	736.7
1038.853	736.7
1039.14	736.7
