Data from hue_240_FLMS001491_00017.txt Node
Date: Tue Feb 07 16:35:07 GMT 2017
User: dcchb
Spectrometer: FLMS00149
Trigger mode: 0
Integration Time (sec): 2.000000E-2
Scans to average: 10
Electric dark correction enabled: true
Nonlinearity correction enabled: false
Boxcar width: 0
XAxis mode: Wavelengths
Number of Pixels in Spectrum: 2048
>>>>>Begin Spectral Data<<<<<
341.393	-3.12
341.776	-3.12
342.16	-3.12
342.543	-57.58
342.927	-71.37
343.31	-55.78
343.693	-69.11
344.077	-60.75
344.46	-65.94
344.843	-32.05
345.226	-49
345.61	-34.31
345.993	-36.57
346.376	8.4
346.759	-1.77
347.142	18.12
347.525	33.26
347.908	48.85
348.291	74.16
348.674	96.54
349.057	125.91
349.44	125.46
349.823	132.24
350.206	164.78
350.588	197.33
350.971	211.34
351.354	221.51
351.737	216.99
352.119	239.36
352.502	239.36
352.884	259.7
353.267	278.45
353.65	273.93
354.032	270.77
354.414	287.94
354.797	293.37
355.179	318.68
355.562	296.08
355.944	322.75
356.326	324.1
356.709	335.4
357.091	304.67
357.473	330.66
357.855	337.89
358.238	318.68
358.62	318.23
359.002	327.72
359.384	323.65
359.766	317.55
360.148	331.56
360.53	313.71
360.912	313.03
361.294	328.85
361.676	291.79
362.057	313.48
362.439	320.71
362.821	297.89
363.203	313.25
363.584	296.98
363.966	296.98
364.348	319.13
364.729	306.93
365.111	306.02
365.493	326.81
365.874	298.57
366.256	317.1
366.637	293.82
367.019	308.96
367.4	294.5
367.781	304.22
368.163	305.35
368.544	312.12
368.925	306.02
369.306	309.64
369.688	308.28
370.069	310.32
370.45	304.22
370.831	306.02
371.212	285.46
371.593	298.57
371.974	288.17
372.355	278.91
372.736	311.9
373.117	301.96
373.498	287.94
373.879	307.38
374.26	296.76
374.641	318.9
375.021	298.79
375.402	305.12
375.783	317.32
376.163	306.47
376.544	297.89
376.925	315.97
377.305	338.56
377.686	311.67
378.066	296.31
378.447	306.25
378.827	306.02
379.208	314.61
379.588	322.75
379.968	302.63
380.349	302.63
380.729	337.89
381.109	327.94
381.489	322.52
381.87	334.5
382.25	337.66
382.63	321.62
383.01	323.42
383.39	331.33
383.77	337.89
384.15	325.68
384.53	354.84
384.91	322.75
385.29	349.86
385.67	338.56
386.049	352.8
386.429	354.16
386.809	329.75
387.189	350.99
387.568	347.83
387.948	356.42
388.328	354.61
388.707	361.39
389.087	342.41
389.466	358.9
389.846	360.26
390.225	369.07
390.605	349.64
390.984	366.59
391.363	354.61
391.743	346.7
392.122	358.45
392.501	368.39
392.881	342.18
393.26	357.32
393.639	354.16
394.018	357.55
394.397	365
394.776	360.48
395.155	393.48
395.534	372.01
395.913	381.95
396.292	386.47
396.671	407.26
397.05	388.73
397.429	381.05
397.808	374.04
398.186	381.28
398.565	392.35
398.944	398.45
399.323	409.52
399.701	394.61
400.08	424.21
400.458	390.99
400.837	403.87
401.215	409.98
401.594	411.56
401.972	405.68
402.351	399.13
402.729	406.81
403.107	403.2
403.486	398
403.864	435.96
404.242	422.4
404.62	429.18
404.999	414.95
405.377	432.12
405.755	454.27
406.133	422.86
406.511	446.81
406.889	436.64
407.267	435.29
407.645	462.63
408.023	453.82
408.401	433.48
408.779	466.47
409.156	461.27
409.534	485.68
409.912	475.28
410.29	489.97
410.667	489.52
411.045	491.55
411.422	493.36
411.8	523.64
412.178	539.92
412.555	502.4
412.933	540.59
413.31	510.54
413.687	530.88
414.065	548.95
414.442	567.49
414.819	562.51
415.197	558.22
415.574	554.38
415.951	567.71
416.328	586.24
416.705	599.35
417.082	583.3
417.46	590.08
417.837	639.8
418.214	616.75
418.591	610.87
418.967	615.85
419.344	633.25
419.721	649.74
420.098	643.87
420.475	642.29
420.852	659.01
421.228	653.36
421.605	680.7
421.982	686.58
422.358	681.38
422.735	695.17
423.111	685.67
423.488	709.85
423.864	736.75
424.241	733.36
424.617	770.19
424.994	744.66
425.37	753.24
425.746	762.28
426.123	765.45
426.499	766.12
426.875	800.02
427.251	805.44
427.627	814.26
428.003	812.68
428.379	824.88
428.756	833.01
429.132	863.97
429.507	845.22
429.883	856.07
430.259	874.6
430.635	852
431.011	873.69
431.387	887.7
431.763	935.16
432.138	933.8
432.514	934.03
432.89	951.2
433.265	950.75
433.641	979
434.016	970.19
434.392	992.56
434.767	1033.91
435.143	1008.15
435.518	1041.6
435.894	1036.63
436.269	1053.57
436.644	1098.77
437.02	1084.08
437.395	1094.93
437.77	1120.92
438.145	1108.71
438.52	1165.44
438.895	1162.5
439.271	1182.84
439.646	1204.98
440.021	1226.22
440.395	1183.74
440.77	1221.93
441.145	1252.66
441.52	1252.66
441.895	1258.09
442.27	1258.31
442.645	1292.89
443.019	1299.67
443.394	1298.54
443.769	1364.3
444.143	1332.89
444.518	1337.63
444.892	1363.4
445.267	1345.09
445.641	1366.11
446.016	1363.62
446.39	1404.53
446.764	1395.26
447.139	1389.84
447.513	1430.51
447.887	1422.15
448.262	1455.37
448.636	1448.14
449.01	1444.75
449.384	1460.57
449.758	1492.66
450.132	1483.39
450.506	1497.18
450.88	1522.26
451.254	1506.44
451.628	1496.95
452.002	1549.38
452.376	1535.14
452.75	1595.25
453.123	1574.24
453.497	1586.44
453.871	1596.38
454.244	1667.12
454.618	1644.52
454.992	1648.59
455.365	1694.01
455.739	1720.45
456.112	1735.82
456.486	1738.3
456.859	1750.5
457.232	1787.57
457.606	1756.61
457.979	1818.53
458.352	1815.81
458.725	1837.73
459.099	1849.26
459.472	1903.27
459.845	1885.42
460.218	1939.43
460.591	1921.57
460.964	1945.08
461.337	1972.42
461.71	2007.9
462.083	2028.24
462.456	2031.85
462.829	2045.41
463.201	2059.42
463.574	2087.45
463.947	2090.83
464.32	2128.35
464.692	2178.06
465.065	2188.69
465.438	2203.15
465.81	2232.07
466.183	2253.32
466.555	2287.67
466.928	2286.76
467.3	2337.61
467.672	2339.19
468.045	2402.47
468.417	2427.32
468.789	2370.38
469.161	2458.73
469.534	2488.11
469.906	2539.18
470.278	2513.42
470.65	2562.01
471.022	2607.88
471.394	2649.01
471.766	2678.39
472.138	2707.54
472.51	2717.94
472.882	2784.83
473.253	2783.92
473.625	2866.63
473.997	2878.38
474.369	2871.83
474.74	2917.03
475.112	2987.99
475.484	3003.13
475.855	3075.67
476.227	3101.88
476.598	3136.01
476.97	3185.5
477.341	3220.52
477.713	3261.65
478.084	3300.52
478.455	3395.66
478.827	3424.81
479.198	3497.8
479.569	3471.14
479.94	3566.73
480.311	3588.87
480.682	3681.98
481.053	3719.49
481.424	3787.06
481.795	3808.76
482.166	3836.78
482.537	3898.92
482.908	3973.5
483.279	4010.56
483.65	4083.32
484.021	4121.06
484.391	4190.21
484.762	4199.71
485.133	4211.46
485.503	4264.56
485.874	4370.1
486.244	4395.18
486.615	4462.07
486.985	4502.97
487.356	4600.83
487.726	4620.49
488.097	4690.99
488.467	4737.32
488.837	4792.46
489.207	4818.9
489.578	4912.23
489.948	4928.5
490.318	4985.9
490.688	5015.28
491.058	5061.83
491.428	5123.3
491.798	5188.15
492.168	5215.05
492.538	5311.32
492.908	5352.9
493.278	5458.43
493.648	5397.19
494.017	5440.35
494.387	5496.17
494.757	5520.8
495.126	5581.82
495.496	5596.28
495.866	5634.02
496.235	5667.24
496.605	5736.39
496.974	5770.96
497.344	5758.54
497.713	5802.83
498.082	5783.39
498.452	5898.42
498.821	5928.47
499.19	5909.94
499.559	5932.54
499.928	6002.37
500.298	6003.5
500.667	6097.06
501.036	6069.26
501.405	6140.22
501.774	6097.51
502.143	6146.1
502.512	6220.67
502.88	6188.58
503.249	6224.96
503.618	6295.24
503.987	6257.28
504.356	6298.18
504.724	6319.42
505.093	6302.7
505.462	6384.51
505.83	6391.29
506.199	6433.09
506.567	6473.77
506.936	6485.75
507.304	6538.63
507.672	6564.62
508.041	6573.65
508.409	6596.93
508.777	6657.49
509.145	6641.22
509.514	6669.47
509.882	6685.06
510.25	6709.02
510.618	6728.45
510.986	6731.84
511.354	6805.06
511.722	6884.38
512.09	6864.04
512.458	6837.38
512.826	6847.09
513.193	6898.17
513.561	6966.19
513.929	6929.58
514.297	6989.01
514.664	6996.24
515.032	7033.98
515.4	7086.18
515.767	6997.37
516.135	7061.33
516.502	7023.59
516.869	7167.54
517.237	7129.57
517.604	7087.09
517.972	7135.67
518.339	7166.41
518.706	7164.37
519.073	7224.94
519.44	7214.54
519.808	7244.6
520.175	7225.39
520.542	7345.61
520.909	7337.02
521.276	7335.67
521.643	7377.48
522.009	7402.56
522.376	7373.86
522.743	7474.42
523.11	7477.81
523.477	7525.72
523.843	7502.9
524.21	7571.14
524.577	7605.49
524.943	7618.6
525.31	7607.07
525.676	7671.03
526.043	7707.18
526.409	7685.49
526.776	7749.44
527.142	7696.34
527.508	7733.4
527.874	7817.46
528.241	7801.42
528.607	7776.11
528.973	7805.71
529.339	7796.9
529.705	7885.26
530.071	7904.47
530.437	7890.68
530.803	7958.93
531.169	7973.84
531.535	7890
531.901	7925.71
532.267	7974.75
532.632	7971.13
532.998	7946.95
533.364	8004.13
533.73	7980.85
534.095	8058.59
534.461	8074.18
534.826	8028.98
535.192	8002.09
535.557	8043.22
535.923	7973.84
536.288	8036.67
536.653	8071.92
537.019	8030.11
537.384	8017.01
537.749	8000.51
538.114	8044.35
538.479	8048.42
538.845	8033.73
539.21	7986.5
539.575	7994.63
539.94	8048.42
540.305	8050.9
540.67	7996.89
541.034	8039.15
541.399	8023.79
541.764	8095.42
542.129	8023.79
542.494	8005.71
542.858	8021.75
543.223	7989.44
543.587	8055.2
543.952	7969.55
544.316	8010.91
544.681	7993.28
545.045	7996.44
545.41	8020.4
545.774	7972.26
546.138	8031.24
546.503	7957.12
546.867	8005.03
547.231	8011.13
547.595	8047.74
547.959	8047.51
548.324	8033.5
548.688	8030.11
549.052	8023.56
549.416	7979.49
549.779	8000.74
550.143	8004.8
550.507	8026.95
550.871	7977.69
551.235	7998.02
551.599	8035.76
551.962	7969.32
552.326	7979.27
552.689	8120.05
553.053	7995.54
553.417	7952.38
553.78	8041.19
554.143	7977.23
554.507	8017.46
554.87	8012.71
555.234	8073.28
555.597	8004.13
555.96	8014.29
556.323	8010
556.686	8001.64
557.05	8093.39
557.413	8041.64
557.776	8077.12
558.139	8140.17
558.502	8132.26
558.865	8106.95
559.228	8126.38
559.59	8177.68
559.953	8147.85
560.316	8186.72
560.679	8189.88
561.041	8208.19
561.404	8217.91
561.767	8270.79
562.129	8273.95
562.492	8265.59
562.854	8270.56
563.217	8289.32
563.579	8306.94
563.941	8340.39
564.304	8365.47
564.666	8406.83
565.028	8405.25
565.39	8383.1
565.753	8402.08
566.115	8445.7
566.477	8477.33
566.839	8523.66
567.201	8521.63
567.563	8574.05
567.925	8608.4
568.287	8587.61
568.648	8601.85
569.01	8667.61
569.372	8667.84
569.734	8692.24
570.095	8685.24
570.457	8686.14
570.819	8724.56
571.18	8710.77
571.542	8807.27
571.903	8833.03
572.265	8792.81
572.626	8833.71
572.987	8871.45
573.349	8851.34
573.71	8908.96
574.071	8889.98
574.432	8891.33
574.794	8988.73
575.155	8913.71
575.516	8897.44
575.877	8976.76
576.238	9045.68
576.599	8978.11
576.96	9002.74
577.32	9017.88
577.681	9036.19
578.042	9110.76
578.403	9033.7
578.763	9131.78
579.124	9158.45
579.485	9191.67
579.845	9198.44
580.206	9167.94
580.566	9198.22
580.927	9233.25
581.287	9277.31
581.648	9237.99
582.008	9280.7
582.368	9253.81
582.728	9285
583.089	9252
583.449	9243.42
583.809	9317.54
584.169	9351.21
584.529	9336.97
584.889	9430.08
585.249	9304.88
585.609	9326.12
585.969	9384.2
586.329	9379.68
586.688	9377.2
587.048	9414.71
587.408	9380.81
587.768	9420.13
588.127	9386.01
588.487	9379.91
588.846	9490.87
589.206	9397.76
589.565	9437.08
589.925	9465.1
590.284	9426.24
590.643	9441.15
591.003	9429.62
591.362	9542.84
591.721	9496.29
592.08	9485.67
592.44	9526.57
592.799	9564.54
593.158	9523.63
593.517	9569.06
593.876	9522.73
594.235	9501.49
594.593	9511.66
594.952	9629.39
595.311	9542.62
595.67	9547.36
596.029	9595.5
596.387	9730.41
596.746	9624.87
597.104	9618.77
597.463	9632.11
597.822	9595.72
598.18	9579.45
598.538	9572.22
598.897	9610.41
599.255	9594.37
599.613	9711.88
599.972	9667.13
600.33	9719.56
600.688	9662.61
601.046	9635.04
601.404	9670.3
601.762	9693.12
602.12	9766.57
602.478	9771.99
602.836	9749.39
603.194	9706.45
603.552	9760.24
603.91	9686.12
604.268	9738.77
604.625	9691.76
604.983	9727.92
605.341	9651.09
605.698	9727.92
606.056	9837.98
606.413	9823.74
606.771	9829.16
607.128	9845.66
607.485	9726.79
607.843	9817.86
608.2	9822.61
608.557	9841.59
608.914	9786.45
609.272	9896.28
609.629	9941.25
609.986	9943.74
610.343	9847.47
610.7	9955.26
611.057	9973.11
611.414	9880.91
611.771	9920.69
612.127	9976.96
612.484	9967.01
612.841	10018.08
613.198	9926.56
613.554	9890.86
613.911	10053.34
614.267	9895.83
614.624	9922.49
614.98	10001.14
615.337	10063.28
615.693	10043.17
616.05	10021.47
616.406	10107.35
616.762	9982.83
617.118	10057.18
617.475	9988.25
617.831	10044.07
618.187	10075.26
618.543	10115.93
618.899	10117.29
619.255	10066.22
619.611	10080.91
619.967	10075.48
620.323	10173.56
620.678	10051.53
621.034	10102.6
621.39	10085.43
621.746	10026.45
622.101	10069.83
622.457	10037.74
622.812	10115.71
623.168	10080.91
623.523	10067.57
623.879	10163.84
624.234	10111.64
624.589	10098.99
624.945	10120
625.3	10111.64
625.655	10108.93
626.01	10006.11
626.365	10125.2
626.72	10080.68
627.075	10082.94
627.43	10023.51
627.785	10060.57
628.14	10047.01
628.495	10124.07
628.85	10073.45
629.205	10042.72
629.559	10089.95
629.914	10039.33
630.269	10060.57
630.623	9989.16
630.978	10008.14
631.332	9995.71
631.687	9995.49
632.041	9975.83
632.396	10039.78
632.75	9960.01
633.104	9904.41
633.459	9935.15
633.813	9964.07
634.167	9966.79
634.521	9939.89
634.875	9958.65
635.229	9818.09
635.583	9865.77
635.937	9782.61
636.291	9877.07
636.645	9915.94
636.999	9829.16
637.352	9845.89
637.706	9773.12
638.06	9811.08
638.413	9765.66
638.767	9777.41
639.121	9764.53
639.474	9782.84
639.828	9692.22
640.181	9713.01
640.534	9801.14
640.888	9688.83
641.241	9664.65
641.594	9722.27
641.947	9711.43
642.301	9656.96
642.654	9732.22
643.007	9682.5
643.36	9622.84
643.713	9550.3
644.066	9631.2
644.419	9545.1
644.771	9548.72
645.124	9484.99
645.477	9367.48
645.83	9375.62
646.182	9360.02
646.535	9350.53
646.888	9390.98
647.24	9250.87
647.593	9384.43
647.945	9221.95
648.298	9234.83
648.65	9264.21
649.002	9210.2
649.355	9270.99
649.707	9263.98
650.059	9306.46
650.411	9440.7
650.763	9414.03
651.115	9486.57
651.467	9500.58
651.819	9397.08
652.171	9507.59
652.523	9388.5
652.875	9430.08
653.227	9441.6
653.578	9463.75
653.93	9426.91
654.282	9426.46
654.633	9312.34
654.985	9355.95
655.337	9357.54
655.688	9410.42
656.039	9432.34
656.391	9291.55
656.742	9352.56
657.094	9465.1
657.445	9390.3
657.796	9429.85
658.147	9377.2
658.498	9398.21
658.849	9385.78
659.2	9434.14
659.551	9394.37
659.902	9379.46
660.253	9343.53
660.604	9395.05
660.955	9304.2
661.306	9356.86
661.656	9389.17
662.007	9387.59
662.358	9415.84
662.708	9467.36
663.059	9386.24
663.409	9348.95
663.76	9401.83
664.11	9441.6
664.461	9423.52
664.811	9367.71
665.161	9342.85
665.511	9335.39
665.862	9393.92
666.212	9307.14
666.562	9399.34
666.912	9308.27
667.262	9397.99
667.612	9320.48
667.962	9341.49
668.312	9395.28
668.662	9371.77
669.011	9415.61
669.361	9429.85
669.711	9369.97
670.06	9345.11
670.41	9340.36
670.76	9330.42
671.109	9325.9
671.459	9333.13
671.808	9299.46
672.157	9372
672.507	9267.37
672.856	9267.82
673.205	9278.89
673.554	9286.58
673.904	9200.25
674.253	9269.63
674.602	9199.12
674.951	9157.77
675.3	9101.05
675.649	9264.21
675.998	9196.18
676.346	9216.75
676.695	9287.93
677.044	9179.24
677.393	9222.4
677.741	9243.19
678.09	9161.84
678.438	9141.72
678.787	9107.83
679.135	9130.2
679.484	9026.47
679.832	9153.7
680.181	9082.52
680.529	9071.89
680.877	9083.19
681.225	9016.08
681.573	9037.77
681.922	9012.46
682.27	8987.15
682.618	8981.5
682.966	8987.38
683.314	8992.35
683.661	8934.04
684.009	8899.7
684.357	8897.66
684.705	8919.81
685.053	8883.2
685.4	8849.53
685.748	8860.15
686.095	8764.78
686.443	8764.78
686.79	8712.13
687.138	8778.12
687.485	8767.04
687.832	8763.88
688.18	8715.07
688.527	8696.31
688.874	8630.32
689.221	8668.52
689.568	8617.89
689.915	8613.6
690.262	8575.41
690.609	8536.99
690.956	8524.34
691.303	8546.71
691.65	8513.72
691.997	8484.57
692.344	8458.35
692.69	8383.32
693.037	8387.39
693.383	8387.62
693.73	8334.29
694.077	8296.55
694.423	8288.86
694.769	8269.88
695.116	8246.15
695.462	8238.24
695.808	8164.57
696.155	8230.56
696.501	8078.7
696.847	8153.5
697.193	8066.04
697.539	8121.86
697.885	8000.74
698.231	8002.09
698.577	7968.87
698.923	7931.36
699.269	7958.03
699.614	7927.52
699.96	7850.46
700.306	7846.39
700.651	7852.94
700.997	7824.7
701.342	7764.58
701.688	7728.65
702.033	7717.13
702.379	7734.3
702.724	7695.43
703.069	7725.49
703.415	7574.08
703.76	7618.15
704.105	7624.7
704.45	7618.15
704.795	7540.18
705.14	7509.68
705.485	7531.6
705.83	7459.06
706.175	7495.66
706.52	7424.71
706.865	7356.91
707.209	7440.98
707.554	7399.17
707.899	7436.23
708.243	7357.59
708.588	7356.69
708.932	7294.31
709.277	7282.11
709.621	7334.54
709.966	7206.63
710.31	7260.64
710.654	7221.77
710.998	7144.94
711.342	7193.07
711.687	7201.66
712.031	7188.33
712.375	7147.65
712.719	7109.69
713.063	7115.56
713.407	7063.59
713.75	7022.23
714.094	7070.36
714.438	7034.89
714.782	7057.94
715.125	7014.77
715.469	7064.94
715.812	7031.5
716.156	6981.1
716.499	6947.2
716.843	6955.34
717.186	6908.79
717.53	6946.75
717.873	6920.76
718.216	6882.8
718.559	6923.48
718.902	6892.29
719.246	6913.08
719.589	6830.15
719.932	6826.76
720.275	6774.78
720.617	6803.03
720.96	6798.06
721.303	6838.96
721.646	6809.35
721.989	6803.71
722.331	6811.16
722.674	6781.78
723.016	6771.62
723.359	6798.73
723.701	6763.93
724.044	6741.79
724.386	6723.71
724.729	6663.82
725.071	6719.41
725.413	6703.82
725.755	6692.07
726.097	6697.04
726.439	6697.72
726.782	6638.96
727.124	6711.05
727.465	6638.96
727.807	6666.08
728.149	6640.32
728.491	6616.14
728.833	6652.52
729.175	6682.8
729.516	6636.48
729.858	6589.02
730.199	6634.44
730.541	6601.45
730.882	6571.4
731.224	6663.14
731.565	6610.49
731.906	6543.6
732.248	6617.5
732.589	6581.79
732.93	6527.78
733.271	6574.56
733.612	6578.17
733.953	6612.98
734.294	6556.03
734.635	6537.72
734.976	6591.51
735.317	6572.52
735.658	6578.17
735.999	6555.12
736.339	6521
736.68	6577.04
737.021	6564.39
737.361	6552.41
737.702	6610.94
738.042	6604.39
738.383	6620.89
738.723	6552.86
739.063	6600.09
739.404	6623.82
739.744	6563.94
740.084	6566.88
740.424	6571.17
740.764	6619.98
741.104	6606.87
741.444	6621.56
741.784	6591.96
742.124	6605.74
742.464	6575.46
742.804	6642.81
743.143	6628.34
743.483	6629.25
743.823	6647.1
744.162	6609.36
744.502	6717.38
744.841	6711.5
745.181	6739.75
745.52	6648.23
745.86	6736.81
746.199	6697.04
746.538	6813.65
746.877	6786.98
747.216	6755.8
747.556	6865.17
747.895	6867.88
748.234	6865.85
748.573	6889.58
748.911	6884.16
749.25	6957.15
749.589	6956.47
749.928	7042.57
750.267	7074.43
750.605	7056.13
750.944	7093.19
751.283	7178.84
751.621	7209.34
751.96	7255.9
752.298	7337.93
752.636	7368.21
752.975	7409.11
753.313	7446.63
753.651	7576.11
753.989	7618.37
754.327	7639.62
754.666	7688.88
755.004	7795.09
755.342	7928.87
755.679	7929.1
756.017	8003
756.355	8073.05
756.693	8189.21
757.031	8222.2
757.368	8325.02
757.706	8283.89
758.044	8433.49
758.381	8529.08
758.719	8558.01
759.056	8727.04
759.394	8754.61
759.731	8814.27
760.068	8913.48
760.405	8972.01
760.743	9070.31
761.08	9277.54
761.417	9280.25
761.754	9360.25
762.091	9448.61
762.428	9545.1
762.765	9656.29
763.102	9713.46
763.438	9749.84
763.775	9857.86
764.112	9891.99
764.449	10092.88
764.785	10073.22
765.122	10092.21
765.458	10244.97
765.795	10265.31
766.131	10378.75
766.467	10450.62
766.804	10473.44
767.14	10562.48
767.476	10694.22
767.812	10695.81
768.148	10821.68
768.485	10766.09
768.821	10770.83
769.157	11015.57
769.492	11015.57
769.828	11065.51
770.164	11064.61
770.5	11069.58
770.836	11189.8
771.171	11174.44
771.507	11314.55
771.842	11335.34
772.178	11382.12
772.513	11388.22
772.849	11323.36
773.184	11433.87
773.519	11497.59
773.855	11510.25
774.19	11487.88
774.525	11465.73
774.86	11621.43
775.195	11563.13
775.53	11590.92
775.865	11604.71
776.2	11530.13
776.535	11554.99
776.87	11625.95
777.205	11658.49
777.539	11579.62
777.874	11722.45
778.209	11587.53
778.543	11593.41
778.878	11582.56
779.212	11678.38
779.547	11619.4
779.881	11724.03
780.215	11607.19
780.55	11632.5
780.884	11635.89
781.218	11674.09
781.552	11637.48
781.886	11547.54
782.22	11641.32
782.554	11571.49
782.888	11540.53
783.222	11531.04
783.556	11488.55
783.889	11507.76
784.223	11492.17
784.557	11492.62
784.89	11529.46
785.224	11474.32
785.557	11429.35
785.891	11472.06
786.224	11487.88
786.558	11388.22
786.891	11375.34
787.224	11382.34
787.557	11317.94
787.891	11404.04
788.224	11311.38
788.557	11361.1
788.89	11257.15
789.223	11268.67
789.556	11247.88
789.888	11161.78
790.221	11173.31
790.554	11127.43
790.887	11118.62
791.219	11086.08
791.552	11026.19
791.884	11021.67
792.217	10975.12
792.549	10937.38
792.882	10962.01
793.214	10916.82
793.546	10935.8
793.879	10897.38
794.211	10803.37
794.543	10896.25
794.875	10867.33
795.207	10952.75
795.539	10831.85
795.871	10822.58
796.203	10725.18
796.535	10650.38
796.867	10688.8
797.198	10624.4
797.53	10659.65
797.862	10654
798.193	10637.73
798.525	10618.52
798.856	10555.25
799.188	10468.69
799.519	10446.55
799.85	10378.3
800.182	10394.8
800.513	10483.38
800.844	10330.39
801.175	10435.02
801.506	10362.26
801.837	10363.39
802.168	10254.91
802.499	10252.2
802.83	10171.3
803.161	10265.54
803.491	10168.14
803.822	10193.45
804.153	10082.94
804.483	10129.49
804.814	10054.24
805.145	10030.06
805.475	10071.87
805.805	10043.62
806.136	9972.44
806.466	9962.27
806.796	9959.78
807.126	9910.06
807.457	9921.82
807.787	9929.05
808.117	9815.83
808.447	9812.21
808.777	9840.24
809.107	9807.24
809.436	9792.1
809.766	9749.16
810.096	9750.75
810.426	9698.54
810.755	9634.59
811.085	9625.1
811.414	9607.93
811.744	9520.02
812.073	9581.26
812.403	9635.5
812.732	9532.67
813.061	9496.97
813.39	9487.93
813.719	9418.33
814.049	9419.23
814.378	9486.8
814.707	9512.33
815.036	9477.31
815.365	9341.04
815.693	9318.44
816.022	9258.78
816.351	9281.61
816.68	9278.67
817.008	9296.3
817.337	9228.73
817.665	9214.72
817.994	9196.41
818.322	9254.94
818.651	9128.62
818.979	9163.87
819.307	9112.57
819.636	9164.55
819.964	9064.21
820.292	9133.14
820.62	9121.84
820.948	9079.58
821.276	9116.19
821.604	9069.41
821.932	9135.62
822.259	9131.33
822.587	9132.68
822.915	9065.11
823.243	9150.76
823.57	9121.84
823.898	9149.63
824.225	9070.09
824.553	9031.22
824.88	9073.48
825.207	9093.59
825.535	9010.88
825.862	9101.95
826.189	9122.06
826.516	9067.83
826.843	9074.83
827.17	9106.92
827.497	9100.59
827.824	9108.73
828.151	9081.39
828.478	9069.86
828.805	9110.31
829.131	9025.79
829.458	9079.8
829.785	9075.06
830.111	9078.22
830.438	9090.88
830.764	9098.11
831.09	9075.51
831.417	9001.61
831.743	9079.35
832.069	9051.78
832.395	9082.74
832.722	9091.78
833.048	9048.84
833.374	9099.92
833.7	9051.56
834.026	9018.11
834.351	9071.67
834.677	8995.74
835.003	9019.92
835.329	9030.09
835.654	8962.52
835.98	8957.32
836.306	9022.18
836.631	8958
836.956	8978.79
837.282	8934.04
837.607	8884.55
837.932	8892.92
838.258	8915.51
838.583	8898.57
838.908	8782.86
839.233	8830.77
839.558	8827.61
839.883	8792.81
840.208	8809.08
840.533	8793.48
840.858	8805.69
841.182	8765.91
841.507	8752.58
841.832	8707.38
842.156	8697.67
842.481	8764.56
842.805	8735.86
843.13	8671.23
843.454	8713.71
843.778	8582.87
844.103	8681.62
844.427	8579.7
844.751	8553.72
845.075	8605.92
845.399	8493.38
845.723	8496.09
846.047	8487.28
846.371	8448.86
846.695	8431.91
847.019	8399.82
847.343	8374.06
847.666	8252.25
847.99	8273.5
848.313	8246.83
848.637	8201.18
848.96	8204.35
849.284	8222.2
849.607	8058.81
849.931	8074.41
850.254	8055.65
850.577	7985.14
850.9	7975.65
851.223	8005.26
851.546	7944.01
851.869	7909.21
852.192	7936.33
852.515	7860.63
852.838	7782.21
853.161	7850.01
853.483	7791.7
853.806	7783.79
854.129	7756
854.451	7750.57
854.774	7666.51
855.096	7655.21
855.419	7597.81
855.741	7599.39
856.063	7563.23
856.385	7605.04
856.708	7476.91
857.03	7497.02
857.352	7537.7
857.674	7432.62
857.996	7483.91
858.318	7430.13
858.64	7410.02
858.961	7371.6
859.283	7402.11
859.605	7364.59
859.926	7339.51
860.248	7305.61
860.57	7328.44
860.891	7333.86
861.212	7264.94
861.534	7237.37
861.855	7234.43
862.176	7228.78
862.498	7204.82
862.819	7266.52
863.14	7181.1
863.461	7170.93
863.782	7163.24
864.103	7124.6
864.424	7109.01
864.745	7096.8
865.065	7081.44
865.386	7062.91
865.707	7046.64
866.027	7035.56
866.348	7027.65
866.668	7054.55
866.989	6992.4
867.309	6967.77
867.63	6999.63
867.95	7010.71
868.27	6987.43
868.59	7022.91
868.91	6963.02
869.23	6882.12
869.55	6883.93
869.87	6953.98
870.19	6920.31
870.51	6913.31
870.83	6881.44
871.15	6821.56
871.469	6843.7
871.789	6904.72
872.109	6852.97
872.428	6830.15
872.748	6794.89
873.067	6767.55
873.386	6818.39
873.706	6785.63
874.025	6807.77
874.344	6759.86
874.663	6732.75
874.982	6711.96
875.301	6688
875.62	6695.69
875.939	6683.03
876.258	6742.46
876.577	6703.37
876.896	6696.36
877.214	6606.2
877.533	6703.14
877.852	6686.65
878.17	6641
878.489	6679.19
878.807	6633.77
879.125	6646.42
879.444	6623.15
879.762	6665.18
880.08	6629.02
880.398	6592.41
880.716	6584.5
881.034	6504.28
881.352	6593.54
881.67	6539.98
881.988	6469.02
882.306	6523.26
882.624	6501.11
882.941	6507.89
883.259	6488.69
883.577	6434.22
883.894	6426.31
884.212	6415.01
884.529	6456.6
884.846	6307.45
885.164	6380.44
885.481	6278.3
885.798	6347.45
886.115	6259.76
886.432	6356.03
886.75	6269.03
887.067	6346.77
887.383	6255.25
887.7	6291.63
888.017	6204.62
888.334	6251.86
888.651	6231.52
888.967	6217.28
889.284	6187.22
889.6	6131.41
889.917	6083.5
890.233	6126.66
890.55	6100.67
890.866	6154.23
891.182	6077.62
891.498	6075.59
891.815	6080.79
892.131	6061.13
892.447	6065.65
892.763	6002.82
893.079	5952.88
893.395	6008.92
893.71	5958.98
894.026	5972.09
894.342	5879.21
894.657	5871.53
894.973	5886.67
895.289	5892.99
895.604	5824.07
895.92	5804.64
896.235	5783.85
896.55	5791.75
896.865	5801.47
897.181	5703.4
897.496	5799.66
897.811	5727.58
898.126	5723.51
898.441	5729.38
898.756	5648.93
899.071	5634.92
899.386	5611.19
899.7	5591.99
900.015	5554.47
900.33	5568.03
900.644	5517.64
900.959	5530.52
901.273	5490.52
901.588	5481.25
901.902	5476.96
902.216	5445.1
902.531	5495.04
902.845	5426.57
903.159	5409.39
903.473	5374.59
903.787	5336.85
904.101	5280.36
904.415	5321.71
904.729	5253.92
905.042	5292.78
905.356	5230.41
905.67	5224.76
905.984	5228.38
906.297	5262.5
906.611	5189.96
906.924	5142.51
907.237	5143.64
907.551	5109.74
907.864	5079.23
908.177	5081.26
908.491	5032.45
908.804	5075.39
909.117	5023.87
909.43	4984.54
909.743	4966.47
910.056	4987.48
910.368	4976.41
910.681	4901.83
910.994	4931.21
911.307	4893.47
911.619	4868.39
911.932	4857.99
912.244	4836.07
912.557	4814.15
912.869	4817.32
913.181	4770.09
913.494	4704.55
913.806	4761.95
914.118	4729.41
914.43	4670.43
914.742	4681.5
915.054	4643.08
915.366	4602.86
915.678	4644.21
915.99	4579.81
916.302	4598.79
916.613	4551.34
916.925	4585.46
917.236	4553.59
917.548	4546.82
917.859	4491.45
918.171	4503.65
918.482	4502.97
918.794	4444.22
919.105	4445.12
919.416	4414.39
919.727	4441.96
920.038	4398.57
920.349	4364
920.66	4347.27
920.971	4324.9
921.282	4340.95
921.593	4289.65
921.903	4315.86
922.214	4252.81
922.525	4252.81
922.835	4241.74
923.146	4195.64
923.456	4188.63
923.767	4211.68
924.077	4173.49
924.387	4120.16
924.697	4133.72
925.008	4119.93
925.318	4089.43
925.628	4099.6
925.938	4085.58
926.248	4024.8
926.558	4037.9
926.867	4044.23
927.177	4042.65
927.487	3973.05
927.796	3959.71
928.106	3924.91
928.416	3920.17
928.725	3928.53
929.034	3918.13
929.344	3936.44
929.653	3888.3
929.962	3854.63
930.271	3799.72
930.581	3825.25
930.89	3782.09
931.199	3808.98
931.508	3808.98
931.817	3768.3
932.125	3796.55
932.434	3732.6
932.743	3726.05
933.051	3678.14
933.36	3684.24
933.669	3658.48
933.977	3687.86
934.286	3653.05
934.594	3634.75
934.902	3584.35
935.21	3586.39
935.519	3657.8
935.827	3619.83
936.135	3583.68
936.443	3563.34
936.751	3511.14
937.059	3524.24
937.367	3522.89
937.674	3478.59
937.982	3523.34
938.29	3530.35
938.597	3489.89
938.905	3442.89
939.213	3421.42
939.52	3408.99
939.827	3411.03
940.135	3420.07
940.442	3346.62
940.749	3366.96
941.056	3365.83
941.363	3331.25
941.67	3341.88
941.977	3297.81
942.284	3284.48
942.591	3279.28
942.898	3269.11
943.205	3274.08
943.511	3216.91
943.818	3267.08
944.125	3217.36
944.431	3213.97
944.738	3224.82
945.044	3162.67
945.35	3136.68
945.657	3149.79
945.963	3123.58
946.269	3116.8
946.575	3098.49
946.881	3082
947.187	3099.62
947.493	3048.32
947.799	3071.15
948.105	3063.46
948.41	2999.06
948.716	3033.86
949.022	3013.97
949.327	2972.39
949.633	2962
949.938	2968.1
950.244	2947.31
950.549	2940.3
950.854	2949.8
951.16	2919.51
951.465	2913.19
951.77	2893.07
952.075	2891.27
952.38	2919.74
952.685	2877.03
952.99	2843.81
953.294	2854.43
953.599	2851.94
953.904	2828.44
954.209	2785.05
954.513	2773.3
954.818	2779.18
955.122	2771.49
955.426	2768.56
955.731	2746.86
956.035	2752.96
956.339	2759.74
956.643	2664.15
956.948	2710.71
957.252	2682.91
957.556	2695.34
957.86	2681.33
958.163	2662.12
958.467	2686.75
958.771	2633.87
959.075	2645.17
959.378	2638.39
959.682	2647.66
959.985	2622.12
960.289	2606.3
960.592	2581.22
960.896	2578.28
961.199	2550.48
961.502	2540.54
961.805	2522.01
962.108	2511.84
962.411	2537.6
962.714	2476.36
963.017	2483.82
963.32	2474.55
963.623	2463.93
963.926	2469.58
964.228	2475.91
964.531	2466.42
964.833	2443.37
965.136	2430.26
965.438	2444.72
965.741	2410.15
966.043	2390.49
966.345	2397.49
966.648	2357.04
966.95	2349.81
967.252	2356.14
967.554	2383.71
967.856	2361.79
968.158	2348.46
968.46	2321.56
968.761	2301.22
969.063	2304.39
969.365	2299.64
969.666	2322.69
969.968	2265.52
970.269	2265.07
970.571	2252.86
970.872	2234.11
971.174	2209.02
971.475	2256.25
971.776	2222.36
972.077	2194.33
972.378	2224.84
972.679	2206.09
972.98	2170.61
973.281	2183.71
973.582	2152.75
973.883	2162.47
974.183	2130.16
974.484	2143.49
974.785	2141
975.085	2145.3
975.386	2108.01
975.686	2110.5
975.986	2104.62
976.287	2073.43
976.587	2097.16
976.887	2094.22
977.187	2069.37
977.487	2072.08
977.787	2020.33
978.087	2038.18
978.387	1978.75
978.687	2016.94
978.987	2023.72
979.286	1981.91
979.586	1977.17
979.885	1966.54
980.185	1996.83
980.484	1974.68
980.784	1959.09
981.083	1920.22
981.382	1936.04
981.682	1924.74
981.981	1895.36
982.28	1914.79
982.579	1916.38
982.878	1916.15
983.177	1896.26
983.475	1877.96
983.774	1857.17
984.073	1863.72
984.372	1871.41
984.67	1873.44
984.969	1862.37
985.267	1840.22
985.566	1824.63
985.864	1826.89
986.162	1826.44
986.461	1782.37
986.759	1812.42
987.057	1768.81
987.355	1796.38
987.653	1763.39
987.951	1784.18
988.249	1769.49
988.547	1753.67
988.844	1750.05
989.142	1767.45
989.44	1741.01
989.737	1722.48
990.035	1718.87
990.332	1748.92
990.63	1691.3
990.927	1688.36
991.224	1689.49
991.521	1699.43
991.819	1695.37
992.116	1685.42
992.413	1642.26
992.71	1621.47
993.006	1659.89
993.303	1632.54
993.6	1619.66
993.897	1632.99
994.193	1645.87
994.49	1614.01
994.787	1603.84
995.083	1602.03
995.379	1593.9
995.676	1593.45
995.972	1580.11
996.268	1559.32
996.565	1584.41
996.861	1549.15
997.157	1557.97
997.453	1553.67
997.749	1552.32
998.044	1511.42
998.34	1508.48
998.636	1510.51
998.932	1516.61
999.227	1474.58
999.523	1504.86
999.818	1478.2
1000.114	1482.49
1000.409	1490.4
1000.704	1474.13
1001	1448.37
1001.295	1434.35
1001.59	1419.67
1001.885	1454.69
1002.18	1451.3
1002.475	1467.8
1002.77	1396.84
1003.065	1409.72
1003.359	1431.64
1003.654	1397.07
1003.949	1388.03
1004.243	1371.76
1004.538	1373.11
1004.832	1385.32
1005.127	1339.44
1005.421	1360.23
1005.715	1322.95
1006.009	1339.44
1006.304	1341.93
1006.598	1331.76
1006.892	1327.92
1007.186	1305.77
1007.48	1313.23
1007.773	1306.67
1008.067	1296.51
1008.361	1288.6
1008.655	1265.77
1008.948	1280.69
1009.242	1294.92
1009.535	1262.38
1009.829	1259.67
1010.122	1228.71
1010.415	1217.64
1010.708	1211.99
1011.001	1234.81
1011.295	1250.18
1011.588	1219.67
1011.881	1226
1012.173	1210.86
1012.466	1196.85
1012.759	1206.11
1013.052	1197.98
1013.344	1178.99
1013.637	1177.86
1013.93	1163.4
1014.222	1156.62
1014.514	1150.07
1014.807	1154.14
1015.099	1117.98
1015.391	1144.87
1015.683	1124.53
1015.976	1136.06
1016.268	1104.87
1016.56	1108.49
1016.851	1103.29
1017.143	1098.09
1017.435	1082.27
1017.727	1101.48
1018.018	1087.02
1018.31	1089.96
1018.602	1078.88
1018.893	1070.97
1019.185	1040.47
1019.476	1044.31
1019.767	1033.91
1020.058	1058.32
1020.35	1037.53
1020.641	1029.39
1020.932	1011.32
1021.223	1014.03
1021.514	1012.67
1021.804	1007.7
1022.095	994.14
1022.386	988.94
1022.677	990.52
1022.967	966.57
1023.258	997.3
1023.548	984.88
1023.839	966.34
1024.129	986.68
1024.419	941.71
1024.709	935.61
1025	938.32
1025.29	972.9
1025.58	918.21
1025.87	916.4
1026.16	942.84
1026.449	921.83
1026.739	911.2
1027.029	908.49
1027.319	906.23
1027.608	867.36
1027.898	899.45
1028.187	891.32
1028.477	895.84
1028.766	892.9
1029.055	891.32
1029.344	886.35
1029.634	863.97
1029.923	855.39
1030.212	889.74
1030.501	852.22
1030.79	833.24
1031.078	836.18
1031.367	824.88
1031.656	829.85
1031.945	829.63
1032.233	830.53
1032.522	829.17
1032.81	801.83
1033.099	816.07
1033.387	819.46
1033.675	815.61
1033.963	785.56
1034.251	788.72
1034.54	782.85
1034.828	781.49
1035.116	783.98
1035.403	776.07
1035.691	767.03
1035.979	766.12
1036.267	752.79
1036.554	746.01
1036.842	754.37
1037.129	733.13
1037.417	741.04
1037.704	727.48
1037.992	734.71
1038.279	761.38
1038.566	733.36
1038.853	733.36
1039.14	733.36
