Data from hue_40_FLMS001491_93.txt Node
Date: Mon Feb 06 15:08:50 GMT 2017
User: dcchb
Spectrometer: FLMS00149
Trigger mode: 0
Integration Time (sec): 2.000000E-2
Scans to average: 10
Electric dark correction enabled: true
Nonlinearity correction enabled: false
Boxcar width: 0
XAxis mode: Wavelengths
Number of Pixels in Spectrum: 2048
>>>>>Begin Spectral Data<<<<<
341.393	-32.63
341.776	-32.63
342.16	-32.63
342.543	-58.39
342.927	-78.95
343.31	-59.97
343.693	-67.2
344.077	-92.74
344.46	-61.1
344.843	-47.99
345.226	-29.24
345.61	-19.75
345.993	-20.2
346.376	5.56
346.759	3.53
347.142	20.93
347.525	45.56
347.908	38.78
348.291	71.78
348.674	97.31
349.057	114.71
349.44	112.23
349.823	140.25
350.206	151.32
350.588	185
350.971	197.42
351.354	229.06
351.737	227.71
352.119	241.94
352.502	250.08
352.884	276.29
353.267	274.03
353.65	292.56
354.032	277.65
354.414	316.07
354.797	293.24
355.179	331.43
355.562	313.13
355.944	300.7
356.326	336.18
356.709	346.35
357.091	344.54
357.473	319
357.855	342.28
358.238	341.6
358.62	319
359.002	337.08
359.384	326.46
359.766	362.39
360.148	335.95
360.53	340.02
360.912	324.65
361.294	345.44
361.676	339.34
362.057	318.55
362.439	315.84
362.821	316.29
363.203	316.07
363.584	330.75
363.966	329.17
364.348	317.87
364.729	306.57
365.111	326.91
365.493	316.29
365.874	325.33
366.256	319.91
366.637	316.97
367.019	316.29
367.4	339.12
367.781	304.31
368.163	304.09
368.544	311.09
368.925	295.05
369.306	332.34
369.688	332.56
370.069	326.46
370.45	311.09
370.831	316.07
371.212	314.03
371.593	298.89
371.974	320.81
372.355	310.64
372.736	325.78
373.117	301.6
373.498	312.68
373.879	317.87
374.26	313.35
374.641	315.61
375.021	321.94
375.402	310.87
375.783	332.34
376.163	328.95
376.544	316.74
376.925	328.95
377.305	336.4
377.686	326.91
378.066	338.21
378.447	329.17
378.827	322.17
379.208	345.44
379.588	327.36
379.968	333.92
380.349	342.73
380.729	324.65
381.109	333.24
381.489	350.41
381.87	327.36
382.25	332.34
382.63	355.16
383.01	324.65
383.39	374.59
383.77	346.35
384.15	338.89
384.53	354.48
384.91	345.67
385.29	343.18
385.67	338.66
386.049	370.3
386.429	352.22
386.809	358.78
387.189	379.34
387.568	360.13
387.948	375.05
388.328	365.56
388.707	358.78
389.087	362.39
389.466	361.26
389.846	365.56
390.225	354.71
390.605	358.78
390.984	360.36
391.363	381.37
391.743	401.49
392.122	386.12
392.501	367.14
392.881	363.52
393.26	380.7
393.639	382.5
394.018	364.65
394.397	385.67
394.776	393.13
395.155	378.44
395.534	384.09
395.913	373.92
396.292	375.95
396.671	390.64
397.05	395.84
397.429	394.48
397.808	398.77
398.186	413.92
398.565	373.69
398.944	384.76
399.323	417.31
399.701	392.22
400.08	410.07
400.458	430.19
400.837	419.11
401.215	381.37
401.594	401.26
401.972	406.23
402.351	398.77
402.729	413.92
403.107	417.31
403.486	412.79
403.864	401.49
404.242	448.04
404.62	429.96
404.999	442.16
405.377	427.25
405.755	436.97
406.133	450.07
406.511	462.73
406.889	445.1
407.267	423.86
407.645	449.39
408.023	456.85
408.401	446.01
408.779	434.48
409.156	473.8
409.534	454.37
409.912	468.15
410.29	457.08
410.667	455.72
411.045	476.74
411.422	459.79
411.8	488.49
412.178	478.77
412.555	486.23
412.933	481.71
413.31	504.31
413.687	493.46
414.065	484.65
414.442	494.14
414.819	523.52
415.197	518.77
415.574	525.1
415.951	523.07
416.328	509.28
416.705	528.26
417.082	503.4
417.46	531.2
417.837	539.34
418.214	529.39
418.591	542.73
418.967	530.07
419.344	527.36
419.721	530.97
420.098	516.29
420.475	561.48
420.852	540.24
421.228	554.02
421.605	565.55
421.982	586.11
422.358	577.3
422.735	577.75
423.111	570.97
423.488	567.36
423.864	605.78
424.241	573.46
424.617	617.75
424.994	580.24
425.37	578.21
425.746	582.72
426.123	570.52
426.499	630.63
426.875	616.17
427.251	625.66
427.627	602.61
428.003	638.99
428.379	628.37
428.756	630.18
429.132	625.66
429.507	624.76
429.883	657.07
430.259	651.88
430.635	677.64
431.011	650.75
431.387	683.51
431.763	674.25
432.138	661.14
432.514	684.87
432.89	697.52
433.265	698.88
433.641	722.83
434.016	697.98
434.392	707.47
434.767	740.69
435.143	710.41
435.518	731.2
435.894	730.74
436.269	733.68
436.644	734.81
437.02	752.89
437.395	754.02
437.77	785.43
438.145	780.23
438.52	792.66
438.895	788.6
439.271	796.28
439.646	780.46
440.021	802.83
440.395	801.7
440.77	798.99
441.145	824.98
441.52	843.96
441.895	807.58
442.27	806.67
442.645	812.55
443.019	795.6
443.394	845.32
443.769	861.59
444.143	845.54
444.518	855.71
444.892	866.79
445.267	860.46
445.641	850.06
446.016	887.58
446.39	884.19
446.764	872.43
447.139	892.1
447.513	895.48
447.887	895.71
448.262	915.37
448.636	886.67
449.01	914.69
449.384	923.28
449.758	924.86
450.132	961.25
450.506	935.26
450.88	919.44
451.254	980
451.628	971.87
452.002	954.69
452.376	957.86
452.75	988.82
453.123	982.71
453.497	1004.18
453.871	1010.74
454.244	1020.91
454.618	1031.53
454.992	1063.16
455.365	1039.89
455.739	1052.99
456.112	1091.64
456.486	1069.04
456.859	1098.42
457.232	1104.52
457.606	1126.44
457.979	1102.49
458.352	1142.48
458.725	1144.97
459.099	1149.72
459.472	1172.99
459.845	1186.78
460.218	1203.5
460.591	1200.34
460.964	1203.27
461.337	1242.82
461.71	1224.52
462.083	1284.63
462.456	1299.09
462.829	1313.55
463.201	1308.81
463.574	1305.19
463.947	1317.62
464.32	1368.01
464.692	1372.31
465.065	1372.76
465.438	1403.04
465.81	1424.96
466.183	1428.13
466.555	1462.48
466.928	1471.51
467.3	1507.45
467.672	1490.27
468.045	1570.72
468.417	1544.73
468.789	1539.54
469.161	1574.79
469.534	1620.21
469.906	1634.9
470.278	1648.23
470.65	1671.96
471.022	1737.27
471.394	1772.3
471.766	1787.21
472.138	1800.09
472.51	1845.29
472.882	1928.23
473.253	1891.84
473.625	1916.93
473.997	1986.53
474.369	2019.52
474.74	2020.88
475.112	2080.76
475.484	2121.22
475.855	2198.95
476.227	2206.18
476.598	2269.91
476.97	2321.21
477.341	2374.09
477.713	2418.83
478.084	2448.66
478.455	2524.37
478.827	2589.45
479.198	2714.65
479.569	2711.93
479.94	2780.86
480.311	2847.3
480.682	2903.12
481.053	3016.33
481.424	3078.7
481.795	3156.22
482.166	3202.54
482.537	3284.12
482.908	3360.73
483.279	3443.21
483.65	3554.17
484.021	3637.79
484.391	3714.85
484.762	3773.38
485.133	3859.47
485.503	3946.7
485.874	4074.61
486.244	4139.92
486.615	4272.57
486.985	4351.21
487.356	4461.04
487.726	4534.94
488.097	4664.43
488.467	4724.08
488.837	4848.6
489.207	4970.18
489.578	5056.05
489.948	5193.9
490.318	5293.79
490.688	5346.44
491.058	5473.9
491.428	5614.91
491.798	5708.47
492.168	5851.96
492.538	5903.94
492.908	6038.63
493.278	6113.88
493.648	6208.11
494.017	6377.37
494.387	6505.28
494.757	6589.12
495.126	6714.77
495.496	6744.37
495.866	6835.67
496.235	6986.4
496.605	7080.41
496.974	7127.86
497.344	7226.17
497.713	7345.03
498.082	7469.1
498.452	7551.36
498.821	7725.14
499.19	7719.26
499.559	7814.17
499.928	7922.42
500.298	8009.87
500.667	8076.77
501.036	8178.01
501.405	8247.61
501.774	8312.47
502.143	8444.66
502.512	8498.22
502.88	8685.79
503.249	8682.4
503.618	8779.35
503.987	8774.15
504.356	8957.87
504.724	9036.74
505.093	9038.1
505.462	9139.79
505.83	9280.8
506.199	9375.94
506.567	9483.28
506.936	9507.91
507.304	9617.97
507.672	9688.47
508.041	9653.22
508.409	9915.59
508.777	9939.09
509.145	10047.79
509.514	10012.31
509.882	10161.68
510.25	10194.9
510.618	10340.66
510.986	10335.91
511.354	10466.98
511.722	10567.77
512.09	10629.92
512.458	10655.23
512.826	10782.68
513.193	10820.42
513.561	10820.65
513.929	10942.9
514.297	11018.61
514.664	11131.37
515.032	11192.16
515.4	11288.88
515.767	11321.65
516.135	11420.41
516.502	11331.82
516.869	11536.11
517.237	11583.79
517.604	11585.15
517.972	11711.47
518.339	11849.32
518.706	11829.43
519.073	11853.39
519.44	12003.67
519.808	12082.54
520.175	12050.45
520.542	12182.87
520.909	12350.55
521.276	12292.25
521.643	12465.12
522.009	12494.73
522.376	12655.63
522.743	12677.32
523.11	12740.15
523.477	12890.88
523.843	13005.67
524.21	13110.08
524.577	13156.63
524.943	13220.58
525.31	13294.71
525.676	13386.91
526.043	13428.26
526.409	13541.48
526.776	13755.71
527.142	13761.81
527.508	13821.25
527.874	13936.27
528.241	14028.02
528.607	14030.51
528.973	14160.45
529.339	14167.68
529.705	14292.19
530.071	14475.92
530.437	14467.33
530.803	14642.92
531.169	14672.52
531.535	14661.9
531.901	14778.06
532.267	14755.91
532.632	14872.29
532.998	14879.3
533.364	15091.72
533.73	15066.41
534.095	15156.35
534.461	15231.15
534.826	15390.7
535.192	15331.49
535.557	15455.33
535.923	15538.26
536.288	15515.89
536.653	15639.28
537.019	15552.5
537.384	15702.55
537.749	15829.56
538.114	15875.2
538.479	15857.58
538.845	15978.25
539.21	15951.13
539.575	16078.81
539.94	16087.18
540.305	16182.31
540.67	16190.9
541.034	16317.68
541.399	16336.66
541.764	16439.93
542.129	16521.06
542.494	16593.15
542.858	16573.26
543.223	16684
543.587	16693.26
543.952	16712.92
544.316	16790.43
544.681	16917.44
545.045	16995.4
545.41	17108.62
545.774	17128.96
546.138	17194.49
546.503	17266.81
546.867	17326.01
547.231	17504.99
547.595	17469.96
547.959	17552.9
548.324	17512.9
548.688	17577.31
549.052	17662.28
549.416	17685.1
549.779	17721.48
550.143	17804.19
550.507	17937.75
550.871	17895.49
551.235	17902.04
551.599	18125.31
551.962	18232.66
552.326	18246.44
552.689	18298.19
553.053	18287.34
553.417	18319.89
553.78	18553.55
554.143	18580.44
554.507	18575.7
554.87	18684.62
555.234	18784.51
555.597	18677.62
555.96	18814.79
556.323	18943.82
556.686	18954.67
557.05	19076.02
557.413	19004.16
557.776	19197.15
558.139	19236.47
558.502	19328.22
558.865	19325.51
559.228	19465.39
559.59	19486.86
559.953	19560.98
560.316	19699.28
560.679	19724.37
561.041	19861.09
561.404	19976.57
561.767	19974.98
562.129	20028.99
562.492	20146.28
562.854	20231.7
563.217	20237.8
563.579	20268.53
563.941	20434.63
564.304	20471.47
564.666	20647.96
565.028	20712.59
565.39	20774.74
565.753	20857.45
566.115	20839.59
566.477	20951.68
566.839	20984.67
567.201	21166.14
567.563	21157.33
567.925	21317.32
568.287	21259.7
568.648	21386.25
569.01	21532.46
569.372	21609.97
569.734	21652.45
570.095	21814.71
570.457	21834.14
570.819	21795.05
571.18	21973.12
571.542	22131.54
571.903	22096.06
572.265	22177.86
572.626	22329.05
572.987	22380.8
573.349	22541.7
573.71	22536.05
574.071	22706.21
574.432	22816.26
574.794	23050.38
575.155	22981.23
575.516	22992.31
575.877	23136.93
576.238	23334.44
576.599	23512.74
576.96	23550.93
577.32	23629.12
577.681	23813.53
578.042	23920.42
578.403	23992.05
578.763	24095.78
579.124	24254.87
579.485	24461.64
579.845	24688.98
580.206	24713.39
580.566	24885.59
580.927	24969.65
581.287	25178.01
581.648	25211
582.008	25580.71
582.368	25630.2
582.728	25808.95
583.089	25827.26
583.449	26155.39
583.809	26359.67
584.169	26593.79
584.529	26637.63
584.889	26995.82
585.249	27062.71
585.609	27100.9
585.969	27484.16
586.329	27684.61
586.688	27796.02
587.048	27983.36
587.408	28150.14
587.768	28316.68
588.127	28533.63
588.487	28768.42
588.846	29118.7
589.206	29214.51
589.565	29299.03
589.925	29739.7
590.284	29721.39
590.643	30079.12
591.003	30252
591.362	30522.95
591.721	30660.58
592.08	30804.53
592.44	31297.17
592.799	31423.5
593.158	31488.58
593.517	31656.94
593.876	31925.63
594.235	32077.72
594.593	32328.56
594.952	32580.98
595.311	32727.19
595.67	32836.57
596.029	33252.6
596.387	33604.46
596.746	33617.34
597.104	33680.61
597.463	33823.66
597.822	34173.03
598.18	34201.73
598.538	34415.73
598.897	34784.31
599.255	34583.19
599.613	35281.93
599.972	35046.45
600.33	35496.38
600.688	35439.44
601.046	35765.53
601.404	36061.34
601.762	36035.13
602.12	36345.4
602.478	36534.55
602.836	36608.22
603.194	36525.96
603.552	36775.45
603.91	36778.16
604.268	37194.42
604.625	37284.13
604.983	37419.95
605.341	37435.77
605.698	37737.91
606.056	37923.89
606.413	38029.2
606.771	38360.71
607.128	38274.62
607.485	38239.59
607.843	38414.27
608.2	38720.03
608.557	38825.79
608.914	38854.03
609.272	39201.6
609.629	39352.55
609.986	39629.16
610.343	39393.23
610.7	39762.94
611.057	39797.96
611.414	39828.92
611.771	39900.34
612.127	40213.55
612.484	40161.35
612.841	40472.98
613.198	40283.15
613.554	40468
613.911	40788.45
614.267	40845.85
614.624	40932.17
614.98	41001.78
615.337	41277.25
615.693	41117.25
616.05	41223.01
616.406	41527.86
616.762	41311.82
617.118	41555.66
617.475	41540.74
617.831	41706.84
618.187	41760.63
618.543	42014.18
618.899	42224.12
619.255	42101.41
619.611	42280.84
619.967	42260.72
620.323	42554.05
620.678	42299.82
621.034	42226.6
621.39	42383.21
621.746	42384.34
622.101	42957.43
622.457	42678.12
622.812	42730.54
623.168	42865
623.523	42728.51
623.879	43116.75
624.234	42822.52
624.589	42937.32
624.945	43115.62
625.3	43099.12
625.655	43140.02
626.01	43205.78
626.365	43204.88
626.72	43188.61
627.075	43338.89
627.43	43286.01
627.785	43282.39
628.14	43449.85
628.495	43317.19
628.85	43302.96
629.205	43125.11
629.559	43463.63
629.914	43280.59
630.269	43375.27
630.623	43316.74
630.978	43301.6
631.332	43561.93
631.687	43510.41
632.041	43428.38
632.396	43566.23
632.75	43370.3
633.104	43308.16
633.459	43380.7
633.813	43305.67
634.167	43335.27
634.521	43306.12
634.875	43550.18
635.229	43468.83
635.583	43170.08
635.937	43303.86
636.291	43154.49
636.645	43213.47
636.999	43199.01
637.352	43159.91
637.706	42935.96
638.06	43229.29
638.413	43118.78
638.767	43009.18
639.121	43154.49
639.474	42875.85
639.828	42850.99
640.181	42935.06
640.534	43010.76
640.888	42965.11
641.241	42668.85
641.594	42794.72
641.947	42978.67
642.301	42832.69
642.654	42896.87
643.007	42922.4
643.36	42798.79
643.713	42663.65
644.066	42922.85
644.419	42584.11
644.771	42444
645.124	42173.27
645.477	42019.6
645.83	41650.35
646.182	41609.22
646.535	41460.97
646.888	41546.62
647.24	41302.56
647.593	41549.11
647.945	41498.26
648.298	41225.72
648.65	41276.34
649.002	41119.29
649.355	41262.56
649.707	41280.64
650.059	41469.79
650.411	41881.75
650.763	41850.79
651.115	42392.02
651.467	42178.24
651.819	42265.47
652.171	42171.46
652.523	41927.85
652.875	42138.69
653.227	41869.55
653.578	42075.65
653.93	42068.87
654.282	41879.94
654.633	41652.83
654.985	41891.92
655.337	41813.96
655.688	41949.55
656.039	42013.73
656.391	41541.2
656.742	41758.14
657.094	41740.96
657.445	41921.75
657.796	41790.23
658.147	41654.87
658.498	41680.4
658.849	41870.23
659.2	41705.94
659.551	41634.3
659.902	41726.28
660.253	41748.42
660.604	41711.13
660.955	41580.29
661.306	41665.71
661.656	41579.61
662.007	41557.69
662.358	41530.8
662.708	41536.22
663.059	41601.08
663.409	41416.45
663.76	41627.97
664.11	41547.07
664.461	41624.36
664.811	41540.74
665.161	41476.34
665.511	41472.27
665.862	41438.6
666.212	41671.14
666.562	41756.56
666.912	41469.11
667.262	41527.86
667.612	41594.08
667.962	41494.42
668.312	41385.04
668.662	41540.97
669.011	41529.22
669.361	41330.81
669.711	41410.35
670.06	41360.86
670.41	41299.17
670.76	41257.14
671.109	41546.39
671.459	41434.31
671.808	41208.55
672.157	41347.08
672.507	41096.24
672.856	41066.63
673.205	41207.19
673.554	41370.58
673.904	41112.51
674.253	41293.29
674.602	41047.2
674.951	40656.93
675.3	40426.2
675.649	41056.01
675.998	40993.64
676.346	41058.04
676.695	40990.02
677.044	40823.25
677.393	40827.32
677.741	40917.03
678.09	40802.01
678.438	40799.29
678.787	40760.65
679.135	40795.23
679.484	40472.75
679.832	40772.18
680.181	40464.39
680.529	40596.36
680.877	40418.06
681.225	40480.21
681.573	40766.53
681.922	40380.1
682.27	40143.27
682.618	40329.7
682.966	40025.76
683.314	40362.92
683.661	40030.95
684.009	39927.9
684.357	39763.84
684.705	39980.78
685.053	39927.68
685.4	39857.62
685.748	39760.23
686.095	39713.22
686.443	39585.77
686.79	39549.16
687.138	39649.27
687.485	39532.21
687.832	39375.15
688.18	39424.64
688.527	39198.21
688.874	39181.26
689.221	39140.81
689.568	38954.82
689.915	38973.58
690.262	38976.74
690.609	38741.5
690.956	38636.64
691.303	38731.1
691.65	38409.07
691.997	38589.86
692.344	38313.94
692.69	38373.82
693.037	38250.89
693.383	37980.84
693.73	38136.09
694.077	37811.12
694.423	37882.76
694.769	37711.69
695.116	37662.88
695.462	37657.23
695.808	37523.45
696.155	37565.93
696.501	37252.72
696.847	37355.32
697.193	37055.44
697.539	37284.13
697.885	36944.93
698.231	36851.38
698.577	36728.67
698.923	36665.84
699.269	36549.69
699.614	36331.39
699.96	36354.21
700.306	36381.33
700.651	36187.89
700.997	36086.2
701.342	35904.06
701.688	35905.41
702.033	35771.63
702.379	35930.27
702.724	35580
703.069	35803.72
703.415	35210.97
703.76	35354.69
704.105	35379.78
704.45	35236.95
704.795	35079.9
705.14	35020.24
705.485	34905.21
705.83	34806.01
706.175	34896.62
706.52	34629.74
706.865	34676.74
707.209	34698.66
707.554	34599.46
707.899	34571.44
708.243	34388.39
708.588	34413.47
708.932	34163.54
709.277	34124.67
709.621	34142.75
709.966	33878.8
710.31	33900.94
710.654	33737.33
710.998	33934.16
711.342	33913.37
711.687	33757.22
712.031	33511.58
712.375	33516.32
712.719	33404.01
713.063	33415.08
713.407	33460.28
713.75	33396.78
714.094	33297.8
714.438	33171.02
714.782	33100.97
715.125	33118.14
715.469	32987.97
715.812	32845.38
716.156	32663.24
716.499	32774.42
716.843	32718.38
717.186	32438.38
717.53	32712.73
717.873	32631.37
718.216	32533.75
718.559	32480.19
718.902	32202.23
719.246	32225.51
719.589	32129.69
719.932	32047.66
720.275	32027.77
720.617	31919.3
720.96	32021.67
721.303	32017.6
721.646	31900.32
721.989	31624.85
722.331	31881.79
722.674	31699.65
723.016	31838.63
723.359	31663.94
723.701	31764.28
724.044	31441.12
724.386	31249.26
724.729	31485.42
725.071	31348.02
725.413	31304.63
725.755	31343.72
726.097	31220.11
726.439	30957.52
726.782	30991.19
727.124	31064.18
727.465	31070.74
727.807	30984.19
728.149	30937.63
728.491	30722.95
728.833	30919.1
729.175	30842.49
729.516	30687.47
729.858	30673.23
730.199	30738.99
730.541	30787.35
730.882	30646.34
731.224	30654.93
731.565	30406.12
731.906	30462.17
732.248	30390.08
732.589	30304.66
732.93	30201.38
733.271	30186.92
733.612	30290.19
733.953	30180.82
734.294	30070.54
734.635	29986.47
734.976	30128.16
735.317	29895.85
735.658	29903.76
735.999	29900.82
736.339	29842.29
736.68	29887.72
737.021	29751.22
737.361	29671.9
737.702	29881.16
738.042	29744.67
738.383	29513.04
738.723	29701.28
739.063	29480.95
739.404	29575.86
739.744	29516.43
740.084	29381.97
740.424	29431.46
740.764	29264.91
741.104	29392.59
741.444	29242.76
741.784	29094.07
742.124	29248.86
742.464	29155.08
742.804	29020.4
743.143	28932.04
743.483	29067.63
743.823	28827.41
744.162	28879.83
744.502	28924.35
744.841	28800.51
745.181	28876.22
745.52	28822.89
745.86	28798.93
746.199	28713.74
746.538	28600.07
746.877	28616.11
747.216	28582.67
747.556	28536.11
747.895	28593.74
748.234	28379.51
748.573	28499.73
748.911	28361.88
749.25	28371.6
749.589	28166.86
749.928	28117.14
750.267	28269
750.605	28159.17
750.944	28036.47
751.283	27953.53
751.621	28038.73
751.96	27894.32
752.298	27783.82
752.636	27867.66
752.975	27737.72
753.313	27592.18
753.651	27797.83
753.989	27511.96
754.327	27451.62
754.666	27454.56
755.004	27395.58
755.342	27402.81
755.679	27379.31
756.017	27207.11
756.355	27267.45
756.693	27255.02
757.031	27168.24
757.368	27082.37
757.706	26979.54
758.044	26864.29
758.381	26849.15
758.719	26798.31
759.056	26846.44
759.394	26766.9
759.731	26584.75
760.068	26606.9
760.405	26419.79
760.743	26346.34
761.08	26382.72
761.417	26255.27
761.754	26247.36
762.091	26037.87
762.428	25994.03
762.765	25900.7
763.102	26014.37
763.438	25858.67
763.775	25730.54
764.112	25682.4
764.449	25570.77
764.785	25467.95
765.122	25271.79
765.458	25322.87
765.795	25212.36
766.131	25270.21
766.467	25144.79
766.804	24955.19
767.14	24921.97
767.476	24906.83
767.812	24789.77
768.148	24902.54
768.485	24679.94
768.821	24471.59
769.157	24620.28
769.492	24451.7
769.828	24480.18
770.164	24289.9
770.5	24145.72
770.836	24186.62
771.171	24012.17
771.507	24022.56
771.842	23829.8
772.178	23792.28
772.513	23731.04
772.849	23670.48
773.184	23594.1
773.519	23520.43
773.855	23380.54
774.19	23305.97
774.525	23193.66
774.86	23195.46
775.195	23197.5
775.53	23048.8
775.865	22810.16
776.2	22755.48
776.535	22610.62
776.87	22567.91
777.205	22505.54
777.539	22438.65
777.874	22519.1
778.209	22229.16
778.543	22239.1
778.878	22095.83
779.212	22019.9
779.547	22120.69
779.881	22043.18
780.215	21857.19
780.55	21785.78
780.884	21800.02
781.218	21676.41
781.552	21588.73
781.886	21504.43
782.22	21383.08
782.554	21389.64
782.888	21260.15
783.222	21067.16
783.556	20947.61
783.889	20827.16
784.223	20774.06
784.557	20793.49
784.89	20792.81
785.224	20611.35
785.557	20589.43
785.891	20545.14
786.224	20428.53
786.558	20419.72
786.891	20222.66
787.224	20087.75
787.557	20148.99
787.891	20042.78
788.224	20084.36
788.557	19914.42
788.89	20000.29
789.223	19940.63
789.556	19835.33
789.888	19616.8
790.221	19628.55
790.554	19359.86
790.887	19590.36
791.219	19392.85
791.552	19343.81
791.884	19207.55
792.217	19207.09
792.549	19106.76
792.882	18935.69
793.214	18999.64
793.546	19030.6
793.879	18832.19
794.211	18760.33
794.543	18794.45
794.875	18696.37
795.207	18763.72
795.539	18563.72
795.871	18601.91
796.203	18433.33
796.535	18362.82
796.867	18263.84
797.198	18219.78
797.53	18150.17
797.862	18034.7
798.193	18162.38
798.525	18074.69
798.856	18024.53
799.188	17867.92
799.519	17758.09
799.85	17743.86
800.182	17778.2
800.513	17772.1
800.844	17514.71
801.175	17603.52
801.506	17610.98
801.837	17434.26
802.168	17465.44
802.499	17368.27
802.83	17268.39
803.161	17222.06
803.491	17241.04
803.822	17193.36
804.153	17146.13
804.483	16984.55
804.814	16968.28
805.145	16902.97
805.475	16836.99
805.805	16799.02
806.136	16806.03
806.466	16876.53
806.796	16837.66
807.126	16629.08
807.457	16597.67
807.787	16600.16
808.117	16477.67
808.447	16486.94
808.777	16509.54
809.107	16320.84
809.436	16326.04
809.766	16277.45
810.096	16255.76
810.426	16225.7
810.755	16180.05
811.085	16127.85
811.414	16186.16
811.744	15995.2
812.073	15958.37
812.403	15953.39
812.732	15813.96
813.061	15845.15
813.39	15696.9
813.719	15740.74
814.049	15794.08
814.378	15744.81
814.707	15674.98
815.036	15633.63
815.365	15468.44
815.693	15380.3
816.022	15535.55
816.351	15466.18
816.68	15314.77
817.008	15378.72
817.337	15221.66
817.665	15217.14
817.994	15258.5
818.322	15178.73
818.651	15049.24
818.979	15080.2
819.307	15114.09
819.636	14987.54
819.964	14905.29
820.292	15034.77
820.62	14985.51
820.948	14853.76
821.276	14916.13
821.604	14897.6
821.932	14938.96
822.259	14913.42
822.587	14939.86
822.915	14840.2
823.243	14851.95
823.57	14837.49
823.898	14926.98
824.225	14818.06
824.553	14880.43
824.88	14829.81
825.207	14849.69
825.535	14802.69
825.862	14875.68
826.189	14804.27
826.516	14809.02
826.843	14900.54
827.17	14800.88
827.497	14853.54
827.824	14882.91
828.151	14845.63
828.478	14769.92
828.805	14857.6
829.131	14847.66
829.458	14741.67
829.785	14734.22
830.111	14758.62
830.438	14857.83
830.764	14812.86
831.09	14870.94
831.417	14706.42
831.743	14800.43
832.069	14851.5
832.395	14670.26
832.722	14740.77
833.048	14712.97
833.374	14716.59
833.7	14535.13
834.026	14651.73
834.351	14689.92
834.677	14662.35
835.003	14713.65
835.329	14665.74
835.654	14553.2
835.98	14480.44
836.306	14512.3
836.631	14514.56
836.956	14569.93
837.282	14535.13
837.607	14416.26
837.932	14470.5
838.258	14461.68
838.583	14360.67
838.908	14426.43
839.233	14338.07
839.558	14341.69
839.883	14252.65
840.208	14195.02
840.533	14342.81
840.858	14279.77
841.182	14195.47
841.507	14225.08
841.832	14175.14
842.156	14046.1
842.481	14063.05
842.805	14131.75
843.13	13974.24
843.454	13944.63
843.778	13943.73
844.103	13959.32
844.427	13802.26
844.751	13830.74
845.075	13749.16
845.399	13856.5
845.723	13741.02
846.047	13620.57
846.371	13593
846.695	13683.62
847.019	13426.23
847.343	13484.98
847.666	13330.41
847.99	13297.64
848.313	13348.26
848.637	13209.29
848.96	13203.86
849.284	13169.96
849.607	12984.21
849.931	12979.01
850.254	12956.86
850.577	12830.76
850.9	12744.44
851.223	12829.86
851.546	12740.82
851.869	12598.45
852.192	12735.4
852.515	12548.74
852.838	12546.25
853.161	12545.35
853.483	12422.64
853.806	12365.24
854.129	12389.65
854.451	12345.35
854.774	12287.28
855.096	12247.95
855.419	12235.3
855.741	12150.56
856.063	12056.77
856.385	12059.94
856.708	12017.23
857.03	11979.94
857.352	12017.9
857.674	11929.32
857.996	11919.6
858.318	11880.73
858.64	11906.95
858.961	11856.33
859.283	11781.3
859.605	11706.73
859.926	11757.57
860.248	11634.64
860.57	11663.79
860.891	11652.72
861.212	11569.55
861.534	11581.53
861.855	11533.4
862.176	11568.2
862.498	11545.6
862.819	11576.33
863.14	11475.32
863.461	11441.42
863.782	11388.09
864.103	11370.46
864.424	11327.53
864.745	11314.65
865.065	11297.47
865.386	11294.31
865.707	11306.06
866.027	11267.42
866.348	11224.03
866.668	11187.42
866.989	11155.1
867.309	11140.64
867.63	11120.07
867.95	11101.54
868.27	11018.38
868.59	11134.09
868.91	11097.02
869.23	11058.61
869.55	11006.86
869.87	11089.79
870.19	11014.99
870.51	11011.83
870.83	11013.64
871.15	10845.73
871.469	10926.18
871.789	10925.5
872.109	10925.05
872.428	10875.34
872.748	10931.15
873.067	10877.6
873.386	10938.16
873.706	10791.27
874.025	10775
874.344	10713.98
874.663	10720.99
874.982	10698.17
875.301	10711.27
875.62	10658.62
875.939	10682.57
876.258	10689.35
876.577	10662.01
876.896	10563.25
877.214	10561.22
877.533	10551.05
877.852	10551.73
878.17	10580.65
878.489	10595.12
878.807	10466.08
879.125	10548.11
879.444	10506.53
879.762	10487.1
880.08	10501.79
880.398	10401
880.716	10375.46
881.034	10410.49
881.352	10368
881.67	10346.99
881.988	10367.1
882.306	10306.54
882.624	10326.42
882.941	10237.16
883.259	10212.75
883.577	10176.6
883.894	10140.21
884.212	10174.34
884.529	10135.02
884.846	10129.59
885.164	10068.35
885.481	10074.9
885.798	10069.48
886.115	9967.56
886.432	10000.1
886.75	9941.57
887.067	9986.32
887.383	9897.73
887.7	9949.48
888.017	9805.31
888.334	9884.4
888.651	9858.19
888.967	9842.82
889.284	9687.34
889.6	9793.78
889.917	9661.36
890.233	9687.12
890.55	9674.92
890.866	9657.29
891.182	9604.63
891.498	9540.91
891.815	9470.63
892.131	9486.9
892.447	9466.33
892.763	9431.08
893.079	9478.99
893.395	9414.13
893.71	9401.7
894.026	9314.7
894.342	9307.02
894.657	9293.46
894.973	9267.24
895.289	9185.89
895.604	9247.13
895.92	9150.86
896.235	9151.31
896.55	9123.52
896.865	9051.2
897.181	8987.48
897.496	9125.1
897.811	8926.23
898.126	8942.73
898.441	8951.32
898.756	8923.52
899.071	8822.06
899.386	8849.4
899.7	8803.53
900.015	8828.84
900.33	8729.86
900.644	8641.04
900.959	8721.72
901.273	8635.17
901.588	8628.61
901.902	8546.58
902.216	8551.55
902.531	8516.08
902.845	8512.91
903.159	8369.19
903.473	8435.17
903.787	8364.22
904.101	8352.01
904.415	8356.08
904.729	8224.56
905.042	8264.56
905.356	8243.99
905.67	8244.67
905.984	8205.8
906.297	8194.73
906.611	8079.48
906.924	8144.79
907.237	8071.34
907.551	7995.86
907.864	7991.57
908.177	8015.3
908.491	7971.46
908.804	7918.58
909.117	7912.93
909.43	7882.65
909.743	7799.26
910.056	7814.63
910.368	7813.5
910.681	7767.85
910.994	7684.68
911.307	7657.57
911.619	7567.17
911.932	7613.95
912.244	7603.33
912.557	7546.16
912.869	7477.68
913.181	7457.35
913.494	7480.17
913.806	7424.35
914.118	7365.15
914.43	7248.09
914.742	7346.16
915.054	7364.24
915.366	7252.61
915.678	7223.45
915.99	7120.41
916.302	7154.76
916.613	7083.12
916.925	7063.01
917.236	7088.99
917.548	7036.79
917.859	7026.4
918.171	6928.55
918.482	6932.16
918.794	6964.03
919.105	6861.2
919.416	6861.88
919.727	6881.77
920.038	6864.37
920.349	6789.79
920.66	6716.12
920.971	6734.65
921.282	6677.93
921.593	6632.06
921.903	6605.39
922.214	6645.62
922.525	6622.34
922.835	6553.19
923.146	6543.7
923.456	6524.26
923.767	6456.24
924.077	6493.53
924.387	6454.66
924.697	6382.57
925.008	6384.83
925.318	6311.84
925.628	6336.47
925.938	6288.11
926.248	6282.91
926.558	6219.41
926.867	6195.91
927.177	6122.01
927.487	6156.82
927.796	6123.14
928.106	6125.63
928.416	6087.89
928.725	6072.52
929.034	6039.3
929.344	6007.67
929.653	5976.48
929.962	5892.87
930.271	5935.58
930.581	5910.49
930.89	5818.52
931.199	5799.08
931.508	5803.15
931.817	5825.98
932.125	5797.73
932.434	5740.33
932.743	5671.63
933.051	5685.64
933.36	5632.76
933.669	5601.12
933.977	5607.9
934.286	5565.64
934.594	5554.12
934.902	5546.44
935.21	5554.8
935.519	5519.77
935.827	5501.24
936.135	5517.28
936.443	5428.25
936.751	5398.64
937.059	5427.8
937.367	5323.62
937.674	5331.98
937.982	5302.37
938.29	5294.01
938.597	5345.09
938.905	5244.98
939.213	5188.48
939.52	5233.45
939.827	5197.07
940.135	5159.55
940.442	5164.98
940.749	5091.76
941.056	5124.53
941.363	5089.5
941.67	5091.31
941.977	5027.58
942.284	5051.53
942.591	5024.87
942.898	4965.66
943.205	4921.59
943.511	4966.56
943.818	4924.08
944.125	4873.69
944.431	4890.86
944.738	4858.32
945.044	4791.43
945.35	4841.82
945.657	4773.58
945.963	4717.76
946.269	4741.94
946.575	4695.84
946.881	4722.95
947.187	4678.89
947.493	4637.53
947.799	4609.29
948.105	4611.32
948.41	4604.09
948.716	4560.02
949.022	4568.38
949.327	4560.25
949.633	4506.92
949.938	4512.11
950.244	4488.84
950.549	4510.98
950.854	4431.44
951.16	4447.03
951.465	4386.47
951.77	4370.42
952.075	4343.08
952.38	4334.04
952.685	4360.93
952.99	4292.23
953.294	4303.53
953.599	4279.35
953.904	4244.55
954.209	4256.98
954.513	4202.06
954.818	4183.99
955.122	4190.09
955.426	4157.09
955.731	4096.98
956.035	4085.23
956.339	4097.66
956.643	4103.08
956.948	4046.81
957.252	4055.4
957.556	4034.84
957.86	4028.51
958.163	3974.73
958.467	3979.02
958.771	3964.56
959.075	3962.3
959.378	3917.55
959.682	3915.52
959.985	3905.12
960.289	3907.84
960.592	3873.94
960.896	3841.17
961.199	3856.54
961.502	3840.72
961.805	3815.41
962.108	3797.1
962.411	3782.64
962.714	3732.7
963.017	3696.32
963.32	3714.39
963.623	3699.7
963.926	3694.51
964.228	3646.83
964.531	3649.76
964.833	3675.98
965.136	3585.13
965.438	3581.52
965.741	3582.42
966.043	3589.43
966.345	3526.83
966.648	3531.8
966.95	3515.98
967.252	3523.44
967.554	3443.67
967.856	3513.27
968.158	3454.51
968.46	3444.34
968.761	3428.3
969.063	3384.01
969.365	3432.14
969.666	3380.17
969.968	3359.83
970.269	3352.6
970.571	3310.11
970.872	3330.22
971.174	3307.62
971.475	3298.81
971.776	3265.14
972.077	3238.7
972.378	3256.78
972.679	3257.46
972.98	3214.75
973.281	3252.26
973.582	3203.67
973.883	3171.58
974.183	3158.25
974.484	3166.84
974.785	3131.36
975.085	3166.61
975.386	3138.36
975.686	3125.26
975.986	3103.56
976.287	3097.01
976.587	3045.03
976.887	3039.38
977.187	3008.2
977.487	3039.61
977.787	3007.07
978.087	3018.14
978.387	2958.03
978.687	2935.21
978.987	2986.96
979.286	2948.09
979.586	2923.23
979.885	2925.49
980.185	2868.54
980.484	2858.37
980.784	2875.32
981.083	2878.71
981.382	2837.81
981.682	2847.52
981.981	2829.67
982.28	2835.32
982.579	2776.11
982.878	2764.81
983.177	2768.88
983.475	2771.82
983.774	2764.36
984.073	2726.62
984.372	2728.21
984.67	2746.06
984.969	2711.03
985.267	2740.18
985.566	2669.22
985.864	2642.56
986.162	2683.01
986.461	2620.41
986.759	2602.33
987.057	2592.62
987.355	2595.55
987.653	2576.34
987.951	2609.79
988.249	2549.68
988.547	2565.95
988.844	2560.53
989.142	2542.22
989.44	2511.26
989.737	2513.75
990.035	2501.32
990.332	2493.86
990.63	2462
990.927	2480.53
991.224	2466.07
991.521	2433.98
991.819	2452.05
992.116	2436.46
992.413	2424.94
992.71	2398.72
993.006	2409.34
993.303	2334.32
993.6	2391.26
993.897	2337.48
994.193	2326.86
994.49	2360.98
994.787	2311.49
995.083	2317.14
995.379	2315.79
995.676	2294.32
995.972	2290.02
996.268	2243.25
996.565	2273.98
996.861	2258.16
997.157	2241.89
997.453	2211.38
997.749	2210.25
998.044	2208.22
998.34	2192.4
998.636	2155.56
998.932	2186.07
999.227	2150.37
999.523	2114.66
999.818	2134.77
1000.114	2124.83
1000.409	2104.72
1000.704	2075.11
1001	2067.66
1001.295	2072.86
1001.59	2031.27
1001.885	2059.07
1002.18	2043.25
1002.475	2038.28
1002.77	1999.64
1003.065	1995.34
1003.359	2002.8
1003.654	2012.52
1003.949	1973.87
1004.243	1989.92
1004.538	1927.77
1004.832	1949.69
1005.127	1926.64
1005.421	1920.32
1005.715	1930.26
1006.009	1916.48
1006.304	1880.32
1006.598	1870.37
1006.892	1874.67
1007.186	1863.37
1007.48	1862.24
1007.773	1843.71
1008.067	1848
1008.361	1840.77
1008.655	1803.94
1008.948	1801.68
1009.242	1791.73
1009.535	1763.03
1009.829	1760.55
1010.122	1734.78
1010.415	1734.78
1010.708	1743.37
1011.001	1715.8
1011.295	1719.42
1011.588	1731.4
1011.881	1718.97
1012.173	1675.8
1012.466	1678.74
1012.759	1674.67
1013.052	1692.3
1013.344	1631.74
1013.637	1671.96
1013.93	1664.5
1014.222	1630.83
1014.514	1626.54
1014.807	1601.91
1015.099	1581.79
1015.391	1591.06
1015.683	1593.77
1015.976	1615.01
1016.268	1556.48
1016.56	1559.2
1016.851	1525.98
1017.143	1539.31
1017.435	1540.21
1017.727	1509.03
1018.018	1498.86
1018.31	1517.62
1018.602	1479.42
1018.893	1468.58
1019.185	1469.71
1019.476	1472.19
1019.767	1445.75
1020.058	1453.89
1020.35	1413.89
1020.641	1395.58
1020.932	1410.73
1021.223	1375.47
1021.514	1382.7
1021.804	1396.26
1022.095	1362.14
1022.386	1346.55
1022.677	1342.48
1022.967	1359.2
1023.258	1339.54
1023.548	1287.57
1023.839	1323.72
1024.129	1306.32
1024.419	1293.21
1024.709	1282.14
1025	1283.72
1025.29	1266.77
1025.58	1260
1025.87	1282.14
1026.16	1254.35
1026.449	1260
1026.739	1230.17
1027.029	1219.32
1027.319	1230.39
1027.608	1182.26
1027.898	1225.42
1028.187	1227.91
1028.477	1191.97
1028.766	1175.03
1029.055	1154.69
1029.344	1170.73
1029.634	1170.73
1029.923	1135.03
1030.212	1168.02
1030.501	1170.73
1030.79	1135.48
1031.078	1123.95
1031.367	1112.2
1031.656	1112.43
1031.945	1095.48
1032.233	1075.82
1032.522	1055.48
1032.81	1117.63
1033.099	1071.07
1033.387	1054.58
1033.675	1044.63
1033.963	1085.08
1034.251	1051.86
1034.54	1042.37
1034.828	1010.28
1035.116	1026.55
1035.403	1014.13
1035.691	995.6
1035.979	1021.13
1036.267	1022.49
1036.554	994.69
1036.842	985.65
1037.129	1000.57
1037.417	978.65
1037.704	972.77
1037.992	955.37
1038.279	957.63
1038.566	933.9
1038.853	933.9
1039.14	933.9
