Data from hue_290_FLMS001491_00014.txt Node
Date: Tue Feb 07 15:52:22 GMT 2017
User: dcchb
Spectrometer: FLMS00149
Trigger mode: 0
Integration Time (sec): 2.000000E-2
Scans to average: 10
Electric dark correction enabled: true
Nonlinearity correction enabled: false
Boxcar width: 0
XAxis mode: Wavelengths
Number of Pixels in Spectrum: 2048
>>>>>Begin Spectral Data<<<<<
341.393	-28.97
341.776	-28.97
342.16	-28.97
342.543	-49.31
342.927	-74.62
343.31	-72.36
343.693	-66.48
344.077	-49.53
344.46	-45.01
344.843	-53.83
345.226	-33.04
345.61	-27.16
345.993	-34.84
346.376	-9.31
346.759	3.8
347.142	31.6
347.525	49.45
347.908	57.58
348.291	56.91
348.674	84.48
349.057	107.75
349.44	108.2
349.823	150.91
350.206	152.72
350.588	188.2
350.971	199.05
351.354	211.7
351.737	227.97
352.119	232.95
352.502	242.66
352.884	261.19
353.267	255.09
353.65	296.45
354.032	296.45
354.414	308.42
354.797	311.81
355.179	321.76
355.562	315.2
355.944	329.21
356.326	327.86
356.709	337.35
357.091	325.82
357.473	335.09
357.855	345.26
358.238	331.47
358.62	320.4
359.002	334.64
359.384	347.52
359.766	318.59
360.148	328.76
360.53	350
360.912	348.42
361.294	338.03
361.676	318.37
362.057	334.19
362.439	312.94
362.821	318.37
363.203	334.19
363.584	315.66
363.966	319.72
364.348	305.94
364.729	309.1
365.111	321.08
365.493	311.36
365.874	303.9
366.256	304.13
366.637	345.26
367.019	318.59
367.4	311.36
367.781	313.62
368.163	295.77
368.544	316.11
368.925	318.14
369.306	328.76
369.688	299.16
370.069	299.38
370.45	311.36
370.831	279.72
371.212	305.26
371.593	313.85
371.974	311.14
372.355	337.35
372.736	315.88
373.117	330.34
373.498	319.72
373.879	300.29
374.26	320.85
374.641	303.23
375.021	318.82
375.402	290.12
375.783	297.58
376.163	322.44
376.544	326.73
376.925	322.21
377.305	321.53
377.686	322.44
378.066	321.31
378.447	301.87
378.827	325.37
379.208	333.28
379.588	340.06
379.968	319.95
380.349	310.46
380.729	326.05
381.109	324.92
381.489	329.44
381.87	326.95
382.25	307.75
382.63	328.76
383.01	328.99
383.39	326.5
383.77	370.8
384.15	353.39
384.53	344.13
384.91	338.71
385.29	359.72
385.67	327.41
386.049	347.97
386.429	347.29
386.809	341.64
387.189	358.82
387.568	371.02
387.948	351.59
388.328	355.43
388.707	353.85
389.087	347.29
389.466	345.49
389.846	365.82
390.225	361.76
390.605	374.86
390.984	360.63
391.363	362.89
391.743	361.53
392.122	367.18
392.501	358.59
392.881	382.09
393.26	368.08
393.639	378.48
394.018	354.07
394.397	379.16
394.776	371.02
395.155	356.56
395.534	382.09
395.913	363.34
396.292	365.37
396.671	388.65
397.05	384.81
397.429	390.91
397.808	402.88
398.186	379.16
398.565	389.33
398.944	386.16
399.323	387.29
399.701	421.19
400.08	399.95
400.458	407.63
400.837	411.25
401.215	425.71
401.594	403.34
401.972	426.39
402.351	411.92
402.729	416.67
403.107	418.03
403.486	416.67
403.864	445.14
404.242	425.03
404.62	428.42
404.999	437.46
405.377	442.88
405.755	437.01
406.133	458.25
406.511	427.97
406.889	466.84
407.267	463.9
407.645	473.39
408.023	474.07
408.401	456.89
408.779	465.26
409.156	477.91
409.534	477.01
409.912	486.72
410.29	507.97
410.667	503.9
411.045	496.22
411.422	521.98
411.8	519.27
412.178	539.38
412.555	539.6
412.933	547.97
413.31	553.84
413.687	569.43
414.065	536.21
414.442	563.33
414.819	586.83
415.197	578.7
415.574	574.41
415.951	594.29
416.328	608.98
416.705	597.91
417.082	625.25
417.46	632.71
417.837	633.16
418.214	648.08
418.591	661.18
418.967	661.64
419.344	661.86
419.721	663.22
420.098	666.83
420.475	681.97
420.852	660.51
421.228	678.36
421.605	711.13
421.982	698.02
422.358	727.85
422.735	709.32
423.111	718.58
423.488	731.01
423.864	761.52
424.241	761.97
424.617	782.08
424.994	774.4
425.37	792.25
425.746	778.69
426.123	823.21
426.499	812.14
426.875	806.04
427.251	863.89
427.627	838.81
428.003	871.8
428.379	843.33
428.756	860.05
429.132	872.48
429.507	903.89
429.883	922.87
430.259	940.27
430.635	927.39
431.011	938.46
431.387	948.63
431.763	979.14
432.138	982.98
432.514	994.51
432.89	988.18
433.265	999.71
433.641	1017.56
434.016	1026.37
434.392	1023.43
434.767	1034.73
435.143	1072.02
435.518	1084.9
435.894	1086.71
436.269	1093.26
436.644	1118.12
437.02	1126.48
437.395	1124.9
437.77	1153.6
438.145	1168.06
438.52	1140.49
438.895	1191.11
439.271	1174.62
439.646	1188.63
440.021	1208.97
440.395	1218.91
440.77	1220.72
441.145	1225.46
441.52	1266.59
441.895	1245.8
442.27	1252.35
442.645	1252.35
443.019	1267.04
443.394	1270.66
443.769	1262.98
444.143	1269.75
444.518	1306.82
444.892	1278.12
445.267	1306.36
445.641	1335.74
446.016	1331
446.39	1348.4
446.764	1339.58
447.139	1330.32
447.513	1345.91
447.887	1347.72
448.262	1350.88
448.636	1357.44
449.01	1377.32
449.384	1375.74
449.758	1385.23
450.132	1416.42
450.506	1368.51
450.88	1401.5
451.254	1420.71
451.628	1427.72
452.002	1438.11
452.376	1446.02
452.75	1446.47
453.123	1447.6
453.497	1469.07
453.871	1477.21
454.244	1508.84
454.618	1507.04
454.992	1511.78
455.365	1522.18
455.739	1559.24
456.112	1565.79
456.486	1579.58
456.859	1566.47
457.232	1592.23
457.606	1610.54
457.979	1638.78
458.352	1636.98
458.725	1625
459.099	1621.84
459.472	1635.62
459.845	1686.92
460.218	1681.95
460.591	1682.85
460.964	1705.68
461.337	1727.6
461.71	1743.41
462.083	1753.36
462.456	1782.96
462.829	1786.35
463.201	1785.67
463.574	1818.21
463.947	1820.47
464.32	1851.66
464.692	1833.36
465.065	1857.31
465.438	1882.39
465.81	1894.6
466.183	1916.52
466.555	1930.53
466.928	1950.41
467.3	1945.22
467.672	1967.14
468.045	1990.19
468.417	1999.68
468.789	1982.28
469.161	2044.65
469.534	2086.91
469.906	2086.91
470.278	2087.13
470.65	2119.68
471.022	2116.74
471.394	2185.66
471.766	2198.54
472.138	2220.46
472.51	2220.69
472.882	2250.75
473.253	2278.32
473.625	2294.36
473.997	2296.39
474.369	2331.87
474.74	2341.14
475.112	2387.69
475.484	2425.2
475.855	2402.38
476.227	2459.33
476.598	2498.87
476.97	2512.89
477.341	2547.24
477.713	2557.86
478.084	2577.07
478.455	2604.41
478.827	2609.15
479.198	2681.7
479.569	2674.01
479.94	2736.61
480.311	2753.33
480.682	2819.77
481.053	2869.49
481.424	2887.79
481.795	2898.64
482.166	2956.94
482.537	2944.06
482.908	2999.2
483.279	2987.68
483.65	3058.86
484.021	3133.89
484.391	3113.55
484.762	3166.65
485.133	3149.25
485.503	3151.97
485.874	3238.74
486.244	3276.93
486.615	3341.79
486.985	3326.42
487.356	3433.54
487.726	3399.87
488.097	3445.97
488.467	3435.8
488.837	3517.61
489.207	3523.71
489.578	3556.02
489.948	3597.15
490.318	3629.69
490.688	3606.19
491.058	3702.01
491.428	3684.61
491.798	3743.36
492.168	3802.57
492.538	3791.5
492.908	3827.2
493.278	3866.3
493.648	3853.19
494.017	3895
494.387	3951.94
494.757	3978.38
495.126	3989.23
495.496	4025.61
495.866	4037.37
496.235	4050.47
496.605	4066.52
496.974	4083.01
497.344	4099.51
497.713	4113.07
498.082	4102.22
498.452	4200.98
498.821	4183.58
499.19	4217.02
499.559	4201.43
499.928	4225.84
500.298	4277.81
500.667	4305.38
501.036	4233.07
501.405	4288.88
501.774	4312.61
502.143	4328.66
502.512	4325.72
502.88	4365.72
503.249	4390.8
503.618	4413.17
503.987	4407.07
504.356	4440.97
504.724	4455.89
505.093	4443
505.462	4457.24
505.83	4481.42
506.199	4492.49
506.567	4547.63
506.936	4525.71
507.304	4573.62
507.672	4562.32
508.041	4576.56
508.409	4602.77
508.777	4664.02
509.145	4615.66
509.514	4626.28
509.882	4714.18
510.25	4675.54
510.618	4683.22
510.986	4716.22
511.354	4752.38
511.722	4811.58
512.09	4814.29
512.458	4783.33
512.826	4816.1
513.193	4818.81
513.561	4840.28
513.929	4788.98
514.297	4869.89
514.664	4847.97
515.032	4857.01
515.4	4882.09
515.767	4918.7
516.135	4971.58
516.502	4892.94
516.869	4978.58
517.237	4982.88
517.604	4952.82
517.972	4957.34
518.339	4961.18
518.706	4955.99
519.073	5035.31
519.44	4976.32
519.808	5065.36
520.175	5073.95
520.542	5090.45
520.909	5098.81
521.276	5051.8
521.643	5096.55
522.009	5139.48
522.376	5164.34
522.743	5149.43
523.11	5260.38
523.477	5245.24
523.843	5268.52
524.21	5296.54
524.577	5334.73
524.943	5325.92
525.31	5354.62
525.676	5419.48
526.043	5415.18
526.409	5402.98
526.776	5485.24
527.142	5391.91
527.508	5488.17
527.874	5500.6
528.241	5552.81
528.607	5563.2
528.973	5591.9
529.339	5576.53
529.705	5580.38
530.071	5622.63
530.437	5628.51
530.803	5670.54
531.169	5680.71
531.535	5717.55
531.901	5682.52
532.267	5737.43
532.632	5728.39
532.998	5815.62
533.364	5845.23
533.73	5827.6
534.095	5864.21
534.461	5845
534.826	5885.9
535.192	5870.09
535.557	5937.88
535.923	5991.44
536.288	5957.54
536.653	6021.72
537.019	6005.9
537.384	6011.1
537.749	6018.56
538.114	5990.99
538.479	6061.04
538.845	5998.9
539.21	6040.48
539.575	6069.63
539.94	6129.06
540.305	6130.87
540.67	6124.32
541.034	6124.99
541.399	6139.46
541.764	6152.11
542.129	6167.48
542.494	6195.5
542.858	6226.01
543.223	6226.91
543.587	6264.2
543.952	6233.92
544.316	6265.56
544.681	6308.04
545.045	6347.14
545.41	6361.82
545.774	6365.67
546.138	6334.48
546.503	6398.43
546.867	6400.69
547.231	6426
547.595	6475.04
547.959	6463.74
548.324	6483.18
548.688	6442.05
549.052	6489.05
549.416	6488.6
549.779	6526.79
550.143	6532.44
550.507	6560.92
550.871	6566.11
551.235	6541.71
551.599	6596.62
551.962	6607.69
552.326	6581.93
552.689	6645.43
553.053	6569.73
553.417	6596.62
553.78	6689.05
554.143	6691.08
554.507	6738.99
554.87	6707.13
555.234	6776.28
555.597	6727.01
555.96	6690.4
556.323	6726.11
556.686	6736.28
557.05	6793.23
557.413	6840.23
557.776	6800.68
558.139	6885.88
558.502	6798.2
558.865	6889.49
559.228	6910.06
559.59	6914.8
559.953	6960
560.316	6969.49
560.679	7016.95
561.041	7061.69
561.404	7045.2
561.767	7062.37
562.129	7048.81
562.492	7087.45
562.854	7039.55
563.217	7061.92
563.579	7127.45
563.941	7150.73
564.304	7147.57
564.666	7123.84
565.028	7213.78
565.39	7239.54
565.753	7249.94
566.115	7273.21
566.477	7251.07
566.839	7315.02
567.201	7405.86
567.563	7312.08
567.925	7485.64
568.287	7439.76
568.648	7434.11
569.01	7496.48
569.372	7520.21
569.734	7481.34
570.095	7537.39
570.457	7637.27
570.819	7631.4
571.18	7642.02
571.542	7646.31
571.903	7723.82
572.265	7727.66
572.626	7750.04
572.987	7739.87
573.349	7836.14
573.71	7861.22
574.071	7882.69
574.432	8002.01
574.794	8003.59
575.155	7991.61
575.516	8042.91
575.877	8031.84
576.238	8023.93
576.599	8160.42
576.96	8213.75
577.32	8219.63
577.681	8357.7
578.042	8409.68
578.403	8439.28
578.763	8419.85
579.124	8458.49
579.485	8592.95
579.845	8664.14
580.206	8690.8
580.566	8768.09
580.927	8847.63
581.287	8894.86
581.648	8964.47
582.008	9057.12
582.368	9134.41
582.728	9194.07
583.089	9281.3
583.449	9348.41
583.809	9459.6
584.169	9534.17
584.529	9623.43
584.889	9813.03
585.249	9815.07
585.609	9883.99
585.969	10058
586.329	10137.77
586.688	10270.42
587.048	10402.17
587.408	10483.98
587.768	10547.93
588.127	10712.67
588.487	10777.08
588.846	11015.04
589.206	11066.79
589.565	11212.32
589.925	11442.37
590.284	11514.01
590.643	11690.27
591.003	11803.26
591.362	11987.89
591.721	12082.35
592.08	12189.02
592.44	12371.16
592.799	12447.77
593.158	12602.56
593.517	12688.89
593.876	12829.22
594.235	12977.02
594.593	13201.64
594.952	13366.84
595.311	13424.46
595.67	13548.75
596.029	13803.21
596.387	13867.16
596.746	14023.09
597.104	14131.11
597.463	14268.28
597.822	14428.05
598.18	14447.49
598.538	14597.99
598.897	14796.86
599.255	14746.69
599.613	15093.8
599.972	15104.65
600.33	15259.9
600.688	15357.29
601.046	15471.87
601.404	15683.84
601.762	15699.21
602.12	15967.9
602.478	16034.34
602.836	16114.79
603.194	16181
603.552	16166.54
603.91	16297.38
604.268	16443.37
604.625	16506.19
604.983	16677.94
605.341	16661.21
605.698	16834.09
606.056	16910.93
606.413	17030.02
606.771	17174.87
607.128	17213.74
607.485	17203.8
607.843	17357.92
608.2	17538.03
608.557	17735.31
608.914	17575.09
609.272	17718.59
609.629	17905.48
609.986	17985.47
610.343	17960.16
610.7	18194.28
611.057	18151.8
611.414	18199.71
611.771	18257.33
612.127	18409.42
612.484	18463.2
612.841	18596.3
613.198	18550.2
613.554	18600.15
613.911	18879.46
614.267	18822.74
614.624	18809.18
614.98	18989.97
615.337	19100.47
615.693	19035.16
616.05	19130.3
616.406	19222.73
616.762	19207.59
617.118	19234.71
617.475	19288.49
617.831	19423.4
618.187	19484.19
618.543	19500.24
618.899	19563.06
619.255	19490.29
619.611	19622.49
619.967	19682.83
620.323	19775.93
620.678	19746.56
621.034	19773.45
621.39	19805.31
621.746	19764.41
622.101	20066.1
622.457	19916.27
622.812	19985.87
623.168	20027.45
623.523	20074.68
623.879	20178.86
624.234	19948.81
624.589	20149.03
624.945	20211.63
625.3	20152.65
625.655	20187
626.01	20278.52
626.365	20267.9
626.72	20301.12
627.075	20195.58
627.43	20258.86
627.785	20247.79
628.14	20243.27
628.495	20368.24
628.85	20377.27
629.205	20216.15
629.559	20430.61
629.914	20365.07
630.269	20370.5
630.623	20406.88
630.978	20189.71
631.332	20464.96
631.687	20391.06
632.041	20389.25
632.396	20426.09
632.75	20360.55
633.104	20399.2
633.459	20231.06
633.813	20303.83
634.167	20325.52
634.521	20296.83
634.875	20276.49
635.229	20314.23
635.583	20280.33
635.937	20203.72
636.291	20259.54
636.645	20260.67
636.999	20077.85
637.352	20251.4
637.706	20203.49
638.06	20299.99
638.413	20124.17
638.767	20173.21
639.121	20167.79
639.474	20042.59
639.828	20055.93
640.181	20208.47
640.534	20160.78
640.888	19981.13
641.241	20019.77
641.594	20097.96
641.947	20147.9
642.301	20100.22
642.654	20072.65
643.007	20134.8
643.36	20084.4
643.713	20003.73
644.066	20150.16
644.419	19929.38
644.771	19852.09
645.124	19685.54
645.477	19608.48
645.83	19639.22
646.182	19518.54
646.535	19502.5
646.888	19512.21
647.24	19394.25
647.593	19447.58
647.945	19550.86
648.298	19368.49
648.65	19375.27
649.002	19382.95
649.355	19380.01
649.707	19459.56
650.059	19494.81
650.411	19833.33
650.763	19791.3
651.115	19907.46
651.467	19833.56
651.819	19911.07
652.171	19851.41
652.523	19826.78
652.875	19835.14
653.227	19756.5
653.578	19959.88
653.93	19910.39
654.282	19796.95
654.633	19711.76
654.985	19846.89
655.337	19827.23
655.688	19777.52
656.039	19915.59
656.391	19808.48
656.742	19847.57
657.094	19897.74
657.445	19914.91
657.796	19872.43
658.147	19786.78
658.498	19770.51
658.849	19911.98
659.2	19961.01
659.551	19852.77
659.902	19875.37
660.253	19844.63
660.604	19978.87
660.955	19850.51
661.306	19865.2
661.656	19791.98
662.007	19982.26
662.358	19859.55
662.708	19949.72
663.059	19858.19
663.409	19813.22
663.76	20021.35
664.11	19989.49
664.461	20041.69
664.811	19963.27
665.161	19860.68
665.511	20000.11
665.862	19973.67
666.212	19995.36
666.562	19965.99
666.912	19975.93
667.262	19940.45
667.612	20006.44
667.962	19920.79
668.312	19968.92
668.662	20003.27
669.011	20014.8
669.361	19927.57
669.711	19900.45
670.06	19792.88
670.41	19788.59
670.76	19829.49
671.109	19900.45
671.459	19916.72
671.808	19789.27
672.157	19905.42
672.507	19757.18
672.856	19828.36
673.205	19773.67
673.554	19935.03
673.904	19764.64
674.253	19849.38
674.602	19863.62
674.951	19532.1
675.3	19501.82
675.649	19673.79
675.998	19719.89
676.346	19683.73
676.695	19815.71
677.044	19595.37
677.393	19614.81
677.741	19714.02
678.09	19530.29
678.438	19470.86
678.787	19686.9
679.135	19608.03
679.484	19422.5
679.832	19498.88
680.181	19328.04
680.529	19427.7
680.877	19314.25
681.225	19401.48
681.573	19449.62
681.922	19240.13
682.27	19231.77
682.618	19278.09
682.966	19151.77
683.314	19260.24
683.661	19178.21
684.009	19162.39
684.357	19102.51
684.705	19090.08
685.053	19067.03
685.4	19079.46
685.748	18857.99
686.095	18910.65
686.443	18863.42
686.79	18724.21
687.138	18804.21
687.485	18877.88
687.832	18678.79
688.18	18818.45
688.527	18574.38
688.874	18679.24
689.221	18549.07
689.568	18509.08
689.915	18485.8
690.262	18460.04
690.609	18325.35
690.956	18305.69
691.303	18269.08
691.65	18179.82
691.997	18242.42
692.344	18066.6
692.69	18139.82
693.037	18015.98
693.383	17952.03
693.73	17996.09
694.077	17862.76
694.423	17851.01
694.769	17824.57
695.116	17870
695.462	17709.32
695.808	17757.68
696.155	17654.63
696.501	17549.55
696.847	17566.28
697.193	17383.46
697.539	17390.46
697.885	17213.29
698.231	17263.68
698.577	17241.54
698.923	17200.41
699.269	17093.52
699.614	17053.29
699.96	16907.31
700.306	16992.96
700.651	16783.47
700.997	16709.57
701.342	16672.74
701.688	16667.32
702.033	16616.92
702.379	16644.49
702.724	16617.6
703.069	16576.7
703.415	16398.85
703.76	16420.77
704.105	16351.62
704.45	16310.49
704.795	16171.51
705.14	16154.79
705.485	16095.13
705.83	16091.51
706.175	16107.56
706.52	16051.06
706.865	15957.5
707.209	16055.58
707.554	15923.15
707.899	15894.23
708.243	15815.36
708.588	15799.77
708.932	15731.07
709.277	15692.43
709.621	15668.02
709.966	15564.75
710.31	15560.9
710.654	15423.05
710.998	15480.68
711.342	15474.8
711.687	15405.88
712.031	15358.2
712.375	15260.12
712.719	15347.35
713.063	15299.89
713.407	15340.35
713.75	15159.79
714.094	15118.66
714.438	15130.41
714.782	15120.24
715.125	15013.12
715.469	15051.99
715.812	15070.75
716.156	14909.17
716.499	14932.67
716.843	14889.74
717.186	14830.3
717.53	14955.72
717.873	14924.08
718.216	14825.1
718.559	14774.03
718.902	14708.27
719.246	14708.5
719.589	14710.76
719.932	14744.2
720.275	14624.66
720.617	14612.68
720.96	14624.66
721.303	14608.16
721.646	14612.68
721.989	14546.02
722.331	14614.26
722.674	14512.57
723.016	14460.14
723.359	14494.04
723.701	14595.96
724.044	14434.15
724.386	14394.61
724.729	14364.78
725.071	14398.45
725.413	14389.86
725.755	14444.32
726.097	14299.02
726.439	14343.08
726.782	14329.75
727.124	14363.65
727.465	14273.93
727.807	14308.28
728.149	14222.63
728.491	14273.93
728.833	14311.45
729.175	14260.15
729.516	14205.01
729.858	14235.06
730.199	14174.05
730.541	14191
730.882	14184.22
731.224	14178.57
731.565	14119.81
731.906	14200.04
732.248	14233.71
732.589	14052.24
732.93	14061.96
733.271	14121.85
733.612	14107.38
733.953	14120.72
734.294	14078.23
734.635	14108.29
734.976	14125.91
735.317	14033.94
735.658	14073.49
735.999	14074.39
736.339	14063.54
736.68	14100.6
737.021	14045.24
737.361	13984.45
737.702	14090.89
738.042	14061.28
738.383	14082.75
738.723	14058.12
739.063	14080.49
739.404	13985.8
739.744	14108.29
740.084	14062.86
740.424	14074.62
740.764	14017.67
741.104	14171.11
741.444	14172.01
741.784	14161.85
742.124	14168.85
742.464	14179.47
742.804	14140.38
743.143	14122.3
743.483	14175.18
743.823	14109.42
744.162	14157.55
744.502	14182.18
744.841	14232.13
745.181	14278
745.52	14328.62
745.86	14332.69
746.199	14367.49
746.538	14409.07
746.877	14527.49
747.216	14507.82
747.556	14501.05
747.895	14584.43
748.234	14538.78
748.573	14632.34
748.911	14664.43
749.25	14789.4
749.589	14660.14
749.928	14812.22
750.267	14929.28
750.605	14904.65
750.944	15026
751.283	15055.38
751.621	15212.89
751.96	15179.67
752.298	15296.28
752.636	15407.01
752.975	15400.91
753.313	15519.1
753.651	15634.57
753.989	15691.07
754.327	15719.09
754.666	15836.83
755.004	15856.72
755.342	16064.39
755.679	16081.34
756.017	16114.79
756.355	16211.73
756.693	16463.25
757.031	16549.13
757.368	16523.59
757.706	16667.99
758.044	16711.16
758.381	16908.21
758.719	16913.64
759.056	17063.24
759.394	17188.88
759.731	17183.01
760.068	17349.11
760.405	17422.78
760.743	17501.64
761.08	17603.56
761.417	17719.49
761.754	17760.39
762.091	17803.78
762.428	17956.55
762.765	17960.39
763.102	18120.39
763.438	18137.56
763.775	18217.11
764.112	18391.11
764.449	18433.6
764.785	18463.43
765.122	18496.87
765.458	18556.76
765.795	18583.65
766.131	18638.56
766.467	18800.14
766.804	18745.91
767.14	18707.94
767.476	18901.61
767.812	18930.99
768.148	19055.05
768.485	18966.46
768.821	18882.17
769.157	18998.78
769.492	18970.53
769.828	19154.26
770.164	19015.05
770.5	19031.77
770.836	19084.2
771.171	19040.13
771.507	19078.55
771.842	19115.16
772.178	19106.12
772.513	19146.35
772.849	19184.54
773.184	19041.49
773.519	19200.81
773.855	19063.86
774.19	19073.13
774.525	19071.09
774.86	19042.62
775.195	19119.91
775.53	18987.71
775.865	18990.19
776.2	18931.66
776.535	18841.04
776.87	18915.84
777.205	18827.26
777.539	18777.09
777.874	18916.97
778.209	18724.21
778.543	18723.53
778.878	18635.4
779.212	18730.76
779.547	18581.84
779.881	18685.34
780.215	18578
780.55	18629.75
780.884	18462.3
781.218	18513.6
781.552	18587.72
781.886	18381.17
782.22	18282.19
782.554	18374.16
782.888	18216.43
783.222	18132.59
783.556	18151.8
783.889	18139.14
784.223	18014.85
784.557	18033.16
784.89	18151.8
785.224	17968.3
785.557	17850.56
785.891	17787.96
786.224	17854.63
786.558	17854.86
786.891	17648.76
787.224	17573.28
787.557	17591.13
787.891	17626.39
788.224	17550.23
788.557	17590.46
788.89	17533.28
789.223	17538.03
789.556	17264.36
789.888	17392.49
790.221	17205.38
790.554	17127.87
790.887	17107.98
791.219	17074.99
791.552	17126.29
791.884	16986.18
792.217	17033.41
792.549	16817.82
792.882	16831.83
793.214	16677.26
793.546	16858.72
793.879	16677.94
794.211	16556.58
794.543	16644.04
794.875	16580.76
795.207	16612.4
795.539	16453.54
795.871	16504.38
796.203	16306.65
796.535	16235.69
796.867	16289.7
797.198	16188.46
797.53	16134
797.862	16093.32
798.193	16115.69
798.525	16099.42
798.856	16135.13
799.188	15850.84
799.519	15833.44
799.85	15858.98
800.182	15731.97
800.513	15801.8
800.844	15694.46
801.175	15682.26
801.506	15702.37
801.837	15585.76
802.168	15600.68
802.499	15544.41
802.83	15400.68
803.161	15427.12
803.491	15376.73
803.822	15403.17
804.153	15308.71
804.483	15148.94
804.814	15136.96
805.145	15147.13
805.475	15176.73
805.805	15040.92
806.136	15013.8
806.466	15028.49
806.796	15007.02
807.126	14836.86
807.457	14785.78
807.787	14799.79
808.117	14768.16
808.447	14797.99
808.777	14739.68
809.107	14747.59
809.436	14651.32
809.766	14645
810.096	14582.63
810.426	14476.64
810.755	14529.97
811.085	14497.66
811.414	14511.44
811.744	14390.31
812.073	14358.22
812.403	14390.09
812.732	14301.5
813.061	14284.33
813.39	14241.62
813.719	14239.36
814.049	14183.31
814.378	14208.4
814.707	14069.87
815.036	14080.04
815.365	14013.83
815.693	13994.84
816.022	13982.19
816.351	14001.4
816.68	13857.22
817.008	13908.29
817.337	13739.03
817.665	13693.16
817.994	13808.41
818.322	13766.15
818.651	13691.12
818.979	13624.68
819.307	13680.05
819.636	13695.42
819.964	13543.1
820.292	13626.72
820.62	13548.08
820.948	13477.12
821.276	13521.41
821.604	13514.63
821.932	13591.24
822.259	13514.18
822.587	13577
822.915	13513.95
823.243	13509.66
823.57	13479.83
823.898	13604.12
824.225	13521.86
824.553	13392.6
824.88	13457.46
825.207	13517.12
825.535	13491.81
825.862	13460.85
826.189	13441.41
826.516	13491.58
826.843	13486.16
827.17	13488.42
827.497	13557.34
827.824	13522.99
828.151	13553.73
828.478	13474.63
828.805	13493.16
829.131	13494.74
829.458	13405.03
829.785	13382.43
830.111	13392.83
830.438	13516.66
830.764	13524.8
831.09	13490.22
831.417	13373.39
831.743	13466.95
832.069	13492.03
832.395	13346.5
832.722	13455.42
833.048	13357.8
833.374	13331.13
833.7	13362.32
834.026	13335.43
834.351	13386.5
834.677	13352.37
835.003	13353.28
835.329	13296.33
835.654	13303.34
835.98	13213.85
836.306	13261.08
836.631	13179.95
836.956	13210.68
837.282	13275.99
837.607	13175.43
837.932	13171.36
838.258	13153.51
838.583	13194.41
838.908	13073.29
839.233	13074.64
839.558	13048.2
839.883	13018.82
840.208	12976.57
840.533	13003.23
840.858	12995.1
841.182	12992.61
841.507	12876.91
841.832	12805.72
842.156	12935.21
842.481	12780.64
842.805	12822.67
843.13	12786.97
843.454	12787.19
843.778	12658.38
844.103	12664.26
844.427	12642.11
844.751	12665.16
845.075	12553.98
845.399	12510.14
845.723	12467.65
846.047	12440.53
846.371	12368.45
846.695	12443.92
847.019	12323.7
847.343	12250.71
847.666	12222.46
847.99	12202.57
848.313	12118.51
848.637	12091.39
848.96	11995.35
849.284	11998.51
849.607	11929.81
849.931	11911.06
850.254	11823.6
850.577	11833.77
850.9	11648.01
851.223	11666.54
851.546	11587.22
851.869	11561.46
852.192	11570.95
852.515	11435.36
852.838	11462.48
853.161	11464.74
853.483	11373.22
853.806	11300.45
854.129	11343.84
854.451	11253
854.774	11237.4
855.096	11164.64
855.419	11146.78
855.741	11109.95
856.063	11083.06
856.385	11067.24
856.708	10998.99
857.03	10887.81
857.352	11024.98
857.674	10919.44
857.996	10967.13
858.318	10839.45
858.64	10860.24
858.961	10836.28
859.283	10736.85
859.605	10704.08
859.926	10723.52
860.248	10747.02
860.57	10647.81
860.891	10621.6
861.212	10572.79
861.534	10593.8
861.855	10550.64
862.176	10563.75
862.498	10642.62
862.819	10507.03
863.14	10504.99
863.461	10458.67
863.782	10507.7
864.103	10448.27
864.424	10358.1
864.745	10433.81
865.065	10308.39
865.386	10317.43
865.707	10329.86
866.027	10388.84
866.348	10334.83
866.668	10271.78
866.989	10176.41
867.309	10185.9
867.63	10136.64
867.95	10210.76
868.27	10114.95
868.59	10194.04
868.91	10143.19
869.23	10092.12
869.55	10093.03
869.87	10183.64
870.19	10077.66
870.51	10160.82
870.83	10095.06
871.15	9985.23
871.469	10009.19
871.789	9986.59
872.109	9979.36
872.428	9910.88
872.748	9941.62
873.067	9943.88
873.386	9886.7
873.706	9842.41
874.025	9825.91
874.344	9859.59
874.663	9839.47
874.982	9820.94
875.301	9812.81
875.62	9792.02
875.939	9712.7
876.258	9809.42
876.577	9768.74
876.896	9705.01
877.214	9657.33
877.533	9767.61
877.852	9714.28
878.17	9672.02
878.489	9715.41
878.807	9717.44
879.125	9589.54
879.444	9580.72
879.762	9568.52
880.08	9658.46
880.398	9517
880.716	9578.46
881.034	9571.91
881.352	9516.77
881.67	9455.98
881.988	9434.96
882.306	9442.87
882.624	9435.42
882.941	9360.62
883.259	9403.1
883.577	9267.96
883.894	9271.8
884.212	9351.12
884.529	9269.77
884.846	9256.66
885.164	9226.38
885.481	9153.16
885.798	9191.81
886.115	9188.42
886.432	9136.21
886.75	9094.86
887.067	9158.59
887.383	9091.02
887.7	9119.04
888.017	9027.97
888.334	9039.27
888.651	8987.97
888.967	8973.96
889.284	8931.7
889.6	8868.43
889.917	8825.94
890.233	8940.51
890.55	8828.2
890.866	8907.75
891.182	8795.43
891.498	8724.47
891.815	8696.68
892.131	8754.3
892.447	8714.53
892.763	8695.32
893.079	8666.17
893.395	8623.46
893.71	8587.75
894.026	8635.44
894.342	8592.95
894.657	8500.98
894.973	8480.41
895.289	8483.8
895.604	8478.6
895.92	8336.01
896.235	8385.05
896.55	8342.79
896.865	8306.18
897.181	8321.55
897.496	8319.06
897.811	8300.53
898.126	8239.97
898.441	8189.12
898.756	8172.17
899.071	8114.32
899.386	8087.65
899.7	8006.3
900.015	8023.02
900.33	7981.67
900.644	7927.21
900.959	7927.66
901.273	7971.73
901.588	7898.73
901.902	7818.28
902.216	7813.99
902.531	7781.45
902.845	7785.06
903.159	7719.08
903.473	7680.21
903.787	7662.36
904.101	7629.59
904.415	7649.02
904.729	7533.32
905.042	7524.28
905.356	7432.98
905.67	7534.9
905.984	7516.37
906.297	7461.46
906.611	7377.62
906.924	7446.32
907.237	7329.93
907.551	7311.63
907.864	7321.12
908.177	7281.35
908.491	7261.91
908.804	7215.81
909.117	7156.61
909.43	7178.98
909.743	7093.56
910.056	7105.08
910.368	7105.08
910.681	7039.32
910.994	6999.32
911.307	7016.5
911.619	6927.23
911.932	6944.63
912.244	6904.41
912.557	6903.73
912.869	6849.95
913.181	6836.61
913.494	6816.28
913.806	6704.64
914.118	6769.72
914.43	6691.53
914.742	6682.04
915.054	6661.93
915.366	6649.5
915.678	6638.2
915.99	6584.42
916.302	6520.46
916.613	6532.67
916.925	6474.59
917.236	6507.81
917.548	6446.12
917.859	6433.91
918.171	6394.59
918.482	6327.25
918.794	6357.98
919.105	6336.29
919.416	6261.71
919.727	6233.92
920.038	6230.98
920.349	6184.2
920.66	6106.46
920.971	6175.84
921.282	6166.35
921.593	6146.46
921.903	6081.61
922.214	6066.92
922.525	6067.37
922.835	5977.2
923.146	5947.37
923.456	5958.67
923.767	5954.83
924.077	5968.39
924.387	5885.45
924.697	5874.38
925.008	5895.4
925.318	5801.16
925.628	5841.84
925.938	5796.64
926.248	5764.55
926.558	5718.23
926.867	5716.19
927.177	5644.1
927.487	5650.66
927.796	5598.23
928.106	5642.3
928.416	5573.6
928.725	5537.89
929.034	5501.51
929.344	5541.73
929.653	5520.49
929.962	5468.74
930.271	5453.37
930.581	5431.68
930.89	5385.13
931.199	5354.17
931.508	5312.59
931.817	5330.44
932.125	5303.77
932.434	5292.7
932.743	5284.34
933.051	5231.68
933.36	5179.03
933.669	5154.4
933.977	5124.34
934.286	5165.47
934.594	5133.16
934.902	5112.82
935.21	5005.48
935.519	5054.74
935.827	5014.97
936.135	4985.14
936.443	5004.57
936.751	4948.08
937.059	4963.44
937.367	4883.9
937.674	4935.65
937.982	4863.11
938.29	4870.34
938.597	4849.77
938.905	4864.01
939.213	4780.62
939.52	4790.11
939.827	4778.59
940.135	4700.4
940.442	4711.25
940.749	4757.35
941.056	4678.03
941.363	4638.25
941.67	4683.68
941.977	4587.63
942.284	4577.92
942.591	4598.25
942.898	4541.99
943.205	4541.08
943.511	4536.11
943.818	4544.24
944.125	4477.81
944.431	4438.26
944.738	4430.35
945.044	4457.92
945.35	4413.63
945.657	4398.71
945.963	4407.53
946.269	4344.93
946.575	4345.38
946.881	4273.74
947.187	4281.43
947.493	4250.92
947.799	4304.93
948.105	4213.18
948.41	4172.73
948.716	4207.08
949.022	4192.39
949.327	4173.18
949.633	4142.9
949.938	4089.79
950.244	4141.32
950.549	4111.26
950.854	4073.3
951.16	4075.33
951.465	4026.29
951.77	4035.78
952.075	4034.2
952.38	3998.27
952.685	3967.31
952.99	3941.77
953.294	3923.24
953.599	3953.53
953.904	3865.62
954.209	3839.63
954.513	3845.51
954.818	3857.71
955.122	3805.73
955.426	3828.56
955.731	3823.36
956.035	3763.25
956.339	3763.7
956.643	3767.77
956.948	3661.33
957.252	3694.1
957.556	3682.57
957.86	3670.6
958.163	3669.24
958.467	3649.81
958.771	3675.12
959.075	3654.32
959.378	3640.99
959.682	3583.59
959.985	3592.41
960.289	3592.18
960.592	3558.28
960.896	3527.77
961.199	3521.45
961.502	3531.62
961.805	3506.53
962.108	3445.74
962.411	3433.31
962.714	3463.6
963.017	3450.26
963.32	3437.38
963.623	3443.93
963.926	3400.77
964.228	3370.26
964.531	3345.41
964.833	3358.29
965.136	3389.7
965.438	3308.57
965.741	3281
966.043	3305.18
966.345	3255.47
966.648	3248.46
966.95	3260.66
967.252	3232.19
967.554	3232.19
967.856	3197.16
968.158	3140.89
968.46	3185.64
968.761	3147.9
969.063	3152.42
969.365	3148.58
969.666	3108.35
969.968	3073.1
970.269	3054.79
970.571	3061.12
970.872	3045.3
971.174	3046.43
971.475	3039.2
971.776	3011.18
972.077	3024.06
972.378	2999.88
972.679	3017.51
972.98	2960.78
973.281	2966.89
973.582	2971.18
973.883	2941.8
974.183	2916.27
974.484	2901.58
974.785	2914.01
975.085	2881.92
975.386	2895.93
975.686	2872.65
975.986	2805.08
976.287	2850.05
976.587	2816.15
976.887	2811.64
977.187	2783.16
977.487	2748.81
977.787	2804.4
978.087	2752.43
978.387	2750.62
978.687	2723.95
978.987	2696.16
979.286	2690.73
979.586	2710.62
979.885	2700.23
980.185	2671.98
980.484	2665.88
980.784	2633.79
981.083	2647.35
981.382	2594.69
981.682	2639.66
981.981	2578.42
982.28	2568.93
982.579	2580.91
982.878	2559.44
983.177	2578.65
983.475	2554.47
983.774	2500
984.073	2516.28
984.372	2474.69
984.67	2551.08
984.969	2541.59
985.267	2479.21
985.566	2444.19
985.864	2458.65
986.162	2478.54
986.461	2443.06
986.759	2417.52
987.057	2389.27
987.355	2414.13
987.653	2389.05
987.951	2388.6
988.249	2396.96
988.547	2348.82
988.844	2351.31
989.142	2356.28
989.44	2297.98
989.737	2316.28
990.035	2317.18
990.332	2297.75
990.63	2280.35
990.927	2248.94
991.224	2249.16
991.521	2243.29
991.819	2234.7
992.116	2243.06
992.413	2228.6
992.71	2223.18
993.006	2229.5
993.303	2220.69
993.6	2195.15
993.897	2175.49
994.193	2167.81
994.49	2127.36
994.787	2151.99
995.083	2145.21
995.379	2138.66
995.676	2068.38
995.972	2096.17
996.268	2083.52
996.565	2081.26
996.861	2027.93
997.157	2069.51
997.453	2010.07
997.749	2038.77
998.044	1989.74
998.34	2026.57
998.636	1963.75
998.932	1980.02
999.227	1961.49
999.523	1982.5
999.818	1952.45
1000.114	1939.57
1000.409	1961.49
1000.704	1948.61
1001	1925.1
1001.295	1900.25
1001.59	1948.61
1001.885	1940.92
1002.18	1878.1
1002.475	1877.87
1002.77	1859.57
1003.065	1841.27
1003.359	1860.02
1003.654	1834.71
1003.949	1807.37
1004.243	1814.83
1004.538	1794.71
1004.832	1812.79
1005.127	1780.02
1005.421	1770.76
1005.715	1794.49
1006.009	1793.36
1006.304	1756.07
1006.598	1740.93
1006.892	1768.05
1007.186	1701.61
1007.48	1712.23
1007.773	1707.94
1008.067	1700.03
1008.361	1694.15
1008.655	1681.95
1008.948	1690.76
1009.242	1644.89
1009.535	1603.98
1009.829	1648.73
1010.122	1634.94
1010.415	1597.43
1010.708	1623.19
1011.001	1599.01
1011.295	1597.43
1011.588	1568.5
1011.881	1588.39
1012.173	1565.57
1012.466	1563.31
1012.759	1551.1
1013.052	1542.06
1013.344	1547.26
1013.637	1529.41
1013.93	1514.95
1014.222	1508.39
1014.514	1495.96
1014.807	1499.81
1015.099	1474.27
1015.391	1467.49
1015.683	1419.81
1015.976	1450.77
1016.268	1423.42
1016.56	1429.75
1016.851	1413.71
1017.143	1439.02
1017.435	1405.12
1017.727	1418.45
1018.018	1385.91
1018.31	1373.93
1018.602	1381.16
1018.893	1378.9
1019.185	1352.69
1019.476	1329.41
1019.767	1377.1
1020.058	1357.89
1020.35	1318.12
1020.641	1308.17
1020.932	1308.17
1021.223	1287.16
1021.514	1278.57
1021.804	1276.99
1022.095	1261.17
1022.386	1269.3
1022.677	1243.31
1022.967	1193.82
1023.258	1256.65
1023.548	1248.29
1023.839	1218.46
1024.129	1236.08
1024.419	1214.39
1024.709	1191.11
1025	1199.02
1025.29	1194.95
1025.58	1145.92
1025.87	1162.86
1026.16	1153.6
1026.449	1136.2
1026.739	1157.22
1027.029	1142.53
1027.319	1124.67
1027.608	1138.46
1027.898	1112.7
1028.187	1107.5
1028.477	1115.41
1028.766	1128.97
1029.055	1076.09
1029.344	1118.35
1029.634	1093.94
1029.923	1046.48
1030.212	1079.25
1030.501	1052.13
1030.79	1050.1
1031.078	1031.79
1031.367	1031.57
1031.656	1051.91
1031.945	1024.34
1032.233	1036.99
1032.522	1004.68
1032.81	1031.34
1033.099	1019.59
1033.387	997.45
1033.675	978.46
1033.963	983.43
1034.251	987.28
1034.54	977.79
1034.828	970.1
1035.116	947.5
1035.403	932.81
1035.691	960.38
1035.979	954.06
1036.267	949.54
1036.554	957.67
1036.842	949.54
1037.129	922.19
1037.417	918.13
1037.704	912.48
1037.992	895.98
1038.279	884.45
1038.566	897.79
1038.853	897.79
1039.14	897.79
