Data from hue_60_FLMS001491_5.txt Node
Date: Mon Feb 06 15:11:50 GMT 2017
User: dcchb
Spectrometer: FLMS00149
Trigger mode: 0
Integration Time (sec): 2.000000E-2
Scans to average: 10
Electric dark correction enabled: true
Nonlinearity correction enabled: false
Boxcar width: 0
XAxis mode: Wavelengths
Number of Pixels in Spectrum: 2048
>>>>>Begin Spectral Data<<<<<
341.393	-20.42
341.776	-20.42
342.16	-20.42
342.543	-63.13
342.927	-89.8
343.31	-60.42
343.693	-70.37
344.077	-60.87
344.46	-45.28
344.843	-53.87
345.226	-61.33
345.61	-31.04
345.993	-16.36
346.376	-6.41
346.759	18.45
347.142	20.25
347.525	39.46
347.908	51.89
348.291	59.8
348.674	102.96
349.057	113.13
349.44	113.13
349.823	165.11
350.206	172.57
350.588	182.96
350.971	210.31
351.354	258.89
351.737	251.21
352.119	249.85
352.502	267.93
352.884	297.53
353.267	285.78
353.65	295.05
354.032	312.45
354.414	327.14
354.797	331.43
355.179	329.17
355.562	312.68
355.944	349.06
356.326	335.73
356.709	331.88
357.091	341.38
357.473	354.93
357.855	363.3
358.238	354.48
358.62	353.13
359.002	343.64
359.384	350.19
359.766	356.06
360.148	359.23
360.53	337.31
360.912	340.7
361.294	351.32
361.676	357.65
362.057	323.07
362.439	326.23
362.821	348.15
363.203	343.64
363.584	330.3
363.966	324.43
364.348	326.23
364.729	354.03
365.111	347.25
365.493	352
365.874	330.53
366.256	320.13
366.637	333.92
367.019	327.14
367.4	323.3
367.781	318.78
368.163	323.3
368.544	332.34
368.925	305.67
369.306	302.73
369.688	317.42
370.069	328.95
370.45	316.29
370.831	337.76
371.212	306.8
371.593	325.1
371.974	346.12
372.355	316.52
372.736	330.98
373.117	329.17
373.498	315.16
373.879	319
374.26	324.43
374.641	310.42
375.021	316.29
375.402	325.56
375.783	316.74
376.163	317.87
376.544	310.19
376.925	365.1
377.305	340.7
377.686	341.83
378.066	329.4
378.447	337.76
378.827	306.8
379.208	343.41
379.588	328.95
379.968	319.23
380.349	337.31
380.729	353.13
381.109	327.14
381.489	326.91
381.87	335.27
382.25	350.41
382.63	339.57
383.01	330.53
383.39	324.43
383.77	360.36
384.15	343.41
384.53	353.13
384.91	349.28
385.29	347.02
385.67	341.38
386.049	342.05
386.429	340.7
386.809	352.22
387.189	348.61
387.568	352.9
387.948	363.07
388.328	368.04
388.707	363.52
389.087	371.2
389.466	349.96
389.846	359.23
390.225	364.88
390.605	375.27
390.984	383.18
391.363	354.03
391.743	372.11
392.122	372.79
392.501	370.3
392.881	379.79
393.26	384.31
393.639	370.08
394.018	373.69
394.397	381.83
394.776	382.28
395.155	390.41
395.534	368.04
395.913	384.99
396.292	409.4
396.671	403.07
397.05	385.22
397.429	364.2
397.808	377.76
398.186	371.66
398.565	412.56
398.944	398.1
399.323	384.54
399.701	394.93
400.08	376.4
400.458	387.25
400.837	395.39
401.215	410.75
401.594	402.84
401.972	394.71
402.351	392
402.729	422.73
403.107	411.2
403.486	400.36
403.864	401.94
404.242	420.7
404.62	425.21
404.999	392.9
405.377	419.57
405.755	414.37
406.133	403.52
406.511	428.83
406.889	417.98
407.267	413.46
407.645	402.39
408.023	425.67
408.401	444.2
408.779	449.17
409.156	430.64
409.534	451.43
409.912	440.81
410.29	428.15
410.667	422.28
411.045	445.1
411.422	445.78
411.8	483.29
412.178	466.8
412.555	474.48
412.933	475.83
413.31	470.41
413.687	473.8
414.065	474.93
414.442	463.41
414.819	486.46
415.197	489.39
415.574	464.08
415.951	494.59
416.328	491.65
416.705	492.56
417.082	478.77
417.46	533.23
417.837	512.9
418.214	503.63
418.591	497.76
418.967	522.16
419.344	505.89
419.721	516.51
420.098	521.48
420.475	515.61
420.852	519.45
421.228	513.57
421.605	524.2
421.982	533.91
422.358	543.18
422.735	554.25
423.111	534.14
423.488	559.9
423.864	561.48
424.241	554.02
424.617	558.54
424.994	557.64
425.37	559.9
425.746	557.64
426.123	549.96
426.499	572.56
426.875	574.59
427.251	594.48
427.627	600.58
428.003	596.28
428.379	605.78
428.756	584.98
429.132	594.02
429.507	610.29
429.883	623.18
430.259	613.23
430.635	631.09
431.011	611.2
431.387	614.36
431.763	633.12
432.138	623.18
432.514	653.91
432.89	676.96
433.265	663.63
433.641	674.25
434.016	666.11
434.392	680.12
434.767	671.99
435.143	670.86
435.518	683.97
435.894	682.38
436.269	678.77
436.644	676.51
437.02	714.25
437.395	720.35
437.77	717.64
438.145	723.29
438.52	708.37
438.895	744.75
439.271	736.85
439.646	737.3
440.021	724.19
440.395	738.2
440.77	763.06
441.145	752.44
441.52	738.65
441.895	769.61
442.27	774.13
442.645	744.53
443.019	773.68
443.394	790.18
443.769	794.7
444.143	786.79
444.518	785.66
444.892	777.07
445.267	783.85
445.641	779.1
446.016	785.43
446.39	822.49
446.764	782.95
447.139	796.28
447.513	806.67
447.887	824.75
448.262	829.05
448.636	823.4
449.01	823.85
449.384	825.43
449.758	848.71
450.132	842.6
450.506	852.77
450.88	864.53
451.254	850.51
451.628	862.49
452.002	897.07
452.376	876.28
452.75	894.36
453.123	907.01
453.497	930.74
453.871	913.11
454.244	921.25
454.618	933.9
454.992	934.35
455.365	961.7
455.739	981.13
456.112	980.91
456.486	991.3
456.859	956.27
457.232	1016.39
457.606	994.69
457.979	996.5
458.352	1039.21
458.725	1060
459.099	1037.18
459.472	1057.29
459.845	1076.27
460.218	1076.5
460.591	1098.19
460.964	1120.11
461.337	1124.41
461.71	1149.49
462.083	1169.38
462.456	1146.33
462.829	1165.53
463.201	1195.82
463.574	1188.36
463.947	1200.56
464.32	1223.84
464.692	1237.62
465.065	1245.53
465.438	1252.09
465.81	1297.28
466.183	1291.63
466.555	1342.03
466.928	1325.76
467.3	1363.5
467.672	1395.13
468.045	1394.68
468.417	1414.57
468.789	1456.83
469.161	1459.31
469.534	1520.33
469.906	1555.81
470.278	1530.27
470.65	1562.13
471.022	1609.59
471.394	1661.57
471.766	1688.01
472.138	1676.03
472.51	1746.76
472.882	1789.7
473.253	1818.4
473.625	1869.47
473.997	1916.7
474.369	1950.6
474.74	1956.02
475.112	2001.67
475.484	2080.76
475.855	2147.88
476.227	2173.64
476.598	2243.92
476.97	2243.7
477.341	2371.38
477.713	2400.3
478.084	2453.64
478.455	2525.5
478.827	2597.14
479.198	2708.09
479.569	2758.03
479.94	2853.85
480.311	2945.37
480.682	2999.84
481.053	3106.27
481.424	3235.99
481.795	3266.04
482.166	3398.24
482.537	3457.23
482.908	3561.63
483.279	3669.88
483.65	3758.01
484.021	3914.16
484.391	4028.51
484.762	4129.98
485.133	4234.83
485.503	4332.68
485.874	4468.05
486.244	4612.45
486.615	4756.85
486.985	4875.04
487.356	5028.94
487.726	5151.19
488.097	5342.6
488.467	5436.16
488.837	5607
489.207	5777.62
489.578	5906.2
489.948	5998.4
490.318	6225.74
490.688	6339.86
491.058	6590.93
491.428	6673.19
491.798	6829.34
492.168	7080.41
492.538	7193.62
492.908	7334.86
493.278	7463.9
493.648	7656.66
494.017	7904.79
494.387	8068.63
494.757	8174.84
495.126	8365.12
495.496	8524.66
495.866	8696.41
496.235	8848.27
496.605	9019.34
496.974	9211.2
497.344	9405.54
497.713	9550.85
498.082	9671.98
498.452	9932.54
498.821	10094.34
499.19	10220.21
499.559	10381.11
499.928	10497.72
500.298	10614.33
500.667	10803.02
501.036	10968.44
501.405	11135.22
501.774	11308.32
502.143	11426.06
502.512	11633.96
502.88	11824.92
503.249	11974.52
503.618	12108.98
503.987	12241.85
504.356	12414.05
504.724	12565.69
505.093	12689.75
505.462	12844.78
505.83	13090.19
506.199	13168.16
506.567	13425.1
506.936	13547.36
507.304	13744.19
507.672	13852.43
508.041	14055.36
508.409	14190.73
508.777	14450.38
509.145	14499.65
509.514	14661.9
509.882	14747.55
510.25	14859.41
510.618	15142.34
510.986	15088.78
511.354	15374.65
511.722	15548.43
512.09	15696
512.458	15737.13
512.826	16043.11
513.193	16106.16
513.561	16251.24
513.929	16392.03
514.297	16589.08
514.664	16722.64
515.032	16928.06
515.4	17174.38
515.767	17150.42
516.135	17428.16
516.502	17312.45
516.869	17658.66
517.237	17754.93
517.604	17746.57
517.972	18083.73
518.339	18252.99
518.706	18251.19
519.073	18410.28
519.44	18574.79
519.808	18885.52
520.175	18833.09
520.542	19138.4
520.909	19323.47
521.276	19264.27
521.643	19641.66
522.009	19772.5
522.376	19938.6
522.743	20105.6
523.11	20337.01
523.477	20450.9
523.843	20638.69
524.21	20807.28
524.577	20958.23
524.943	21128.63
525.31	21190.77
525.676	21409.75
526.043	21552.12
526.409	21700.14
526.776	21958.89
527.142	21962.05
527.508	22131.31
527.874	22356.16
528.241	22577.17
528.607	22557.51
528.973	22682.71
529.339	22899.65
529.705	23087.9
530.071	23250.15
530.437	23371.05
530.803	23515
531.169	23679.29
531.535	23789.8
531.901	23696.24
532.267	23968.32
532.632	24116.12
532.998	24129
533.364	24459.61
533.73	24473.4
534.095	24677.23
534.461	24703.45
534.826	24966.94
535.192	24980.5
535.557	25100.27
535.923	25151.34
536.288	25276.54
536.653	25412.13
537.019	25364.9
537.384	25482.86
537.749	25643.31
538.114	25662.29
538.479	25686.02
538.845	26060.25
539.21	25967.37
539.575	26118.78
539.94	26123.97
540.305	26289.62
540.67	26228.38
541.034	26461.37
541.399	26532.55
541.764	26694.13
542.129	26734.13
542.494	26808.48
542.858	26861.58
543.223	26851.64
543.587	27052.76
543.952	27017.51
544.316	27196.04
544.681	27265.64
545.045	27484.16
545.41	27558.29
545.774	27704.72
546.138	27614.1
546.503	27768.45
546.867	27792.4
547.231	28005.51
547.595	28028.33
547.959	28116.69
548.324	28060.19
548.688	28197.82
549.052	28434.2
549.416	28486.62
549.779	28511.48
550.143	28454.99
550.507	28856.78
550.871	28878.03
551.235	28846.61
551.599	29012.71
551.962	29195.98
552.326	29246.6
552.689	29332.48
553.053	29315.98
553.417	29507.61
553.78	29852.92
554.143	29711.45
554.507	29865.8
554.87	29970.2
555.234	30291.1
555.597	30058.33
555.96	30280.47
556.323	30426.23
556.686	30439.79
557.05	30675.04
557.413	30702.61
557.776	30710.97
558.139	31027.8
558.502	31069.83
558.865	31112.32
559.228	31431.18
559.59	31439.54
559.953	31476.38
560.316	31943.93
560.679	31792.3
561.041	32162.91
561.404	32094.66
561.767	32350.03
562.129	32445.16
562.492	32622.56
562.854	32666.85
563.217	32665.05
563.579	32843.35
563.941	33127.41
564.304	33173.73
564.666	33525.36
565.028	33535.76
565.39	33645.81
565.753	33686.26
566.115	33827.95
566.477	34055.74
566.839	34162.18
567.201	34285.79
567.563	34426.58
567.925	34655.95
568.287	34646.46
568.648	34631.55
569.01	34859.56
569.372	35118.77
569.734	34977.07
570.095	35137.3
570.457	35449.83
570.819	35410.51
571.18	35505.65
571.542	35881.23
571.903	35852.98
572.265	35848.69
572.626	35965.07
572.987	36124.84
573.349	36285.29
573.71	36346.98
574.071	36447.09
574.432	36519.18
574.794	36785.39
575.155	36766.41
575.516	36791.49
575.877	36863.8
576.238	36905.16
576.599	37132.27
576.96	37148.99
577.32	37094.99
577.681	37238.48
578.042	37462.66
578.403	37406.62
578.763	37494.97
579.124	37532.94
579.485	37635.76
579.845	37743.56
580.206	37694.29
580.566	37662.43
580.927	37818.36
581.287	37880.5
581.648	37798.24
582.008	38067.16
582.368	37895.19
582.728	38044.56
583.089	38070.1
583.449	38071.46
583.809	38118.46
584.169	38267.38
584.529	38054.96
584.889	38419.24
585.249	38233.03
585.609	38080.27
585.969	38298.57
586.329	38242.3
586.688	38221.51
587.048	38191.68
587.408	38146.71
587.768	38092.47
588.127	38285.91
588.487	38158.01
588.846	38560.03
589.206	38228.06
589.565	38201.62
589.925	38418.57
590.284	38370.66
590.643	38421.5
591.003	38522.97
591.362	38590.99
591.721	38503.08
592.08	38545.12
592.44	38629.63
592.799	38645
593.158	38560.71
593.517	38707.6
593.876	38744.66
594.235	38659.46
594.593	38749.4
594.952	38887.71
595.311	38593.48
595.67	38782.85
596.029	39092.45
596.387	39017.19
596.746	39203.18
597.104	38883.41
597.463	38956.41
597.822	39056.97
598.18	38921.6
598.538	38907.14
598.897	39224.65
599.255	38922.96
599.613	39356.85
599.972	39269.39
600.33	39351.42
600.688	39114.37
601.046	39391.2
601.404	39592.32
601.762	39501.93
602.12	39582.83
602.478	39661.47
602.836	39593.68
603.194	39488.14
603.552	39664.41
603.91	39459.22
604.268	39678.19
604.625	39588.48
604.983	39857.17
605.341	39649.72
605.698	39948.02
606.056	40023.5
606.413	39976.27
606.771	40136.71
607.128	40142.59
607.485	39990.28
607.843	40260.1
608.2	40420.1
608.557	40472.3
608.914	40412.19
609.272	40556.59
609.629	40673.42
609.986	40731.5
610.343	40669.58
610.7	40933.98
611.057	40791.39
611.414	40877.71
611.771	40859.18
612.127	40939.63
612.484	40974.21
612.841	41254.65
613.198	41033.86
613.554	41119.51
613.911	41215.1
614.267	41379.39
614.624	41179.17
614.98	41389.34
615.337	41624.13
615.693	41521.54
616.05	41511.59
616.406	41674.53
616.762	41664.58
617.118	41647.18
617.475	41677.01
617.831	41831.36
618.187	41831.58
618.543	42004.01
618.899	42109.32
619.255	42164.91
619.611	42079.03
619.967	42274.96
620.323	42320.84
620.678	42296.66
621.034	42183.89
621.39	42151.35
621.746	42212.82
622.101	42596.08
622.457	42349.08
622.812	42433.38
623.168	42382.76
623.523	42423.88
623.879	42576.2
624.234	42338.01
624.589	42684.22
624.945	42591.34
625.3	42716.76
625.655	42595.86
626.01	42549.3
626.365	42638.57
626.72	42681.28
627.075	42601.96
627.43	42589.98
627.785	42624.56
628.14	42703.88
628.495	42736.64
628.85	42701.84
629.205	42439.48
629.559	42802.18
629.914	42723.76
630.269	42727.15
630.623	42575.97
630.978	42523.99
631.332	42639.47
631.687	42700.26
632.041	42507.72
632.396	42654.61
632.75	42457.33
633.104	42624.78
633.459	42352.47
633.813	42552.47
634.167	42380.27
634.521	42407.39
634.875	42474.5
635.229	42436.09
635.583	42295.53
635.937	42260.72
636.291	42240.39
636.645	42299.82
636.999	42129.43
637.352	42226.15
637.706	42121.52
638.06	42290.1
638.413	42206.04
638.767	42048.98
639.121	42101.41
639.474	41856.89
639.828	41808.08
640.181	42023.44
640.534	42023.44
640.888	41855.54
641.241	41640.63
641.594	41827.74
641.947	41905.25
642.301	41757.24
642.654	41771.7
643.007	41850.34
643.36	41797.46
643.713	41646.28
644.066	41876.33
644.419	41548.88
644.771	41272.73
645.124	41018.27
645.477	40884.04
645.83	40728.11
646.182	40531.5
646.535	40405.41
646.888	40514.78
647.24	40288.8
647.593	40613.99
647.945	40385.07
648.298	40251.29
648.65	40355.92
649.002	40096.49
649.355	40233.89
649.707	40245.18
650.059	40414.22
650.411	40934.88
650.763	40761.1
651.115	41230.47
651.467	41030.93
651.819	41130.81
652.171	40982.34
652.523	40887.65
652.875	40976.69
653.227	40772.18
653.578	40928.56
653.93	40804.27
654.282	40717.04
654.633	40791.16
654.985	40720.65
655.337	40794.55
655.688	40750.93
656.039	40894.66
656.391	40444.95
656.742	40629.58
657.094	40717.71
657.445	40769.92
657.796	40553.43
658.147	40549.81
658.498	40508
658.849	40647.89
659.2	40403.15
659.551	40357.72
659.902	40574.67
660.253	40412.41
660.604	40499.64
660.955	40336.03
661.306	40569.92
661.656	40422.13
662.007	40335.58
662.358	40472.52
662.708	40442.24
663.059	40347.1
663.409	40198.63
663.76	40468.46
664.11	40272.53
664.461	40522.01
664.811	40328.12
665.161	40355.46
665.511	40261.23
665.862	40258.07
666.212	40471.39
666.562	40374.9
666.912	40277.5
667.262	40283.38
667.612	40270.04
667.962	40324.05
668.312	40191.4
668.662	40424.62
669.011	40230.5
669.361	40117.96
669.711	40170.61
670.06	40031.63
670.41	40032.53
670.76	40153.66
671.109	40218.97
671.459	40071.18
671.808	39978.07
672.157	40086.77
672.507	39819.21
672.856	39698.08
673.205	39944.63
673.554	39891.75
673.904	39866.21
674.253	40123.38
674.602	39961.8
674.951	39364.76
675.3	39273.91
675.649	39757.06
675.998	39688.14
676.346	39884.52
676.695	39954.12
677.044	39684.97
677.393	39988.92
677.741	39776.04
678.09	39567.69
678.438	39506.9
678.787	39690.85
679.135	39642.04
679.484	39409.73
679.832	39547.12
680.181	39273.23
680.529	39478.88
680.877	39350.07
681.225	39274.59
681.573	39580.8
681.922	39242.95
682.27	39114.37
682.618	39143.52
682.966	39042.73
683.314	39070.53
683.661	38974.94
684.009	38804.77
684.357	38836.41
684.705	38764.55
685.053	38828.27
685.4	38694.49
685.748	38504.89
686.095	38569.07
686.443	38327.72
686.79	38306.03
687.138	38287.72
687.485	38252.47
687.832	38064
688.18	38137.67
688.527	38013.38
688.874	37935.64
689.221	37937.22
689.568	37785.14
689.915	37762.31
690.262	37578.36
690.609	37638.25
690.956	37517.57
691.303	37452.04
691.65	37285.94
691.997	37245.49
692.344	37008.43
692.69	37125.72
693.037	37034.42
693.383	36762.56
693.73	36896.35
694.077	36675.34
694.423	36649.35
694.769	36429.47
695.116	36493.19
695.462	36407.77
695.808	36323.03
696.155	36282.8
696.501	36157.61
696.847	36051.17
697.193	35920.33
697.539	35907.45
697.885	35730.05
698.231	35672.2
698.577	35665.19
698.923	35653.44
699.269	35381.36
699.614	35297.52
699.96	35173
700.306	35201.48
700.651	35044.42
700.997	34984.76
701.342	34890.52
701.688	34906.79
702.033	34777.98
702.379	34835.61
702.724	34691.88
703.069	34776.18
703.415	34426.81
703.76	34397.43
704.105	34439.46
704.45	34274.04
704.795	34038.34
705.14	33913.83
705.485	33968.51
705.83	33850.78
706.175	33882.87
706.52	33761.97
706.865	33695.53
707.209	33601.97
707.554	33556.55
707.899	33537.56
708.243	33388.87
708.588	33360.62
708.932	32975.77
709.277	33111.14
709.621	33079.05
709.966	32889.22
710.31	33048.31
710.654	32650.81
710.998	32713.86
711.342	32759.05
711.687	32653.97
712.031	32524.26
712.375	32428.67
712.719	32382.79
713.063	32317.26
713.407	32395.9
713.75	32147.09
714.094	32217.83
714.438	32122.69
714.782	32065.29
715.125	31838.4
715.469	31980.32
715.812	31813.99
716.156	31722.7
716.499	31715.69
716.843	31804.95
717.186	31486.54
717.53	31715.92
717.873	31751.85
718.216	31501.23
718.559	31325.19
718.902	31048.59
719.246	31254.69
719.589	31130.62
719.932	31049.49
720.275	31061.25
720.617	31107.8
720.96	31030.29
721.303	31022.15
721.646	30870.52
721.989	30801.59
722.331	30807.24
722.674	30706.68
723.016	30760.69
723.359	30728.6
723.701	30780.12
724.044	30574.7
724.386	30375.61
724.729	30493.8
725.071	30357.76
725.413	30329.74
725.755	30305.33
726.097	30181.04
726.439	30076.41
726.782	30054.04
727.124	30204.09
727.465	29993.25
727.807	29996.87
728.149	29856.08
728.491	29792.8
728.833	29867.38
729.175	29806.14
729.516	29710.77
729.858	29722.75
730.199	29791.45
730.541	29638.68
730.882	29520.49
731.224	29631.45
731.565	29434.4
731.906	29490.67
732.248	29400.5
732.589	29338.8
732.93	29093.16
733.271	29245.7
733.612	29242.08
733.953	29087.29
734.294	29139.04
734.635	28961.41
734.976	28880.96
735.317	28975.65
735.658	28966.39
735.999	28859.04
736.339	28751.93
736.68	28961.64
737.021	28864.47
737.361	28778.37
737.702	28873.96
738.042	28643.91
738.383	28604.59
738.723	28701.53
739.063	28547.87
739.404	28517.13
739.744	28384.25
740.084	28438.72
740.424	28414.31
740.764	28309.91
741.104	28477.36
741.444	28152.4
741.784	28231.04
742.124	28231.49
742.464	28124.6
742.804	28120.53
743.143	27930.03
743.483	28072.62
743.823	27905.17
744.162	27840.31
744.502	27777.26
744.841	27797.38
745.181	27904.72
745.52	27767.32
745.86	27747.66
746.199	27593.99
746.538	27585.86
746.877	27652.3
747.216	27602.35
747.556	27596.7
747.895	27541.11
748.234	27301.57
748.573	27383.38
748.911	27215.7
749.25	27207.11
749.589	27087.11
749.928	27200.78
750.267	27153.33
750.605	27120.11
750.944	27027
751.283	26849.6
751.621	26960.34
751.96	26778.65
752.298	26812.54
752.636	26844.63
752.975	26628.37
753.313	26657.75
753.651	26723.51
753.989	26617.75
754.327	26493.68
754.666	26347.92
755.004	26508.14
755.342	26449.39
755.679	26388.15
756.017	26222.05
756.355	26261.37
756.693	26174.59
757.031	26163.97
757.368	26082.39
757.706	25981.6
758.044	25836.07
758.381	25956.97
758.719	25709.97
759.056	25682.18
759.394	25661.39
759.731	25468.17
760.068	25591.56
760.405	25490.09
760.743	25296.2
761.08	25308.63
761.417	25145.69
761.754	25082.19
762.091	25142.76
762.428	25152.02
762.765	24889.66
763.102	24891.46
763.438	24794.74
763.775	24661.87
764.112	24718.14
764.449	24661.19
764.785	24602.66
765.122	24344.59
765.458	24310.01
765.795	24269.33
766.131	24269.11
766.467	24074.08
766.804	23997.48
767.14	23886.29
767.476	23940.3
767.812	23800.87
768.148	23786.63
768.485	23576.7
768.821	23539.64
769.157	23509.13
769.492	23433.42
769.828	23501.67
770.164	23230.49
770.5	23117.05
770.836	23103.71
771.171	23046.54
771.507	22869.14
771.842	22806.77
772.178	22747.79
772.513	22620.56
772.849	22634.35
773.184	22577.17
773.519	22602.26
773.855	22466.22
774.19	22348.03
774.525	22242.04
774.86	22155.26
775.195	22156.62
775.53	22087.24
775.865	21874.82
776.2	21691.1
776.535	21608.84
776.87	21644.54
777.205	21524.32
777.539	21499.24
777.874	21527.03
778.209	21333.37
778.543	21351.22
778.878	21214.05
779.212	21095.41
779.547	21048.85
779.881	21082.75
780.215	20851.12
780.55	20948.74
780.884	20833.94
781.218	20750.56
781.552	20623.1
781.886	20615.42
782.22	20457.68
782.554	20465.14
782.888	20296.1
783.222	20195.32
783.556	20185.15
783.889	20113.51
784.223	19894.76
784.557	19964.14
784.89	19913.29
785.224	19753.52
785.557	19643.01
785.891	19604.15
786.224	19658.38
786.558	19657.03
786.891	19401.44
787.224	19340.2
787.557	19332.97
787.891	19256.58
788.224	19234.89
788.557	19133.65
788.89	19168.45
789.223	19115.57
789.556	18950.83
789.888	18843.04
790.221	18730.04
790.554	18674.45
790.887	18550.61
791.219	18519.2
791.552	18488.02
791.884	18448.7
792.217	18349.72
792.549	18352.2
792.882	18203.96
793.214	18054.13
793.546	18175.93
793.879	18037.41
794.211	17937.3
794.543	17996.28
794.875	17911.31
795.207	17887.58
795.539	17719.68
795.871	17778.88
796.203	17603.07
796.535	17592.22
796.867	17463.64
797.198	17424.54
797.53	17353.58
797.862	17302.29
798.193	17387.03
798.525	17271.1
798.856	17322.62
799.188	17054.16
799.519	17067.49
799.85	16987.27
800.182	16924.89
800.513	16890.77
800.844	16787.27
801.175	16872.01
801.506	16793.82
801.837	16667.73
802.168	16658.46
802.499	16648.07
802.83	16500.72
803.161	16473.61
803.491	16538.92
803.822	16441.06
804.153	16349.54
804.483	16222.31
804.814	16153.16
805.145	16199.72
805.475	16204.23
805.805	16189.09
806.136	16044.69
806.466	16056.22
806.796	15962.66
807.126	15886.96
807.457	15814.64
807.787	15842.66
808.117	15795.88
808.447	15865.71
808.777	15717.69
809.107	15644.93
809.436	15600.18
809.766	15656.23
810.096	15599.28
810.426	15546.17
810.755	15477.7
811.085	15443.58
811.414	15445.61
811.744	15312.73
812.073	15297.59
812.403	15248.1
812.732	15183.24
813.061	15106.18
813.39	15068.45
813.719	15060.08
814.049	15094.21
814.378	15074.77
814.707	14941.67
815.036	15028.9
815.365	14860.77
815.693	14813.09
816.022	14761.34
816.351	14703.26
816.68	14671.39
817.008	14700.09
817.337	14550.95
817.665	14594.11
817.994	14602.92
818.322	14571.06
818.651	14466.2
818.979	14461
819.307	14458.29
819.636	14414.45
819.964	14268.24
820.292	14377.62
820.62	14331.06
820.948	14250.16
821.276	14337.84
821.604	14227.79
821.932	14249.48
822.259	14333.78
822.587	14257.39
822.915	14274.12
823.243	14277.96
823.57	14174.23
823.898	14241.57
824.225	14109.6
824.553	14276.15
824.88	14228.69
825.207	14243.16
825.535	14221.24
825.862	14263.04
826.189	14221.91
826.516	14277.73
826.843	14291.74
827.17	14269.6
827.497	14238.41
827.824	14229.82
828.151	14199.32
828.478	14167.68
828.805	14196.38
829.131	14180.11
829.458	14167.23
829.785	14129.94
830.111	14185.08
830.438	14201.35
830.764	14140.56
831.09	14174.91
831.417	14061.24
831.743	14269.6
832.069	14103.27
832.395	14063.95
832.722	14171.97
833.048	14142.37
833.374	14153.22
833.7	14018.08
834.026	14064.4
834.351	14103.27
834.677	14014.01
835.003	14035.7
835.329	14072.09
835.654	13940.11
835.98	13913.67
836.306	13935.59
836.631	13851.75
836.956	13939.89
837.282	13945.31
837.607	13852.88
837.932	13768.37
838.258	13823.96
838.583	13717.07
838.908	13693.34
839.233	13746.22
839.558	13693.11
839.883	13620.8
840.208	13582.61
840.533	13593
840.858	13660.35
841.182	13587.13
841.507	13574.47
841.832	13474.36
842.156	13547.81
842.481	13442.73
842.805	13434.36
843.13	13446.34
843.454	13372.22
843.778	13336.74
844.103	13246.12
844.427	13263.52
844.751	13276.18
845.075	13241.37
845.399	13137.87
845.723	13141.94
846.047	13149.85
846.371	13035.96
846.695	12971.78
847.019	12894.72
847.343	12853.81
847.666	12783.08
847.99	12728.85
848.313	12743.99
848.637	12683.88
848.96	12597.32
849.284	12571.79
849.607	12491.11
849.931	12455.41
850.254	12330.21
850.577	12332.7
850.9	12242.76
851.223	12326.37
851.546	12099.26
851.869	12072.82
852.192	12179.26
852.515	12041.63
852.838	12018.13
853.161	11977.23
853.483	11916.66
853.806	11921.64
854.129	11899.04
854.451	11833.28
854.774	11805.93
855.096	11713.51
855.419	11727.06
855.741	11653.17
856.063	11594.64
856.385	11611.36
856.708	11483.23
857.03	11507.86
857.352	11509.9
857.674	11453.4
857.996	11469.67
858.318	11316.91
858.64	11378.37
858.961	11346.51
859.283	11264.93
859.605	11222.9
859.926	11267.87
860.248	11242.56
860.57	11110.81
860.891	11156.46
861.212	11155.33
861.534	11085.95
861.855	11066.74
862.176	11063.35
862.498	11059.06
862.819	10979.51
863.14	10970.93
863.461	10922.11
863.782	10897.71
864.103	10866.97
864.424	10924.6
864.745	10864.26
865.065	10839.63
865.386	10792.85
865.707	10816.81
866.027	10806.18
866.348	10732.29
866.668	10744.94
866.989	10680.76
867.309	10609.13
867.63	10628.34
867.95	10624.95
868.27	10627.88
868.59	10564.16
868.91	10616.36
869.23	10575.23
869.55	10582.91
869.87	10564.16
870.19	10567.55
870.51	10598.51
870.83	10535.68
871.15	10415.91
871.469	10502.01
871.789	10454.78
872.109	10450.49
872.428	10380.43
872.748	10366.65
873.067	10377.04
873.386	10401.45
873.706	10371.62
874.025	10342.92
874.344	10272.87
874.663	10355.35
874.982	10274.67
875.301	10284.16
875.62	10228.8
875.939	10198.52
876.258	10238.52
876.577	10222.25
876.896	10146.32
877.214	10174.56
877.533	10125.52
877.852	10095.47
878.17	10131.85
878.489	10080.78
878.807	10069.71
879.125	10065.41
879.444	10046.66
879.762	10054.79
880.08	10036.04
880.398	10011.63
880.716	9991.06
881.034	9869.26
881.352	9922.14
881.67	9854.12
881.988	9915.59
882.306	9900.67
882.624	9869.03
882.941	9790.17
883.259	9761.01
883.577	9723.28
883.894	9718.3
884.212	9709.26
884.529	9657.06
884.846	9709.26
885.164	9605.31
885.481	9654.35
885.798	9652.54
886.115	9492.55
886.432	9529.83
886.75	9548.14
887.067	9538.2
887.383	9506.78
887.7	9489.38
888.017	9469.95
888.334	9409.39
888.651	9420.23
888.967	9428.14
889.284	9326.9
889.6	9275.6
889.917	9260.46
890.233	9208.26
890.55	9185.44
890.866	9224.08
891.182	9226.57
891.498	9171.43
891.815	9084.87
892.131	9094.37
892.447	9042.84
892.763	9011.43
893.079	8984.76
893.395	9028.15
893.71	8952.9
894.026	9025.67
894.342	8974.59
894.657	8850.76
894.973	8800.14
895.289	8857.76
895.604	8867.03
895.92	8698.67
896.235	8733.47
896.55	8748.16
896.865	8727.82
897.181	8698.67
897.496	8620.03
897.811	8579.8
898.126	8555.4
898.441	8513.14
898.756	8480.14
899.071	8502.06
899.386	8411.67
899.7	8408.51
900.015	8326.25
900.33	8252.13
900.644	8314.95
900.959	8248.51
901.273	8278.34
901.588	8265.46
901.902	8218.91
902.216	8158.12
902.531	8168.74
902.845	8179.36
903.159	8074.28
903.473	7974.85
903.787	8019.82
904.101	7963.55
904.415	8026.14
904.729	7942.53
905.042	7898.92
905.356	7928.07
905.67	7829.54
905.984	7807.17
906.297	7820.95
906.611	7793.38
906.924	7719.03
907.237	7749.32
907.551	7700.5
907.864	7626.38
908.177	7569.89
908.491	7592.26
908.804	7560.17
909.117	7530.56
909.43	7471.81
909.743	7430
910.056	7387.52
910.368	7427.97
910.681	7395.43
910.994	7395.43
911.307	7256.45
911.619	7253.06
911.932	7274.75
912.244	7238.59
912.557	7222.32
912.869	7170.35
913.181	7093.51
913.494	7086.28
913.806	7034.31
914.118	7045.83
914.43	6956.79
914.742	7028.88
915.054	6986.85
915.366	6980.75
915.678	6954.08
915.99	6931.71
916.302	6843.35
916.613	6806.06
916.925	6826.18
917.236	6779.85
917.548	6691.04
917.859	6697.37
918.171	6678.38
918.482	6642.45
918.794	6666.41
919.105	6587.09
919.416	6551.61
919.727	6558.84
920.038	6545.73
920.349	6491.95
920.66	6436.36
920.971	6438.39
921.282	6430.25
921.593	6328.34
921.903	6352.06
922.214	6335.12
922.525	6332.63
922.835	6281.78
923.146	6221.22
923.456	6189.36
923.767	6179.87
924.077	6173.99
924.387	6175.8
924.697	6138.06
925.008	6112.52
925.318	6126.08
925.628	6084.95
925.938	6024.16
926.248	5940.55
926.558	5920.21
926.867	5969.25
927.177	5858.74
927.487	5884.51
927.796	5833.21
928.106	5783.94
928.416	5830.27
928.725	5772.42
929.034	5753.66
929.344	5750.05
929.653	5733.32
929.962	5680.67
930.271	5639.09
930.581	5676.38
930.89	5600.9
931.199	5588.47
931.508	5557.51
931.817	5562.25
932.125	5546.89
932.434	5532.2
932.743	5426.89
933.051	5425.99
933.36	5430.96
933.669	5413.78
933.977	5390.96
934.286	5357.97
934.594	5367.91
934.902	5323.39
935.21	5344.41
935.519	5308.93
935.827	5263.05
936.135	5219.89
936.443	5194.13
936.751	5182.38
937.059	5131.31
937.367	5105.32
937.674	5142.15
937.982	5085.88
938.29	5043.85
938.597	5044.53
938.905	5047.92
939.213	4986.9
939.52	5007.92
939.827	4981.71
940.135	4932.67
940.442	4918.66
940.749	4914.36
941.056	4928.37
941.363	4830.75
941.67	4901.26
941.977	4800.69
942.284	4809.51
942.591	4769.28
942.898	4764.76
943.205	4737.87
943.511	4689.28
943.818	4728.83
944.125	4653.13
944.431	4689.06
944.738	4665.78
945.044	4611.77
945.35	4567.48
945.657	4566.57
945.963	4583.75
946.269	4556.63
946.575	4564.54
946.881	4526.8
947.187	4459.68
947.493	4456.3
947.799	4484.09
948.105	4420.36
948.41	4386.69
948.716	4405.45
949.022	4392.57
949.327	4348.73
949.633	4271.22
949.938	4273.48
950.244	4336.52
950.549	4249.52
950.854	4252.23
951.16	4196.19
951.465	4187.6
951.77	4238.67
952.075	4175.17
952.38	4164.55
952.685	4158.45
952.99	4094.27
953.294	4120.26
953.599	4082.97
953.904	4087.72
954.209	4041.16
954.513	4040.71
954.818	4018.79
955.122	3988.51
955.426	3964.56
955.731	3995.97
956.035	3932.47
956.339	3958.68
956.643	3927.27
956.948	3878.23
957.252	3898.12
957.556	3903.99
957.86	3872.13
958.163	3851.57
958.467	3807.27
958.771	3816.54
959.075	3781.06
959.378	3741.51
959.682	3778.35
959.985	3735.86
960.289	3689.31
960.592	3719.82
960.896	3714.17
961.199	3633.49
961.502	3676.43
961.805	3643.89
962.108	3622.64
962.411	3632.14
962.714	3591.23
963.017	3545.13
963.32	3568.18
963.623	3525.25
963.926	3488.19
964.228	3500.61
964.531	3507.85
964.833	3499.94
965.136	3434.4
965.438	3454.74
965.741	3417.68
966.043	3412.93
966.345	3443.21
966.648	3400.05
966.95	3344.23
967.252	3389.88
967.554	3369.32
967.856	3327.96
968.158	3308.75
968.46	3276.44
968.761	3284.8
969.063	3304.24
969.365	3234.86
969.666	3261.52
969.968	3201.86
970.269	3225.14
970.571	3217.46
970.872	3195.99
971.174	3201.86
971.475	3156.89
971.776	3143.56
972.077	3181.07
972.378	3155.99
972.679	3101.98
972.98	3114.64
973.281	3073.28
973.582	3068.31
973.883	3074.18
974.183	3052.49
974.484	3041.19
974.785	2991.7
975.085	3017.01
975.386	2991.25
975.686	2980.63
975.986	2948.99
976.287	2941.98
976.587	2937.01
976.887	2935.66
977.187	2870.12
977.487	2842.78
977.787	2894.08
978.087	2873.51
978.387	2876.68
978.687	2834.64
978.987	2812.04
979.286	2825.15
979.586	2831.03
979.885	2811.14
980.185	2789.67
980.484	2746.74
980.784	2749.22
981.083	2728.88
981.382	2712.39
981.682	2703.8
981.981	2710.13
982.28	2696.57
982.579	2675.33
982.878	2681.88
983.177	2661.31
983.475	2682.1
983.774	2629.45
984.073	2629.22
984.372	2587.42
984.67	2599.85
984.969	2600.98
985.267	2592.62
985.566	2567.53
985.864	2588.77
986.162	2589.68
986.461	2537.7
986.759	2536.12
987.057	2511.26
987.355	2520.98
987.653	2498.15
987.951	2478.49
988.249	2425.84
988.547	2465.16
988.844	2459.51
989.142	2433.75
989.44	2437.14
989.737	2454.54
990.035	2427.87
990.332	2384.94
990.63	2366.41
990.927	2367.54
991.224	2335.45
991.521	2355.33
991.819	2323.24
992.116	2372.06
992.413	2318.95
992.71	2306.52
993.006	2305.39
993.303	2262.23
993.6	2256.35
993.897	2280.53
994.193	2266.07
994.49	2219.74
994.787	2211.61
995.083	2231.72
995.379	2224.94
995.676	2199.41
995.972	2200.54
996.268	2187.88
996.565	2160.31
996.861	2170.03
997.157	2153.98
997.453	2147.43
997.749	2126.64
998.044	2133.87
998.34	2078.5
998.636	2102.91
998.932	2091.39
999.227	2062.69
999.523	2062.46
999.818	2057.49
1000.114	2061.78
1000.409	2057.71
1000.704	2029.47
1001	1990.37
1001.295	1983.37
1001.59	1968.68
1001.885	1958.96
1002.18	1961.9
1002.475	1948.79
1002.77	1951.05
1003.065	1936.81
1003.359	1947.66
1003.654	1922.12
1003.949	1911.05
1004.243	1904.05
1004.538	1875.35
1004.832	1864.95
1005.127	1890.71
1005.421	1846.65
1005.715	1865.63
1006.009	1835.12
1006.304	1853.43
1006.598	1859.3
1006.892	1811.17
1007.186	1781.11
1007.48	1763.48
1007.773	1768.68
1008.067	1766.42
1008.361	1721.68
1008.655	1739.3
1008.948	1729.59
1009.242	1737.04
1009.535	1733.88
1009.829	1691.4
1010.122	1708.34
1010.415	1680.78
1010.708	1691.85
1011.001	1645.3
1011.295	1644.17
1011.588	1645.3
1011.881	1672.41
1012.173	1629.02
1012.466	1617.5
1012.759	1596.26
1013.052	1632.87
1013.344	1603.49
1013.637	1585.41
1013.93	1566.88
1014.222	1588.12
1014.514	1532.76
1014.807	1562.59
1015.099	1523.94
1015.391	1535.47
1015.683	1515.36
1015.976	1538.86
1016.268	1493.44
1016.56	1488.46
1016.851	1502.02
1017.143	1471.51
1017.435	1462.7
1017.727	1461.12
1018.018	1457.96
1018.31	1426.77
1018.602	1396.71
1018.893	1417.51
1019.185	1406.66
1019.476	1427.9
1019.767	1431.74
1020.058	1410.05
1020.35	1392.42
1020.641	1367.56
1020.932	1392.65
1021.223	1381.35
1021.514	1366.21
1021.804	1335.93
1022.095	1308.58
1022.386	1321.01
1022.677	1326.43
1022.967	1319.88
1023.258	1297.73
1023.548	1289.6
1023.839	1284.85
1024.129	1256.61
1024.419	1273.1
1024.709	1275.59
1025	1255.25
1025.29	1212.31
1025.58	1250.28
1025.87	1214.8
1026.16	1204.63
1026.449	1221.8
1026.739	1208.7
1027.029	1183.61
1027.319	1178.42
1027.608	1177.06
1027.898	1168.7
1028.187	1145.87
1028.477	1168.25
1028.766	1170.51
1029.055	1118.53
1029.344	1153.78
1029.634	1140.9
1029.923	1140.9
1030.212	1126.44
1030.501	1103.62
1030.79	1112.88
1031.078	1082.6
1031.367	1081.92
1031.656	1052.32
1031.945	1062.03
1032.233	1051.86
1032.522	1067.01
1032.81	1051.19
1033.099	1067.68
1033.387	1043.28
1033.675	1041.24
1033.963	993.34
1034.251	1040.79
1034.54	1000.11
1034.828	1029.27
1035.116	1008.25
1035.403	988.59
1035.691	982.04
1035.979	979.55
1036.267	991.3
1036.554	937.07
1036.842	952.88
1037.129	982.49
1037.417	920.57
1037.704	949.95
1037.992	927.8
1038.279	932.09
1038.566	937.07
1038.853	937.07
1039.14	937.07
