Data from hue_30_FLMS001491_16.txt Node
Date: Mon Feb 06 15:04:49 GMT 2017
User: dcchb
Spectrometer: FLMS00149
Trigger mode: 0
Integration Time (sec): 2.000000E-2
Scans to average: 10
Electric dark correction enabled: true
Nonlinearity correction enabled: false
Boxcar width: 0
XAxis mode: Wavelengths
Number of Pixels in Spectrum: 2048
>>>>>Begin Spectral Data<<<<<
341.393	-31.28
341.776	-31.28
342.16	-31.28
342.543	-40.32
342.927	-71.51
343.31	-63.37
343.693	-55.01
344.077	-61.34
344.46	-68.8
344.843	-64.96
345.226	-36.26
345.61	-40.1
345.993	-24.28
346.376	-7.56
346.759	24.99
347.142	32.22
347.525	46.45
347.908	48.49
348.291	68.37
348.674	97.98
349.057	103.18
349.44	146.11
349.823	155.83
350.206	151.08
350.588	194.92
350.971	189.95
351.354	206
351.737	230.86
352.119	230.86
352.502	250.74
352.884	263.17
353.267	288.93
353.65	281.02
354.032	295.03
354.414	312.44
354.797	302.27
355.179	330.06
355.562	306.56
355.944	342.04
356.326	326.9
356.709	339.55
357.091	318.31
357.473	337.75
357.855	339.1
358.238	338.2
358.62	334.13
359.002	333.23
359.384	342.49
359.766	330.29
360.148	323.96
360.53	359.21
360.912	356.28
361.294	363.73
361.676	342.49
362.057	330.06
362.439	319.89
362.821	338.65
363.203	335.03
363.584	329.38
363.966	317.86
364.348	331.42
364.729	322.83
365.111	311.98
365.493	303.17
365.874	316.5
366.256	309.27
366.637	314.7
367.019	297.52
367.4	321.02
367.781	308.59
368.163	308.14
368.544	314.47
368.925	302.49
369.306	334.81
369.688	284.87
370.069	303.4
370.45	321.02
370.831	325.99
371.212	325.77
371.593	312.44
371.974	319.21
372.355	296.16
372.736	316.5
373.117	297.29
373.498	317.41
373.879	317.63
374.26	317.41
374.641	327.35
375.021	308.14
375.402	329.61
375.783	330.06
376.163	328.03
376.544	326.22
376.925	334.36
377.305	309.05
377.686	335.03
378.066	313.11
378.447	321.47
378.827	319.44
379.208	333.23
379.588	317.63
379.968	325.09
380.349	340.46
380.729	323.06
381.109	313.34
381.489	316.73
381.87	344.98
382.25	354.69
382.63	347.01
383.01	323.28
383.39	347.24
383.77	351.3
384.15	335.94
384.53	351.3
384.91	328.93
385.29	346.56
385.67	344.52
386.049	355.15
386.429	386.11
386.809	361.47
387.189	324.86
387.568	337.07
387.948	347.46
388.328	347.46
388.707	357.18
389.087	359.89
389.466	356.28
389.846	368.7
390.225	349.27
390.605	355.15
390.984	360.8
391.363	365.32
391.743	359.67
392.122	358.31
392.501	380.68
392.881	369.83
393.26	373.68
393.639	380.46
394.018	370.74
394.397	375.71
394.776	386.33
395.155	381.81
395.534	378.87
395.913	372.77
396.292	376.61
396.671	387.01
397.05	384.98
397.429	377.29
397.808	395.37
398.186	375.03
398.565	384.07
398.944	379.1
399.323	407.12
399.701	381.36
400.08	366.67
400.458	394.47
400.837	410.06
401.215	394.47
401.594	382.49
401.972	370.51
402.351	394.69
402.729	405.77
403.107	387.01
403.486	404.41
403.864	377.07
404.242	397.4
404.62	408.93
404.999	388.82
405.377	412.77
405.755	402.6
406.133	412.09
406.511	422.26
406.889	422.71
407.267	440.79
407.645	422.71
408.023	427.69
408.401	428.36
408.779	447.57
409.156	427.91
409.534	451.87
409.912	433.34
410.29	445.09
410.667	448.7
411.045	470.85
411.422	440.12
411.8	461.36
412.178	467.69
412.555	471.53
412.933	446.67
413.31	457.97
413.687	490.06
414.065	462.49
414.442	471.3
414.819	478.31
415.197	485.31
415.574	491.19
415.951	487.8
416.328	483.28
416.705	491.64
417.082	475.14
417.46	494.8
417.837	489.15
418.214	478.08
418.591	515.37
418.967	495.93
419.344	514.46
419.721	524.41
420.098	510.85
420.475	490.06
420.852	498.42
421.228	507.91
421.605	514.69
421.982	532.09
422.358	516.27
422.735	523.73
423.111	508.14
423.488	518.31
423.864	532.09
424.241	545.2
424.617	547.23
424.994	540.68
425.37	556.04
425.746	564.86
426.123	543.62
426.499	570.28
426.875	568.93
427.251	567.34
427.627	566.21
428.003	574.12
428.379	577.74
428.756	555.14
429.132	597.85
429.507	594.24
429.883	601.47
430.259	610.05
430.635	587
431.011	611.18
431.387	639.66
431.763	628.13
432.138	642.6
432.514	631.52
432.89	621.58
433.265	636.49
433.641	678.98
434.016	645.99
434.392	654.35
434.767	654.35
435.143	665.42
435.518	668.81
435.894	677.62
436.269	672.43
436.644	663.16
437.02	697.74
437.395	699.54
437.77	699.09
438.145	713.55
438.52	710.62
438.895	693.89
439.271	732.54
439.646	710.84
440.021	724.18
440.395	718.53
440.77	724.18
441.145	740.67
441.52	734.35
441.895	715.14
442.27	744.51
442.645	756.94
443.019	735.7
443.394	749.03
443.769	779.77
444.143	750.62
444.518	756.49
444.892	770.95
445.267	780.45
445.641	778.86
446.016	802.14
446.39	783.84
446.764	801.69
447.139	803.95
447.513	785.64
447.887	780.45
448.262	800.11
448.636	799.65
449.01	839.65
449.384	832.87
449.758	831.74
450.132	860.67
450.506	853.66
450.88	843.49
451.254	850.05
451.628	867.9
452.002	846.43
452.376	845.3
452.75	853.66
453.123	866.32
453.497	902.25
453.871	903.38
454.244	894.57
454.618	930.95
454.992	938.63
455.365	911.29
455.739	942.93
456.112	958.29
456.486	958.07
456.859	971.85
457.232	984.51
457.606	984.28
457.979	998.07
458.352	1006.88
458.725	1027.9
459.099	1019.31
459.472	1049.37
459.845	1051.62
460.218	1062.47
460.591	1047.56
460.964	1085.07
461.337	1103.37
461.71	1103.83
462.083	1120.55
462.456	1124.84
462.829	1109.48
463.201	1154.45
463.574	1139.08
463.947	1156.93
464.32	1156.03
464.692	1195.35
465.065	1183.82
465.438	1205.97
465.81	1236.7
466.183	1238.06
466.555	1281.68
466.928	1285.29
467.3	1276.93
467.672	1312.18
468.045	1311.96
468.417	1347.66
468.789	1352.41
469.161	1366.42
469.534	1365.74
469.906	1407.32
470.278	1428.11
470.65	1466.53
471.022	1479.64
471.394	1463.14
471.766	1508.56
472.138	1545.85
472.51	1569.13
472.882	1609.8
473.253	1611.16
473.625	1594.44
473.997	1651.38
474.369	1686.41
474.74	1706.07
475.112	1716.01
475.484	1764.6
475.855	1802.79
476.227	1807.09
476.598	1849.8
476.97	1899.29
477.341	1952.39
477.713	1973.86
478.084	1983.13
478.455	1999.4
478.827	2049.79
479.198	2125.27
479.569	2137.7
479.94	2218.37
480.311	2238.94
480.682	2286.39
481.053	2391.02
481.424	2411.14
481.795	2400.97
482.166	2454.75
482.537	2543.11
482.908	2561.87
483.279	2603.45
483.65	2668.08
484.021	2745.37
484.391	2787.62
484.762	2761.86
485.133	2854.97
485.503	2888.41
485.874	2990.1
486.244	3011.8
486.615	3106.49
486.985	3171.12
487.356	3223.32
487.726	3246.14
488.097	3297.22
488.467	3345.8
488.837	3466.7
489.207	3452.69
489.578	3553.48
489.948	3621.05
490.318	3652.01
490.688	3670.99
491.058	3750.54
491.428	3840.03
491.798	3929.74
492.168	3977.88
492.538	3998.44
492.908	4069.85
493.278	4081.6
493.648	4160.92
494.017	4226.91
494.387	4249.51
494.757	4309.84
495.126	4366.34
495.496	4370.63
495.866	4498.09
496.235	4537.41
496.605	4569.95
496.974	4585.77
497.344	4655.37
497.713	4725.2
498.082	4758.19
498.452	4794.13
498.821	4862.82
499.19	4824.18
499.559	4947.79
499.928	4931.75
500.298	4968.13
500.667	5068.69
501.036	5079.77
501.405	5098.07
501.774	5135.13
502.143	5181.23
502.512	5192.08
502.88	5259.42
503.249	5297.84
503.618	5343.26
503.987	5370.61
504.356	5430.72
504.724	5444.05
505.093	5477.95
505.462	5451.28
505.83	5479.08
506.199	5513.43
506.567	5645.18
506.936	5646.76
507.304	5752.74
507.672	5736.93
508.041	5774.21
508.409	5768.34
508.777	5881.78
509.145	5813.99
509.514	5874.55
509.882	5892.4
510.25	5939.18
510.618	5952.06
510.986	5955.68
511.354	6064.15
511.722	6102.79
512.09	6156.8
512.458	6136.46
512.826	6188.89
513.193	6218.49
513.561	6223.92
513.929	6270.47
514.297	6303.01
514.664	6334.42
515.032	6446.51
515.4	6396.12
515.767	6417.59
516.135	6504.81
516.502	6484.7
516.869	6524.02
517.237	6589.78
517.604	6564.02
517.972	6646.51
518.339	6658.94
518.706	6681.76
519.073	6685.15
519.44	6745.49
519.808	6756.33
520.175	6801.3
520.542	6859.61
520.909	6882.88
521.276	6868.87
521.643	6942.54
522.009	6979.15
522.376	7012.37
522.743	7022.99
523.11	7106.61
523.477	7123.56
523.843	7165.59
524.21	7252.82
524.577	7325.58
524.943	7314.96
525.31	7325.58
525.676	7376.43
526.043	7432.25
526.409	7533.04
526.776	7504.79
527.142	7539.59
527.508	7584.33
527.874	7639.25
528.241	7699.81
528.607	7689.19
528.973	7749.53
529.339	7736.65
529.705	7898.45
530.071	7944.78
530.437	7908.39
530.803	7973.25
531.169	8040.14
531.535	8040.59
531.901	8053.47
532.267	8089.18
532.632	8154.04
532.998	8161.95
533.364	8226.8
533.73	8236.97
534.095	8330.53
534.461	8304.99
534.826	8313.13
535.192	8451.66
535.557	8515.38
535.923	8394.71
536.288	8468.38
536.653	8450.07
537.019	8450.07
537.384	8582.27
537.749	8666.57
538.114	8673.8
538.479	8669.73
538.845	8711.08
539.21	8671.99
539.575	8789.73
539.94	8743.63
540.305	8892.77
540.67	8876.28
541.034	8884.87
541.399	8942.04
541.764	8942.94
542.129	8967.12
542.494	9048.48
542.858	9053.67
543.223	9067.01
543.587	9144.07
543.952	9136.84
544.316	9220.22
544.681	9204.18
545.045	9269.26
545.41	9318.3
545.774	9352.65
546.138	9392.87
546.503	9418.86
546.867	9431.07
547.231	9586.32
547.595	9532.31
547.959	9588.12
548.324	9595.58
548.688	9661.12
549.052	9673.77
549.416	9664.96
549.779	9649.82
550.143	9756.25
550.507	9763.71
550.871	9797.84
551.235	9815.01
551.599	9923.71
551.962	9909.02
552.326	9925.74
552.689	10011.62
553.053	9976.81
553.417	9987.21
553.78	10125.28
554.143	10069.24
554.507	10140.65
554.87	10108.56
555.234	10243.02
555.597	10160.76
555.96	10249.12
556.323	10259.97
556.686	10330.25
557.05	10336.35
557.413	10359.4
557.776	10405.28
558.139	10461.09
558.502	10499.06
558.865	10518.49
559.228	10555.78
559.59	10621.32
559.953	10604.59
560.316	10704.03
560.679	10640.98
561.041	10764.14
561.404	10796.68
561.767	10872.38
562.129	10805.04
562.492	10928.43
562.854	10955.32
563.217	10897.69
563.579	10951.03
563.941	10967.97
564.304	11088.88
564.666	11202.09
565.028	11116.22
565.39	11145.6
565.753	11240.51
566.115	11240.96
566.477	11329.09
566.839	11354.63
567.201	11359.6
567.563	11398.47
567.925	11482.54
568.287	11580.84
568.648	11529.54
569.01	11577.68
569.372	11642.31
569.734	11657.22
570.095	11720.27
570.457	11753.26
570.819	11797.56
571.18	11798.69
571.542	11901.74
571.903	12001.17
572.265	12022.86
572.626	12089.07
572.987	12221.73
573.349	12180.37
573.71	12244.78
574.071	12388.05
574.432	12402.51
574.794	12509.4
575.155	12559.12
575.516	12590.3
575.877	12745.1
576.238	12673.47
576.599	12921.37
576.96	12777.87
577.32	12980.12
577.681	13088.82
578.042	13208.14
578.403	13245.65
578.763	13301.25
579.124	13413.79
579.485	13532.2
579.845	13723.38
580.206	13703.72
580.566	13835.47
580.927	14012.87
581.287	14150.49
581.648	14255.35
582.008	14472.51
582.368	14550.03
582.728	14782.34
583.089	14919.73
583.449	15112.27
583.809	15222.55
584.169	15470.45
584.529	15507.74
584.889	15870.22
585.249	15979.14
585.609	16104.79
585.969	16336.42
586.329	16474.5
586.688	16801.49
587.048	16869.74
587.408	17143.18
587.768	17338.88
588.127	17472.44
588.487	17732.99
588.846	18023.83
589.206	18098.41
589.565	18474.67
589.925	18783.36
590.284	18952.4
590.643	19169.79
591.003	19479.16
591.362	19691.36
591.721	19932.26
592.08	20182.87
592.44	20499.02
592.799	20696.98
593.158	20941.72
593.517	21110.98
593.876	21342.62
594.235	21716.62
594.593	21996.61
594.952	22226.89
595.311	22386.66
595.67	22721.79
596.029	23083.14
596.387	23370.81
596.746	23504.82
597.104	23648.77
597.463	24038.37
597.822	24241.98
598.18	24388.86
598.538	24690.1
598.897	25011.22
599.255	24995.63
599.613	25645.1
599.972	25710.19
600.33	25980.46
600.688	26063.62
601.046	26436.04
601.404	26681.01
601.762	26937.95
602.12	27234.89
602.478	27357.83
602.836	27602.79
603.194	27790.81
603.552	27829.68
603.91	28051.14
604.268	28387.4
604.625	28571.81
604.983	28763.89
605.341	28898.8
605.698	29319.13
606.056	29463.99
606.413	29623.3
606.771	29902.17
607.128	30170.86
607.485	30223.51
607.843	30266.22
608.2	30632.99
608.557	30913.66
608.914	30986.88
609.272	31299.19
609.629	31359.08
609.986	31663.25
610.343	31705.28
610.7	32186.85
611.057	32157.02
611.414	32355.43
611.771	32424.59
612.127	32688.53
612.484	32840.39
612.841	33041.97
613.198	33053.04
613.554	33220.27
613.911	33480.38
614.267	33653.03
614.624	33708.62
614.98	33935.51
615.337	34109.06
615.693	34234.93
616.05	34215.05
616.406	34512.21
616.762	34474.47
617.118	34642.83
617.475	34693.23
617.831	34920.56
618.187	35114.01
618.543	35039.88
618.899	35499.08
619.255	35321.91
619.611	35470.38
619.967	35850.94
620.323	35829.69
620.678	35721.67
621.034	35689.81
621.39	35852.52
621.746	35911.5
622.101	36302.22
622.457	36234.43
622.812	36307.87
623.168	36475.55
623.523	36475.33
623.879	36530.47
624.234	36421.32
624.589	36725.49
624.945	36801.65
625.3	36887.07
625.655	37015.65
626.01	36967.52
626.365	37042.77
626.72	37120.96
627.075	37192.82
627.43	37263.1
627.785	37080.96
628.14	37208.41
628.495	37319.37
628.85	37192.6
629.205	37163.67
629.559	37435.08
629.914	37335.64
630.269	37472.14
630.623	37296.32
630.978	37227.4
631.332	37480.72
631.687	37654.05
632.041	37456.32
632.396	37662.19
632.75	37400.27
633.104	37519.82
633.459	37350.11
633.813	37449.54
634.167	37458.35
634.521	37528.18
634.875	37538.35
635.229	37569.99
635.583	37413.61
635.937	37431.23
636.291	37393.27
636.645	37345.13
636.999	37457.22
637.352	37560.72
637.706	37280.73
638.06	37533.83
638.413	37446.37
638.767	37297.9
639.121	37443.66
639.474	37209.32
639.828	37250.9
640.181	37330.44
640.534	37339.94
640.888	37317.79
641.241	37175.42
641.594	37298.58
641.947	37309.43
642.301	37186.04
642.654	37309.65
643.007	37314.85
643.36	37278.47
643.713	37102.43
644.066	37252.03
644.419	37160.96
644.771	36827.41
645.124	36510.13
645.477	36550.8
645.83	36247.08
646.182	36284.82
646.535	36029.46
646.888	36119.18
647.24	35990.82
647.593	36190.36
647.945	36031.95
648.298	35981.55
648.65	35976.58
649.002	35880.77
649.355	36007.54
649.707	35984.04
650.059	36086.18
650.411	36519.17
650.763	36681.2
651.115	36960.74
651.467	36748.31
651.819	36853.85
652.171	36738.6
652.523	36685.94
652.875	36736.11
653.227	36602.1
653.578	36796
653.93	36731.14
654.282	36516
654.633	36653.17
654.985	36611.82
655.337	36658.6
655.688	36629.67
656.039	36705.38
656.391	36458.38
656.742	36506.06
657.094	36540.86
657.445	36547.64
657.796	36492.5
658.147	36512.16
658.498	36624.02
658.849	36490.92
659.2	36478.72
659.551	36361.2
659.902	36423.35
660.253	36513.52
660.604	36460.41
660.955	36311.49
661.306	36630.8
661.656	36383.35
662.007	36559.84
662.358	36422.22
662.708	36450.24
663.059	36310.36
663.409	36095
663.76	36407.76
664.11	36303.35
664.461	36384.93
664.811	36463.35
665.161	36351.94
665.511	36281.21
665.862	36285.95
666.212	36541.09
666.562	36435.55
666.912	36299.74
667.262	36326.63
667.612	36338.83
667.962	36394.2
668.312	36356.01
668.662	36334.31
669.011	36307.2
669.361	36162.57
669.711	36173.41
670.06	36171.15
670.41	36215.67
670.76	36135.22
671.109	36235.11
671.459	36073.75
671.808	36135.45
672.157	36279.17
672.507	36039.41
672.856	36047.31
673.205	36049.12
673.554	36141.78
673.904	36124.6
674.253	36348.78
674.602	36011.16
674.951	35492.75
675.3	35423.38
675.649	36036.24
675.998	35971.16
676.346	35956.7
676.695	36054.55
677.044	35732.52
677.393	35900.2
677.741	35981.55
678.09	35766.19
678.438	35620.66
678.787	35752.63
679.135	35874.44
679.484	35516.71
679.832	35675.8
680.181	35446.88
680.529	35702.69
680.877	35451.85
681.225	35487.33
681.573	35647.1
681.922	35284.17
682.27	35375.02
682.618	35283.72
682.966	35255.02
683.314	35417.73
683.661	35147
684.009	35116.04
684.357	34908.36
684.705	34969.15
685.053	34926.21
685.4	34971.18
685.748	34784.98
686.095	34849.15
686.443	34660.68
686.79	34658.42
687.138	34725.99
687.485	34690.74
687.832	34471.99
688.18	34550.41
688.527	34298.21
688.874	34290.52
689.221	34271.77
689.568	34175.5
689.915	33969.18
690.262	34185.44
690.609	33919.46
690.956	33912.23
691.303	33850.31
691.65	33766.24
691.997	33744.32
692.344	33517.66
692.69	33431.56
693.037	33446.93
693.383	33213.94
693.73	33467.95
694.077	33217.33
694.423	33168.97
694.769	33050.78
695.116	32973.5
695.462	33042.2
695.808	32849.66
696.155	32945.02
696.501	32797.68
696.847	32602.43
697.193	32600.63
697.539	32598.59
697.885	32345.49
698.231	32272.95
698.577	32265.95
698.923	32089.45
699.269	32085.61
699.614	31972.85
699.96	31962.22
700.306	31944.82
700.651	31765.17
700.997	31690.14
701.342	31641.56
701.688	31537.38
702.033	31349.13
702.379	31417.15
702.724	31388
703.069	31411.96
703.415	31026.2
703.76	31023.04
704.105	31094.45
704.45	30985.98
704.795	30738.3
705.14	30727.68
705.485	30682.48
705.83	30664.18
706.175	30495.14
706.52	30396.84
706.865	30312.78
707.209	30361.59
707.554	30226.9
707.899	30297.41
708.243	30110.3
708.588	30105.55
708.932	29958.21
709.277	29970.86
709.621	29873.01
709.966	29727.03
710.31	29801.6
710.654	29470.54
710.998	29549.18
711.342	29621.72
711.687	29522.29
712.031	29437.55
712.375	29399.13
712.719	29412.01
713.063	29308.51
713.407	29281.62
713.75	29231.67
714.094	29193.03
714.438	28985.35
714.782	29134.5
715.125	28851.8
715.469	28849.09
715.812	28802.53
716.156	28653.61
716.499	28673.5
716.843	28739.03
717.186	28503.56
717.53	28651.35
717.873	28608.87
718.216	28534.74
718.559	28425.82
718.902	28097.47
719.246	28349.44
719.589	28275.09
719.932	28146.51
720.275	28091.59
720.617	28059.73
720.96	27957.81
721.303	28033.29
721.646	27968.43
721.989	27751.94
722.331	27890.02
722.674	27815.89
723.016	27797.14
723.359	27762.79
723.701	27781.32
724.044	27669.68
724.386	27497.94
724.729	27504.04
725.071	27392.85
725.413	27540.65
725.755	27358.96
726.097	27330.03
726.439	27146.31
726.782	27276.7
727.124	27232.63
727.465	27151.73
727.807	27074.9
728.149	27169.81
728.491	27041.9
728.833	27041.68
729.175	26991.96
729.516	26831.74
729.858	26974.79
730.199	26864.28
730.541	26779.08
730.882	26800.55
731.224	26744.51
731.565	26694.57
731.906	26617.28
732.248	26652.76
732.589	26593.55
732.93	26526.21
733.271	26498.87
733.612	26550.39
733.953	26597.62
734.294	26422.03
734.635	26407.79
734.976	26408.92
735.317	26266.33
735.658	26318.98
735.999	26235.82
736.339	26226.56
736.68	26282.15
737.021	26160.8
737.361	26025.21
737.702	26201.7
738.042	26118.08
738.383	26103.17
738.723	25971.87
739.063	25872.89
739.404	25893.01
739.744	25903.17
740.084	25781.37
740.424	25810.3
740.764	25728.94
741.104	25716.29
741.444	25636.06
741.784	25532.56
742.124	25629.51
742.464	25547.7
742.804	25511.55
743.143	25363.75
743.483	25435.39
743.823	25269.52
744.162	25328.95
744.502	25317.43
744.841	25208.28
745.181	25326.01
745.52	25266.58
745.86	25309.07
746.199	25309.52
746.538	25160.82
746.877	25259.12
747.216	25222.97
747.556	24952.01
747.895	25030.88
748.234	24960.6
748.573	24994.72
748.911	24946.59
749.25	24891.45
749.589	24738.46
749.928	24808.29
750.267	24738.69
750.605	24709.99
750.944	24658.24
751.283	24660.5
751.621	24600.16
751.96	24513.83
752.298	24514.06
752.636	24421.41
752.975	24358.58
753.313	24270.22
753.651	24396.1
753.989	24166.72
754.327	24247.85
754.666	24119.04
755.004	24133.73
755.342	24218.25
755.679	24100.51
756.017	23955.88
756.355	24081.98
756.693	23930.8
757.031	23944.36
757.368	23893.28
757.706	23814.19
758.044	23796.56
758.381	23804.7
758.719	23706.62
759.056	23602.67
759.394	23507.53
759.731	23359.06
760.068	23416.23
760.405	23378.27
760.743	23272.06
761.08	23347.31
761.417	23073.64
761.754	23113.42
762.091	22933.76
762.428	22871.84
762.765	22852.18
763.102	22987.09
763.438	22807.89
763.775	22704.39
764.112	22650.6
764.449	22759.08
764.785	22546.2
765.122	22360.67
765.458	22351.63
765.795	22339.88
766.131	22349.82
766.467	22246.32
766.804	22040.9
767.14	22016.72
767.476	22038.64
767.812	21808.37
768.148	22019.21
768.485	21836.62
768.821	21705.77
769.157	21626.23
769.492	21578.32
769.828	21508.04
770.164	21381.71
770.5	21299
770.836	21324.99
771.171	21108.72
771.507	21154.6
771.842	21000.7
772.178	21030.99
772.513	20940.82
772.849	20848.17
773.184	20870.76
773.519	20789.19
773.855	20659.02
774.19	20640.26
774.525	20447.5
774.86	20413.83
775.195	20367.73
775.53	20309.88
775.865	20183.55
776.2	20124.34
776.535	19963.22
776.87	20031.92
777.205	19973.61
777.539	19791.7
777.874	19892.03
778.209	19716.22
778.543	19780.85
778.878	19473.74
779.212	19541.99
779.547	19478.94
779.881	19395.32
780.215	19283.46
780.55	19316
780.884	19226.97
781.218	19123.92
781.552	19128.66
781.886	19063.13
782.22	18908.33
782.554	18700.2
782.888	18745.17
783.222	18680.99
783.556	18522.8
783.889	18443.48
784.223	18373.2
784.557	18380.43
784.89	18323.04
785.224	18223.15
785.557	18171.63
785.891	18189.48
786.224	18090.27
786.558	18059.54
786.891	18029.48
787.224	17859.77
787.557	17731.64
787.891	17761.69
788.224	17691.64
788.557	17833.33
788.89	17678.98
789.223	17580.91
789.556	17388.6
789.888	17415.71
790.221	17393.34
790.554	17165.33
790.887	17219.34
791.219	17139.79
791.552	17135.04
791.884	16991.77
792.217	16999.23
792.549	16872
792.882	16700.7
793.214	16658.45
793.546	16716.52
793.879	16630.2
794.211	16450.77
794.543	16662.74
794.875	16574.38
795.207	16493.03
795.539	16442.18
795.871	16425.01
796.203	16374.39
796.535	16252.36
796.867	16145.69
797.198	16136.88
797.53	16157.44
797.862	16003.32
798.193	16135.07
798.525	15884
798.856	16015.98
799.188	15761.75
799.519	15772.37
799.85	15666.61
800.182	15673.84
800.513	15621.86
800.844	15542.32
801.175	15663.9
801.506	15509.55
801.837	15484.47
802.168	15472.49
802.499	15336.45
802.83	15292.83
803.161	15290.8
803.491	15213.06
803.822	15204.25
804.153	15109.79
804.483	15075.66
804.814	14895.1
805.145	15044.25
805.475	14918.6
805.805	14867.98
806.136	14902.79
806.466	14930.81
806.796	14835.44
807.126	14745.5
807.457	14661.21
807.787	14698.95
808.117	14520.88
808.447	14569.24
808.777	14679.29
809.107	14504.6
809.436	14456.02
809.766	14527.65
810.096	14358.17
810.426	14340.09
810.755	14232.97
811.085	14284.5
811.414	14231.39
811.744	14085.18
812.073	14146.2
812.403	14174.67
812.732	13993.66
813.061	14050.38
813.39	13872.76
813.719	13935.13
814.049	13987.1
814.378	13932.42
814.707	13827.33
815.036	13864.17
815.365	13719.09
815.693	13576.04
816.022	13697.17
816.351	13613.78
816.68	13581.46
817.008	13543.5
817.337	13458.76
817.665	13447.23
817.994	13423.95
818.322	13371.98
818.651	13301.25
818.979	13367.46
819.307	13385.54
819.636	13285.43
819.964	13251.98
820.292	13270.29
820.62	13248.59
820.948	13221.25
821.276	13312.77
821.604	13250.4
821.932	13289.95
822.259	13253.56
822.587	13197.07
822.915	13159.56
823.243	13224.41
823.57	13125.66
823.898	13205.2
824.225	13142.83
824.553	13110.29
824.88	13127.92
825.207	13202.72
825.535	13145.09
825.862	13164.07
826.189	13136.96
826.516	13178.54
826.843	13284.3
827.17	13152.1
827.497	13229.16
827.824	13137.18
828.151	13231.42
828.478	13132.44
828.805	13193.9
829.131	13109.39
829.458	13139.22
829.785	13060.57
830.111	13021.93
830.438	13068.48
830.764	13075.04
831.09	13097.18
831.417	12961.82
831.743	13068.26
832.069	13061.93
832.395	13012.44
832.722	13078.65
833.048	12998.2
833.374	13002.5
833.7	12921.82
834.026	12985.1
834.351	13054.02
834.677	12985.55
835.003	12998.43
835.329	12898.55
835.654	12968.37
835.98	12834.82
836.306	12970.63
836.631	12880.69
836.956	12880.69
837.282	12911.2
837.607	12855.16
837.932	12748.72
838.258	12762.05
838.583	12749.17
838.908	12696.74
839.233	12719.79
839.558	12733.35
839.883	12691.77
840.208	12652.45
840.533	12624.88
840.858	12544.88
841.182	12562.51
841.507	12492
841.832	12489.74
842.156	12531.1
842.481	12505.11
842.805	12471.66
843.13	12443.64
843.454	12395.96
843.778	12315.28
844.103	12312.8
844.427	12280.26
844.751	12273.93
845.075	12247.04
845.399	12247.49
845.723	12095.85
846.047	12146.25
846.371	11977.44
846.695	12086.14
847.019	11929.3
847.343	11887.27
847.666	11836.2
847.99	11764.79
848.313	11819.48
848.637	11754.39
848.96	11747.61
849.284	11642.98
849.607	11538.35
849.931	11512.14
850.254	11483.44
850.577	11333.39
850.9	11301.07
851.223	11336.55
851.546	11268.98
851.869	11148.08
852.192	11234.86
852.515	11157.57
852.838	11077.35
853.161	11139.72
853.483	11026.05
853.806	10950.12
854.129	10949.9
854.451	10947.41
854.774	10867.64
855.096	10819.73
855.419	10868.54
855.741	10814.76
856.063	10763.69
856.385	10727.75
856.708	10677.36
857.03	10600.07
857.352	10697.7
857.674	10640.98
857.996	10638.49
858.318	10494.31
858.64	10518.49
858.961	10439.4
859.283	10419.74
859.605	10388.78
859.926	10421.32
860.248	10439.85
860.57	10288.67
860.891	10356.24
861.212	10313.53
861.534	10206.41
861.855	10213.87
862.176	10228.56
862.498	10236.02
862.819	10191.5
863.14	10105.17
863.461	10121.67
863.782	10097.49
864.103	10081.67
864.424	10003.25
864.745	10067.43
865.065	9951.5
865.386	9982.69
865.707	10052.74
866.027	9972.52
866.348	9898.17
866.668	9886.87
866.989	9886.42
867.309	9841.45
867.63	9875.35
867.95	9900.43
868.27	9773.2
868.59	9923.48
868.91	9778.85
869.23	9818.63
869.55	9745.18
869.87	9824.28
870.19	9751.28
870.51	9725.07
870.83	9763.03
871.15	9641
871.469	9755.8
871.789	9689.14
872.109	9706.99
872.428	9632.64
872.748	9672.42
873.067	9597.39
873.386	9658.18
873.706	9643.26
874.025	9570.72
874.344	9489.82
874.663	9563.94
874.982	9588.58
875.301	9514.91
875.62	9425.64
875.939	9457.05
876.258	9380.9
876.577	9435.59
876.896	9368.69
877.214	9375.25
877.533	9401.24
877.852	9308.13
878.17	9385.64
878.489	9345.87
878.807	9310.84
879.125	9335.47
879.444	9321.24
879.762	9328.7
880.08	9265.19
880.398	9208.25
880.716	9202.37
881.034	9158.76
881.352	9133.22
881.67	9168.47
881.988	9179.32
882.306	9072.66
882.624	9087.8
882.941	9100.9
883.259	9108.81
883.577	9010.51
883.894	8968.7
884.212	8982.72
884.529	8973.9
884.846	8977.52
885.164	8986.11
885.481	8914.02
885.798	8876.28
886.115	8879.44
886.432	8837.18
886.75	8875.6
887.067	8787.47
887.383	8742.04
887.7	8793.34
888.017	8765.32
888.334	8780.01
888.651	8730.75
888.967	8681.71
889.284	8655.72
889.6	8627.02
889.917	8516.29
890.233	8652.55
890.55	8585.21
890.866	8526.23
891.182	8554.93
891.498	8507.93
891.815	8472.45
892.131	8433.58
892.447	8439.45
892.763	8370.08
893.079	8420.24
893.395	8406.23
893.71	8323.3
894.026	8326.91
894.342	8290.76
894.657	8223.19
894.973	8253.92
895.289	8201.95
895.604	8168.27
895.92	8104.77
896.235	8108.39
896.55	8168.73
896.865	8048.28
897.181	8056.41
897.496	8024.55
897.811	7951.56
898.126	7960.14
898.441	7935.29
898.756	7926.7
899.071	7886.25
899.386	7943.65
899.7	7839.69
900.015	7793.14
900.33	7721.28
900.644	7748.85
900.959	7709.53
901.273	7662.98
901.588	7634.5
901.902	7636.31
902.216	7597.89
902.531	7559.48
902.845	7515.86
903.159	7585.92
903.473	7547.05
903.787	7406.49
904.101	7375.75
904.415	7388.86
904.729	7389.31
905.042	7356.77
905.356	7343.44
905.67	7249.65
905.984	7309.99
906.297	7295.08
906.611	7160.39
906.924	7193.61
907.237	7129.88
907.551	7187.28
907.864	7128.08
908.177	7067.51
908.491	7058.47
908.804	6968.98
909.117	6977.57
909.43	6943.67
909.743	6938.93
910.056	6912.71
910.368	6921.3
910.681	6853.28
910.994	6819.38
911.307	6799.95
911.619	6716.79
911.932	6748.88
912.244	6710.23
912.557	6727.18
912.869	6713.4
913.181	6656.22
913.494	6608.09
913.806	6574.64
914.118	6525.38
914.43	6476.12
914.742	6467.75
915.054	6452.39
915.366	6450.13
915.678	6413.52
915.99	6404.03
916.302	6387.76
916.613	6342.33
916.925	6307.53
917.236	6244.26
917.548	6242.9
917.859	6206.29
918.171	6194.09
918.482	6196.57
918.794	6149.12
919.105	6184.6
919.416	6082.68
919.727	6096.01
920.038	6081.1
920.349	6018.27
920.66	6024.83
920.971	6008.78
921.282	5976.47
921.593	5927.43
921.903	5929.69
922.214	5905.73
922.525	5901.44
922.835	5849.92
923.146	5791.16
923.456	5782.35
923.767	5777.83
924.077	5780.09
924.387	5743.25
924.697	5705.74
925.008	5657.38
925.318	5642.24
925.628	5592.97
925.938	5585.52
926.248	5550.72
926.558	5556.82
926.867	5545.74
927.177	5509.36
927.487	5472.3
927.796	5431.4
928.106	5458.29
928.416	5391.85
928.725	5427.78
929.034	5371.06
929.344	5355.24
929.653	5315.02
929.962	5282.93
930.271	5327.22
930.581	5263.94
930.89	5266.66
931.199	5226.43
931.508	5185.75
931.817	5173.55
932.125	5144.62
932.434	5149.6
932.743	5125.87
933.051	5074.57
933.36	5055.81
933.669	5040.45
933.977	5027.11
934.286	5004.74
934.594	5004.29
934.902	4989.83
935.21	4905.31
935.519	4947.79
935.827	4881.35
936.135	4908.02
936.443	4837.29
936.751	4847.91
937.059	4811.3
937.367	4787.8
937.674	4808.14
937.982	4741.25
938.29	4694.69
938.597	4729.95
938.905	4675.71
939.213	4699.21
939.52	4633.45
939.827	4656.28
940.135	4599.55
940.442	4549.16
940.749	4600.68
941.056	4582.61
941.363	4504.42
941.67	4488.82
941.977	4465.55
942.284	4468.26
942.591	4421.71
942.898	4396.85
943.205	4418.77
943.511	4345.78
943.818	4360.69
944.125	4352.33
944.431	4281.6
944.738	4352.56
945.044	4293.35
945.35	4282.5
945.657	4235.04
945.963	4269.39
946.269	4240.24
946.575	4249.05
946.881	4157.98
947.187	4183.75
947.493	4118.89
947.799	4180.13
948.105	4096.74
948.41	4113.24
948.716	4108.04
949.022	4048.83
949.327	4073.92
949.633	4036.63
949.938	3982.17
950.244	4000.47
950.549	3999.12
950.854	3958.89
951.16	3922.74
951.465	3927.71
951.77	3917.99
952.075	3929.06
952.38	3927.26
952.685	3914.6
952.99	3823.98
953.294	3835.51
953.599	3825.79
953.904	3790.76
954.209	3764.1
954.513	3795.28
954.818	3772.01
955.122	3725.9
955.426	3744.44
955.731	3702.63
956.035	3698.56
956.339	3666.47
956.643	3678.45
956.948	3645.45
957.252	3629.41
957.556	3649.52
957.86	3630.77
958.163	3607.72
958.467	3597.09
958.771	3546.7
959.075	3555.29
959.378	3515.29
959.682	3491.79
959.985	3515.97
960.289	3477.78
960.592	3464.22
960.896	3431
961.199	3409.08
961.502	3403.2
961.805	3395.07
962.108	3394.16
962.411	3369.76
962.714	3362.52
963.017	3343.54
963.32	3341.73
963.623	3317.78
963.926	3288.63
964.228	3282.75
964.531	3254.96
964.833	3278.68
965.136	3221.74
965.438	3180.16
965.741	3214.51
966.043	3198.69
966.345	3211.57
966.648	3174.73
966.95	3180.61
967.252	3144
967.554	3160.27
967.856	3148.07
968.158	3112.36
968.46	3081.85
968.761	3071.23
969.063	3049.99
969.365	3049.99
969.666	3023.32
969.968	3016.54
970.269	3000.73
970.571	2983.78
970.872	2971.12
971.174	2951.91
971.475	2927.06
971.776	2936.1
972.077	2913.27
972.378	2943.33
972.679	2935.64
972.98	2868.53
973.281	2880.05
973.582	2897.23
973.883	2845.93
974.183	2843.89
974.484	2819.94
974.785	2785.59
975.085	2789.88
975.386	2827.17
975.686	2784.23
975.986	2778.59
976.287	2764.8
976.587	2765.25
976.887	2728.64
977.187	2735.65
977.487	2701.75
977.787	2709.66
978.087	2687.74
978.387	2697.23
978.687	2690.9
978.987	2638.7
979.286	2656.78
979.586	2651.81
979.885	2626.5
980.185	2605.71
980.484	2607.52
980.784	2567.29
981.083	2546.95
981.382	2552.6
981.682	2545.37
981.981	2549.21
982.28	2483.23
982.579	2522.09
982.878	2499.04
983.177	2499.95
983.475	2493.39
983.774	2473.06
984.073	2484.36
984.372	2455.66
984.67	2439.84
984.969	2421.31
985.267	2440.06
985.566	2409.33
985.864	2398.48
986.162	2397.58
986.461	2382.44
986.759	2377.47
987.057	2328.65
987.355	2324.13
987.653	2356.22
987.951	2341.08
988.249	2300.41
988.547	2256.34
988.844	2301.31
989.142	2289.11
989.44	2243.23
989.737	2252.72
990.035	2285.49
990.332	2242.1
990.63	2236.68
990.927	2224.02
991.224	2205.04
991.521	2205.94
991.819	2190.58
992.116	2194.65
992.413	2145.38
992.71	2158.71
993.006	2176.12
993.303	2140.86
993.6	2144.93
993.897	2113.07
994.193	2113.97
994.49	2113.74
994.787	2117.36
995.083	2073.29
995.379	2079.17
995.676	2085.95
995.972	2033.52
996.268	2048.21
996.565	2063.8
996.861	2036.91
997.157	2043.69
997.453	2047.53
997.749	1988.32
998.044	1965.73
998.34	1994.2
998.636	1960.75
998.932	1965.27
999.227	1949.23
999.523	1926.4
999.818	1911.49
1000.114	1929.79
1000.409	1923.01
1000.704	1870.59
1001	1880.76
1001.295	1881.43
1001.59	1875.78
1001.885	1866.52
1002.18	1887.76
1002.475	1882.56
1002.77	1830.36
1003.065	1800.31
1003.359	1834.43
1003.654	1824.71
1003.949	1806.63
1004.243	1792.4
1004.538	1771.15
1004.832	1787.65
1005.127	1790.36
1005.421	1763.24
1005.715	1733.64
1006.009	1709.46
1006.304	1701.78
1006.598	1696.81
1006.892	1743.13
1007.186	1666.3
1007.48	1693.87
1007.773	1667.43
1008.067	1660.87
1008.361	1651.38
1008.655	1660.2
1008.948	1657.48
1009.242	1635.34
1009.535	1639.18
1009.829	1624.27
1010.122	1613.87
1010.415	1600.09
1010.708	1569.35
1011.001	1594.44
1011.295	1585.17
1011.588	1548.33
1011.881	1545.62
1012.173	1528.9
1012.466	1513.76
1012.759	1554.89
1013.052	1508.11
1013.344	1511.73
1013.637	1492.74
1013.93	1490.48
1014.222	1470.14
1014.514	1481.22
1014.807	1477.6
1015.099	1450.03
1015.391	1456.13
1015.683	1453.87
1015.976	1438.06
1016.268	1420.88
1016.56	1412.75
1016.851	1413.65
1017.143	1400.99
1017.435	1396.25
1017.727	1370.49
1018.018	1370.71
1018.31	1375.01
1018.602	1356.25
1018.893	1337.72
1019.185	1343.59
1019.476	1318.51
1019.767	1325.06
1020.058	1322.35
1020.35	1298.17
1020.641	1271.05
1020.932	1303.82
1021.223	1293.43
1021.514	1297.04
1021.804	1293.88
1022.095	1217.04
1022.386	1247.78
1022.677	1243.48
1022.967	1219.08
1023.258	1194.22
1023.548	1219.53
1023.839	1198.97
1024.129	1203.49
1024.419	1203.26
1024.709	1172.98
1025	1187.67
1025.29	1205.52
1025.58	1188.57
1025.87	1146.54
1026.16	1161.68
1026.449	1158.51
1026.739	1111.96
1027.029	1131.62
1027.319	1121
1027.608	1113.09
1027.898	1124.39
1028.187	1098.4
1028.477	1093.43
1028.766	1104.73
1029.055	1112.19
1029.344	1065.64
1029.634	1080.55
1029.923	1043.72
1030.212	1088.23
1030.501	1039.87
1030.79	1024.73
1031.078	1030.38
1031.367	1058.18
1031.656	1039.2
1031.945	999.65
1032.233	1036.94
1032.522	1040.1
1032.81	1007.33
1033.099	955.36
1033.387	990.61
1033.675	994.45
1033.963	944.06
1034.251	989.48
1034.54	975.02
1034.828	965.3
1035.116	953.1
1035.403	968.92
1035.691	948.12
1035.979	934.57
1036.267	939.09
1036.554	930.27
1036.842	917.17
1037.129	911.74
1037.417	907.67
1037.704	895.24
1037.992	903.61
1038.279	936.6
1038.566	867.9
1038.853	867.9
1039.14	867.9
