Data from hue_200_FLMS001491_00022.txt Node
Date: Tue Feb 07 16:43:02 GMT 2017
User: dcchb
Spectrometer: FLMS00149
Trigger mode: 0
Integration Time (sec): 2.000000E-2
Scans to average: 10
Electric dark correction enabled: true
Nonlinearity correction enabled: false
Boxcar width: 0
XAxis mode: Wavelengths
Number of Pixels in Spectrum: 2048
>>>>>Begin Spectral Data<<<<<
341.393	-13.38
341.776	-13.38
342.16	-13.38
342.543	-61.06
342.927	-52.02
343.31	-75.07
343.693	-92.7
344.077	-68.97
344.46	-52.7
344.843	-33.94
345.226	-28.06
345.61	-30.78
345.993	-24.9
346.376	-12.7
346.759	18.49
347.142	28.21
347.525	27.08
347.908	49.45
348.291	79.28
348.674	107.3
349.057	110.01
349.44	122.89
349.823	140.29
350.206	150.46
350.588	204.02
350.971	190.01
351.354	219.61
351.737	205.38
352.119	240.4
352.502	288.54
352.884	243.34
353.267	266.17
353.65	277.24
354.032	301.64
354.414	283.79
354.797	307.75
355.179	320.85
355.562	314.3
355.944	336.22
356.326	326.95
356.709	327.18
357.091	342.32
357.473	330.8
357.855	338.25
358.238	347.07
358.62	341.42
359.002	345.49
359.384	336.22
359.766	346.16
360.148	337.12
360.53	312.49
360.912	336.9
361.294	334.86
361.676	327.18
362.057	310.91
362.439	316.79
362.821	348.42
363.203	337.35
363.584	298.93
363.966	330.57
364.348	327.63
364.729	318.37
365.111	303.9
365.493	319.72
365.874	298.93
366.256	304.81
366.637	295.77
367.019	317.01
367.4	287.86
367.781	312.72
368.163	320.63
368.544	310.68
368.925	298.48
369.306	321.08
369.688	311.81
370.069	296.22
370.45	308.88
370.831	316.33
371.212	318.14
371.593	295.77
371.974	300.29
372.355	302.1
372.736	331.47
373.117	307.75
373.498	312.72
373.879	303.45
374.26	320.85
374.641	307.75
375.021	308.65
375.402	312.72
375.783	317.46
376.163	328.31
376.544	318.14
376.925	303.45
377.305	335.99
377.686	319.05
378.066	328.76
378.447	333.06
378.827	333.06
379.208	324.47
379.588	326.05
379.968	331.25
380.349	325.6
380.729	304.81
381.109	333.51
381.489	338.71
381.87	342.32
382.25	328.54
382.63	352.04
383.01	331.7
383.39	338.71
383.77	329.89
384.15	324.69
384.53	326.05
384.91	351.59
385.29	342.1
385.67	350.23
386.049	338.48
386.429	375.09
386.809	358.59
387.189	347.52
387.568	366.73
387.948	368.99
388.328	355.65
388.707	348.65
389.087	343.45
389.466	366.95
389.846	338.03
390.225	366.95
390.605	361.98
390.984	350.46
391.363	375.31
391.743	379.83
392.122	363.79
392.501	367.63
392.881	363.34
393.26	353.85
393.639	376.67
394.018	381.19
394.397	388.2
394.776	389.55
395.155	395.65
395.534	392.26
395.913	394.75
396.292	399.5
396.671	390.46
397.05	413.96
397.429	392.94
397.808	391.81
398.186	375.31
398.565	394.98
398.944	405.37
399.323	398.82
399.701	418.25
400.08	423.22
400.458	401.08
400.837	398.59
401.215	415.99
401.594	408.08
401.972	401.75
402.351	420.51
402.729	421.64
403.107	451.25
403.486	417.12
403.864	429.78
404.242	439.04
404.62	438.59
404.999	447.86
405.377	439.95
405.755	453.96
406.133	454.18
406.511	459.83
406.889	472.94
407.267	489.44
407.645	493.05
408.023	481.98
408.401	505.48
408.779	491.7
409.156	517.23
409.534	525.14
409.912	533.5
410.29	521.98
410.667	547.29
411.045	550.9
411.422	539.38
411.8	539.83
412.178	551.81
412.555	568.53
412.933	571.02
413.31	571.24
413.687	583.9
414.065	599.26
414.442	628.19
414.819	611.92
415.197	640.84
415.574	651.69
415.951	652.37
416.328	657.57
416.705	665.93
417.082	673.39
417.46	691.01
417.837	691.69
418.214	725.14
418.591	712.48
418.967	717.23
419.344	743.67
419.721	734.18
420.098	760.84
420.475	771.01
420.852	780.28
421.228	793.16
421.605	813.95
421.982	820.28
422.358	821.4
422.735	859.6
423.111	857.79
423.488	865.47
423.864	869.99
424.241	870.67
424.617	943.66
424.994	937.56
425.37	976.43
425.746	977.56
426.123	1000.61
426.499	999.48
426.875	1018.01
427.251	1018.46
427.627	1026.82
428.003	1050.78
428.379	1067.73
428.756	1073.6
429.132	1057.56
429.507	1114.28
429.883	1111.79
430.259	1152.24
430.635	1140.49
431.011	1151.11
431.387	1190.43
431.763	1184.79
432.138	1215.29
432.514	1235.41
432.89	1241.05
433.265	1270.66
433.641	1291.68
434.016	1326.02
434.392	1341.17
434.767	1373.48
435.143	1397.21
435.518	1428.85
435.894	1432.46
436.269	1479.01
436.644	1503.65
437.02	1531.44
437.395	1556.98
437.77	1555.17
438.145	1606.02
438.52	1632.23
438.895	1652.34
439.271	1662.29
439.646	1723.53
440.021	1743.19
440.395	1739.57
440.77	1756.52
441.145	1777.76
441.52	1832.9
441.895	1816.18
442.27	1897.76
442.645	1885.11
443.019	1912.22
443.394	1897.99
443.769	1966.91
444.143	1940.02
444.518	2007.14
444.892	2001.03
445.267	2036.97
445.641	2038.55
446.016	2061.82
446.39	2116.96
446.764	2081.94
447.139	2060.47
447.513	2128.04
447.887	2171.65
448.262	2125.55
448.636	2168.04
449.01	2204.65
449.384	2199
449.758	2205.78
450.132	2321.7
450.506	2278.99
450.88	2255.49
451.254	2317.86
451.628	2343.62
452.002	2394.02
452.376	2358.99
452.75	2403.28
453.123	2410.97
453.497	2490.06
453.871	2461.14
454.244	2544.3
454.618	2552.66
454.992	2587.01
455.365	2605.99
455.739	2640.11
456.112	2647.35
456.486	2671.07
456.859	2747.23
457.232	2773.22
457.606	2764.4
457.979	2778.42
458.352	2842.82
458.725	2910.62
459.099	2908.81
459.472	2982.25
459.845	2987
460.218	2986.32
460.591	3057.5
460.964	3056.6
461.337	3144.96
461.71	3168.24
462.083	3184.96
462.456	3235.58
462.829	3259.31
463.201	3263.83
463.574	3239.87
463.947	3341.11
464.32	3436.03
464.692	3430.83
465.065	3485.06
465.438	3523.71
465.81	3561.67
466.183	3603.48
466.555	3674.89
466.928	3645.74
467.3	3703.59
467.672	3725.74
468.045	3807.32
468.417	3861.78
468.789	3887.54
469.161	3933.41
469.534	3998.5
469.906	4077.14
470.278	4114.65
470.65	4125.27
471.022	4189
471.394	4273.52
471.766	4304.25
472.138	4382.22
472.51	4417.92
472.882	4531.59
473.253	4541.08
473.625	4591.48
473.997	4689.33
474.369	4728.87
474.74	4797.8
475.112	4879.83
475.484	4946.95
475.855	5002.99
476.227	5008.87
476.598	5169.54
476.97	5146.94
477.341	5295.19
477.713	5367.27
478.084	5392.13
478.455	5548.74
478.827	5563.88
479.198	5700.82
479.569	5704.89
479.94	5899.01
480.311	5892.46
480.682	6000.03
481.053	6168.38
481.424	6240.92
481.795	6260.13
482.166	6318.89
482.537	6390.52
482.908	6533.8
483.279	6560.92
483.65	6694.24
484.021	6814.69
484.391	6951.41
484.762	6970.85
485.133	7032.32
485.503	7074.35
485.874	7232.99
486.244	7264.17
486.615	7381.91
486.985	7464.17
487.356	7641.34
487.726	7597.27
488.097	7754.56
488.467	7785.06
488.837	7936.92
489.207	7991.16
489.578	8178.27
489.948	8148.22
490.318	8245.16
490.688	8286.29
491.058	8372.84
491.428	8528.77
491.798	8545.27
492.168	8675.21
492.538	8783.46
492.908	8797.92
493.278	8907.07
493.648	8847.63
494.017	9040.17
494.387	9026.16
494.757	9042.66
495.126	9228.87
495.496	9208.98
495.866	9253.73
496.235	9347.28
496.605	9347.96
496.974	9344.12
497.344	9439.48
497.713	9512.93
498.082	9597.22
498.452	9660.27
498.821	9760.6
499.19	9664.34
499.559	9711.57
499.928	9750.21
500.298	9810.77
500.667	9916.76
501.036	9819.81
501.405	9926.02
501.774	9914.73
502.143	9954.05
502.512	9942.97
502.88	10075.4
503.249	10066.81
503.618	10080.37
503.987	10117.21
504.356	10150.65
504.724	10191.1
505.093	10247.37
505.462	10232
505.83	10237.88
506.199	10264.09
506.567	10344.77
506.936	10281.27
507.304	10438.78
507.672	10425.67
508.041	10513.13
508.409	10505.9
508.777	10542.96
509.145	10589.06
509.514	10538.44
509.882	10594.26
510.25	10544.77
510.618	10631.77
510.986	10604.65
511.354	10676.06
511.722	10687.13
512.09	10824.76
512.458	10666.57
512.826	10765.32
513.193	10798.32
513.561	10747.7
513.929	10890.74
514.297	10843.51
514.664	10874.93
515.032	10804.19
515.4	10887.58
515.767	10917.18
516.135	10960.12
516.502	10857.75
516.869	11008.26
517.237	10984.08
517.604	10892.33
517.972	10939.56
518.339	10908.6
518.706	10982.04
519.073	10923.51
519.44	10954.02
519.808	11018.2
520.175	10960.12
520.542	11032.44
520.909	11004.41
521.276	11049.84
521.643	11036.28
522.009	11078.31
522.376	11095.26
522.743	11081.47
523.11	11133
523.477	11116.28
523.843	11142.04
524.21	11121.02
524.577	11194.69
524.943	11218.42
525.31	11183.84
525.676	11236.05
526.043	11184.3
526.409	11177.97
526.776	11286.21
527.142	11227.01
527.508	11215.26
527.874	11255.71
528.241	11230.85
528.607	11179.1
528.973	11255.48
529.339	11176.39
529.705	11197.63
530.071	11145.2
530.437	11232.88
530.803	11229.49
531.169	11170.74
531.535	11103.17
531.901	11112.43
532.267	11106.78
532.632	11118.08
532.998	11071.3
533.364	11039.22
533.73	10926.45
534.095	11001.48
534.461	10957.86
534.826	11018.42
535.192	10901.59
535.557	10949.5
535.923	10823.85
536.288	10822.5
536.653	10770.3
537.019	10748.38
537.384	10716.29
537.749	10697.08
538.114	10652.33
538.479	10606.23
538.845	10568.95
539.21	10574.37
539.575	10462.06
539.94	10413.24
540.305	10469.06
540.67	10407.37
541.034	10372.11
541.399	10355.17
541.764	10286.69
542.129	10234.04
542.494	10140.26
542.858	10174.38
543.223	10127.15
543.587	10138.22
543.952	9993.14
544.316	10023.2
544.681	9947.04
545.045	9938.68
545.41	9948.17
545.774	9892.13
546.138	9843.09
546.503	9710.66
546.867	9731.91
547.231	9752.24
547.595	9655.3
547.959	9622.53
548.324	9568.97
548.688	9562.64
549.052	9561.74
549.416	9525.13
549.779	9460.95
550.143	9476.54
550.507	9432.25
550.871	9335.08
551.235	9273.61
551.599	9322.42
551.962	9282.43
552.326	9191.13
552.689	9247.62
553.053	9069.32
553.417	9101.64
553.78	9170.56
554.143	9034.07
554.507	9048.08
554.87	8981.19
555.234	9089.89
555.597	8956.33
555.96	8961.53
556.323	8909.78
556.686	8878.37
557.05	8879.05
557.413	8862.55
557.776	8763.12
558.139	8875.88
558.502	8848.31
558.865	8792.72
559.228	8776.68
559.59	8812.83
559.953	8754.76
560.316	8824.36
560.679	8748.43
561.041	8756.56
561.404	8772.61
561.767	8743
562.129	8715.21
562.492	8762.44
562.854	8679.05
563.217	8726.73
563.579	8681.76
563.941	8644.48
564.304	8760.63
564.666	8683.35
565.028	8766.51
565.39	8677.47
565.753	8701.65
566.115	8677.7
566.477	8695.55
566.839	8683.35
567.201	8728.09
567.563	8666.62
567.925	8736.45
568.287	8703.68
568.648	8752.04
569.01	8771.25
569.372	8793.62
569.734	8761.76
570.095	8744.81
570.457	8803.57
570.819	8720.41
571.18	8771.93
571.542	8706.85
571.903	8714.53
572.265	8739.16
572.626	8703.68
572.987	8787.98
573.349	8710.24
573.71	8752.5
574.071	8757.92
574.432	8783
574.794	8833.85
575.155	8782.33
575.516	8747.3
575.877	8808.54
576.238	8772.61
576.599	8850.8
576.96	8812.38
577.32	8797.47
577.681	8855.54
578.042	8835.66
578.403	8855.32
578.763	8799.5
579.124	8724.7
579.485	8823.23
579.845	8906.39
580.206	8751.14
580.566	8834.08
580.927	8819.84
581.287	8806.96
581.648	8795.21
582.008	8810.35
582.368	8782.1
582.728	8800.63
583.089	8867.97
583.449	8819.61
583.809	8842.66
584.169	8801.76
584.529	8801.08
584.889	8819.39
585.249	8780.74
585.609	8766.51
585.969	8842.89
586.329	8732.38
586.688	8758.6
587.048	8764.7
587.408	8812.83
587.768	8749.78
588.127	8776.9
588.487	8686.73
588.846	8755.21
589.206	8737.58
589.565	8769.44
589.925	8789.78
590.284	8695.77
590.643	8774.87
591.003	8749.33
591.362	8776.22
591.721	8712.95
592.08	8664.81
592.44	8726.06
592.799	8747.98
593.158	8718.15
593.517	8704.59
593.876	8727.41
594.235	8708.43
594.593	8653.06
594.952	8711.14
595.311	8696.68
595.67	8592.5
596.029	8770.8
596.387	8685.83
596.746	8795.21
597.104	8706.17
597.463	8646.06
597.822	8731.25
598.18	8639.5
598.538	8633.85
598.897	8666.62
599.255	8581.43
599.613	8732.84
599.972	8687.19
600.33	8619.39
600.688	8655.78
601.046	8619.84
601.404	8749.78
601.762	8608.77
602.12	8718.15
602.478	8692.61
602.836	8650.58
603.194	8643.35
603.552	8645.15
603.91	8597.25
604.268	8663.23
604.625	8613.74
604.983	8672.72
605.341	8618.94
605.698	8633.63
606.056	8722.67
606.413	8603.57
606.771	8656.91
607.128	8672.95
607.485	8687.19
607.843	8632.27
608.2	8635.66
608.557	8702.78
608.914	8668.2
609.272	8691.03
609.629	8707.07
609.986	8690.58
610.343	8641.31
610.7	8734.87
611.057	8783.68
611.414	8659.62
611.771	8713.4
612.127	8713.4
612.484	8679.28
612.841	8722.89
613.198	8712.95
613.554	8719.28
613.911	8691.03
614.267	8765.38
614.624	8759.28
614.98	8743.23
615.337	8787.98
615.693	8795.88
616.05	8766.05
616.406	8788.65
616.762	8766.96
617.118	8786.39
617.475	8886.28
617.831	8837.92
618.187	8785.72
618.543	8796.34
618.899	8863
619.255	8858.26
619.611	8832.49
619.967	8841.99
620.323	8898.48
620.678	8886.96
621.034	8813.29
621.39	8833.85
621.746	8827.97
622.101	8865.26
622.457	8767.86
622.812	8841.53
623.168	8894.19
623.523	8820.06
623.879	8897.58
624.234	8879.95
624.589	8835.43
624.945	8870.23
625.3	8853.51
625.655	8813.74
626.01	8896.22
626.365	8890.12
626.72	8865.49
627.075	8831.59
627.43	8828.2
627.785	8840.63
628.14	8841.76
628.495	8789.56
628.85	8818.03
629.205	8761.76
629.559	8758.37
629.914	8818.71
630.269	8742.33
630.623	8727.41
630.978	8725.15
631.332	8799.5
631.687	8805.15
632.041	8670.24
632.396	8739.16
632.75	8646.74
633.104	8711.82
633.459	8641.99
633.813	8644.02
634.167	8655.1
634.521	8730.8
634.875	8637.92
635.229	8656
635.583	8605.83
635.937	8599.28
636.291	8586.62
636.645	8571.94
636.999	8561.09
637.352	8602.22
637.706	8505.27
638.06	8613.06
638.413	8536.91
638.767	8557.92
639.121	8498.04
639.474	8485.16
639.828	8490.36
640.181	8509.34
640.534	8527.42
640.888	8455.78
641.241	8482.45
641.594	8497.81
641.947	8462.33
642.301	8467.31
642.654	8465.05
643.007	8473.86
643.36	8460.07
643.713	8466.4
644.066	8424.37
644.419	8377.14
644.771	8375.56
645.124	8268.44
645.477	8275.22
645.83	8236.58
646.182	8170.36
646.535	8157.26
646.888	8219.63
647.24	8105.73
647.593	8158.61
647.945	8173.3
648.298	8139.18
648.65	8100.76
649.002	8075
649.355	8107.99
649.707	8125.62
650.059	8166.3
650.411	8260.76
650.763	8331.26
651.115	8375.33
651.467	8378.49
651.819	8377.82
652.171	8303.69
652.523	8288.55
652.875	8307.54
653.227	8299.63
653.578	8405.39
653.93	8298.04
654.282	8324.71
654.633	8300.08
654.985	8219.4
655.337	8244.26
655.688	8282.45
656.039	8330.13
656.391	8270.47
656.742	8306.86
657.094	8318.83
657.445	8335.11
657.796	8351.38
658.147	8266.41
658.498	8280.87
658.849	8348.44
659.2	8310.47
659.551	8344.6
659.902	8294.2
660.253	8302.11
660.604	8277.93
660.955	8288.1
661.306	8368.78
661.656	8349.57
662.007	8384.6
662.358	8322.9
662.708	8372.62
663.059	8331.04
663.409	8383.47
663.76	8382.11
664.11	8323.35
664.461	8406.06
664.811	8368.1
665.161	8432.28
665.511	8323.58
665.862	8333.3
666.212	8421.43
666.562	8380.98
666.912	8422.11
667.262	8411.04
667.612	8438.15
667.962	8364.71
668.312	8381.88
668.662	8475.44
669.011	8343.47
669.361	8420.75
669.711	8349.34
670.06	8393.64
670.41	8428.66
670.76	8303.24
671.109	8386.18
671.459	8365.84
671.808	8317.48
672.157	8299.85
672.507	8303.02
672.856	8302.56
673.205	8282
673.554	8342.79
673.904	8305.73
674.253	8328.78
674.602	8320.42
674.951	8217.59
675.3	8130.14
675.649	8274.54
675.998	8271.15
676.346	8171.27
676.695	8247.88
677.044	8175.11
677.393	8166.52
677.741	8262.34
678.09	8161.78
678.438	8176.92
678.787	8148.67
679.135	8204.04
679.484	8147.77
679.832	8121.78
680.181	8067.54
680.529	8156.13
680.877	8104.38
681.225	8122.68
681.573	8180.08
681.922	8061.89
682.27	8041.1
682.618	8068.9
682.966	8068.22
683.314	7967.88
683.661	7970.6
684.009	7970.82
684.357	7924.27
684.705	7928.11
685.053	7957.94
685.4	7909.35
685.748	7885.17
686.095	7833.88
686.443	7801.11
686.79	7802.92
687.138	7884.27
687.485	7825.06
687.832	7798.62
688.18	7763.6
688.527	7744.61
688.874	7705.97
689.221	7671.17
689.568	7642.24
689.915	7638.4
690.262	7646.31
690.609	7619.64
690.956	7580.32
691.303	7558.85
691.65	7538.97
691.997	7526.77
692.344	7522.92
692.69	7494.22
693.037	7413.1
693.383	7367.45
693.73	7392.98
694.077	7350.05
694.423	7387.33
694.769	7342.82
695.116	7309.14
695.462	7305.75
695.808	7225.98
696.155	7204.29
696.501	7239.99
696.847	7172.42
697.193	7153.89
697.539	7160.67
697.885	7127
698.231	7014.01
698.577	7074.8
698.923	7073.9
699.269	7023.73
699.614	6985.76
699.96	6999.77
700.306	6966.1
700.651	6910.28
700.997	6899.66
701.342	6899.66
701.688	6846.56
702.033	6766.79
702.379	6787.58
702.724	6807.69
703.069	6758.88
703.415	6714.58
703.76	6674.13
704.105	6672.55
704.45	6702.83
704.795	6632.33
705.14	6618.77
705.485	6607.92
705.83	6603.4
706.175	6597.3
706.52	6610.18
706.865	6520.24
707.209	6522.27
707.554	6482.95
707.899	6479.11
708.243	6442.27
708.588	6399.56
708.932	6355.95
709.277	6369.96
709.621	6381.71
709.966	6318.44
710.31	6369.06
710.654	6262.17
710.998	6266.69
711.342	6276.18
711.687	6260.13
712.031	6274.14
712.375	6238.21
712.719	6214.94
713.063	6240.7
713.407	6274.59
713.75	6171.77
714.094	6185.11
714.438	6191.43
714.782	6167.03
715.125	6117.08
715.469	6135.84
715.812	6110.98
716.156	6117.08
716.499	6034.38
716.843	6075.28
717.186	6045.67
717.53	6040.02
717.873	6114.15
718.216	6033.92
718.559	6063.75
718.902	6018.1
719.246	6063.75
719.589	6025.79
719.932	5973.13
720.275	6031.44
720.617	5993.92
720.96	6002.74
721.303	5965.22
721.646	5985.34
721.989	5996.18
722.331	5950.76
722.674	5951.67
723.016	5978.11
723.359	5950.08
723.701	5949.63
724.044	5893.36
724.386	5917.99
724.729	5945.56
725.071	5951.67
725.413	5917.09
725.755	5912.12
726.097	5861.27
726.439	5860.37
726.782	5861.95
727.124	5909.86
727.465	5903.76
727.807	5885.23
728.149	5911.89
728.491	5813.36
728.833	5878
729.175	5844.78
729.516	5837.32
729.858	5812.69
730.199	5845.45
730.541	5851.56
730.882	5841.84
731.224	5854.04
731.565	5809.75
731.906	5854.72
732.248	5884.1
732.589	5799.13
732.93	5791.9
733.271	5853.36
733.612	5824.44
733.953	5806.13
734.294	5856.98
734.635	5838.22
734.976	5843.42
735.317	5814.27
735.658	5827.83
735.999	5851.1
736.339	5851.56
736.68	5911.89
737.021	5889.97
737.361	5868.96
737.702	5908.28
738.042	5873.93
738.383	5915.06
738.723	5933.81
739.063	5885.68
739.404	5892.46
739.744	5955.73
740.084	5971.1
740.424	6002.96
740.764	5985.34
741.104	5961.83
741.444	5917.32
741.784	5954.6
742.124	5987.37
742.464	5986.47
742.804	5994.15
743.143	6030.99
743.483	6061.27
743.823	6088.61
744.162	6094.71
744.502	6173.35
744.841	6152.34
745.181	6136.29
745.52	6179.91
745.86	6223.07
746.199	6262.62
746.538	6294.03
746.877	6331.54
747.216	6378.32
747.556	6447.7
747.895	6465.1
748.234	6475.95
748.573	6538.77
748.911	6618.31
749.25	6586.45
749.589	6663.51
749.928	6716.62
750.267	6829.38
750.605	6865.09
750.944	6891.75
751.283	7000.45
751.621	7058.76
751.96	7104.86
752.298	7234.12
752.636	7323.61
752.975	7405.19
753.313	7404.73
753.651	7633.88
753.989	7629.81
754.327	7808.57
754.666	7842.01
755.004	8017.37
755.342	8139.18
755.679	8244.26
756.017	8362.9
756.355	8479.28
756.693	8600.18
757.031	8803.34
757.368	8866.39
757.706	9041.75
758.044	9150.45
758.381	9288.98
758.719	9433.61
759.056	9591.8
759.394	9754.05
759.731	9899.36
760.068	10157.43
760.405	10188.39
760.743	10410.31
761.08	10619.57
761.417	10688.04
761.754	10953.12
762.091	11118.54
762.428	11327.34
762.765	11474.23
763.102	11696.83
763.438	11831.28
763.775	11956.03
764.112	12137.72
764.449	12297.71
764.785	12543.13
765.122	12699.28
765.458	12815.44
765.795	12959.16
766.131	13212.27
766.467	13283.9
766.804	13393.5
767.14	13599.83
767.476	13783.32
767.812	13882.08
768.148	14082.53
768.485	14155.74
768.821	14271.9
769.157	14479.12
769.492	14567.26
769.828	14802.05
770.164	14776.97
770.5	14952.56
770.836	15193.23
771.171	15221.25
771.507	15391.42
771.842	15360.01
772.178	15550.28
772.513	15660.34
772.849	15691.07
773.184	15775.14
773.519	15924.06
773.855	16001.57
774.19	16023.49
774.525	16133.54
774.86	16333.54
775.195	16345.74
775.53	16450.15
775.865	16314.56
776.2	16425.51
776.535	16467.1
776.87	16554.78
777.205	16653.08
777.539	16694.21
777.874	16772.17
778.209	16747.31
778.543	16761.55
778.878	16775.11
779.212	16918.38
779.547	16813.07
779.881	16995.67
780.215	17000.41
780.55	17079.51
780.884	17024.82
781.218	17070.24
781.552	17141.43
781.886	17117.02
782.22	17138.72
782.554	17067.53
782.888	16995.89
783.222	17027.31
783.556	17023.46
783.889	17056.01
784.223	17033.41
784.557	17030.24
784.89	17195.21
785.224	17106.85
785.557	17029.34
785.891	17040.41
786.224	17079.06
786.558	17166.74
786.891	16942.34
787.224	16966.74
787.557	17016.69
787.891	16971.04
788.224	17027.53
788.557	17011.71
788.89	17039.96
789.223	17057.59
789.556	17033.41
789.888	16966.52
790.221	16918.83
790.554	16686.3
790.887	16883.81
791.219	16752.51
791.552	16828.67
791.884	16773.3
792.217	16655.79
792.549	16811.49
792.882	16585.28
793.214	16607.2
793.546	16679.97
793.879	16553.19
794.211	16479.07
794.543	16642.01
794.875	16569.01
795.207	16549.8
795.539	16580.54
795.871	16470.49
796.203	16386.19
796.535	16361.79
796.867	16391.39
797.198	16319.75
797.53	16377.83
797.862	16166.76
798.193	16310.04
798.525	16310.49
798.856	16264.39
799.188	16116.82
799.519	16074.56
799.85	15987.79
800.182	15973.32
800.513	16086.99
800.844	15971.06
801.175	16012.19
801.506	16037.28
801.837	15843.61
802.168	15787.11
802.499	15724.06
802.83	15744.18
803.161	15666.89
803.491	15716.61
803.822	15769.94
804.153	15639.32
804.483	15473
804.814	15541.02
805.145	15555.25
805.475	15507.12
805.805	15466.67
806.136	15411.08
806.466	15516.16
806.796	15409.27
807.126	15268.71
807.457	15308.71
807.787	15292.89
808.117	15226.22
808.447	15158.43
808.777	15243.85
809.107	15109.62
809.436	15092.44
809.766	15207.24
810.096	15096.96
810.426	14998.89
810.755	15056.06
811.085	14925.67
811.414	14961.37
811.744	14870.98
812.073	14874.82
812.403	14823.97
812.732	14792.56
813.061	14801.15
813.39	14702.4
813.719	14720.93
814.049	14793.24
814.378	14730.42
814.707	14602.06
815.036	14656.07
815.365	14632.79
815.693	14453.59
816.022	14515.06
816.351	14507.15
816.68	14405.91
817.008	14432.12
817.337	14291.11
817.665	14318.23
817.994	14308.51
818.322	14296.08
818.651	14214.27
818.979	14282.75
819.307	14277.77
819.636	14243.2
819.964	14148.06
820.292	14191.22
820.62	14229.64
820.948	14190.54
821.276	14190.09
821.604	14160.04
821.932	14136.99
822.259	14143.54
822.587	14148.74
822.915	14080.72
823.243	14164.1
823.57	14075.07
823.898	14123.2
824.225	14064.9
824.553	14147.38
824.88	14136.08
825.207	14199.58
825.535	14165.46
825.862	14164.1
826.189	14113.48
826.516	14197.32
826.843	14216.08
827.17	14232.35
827.497	14227.61
827.824	14257.66
828.151	14216.98
828.478	14156.65
828.805	14252.69
829.131	14235.29
829.458	14157.33
829.785	14107.16
830.111	14228.06
830.438	14237.55
830.764	14206.59
831.09	14212.47
831.417	14195.97
831.743	14272.58
832.069	14093.82
832.395	14163.2
832.722	14221.5
833.048	14144.22
833.374	14181.05
833.7	14122.3
834.026	14193.93
834.351	14136.08
834.677	14110.77
835.003	14153.26
835.329	14164.56
835.654	14170.88
835.98	14024
836.306	14032.36
836.631	14026.93
836.956	14029.87
837.282	13998.69
837.607	13964.56
837.932	13934.05
838.258	13948.29
838.583	13943.55
838.908	13771.8
839.233	13855.19
839.558	13805.92
839.883	13749.65
840.208	13673.5
840.533	13790.56
840.858	13699.71
841.182	13681.41
841.507	13646.38
841.832	13642.31
842.156	13616.32
842.481	13516.89
842.805	13546.27
843.13	13540.39
843.454	13574.97
843.778	13494.97
844.103	13556.21
844.427	13417.68
844.751	13378.14
845.075	13299.95
845.399	13353.05
845.723	13282.09
846.047	13230.34
846.371	13139.95
846.695	13160.52
847.019	13093.4
847.343	12997.58
847.666	12988.99
847.99	12954.42
848.313	12944.93
848.637	12837.13
848.96	12852.95
849.284	12738.15
849.607	12678.72
849.931	12589.23
850.254	12556.46
850.577	12475.34
850.9	12414.32
851.223	12487.76
851.546	12329.58
851.869	12266.08
852.192	12414.55
852.515	12266.3
852.838	12195.12
853.161	12156.93
853.483	12120.54
853.806	12044.84
854.129	12058.4
854.451	12003.71
854.774	11909.02
855.096	11837.61
855.419	11854.79
855.741	11836.93
856.063	11800.1
856.385	11740.89
856.708	11784.28
857.03	11679.42
857.352	11675.58
857.674	11657.96
857.996	11524.17
858.318	11643.04
858.64	11534.34
858.961	11506.1
859.283	11471.75
859.605	11402.6
859.926	11464.06
860.248	11406.21
860.57	11382.03
860.891	11330.96
861.212	11328.02
861.534	11294.35
861.855	11162.83
862.176	11259.55
862.498	11259.55
862.819	11214.35
863.14	11197.4
863.461	11105.65
863.782	11077.41
864.103	11115.6
864.424	11064.3
864.745	11104.98
865.065	10991.08
865.386	10995.83
865.707	10939.56
866.027	10954.7
866.348	10881.93
866.668	10950.4
866.989	10888.26
867.309	10890.52
867.63	10894.81
867.95	10883.51
868.27	10795.15
868.59	10841.71
868.91	10760.35
869.23	10769.62
869.55	10702.95
869.87	10799.22
870.19	10730.3
870.51	10772.78
870.83	10689.85
871.15	10730.07
871.469	10665.21
871.789	10734.14
872.109	10675.16
872.428	10629.51
872.748	10654.59
873.067	10598.77
873.386	10632.9
873.706	10596.74
874.025	10533.47
874.344	10490.53
874.663	10512.68
874.982	10474.03
875.301	10493.69
875.62	10458.67
875.939	10438.33
876.258	10472.68
876.577	10382.51
876.896	10359.46
877.214	10380.7
877.533	10356.97
877.852	10360.82
878.17	10327.6
878.489	10398.33
878.807	10351.78
879.125	10316.3
879.444	10351.78
879.762	10240.59
880.08	10300.7
880.398	10156.3
880.716	10219.8
881.034	10131.89
881.352	10170.99
881.67	10105.45
881.988	10157.66
882.306	10072.01
882.624	10097.55
882.941	9981.62
883.259	10033.82
883.577	9948.4
883.894	9944.78
884.212	9958.34
884.529	9904.56
884.846	9851
885.164	9851.22
885.481	9788.4
885.798	9841.96
886.115	9832.92
886.432	9797.21
886.75	9684.22
887.067	9767.16
887.383	9716.54
887.7	9728.06
888.017	9677.67
888.334	9645.58
888.651	9614.62
888.967	9575.75
889.284	9519.71
889.6	9516.32
889.917	9474.28
890.233	9440.84
890.55	9446.04
890.866	9448.52
891.182	9403.55
891.498	9367.39
891.815	9323.78
892.131	9272.48
892.447	9277.45
892.763	9283.33
893.079	9214.86
893.395	9185.03
893.71	9144.12
894.026	9169.66
894.342	9097.35
894.657	9063.22
894.973	9051.47
895.289	9052.83
895.604	9049.21
895.92	8968.99
896.235	8890.35
896.55	8938.25
896.865	8818.93
897.181	8843.79
897.496	8810.8
897.811	8781.65
898.126	8739.84
898.441	8705.72
898.756	8661.42
899.071	8649.22
899.386	8663.23
899.7	8616.91
900.015	8531.48
900.33	8450.13
900.644	8478.83
900.959	8494.65
901.273	8388.44
901.588	8402
901.902	8383.24
902.216	8361.55
902.531	8384.37
902.845	8291.94
903.159	8314.54
903.473	8249.01
903.787	8197.26
904.101	8140.31
904.415	8171.04
904.729	8182.12
905.042	8011.5
905.356	8030.25
905.67	8035.45
905.984	8004.04
906.297	7960.88
906.611	7917.26
906.924	7895.12
907.237	7928.11
907.551	7801.11
907.864	7825.51
908.177	7796.14
908.491	7715.01
908.804	7675.01
909.117	7611.73
909.43	7569.93
909.743	7587.55
910.056	7539.65
910.368	7544.84
910.681	7527.67
910.994	7425.98
911.307	7422.81
911.619	7378.52
911.932	7415.36
912.244	7340.56
912.557	7319.31
912.869	7243.83
913.181	7285.42
913.494	7206.32
913.806	7164.97
914.118	7092.88
914.43	7122.03
914.742	7104.4
915.054	7087.23
915.366	7082.03
915.678	7037.06
915.99	6971.98
916.302	6951.19
916.613	6885.88
916.925	6895.82
917.236	6922.94
917.548	6884.97
917.859	6854.24
918.171	6759.1
918.482	6755.94
918.794	6715.04
919.105	6757.29
919.416	6690.86
919.727	6625.09
920.038	6619.9
920.349	6637.52
920.66	6594.36
920.971	6584.64
921.282	6508.94
921.593	6474.36
921.903	6489.5
922.214	6501.26
922.525	6426
922.835	6397.53
923.146	6350.75
923.456	6340.81
923.767	6356.63
924.077	6257.19
924.387	6278.66
924.697	6214.03
925.008	6254.03
925.318	6199.79
925.628	6176.52
925.938	6149.85
926.248	6060.82
926.558	6098.33
926.867	6030.99
927.177	6071.66
927.487	6042.28
927.796	5944.21
928.106	6002.29
928.416	5957.09
928.725	5951.21
929.034	5879.13
929.344	5867.83
929.653	5880.71
929.962	5785.57
930.271	5791.67
930.581	5771.33
930.89	5728.62
931.199	5726.59
931.508	5722.52
931.817	5689.3
932.125	5718
932.434	5652.69
932.743	5610.43
933.051	5591.9
933.36	5575.4
933.669	5510.32
933.977	5550.55
934.286	5523.43
934.594	5500.83
934.902	5422.41
935.21	5434.17
935.519	5440.04
935.827	5378.12
936.135	5350.55
936.443	5325.92
936.751	5335.86
937.059	5290.44
937.367	5238.24
937.674	5299.25
937.982	5248.63
938.29	5221.52
938.597	5184
938.905	5145.13
939.213	5134.96
939.52	5106.04
939.827	5132.48
940.135	5091.35
940.442	5033.27
940.749	5073.5
941.056	5005.93
941.363	5008.64
941.67	4945.14
941.977	4917.57
942.284	4952.37
942.591	4940.39
942.898	4864.91
943.205	4917.12
943.511	4852.94
943.818	4827.4
944.125	4792.6
944.431	4781.3
944.738	4799.15
945.044	4753.28
945.35	4716.67
945.657	4677.35
945.963	4650.91
946.269	4695.2
946.575	4639.38
946.881	4602.55
947.187	4586.05
947.493	4590.8
947.799	4558.03
948.105	4533.85
948.41	4518.71
948.716	4549.22
949.022	4494.53
949.327	4509.9
949.633	4437.13
949.938	4485.26
950.244	4423.12
950.549	4391.25
950.854	4372.95
951.16	4356.23
951.465	4309.22
951.77	4318.04
952.075	4318.49
952.38	4306.51
952.685	4244.59
952.99	4250.47
953.294	4230.81
953.599	4215.89
953.904	4225.61
954.209	4180.86
954.513	4168.66
954.818	4150.13
955.122	4113.97
955.426	4089.12
955.731	4094.77
956.035	4066.52
956.339	4070.81
956.643	4056.12
956.948	3988.1
957.252	4017.25
957.556	3957.14
957.86	3933.87
958.163	3953.98
958.467	3954.88
958.771	3904.71
959.075	3917.59
959.378	3838.27
959.682	3899.29
959.985	3896.13
960.289	3850.93
960.592	3848.44
960.896	3822
961.199	3794.43
961.502	3810.03
961.805	3791.95
962.108	3735.9
962.411	3696.81
962.714	3677.15
963.017	3678.73
963.32	3661.1
963.623	3653.87
963.926	3662.01
964.228	3630.14
964.531	3612.07
964.833	3596.7
965.136	3567.32
965.438	3563.03
965.741	3589.69
966.043	3485.06
966.345	3487.32
966.648	3534.55
966.95	3490.94
967.252	3455.91
967.554	3487.78
967.856	3475.12
968.158	3405.07
968.46	3383.6
968.761	3394.9
969.063	3399.42
969.365	3380.66
969.666	3361.45
969.968	3354.45
970.269	3324.84
970.571	3294.33
970.872	3303.6
971.174	3257.95
971.475	3287.33
971.776	3245.07
972.077	3226.31
972.378	3215.47
972.679	3233.32
972.98	3211.85
973.281	3189.03
973.582	3146.99
973.883	3158.97
974.183	3170.27
974.484	3157.84
974.785	3116.94
975.085	3107.9
975.386	3116.94
975.686	3059.99
975.986	3058.63
976.287	3024.51
976.587	2975.92
976.887	3003.49
977.187	3006.66
977.487	2989.94
977.787	2992.42
978.087	2951.97
978.387	2937.96
978.687	2965.76
978.987	2935.47
979.286	2939.54
979.586	2903.38
979.885	2903.16
980.185	2837.4
980.484	2872.65
980.784	2834.46
981.083	2827
981.382	2823.84
981.682	2814.35
981.981	2781.13
982.28	2789.49
982.579	2821.13
982.878	2771.18
983.177	2735.7
983.475	2769.6
983.774	2688.93
984.073	2708.14
984.372	2702.03
984.67	2686.89
984.969	2707.68
985.267	2680.57
985.566	2652.77
985.864	2668.14
986.162	2609.15
986.461	2618.42
986.759	2605.99
987.057	2548.14
987.355	2569.38
987.653	2570.29
987.951	2563.51
988.249	2575.48
988.547	2561.92
988.844	2502.49
989.142	2509.72
989.44	2492.1
989.737	2453.23
990.035	2497.52
990.332	2455.94
990.63	2427.92
990.927	2457.52
991.224	2466.56
991.521	2403.06
991.819	2397.41
992.116	2429.05
992.413	2425.43
992.71	2382.72
993.006	2342.49
993.303	2370.74
993.6	2381.82
993.897	2325.55
994.193	2332.1
994.49	2335.72
994.787	2316.96
995.083	2278.09
995.379	2292.33
995.676	2266.34
995.972	2261.82
996.268	2234.02
996.565	2242.61
996.861	2224.53
997.157	2201.93
997.453	2195.83
997.749	2213.46
998.044	2174.82
998.34	2163.97
998.636	2138.66
998.932	2145.66
999.227	2133.46
999.523	2145.21
999.818	2103.86
1000.114	2103.86
1000.409	2092.78
1000.704	2067.02
1001	2050.98
1001.295	2044.65
1001.59	2059.79
1001.885	2048.72
1002.18	2024.31
1002.475	2002.62
1002.77	1975.5
1003.065	1991.09
1003.359	1977.08
1003.654	1951.09
1003.949	1961.71
1004.243	1960.81
1004.538	1927.59
1004.832	1912
1005.127	1887.59
1005.421	1885.33
1005.715	1922.39
1006.009	1877.65
1006.304	1832.9
1006.598	1828.84
1006.892	1878.78
1007.186	1828.84
1007.48	1839.91
1007.773	1814.37
1008.067	1812.79
1008.361	1776.18
1008.655	1754.94
1008.948	1773.24
1009.242	1762.17
1009.535	1758.78
1009.829	1750.65
1010.122	1735.51
1010.415	1741.83
1010.708	1720.59
1011.001	1715.62
1011.295	1701.16
1011.588	1723.75
1011.881	1672.46
1012.173	1662.29
1012.466	1683.08
1012.759	1635.17
1013.052	1617.54
1013.344	1642.17
1013.637	1611.21
1013.93	1570.31
1014.222	1582.97
1014.514	1598.33
1014.807	1571.89
1015.099	1580.26
1015.391	1571.67
1015.683	1553.82
1015.976	1542.74
1016.268	1514.49
1016.56	1561.5
1016.851	1525.12
1017.143	1502.97
1017.435	1518.11
1017.727	1491.9
1018.018	1473.82
1018.31	1465
1018.602	1487.38
1018.893	1447.15
1019.185	1445.57
1019.476	1405.12
1019.767	1402.63
1020.058	1411.45
1020.35	1406.7
1020.641	1382.97
1020.932	1390.43
1021.223	1367.83
1021.514	1401.05
1021.804	1342.3
1022.095	1359.92
1022.386	1344.1
1022.677	1366.93
1022.967	1332.35
1023.258	1317.44
1023.548	1329.87
1023.839	1293.03
1024.129	1283.31
1024.419	1280.6
1024.709	1259.81
1025	1269.08
1025.29	1260.49
1025.58	1240.15
1025.87	1234.28
1026.16	1218.23
1026.449	1262.07
1026.739	1223.65
1027.029	1236.76
1027.319	1166.25
1027.608	1183.66
1027.898	1204.45
1028.187	1175.75
1028.477	1186.14
1028.766	1161.51
1029.055	1170.32
1029.344	1145.24
1029.634	1174.16
1029.923	1149.31
1030.212	1146.59
1030.501	1112.47
1030.79	1089.19
1031.078	1112.92
1031.367	1112.92
1031.656	1115.63
1031.945	1089.87
1032.233	1109.98
1032.522	1064.56
1032.81	1079.93
1033.099	1061.85
1033.387	1044.45
1033.675	1042.64
1033.963	1049.65
1034.251	1028.86
1034.54	1017.78
1034.828	1016.2
1035.116	1010.1
1035.403	1007.39
1035.691	1018.46
1035.979	985.24
1036.267	976.43
1036.554	971.23
1036.842	993.6
1037.129	975.3
1037.417	933.94
1037.704	933.27
1037.992	962.42
1038.279	945.47
1038.566	911.8
1038.853	911.8
1039.14	911.8
