Data from hue_270_FLMS001491_00049.txt Node
Date: Tue Feb 07 15:57:15 GMT 2017
User: dcchb
Spectrometer: FLMS00149
Trigger mode: 0
Integration Time (sec): 2.000000E-2
Scans to average: 10
Electric dark correction enabled: true
Nonlinearity correction enabled: false
Boxcar width: 0
XAxis mode: Wavelengths
Number of Pixels in Spectrum: 2048
>>>>>Begin Spectral Data<<<<<
341.393	-10.38
341.776	-10.38
342.16	-10.38
342.543	-56.48
342.927	-47.22
343.31	-74.11
343.693	-63.71
344.077	-67.1
344.46	-61
344.843	-53.09
345.226	-40.66
345.61	-26.88
345.993	-23.71
346.376	6.57
346.759	-6.54
347.142	37.08
347.525	47.92
347.908	66.23
348.291	49.28
348.674	96.28
349.057	113.46
349.44	129.5
349.823	139.9
350.206	166.79
350.588	179.22
350.971	207.01
351.354	237.75
351.737	232.78
352.119	249.05
352.502	260.8
352.884	263.51
353.267	262.83
353.65	295.83
354.032	274.58
354.414	303.73
354.797	311.19
355.179	315.03
355.562	307.58
355.944	328.82
356.326	325.88
356.709	319.1
357.091	324.98
357.473	346.45
357.855	326.11
358.238	322.04
358.62	336.28
359.002	315.49
359.384	334.69
359.766	331.3
360.148	339.21
360.53	336.73
360.912	332.66
361.294	314.58
361.676	358.65
362.057	320.68
362.439	341.47
362.821	305.77
363.203	314.13
363.584	322.49
363.966	303.96
364.348	313.23
364.729	320.91
365.111	321.14
365.493	322.94
365.874	326.11
366.256	326.56
366.637	317.52
367.019	318.88
367.4	298.09
367.781	292.89
368.163	310.06
368.544	315.26
368.925	310.74
369.306	329.95
369.688	302.15
370.069	315.71
370.45	298.09
370.831	294.47
371.212	298.31
371.593	307.58
371.974	302.38
372.355	303.73
372.736	292.89
373.117	311.19
373.498	304.64
373.879	315.26
374.26	314.81
374.641	329.5
375.021	305.99
375.402	324.98
375.783	314.58
376.163	287.69
376.544	318.88
376.925	329.95
377.305	332.89
377.686	306.9
378.066	328.14
378.447	308.71
378.827	321.59
379.208	329.05
379.588	317.52
379.968	333.11
380.349	323.4
380.729	334.92
381.109	349.61
381.489	339.21
381.87	336.73
382.25	341.47
382.63	345.77
383.01	325.88
383.39	312.1
383.77	345.99
384.15	327.24
384.53	345.99
384.91	353.68
385.29	326.33
385.67	365.2
386.049	361.36
386.429	364.75
386.809	353.23
387.189	332.89
387.568	359.78
387.948	360.91
388.328	352.32
388.707	361.81
389.087	346.9
389.466	335.6
389.846	367.91
390.225	372.43
390.605	367.01
390.984	365.88
391.363	356.61
391.743	366.56
392.122	361.36
392.501	388.7
392.881	374.69
393.26	383.28
393.639	379.21
394.018	395.26
394.397	359.33
394.776	388.7
395.155	369.95
395.534	393.22
395.913	398.65
396.292	376.05
396.671	393.68
397.05	401.59
397.429	411.3
397.808	385.54
398.186	396.61
398.565	413.79
398.944	400.68
399.323	407.01
399.701	408.14
400.08	422.15
400.458	415.37
400.837	424.86
401.215	416.73
401.594	411.53
401.972	440.68
402.351	418.31
402.729	409.95
403.107	419.89
403.486	456.95
403.864	439.32
404.242	429.83
404.62	414.69
404.999	462.37
405.377	461.7
405.755	483.62
406.133	460.57
406.511	468.25
406.889	465.31
407.267	455.37
407.645	478.65
408.023	467.57
408.401	489.27
408.779	487.46
409.156	494.92
409.534	491.75
409.912	521.81
410.29	522.94
410.667	517.74
411.045	526.78
411.422	526.55
411.8	541.69
412.178	555.93
412.555	553.22
412.933	537.18
413.31	543.73
413.687	557.97
414.065	561.58
414.442	578.08
414.819	590.51
415.197	595.93
415.574	581.47
415.951	608.81
416.328	609.26
416.705	611.07
417.082	630.28
417.46	663.27
417.837	633.9
418.214	667.12
418.591	663.5
418.967	660.56
419.344	648.58
419.721	673.89
420.098	674.35
420.475	692.2
420.852	700.11
421.228	704.63
421.605	711.41
421.982	738.3
422.358	746.21
422.735	738.98
423.111	751.18
423.488	759.77
423.864	789.82
424.241	809.71
424.617	791.63
424.994	828.24
425.37	822.37
425.746	820.56
426.123	827.34
426.499	832.31
426.875	839.09
427.251	880.44
427.627	879.99
428.003	882.7
428.379	897.84
428.756	912.31
429.132	909.82
429.507	914.79
429.883	926.32
430.259	968.8
430.635	950.5
431.011	955.47
431.387	971.51
431.763	990.27
432.138	1020.78
432.514	1019.42
432.89	1039.76
433.265	1057.61
433.641	1050.38
434.016	1075.24
434.392	1107.33
434.767	1127.22
435.143	1131.74
435.518	1145.52
435.894	1164.96
436.269	1147.78
436.644	1180.32
437.02	1205.63
437.395	1213.99
437.77	1211.06
438.145	1267.33
438.52	1281.56
438.895	1270.49
439.271	1303.26
439.646	1323.82
440.021	1334.67
440.395	1334.44
440.77	1361.79
441.145	1358.85
441.52	1381.9
441.895	1404.05
442.27	1401.33
442.645	1430.94
443.019	1437.26
443.394	1463.03
443.769	1445.63
444.143	1427.1
444.518	1476.81
444.892	1475.68
445.267	1488.34
445.641	1513.87
446.016	1532.63
446.39	1539.63
446.764	1555.91
447.139	1517.04
447.513	1526.08
447.887	1543.7
448.262	1527.21
448.636	1582.35
449.01	1595.45
449.384	1569.01
449.758	1620.76
450.132	1637.26
450.506	1636.58
450.88	1655.79
451.254	1629.12
451.628	1665.73
452.002	1697.37
452.376	1652.17
452.75	1729.91
453.123	1731.27
453.497	1735.34
453.871	1769.01
454.244	1793.41
454.618	1818.05
454.992	1813.75
455.365	1785.05
455.739	1841.77
456.112	1877.48
456.486	1850.59
456.859	1886.29
457.232	1939.62
457.606	1912.96
457.979	1946.63
458.352	1972.17
458.725	2000.19
459.099	2025.05
459.472	2057.36
459.845	2051.71
460.218	2080.41
460.591	2096.23
460.964	2059.62
461.337	2121.09
461.71	2148.21
462.083	2184.59
462.456	2164.25
462.829	2164.48
463.201	2219.16
463.574	2215.32
463.947	2246.96
464.32	2290.12
464.692	2324.02
465.065	2322.44
465.438	2372.61
465.81	2395.43
466.183	2401.98
466.555	2428.88
466.928	2446.96
467.3	2447.63
467.672	2462.55
468.045	2519.27
468.417	2539.83
468.789	2536.9
469.161	2601.3
469.534	2605.14
469.906	2604.69
470.278	2684.01
470.65	2692.15
471.022	2765.14
471.394	2800.62
471.766	2831.13
472.138	2797.45
472.51	2867.28
472.882	2926.72
473.253	2905.25
473.625	2951.12
473.997	3039.48
474.369	3056.2
474.74	3049.65
475.112	3125.36
475.484	3128.52
475.855	3172.59
476.227	3230.66
476.598	3307.95
476.97	3315.41
477.341	3364.67
477.713	3422.52
478.084	3440.83
478.455	3500.49
478.827	3505.68
479.198	3596.76
479.569	3578.68
479.94	3675.17
480.311	3677.43
480.682	3779.58
481.053	3822.06
481.424	3922.4
481.795	3949.97
482.166	3946.35
482.537	3966.46
482.908	4051.88
483.279	4077.2
483.65	4151.32
484.021	4210.52
484.391	4239
484.762	4287.36
485.133	4309.05
485.503	4363.52
485.874	4392.44
486.244	4479.67
486.615	4539.33
486.985	4529.61
487.356	4637.18
487.726	4626.33
488.097	4787.68
488.467	4726.44
488.837	4808.7
489.207	4815.71
489.578	4893.44
489.948	4985.65
490.318	5015.93
490.688	5013.89
491.058	5084.85
491.428	5168.01
491.798	5166.43
492.168	5252.31
492.538	5261.8
492.908	5350.38
493.278	5398.74
493.648	5408.01
494.017	5452.3
494.387	5458.18
494.757	5505.86
495.126	5528.68
495.496	5532.75
495.866	5593.31
496.235	5638.28
496.605	5714.89
496.974	5666.08
497.344	5746.76
497.713	5733.42
498.082	5792.18
498.452	5799.18
498.821	5855.45
499.19	5897.94
499.559	5940.42
499.928	5888.45
500.298	5984.72
500.667	6019.06
501.036	6017.03
501.405	6022.91
501.774	6037.6
502.143	6104.03
502.512	6074.66
502.88	6146.97
503.249	6159.85
503.618	6138.16
503.987	6190.81
504.356	6203.92
504.724	6265.16
505.093	6246.63
505.462	6293.63
505.83	6290.02
506.199	6338.83
506.567	6421.99
506.936	6414.31
507.304	6466.28
507.672	6436.68
508.041	6492.05
508.409	6516.9
508.777	6471.71
509.145	6527.98
509.514	6559.62
509.882	6559.39
510.25	6573.17
510.618	6562.78
510.986	6628.09
511.354	6727.75
511.722	6700.63
512.09	6737.46
512.458	6678.48
512.826	6731.59
513.193	6771.59
513.561	6788.31
513.929	6810.23
514.297	6803
514.664	6858.59
515.032	6860.4
515.4	6860.85
515.767	6897.69
516.135	6917.35
516.502	6901.53
516.869	6970.45
517.237	7020.62
517.604	6962.77
517.972	7014.07
518.339	7026.27
518.706	6964.8
519.073	7024.91
519.44	7040.28
519.808	7099.04
520.175	7011.36
520.542	7174.97
520.909	7088.87
521.276	7098.81
521.643	7170
522.009	7191.24
522.376	7214.51
522.743	7254.74
523.11	7292.48
523.477	7353.49
523.843	7370.44
524.21	7435.75
524.577	7364.79
524.943	7477.33
525.31	7477.56
525.676	7528.63
526.043	7548.52
526.409	7514.17
526.776	7595.07
527.142	7558.23
527.508	7596.65
527.874	7656.76
528.241	7645.01
528.607	7691.11
528.973	7729.75
529.339	7656.54
529.705	7776.98
530.071	7782.18
530.437	7805.91
530.803	7794.84
531.169	7855.63
531.535	7891.56
531.901	7851.56
532.267	7828.96
532.632	7902.18
532.998	7884.78
533.364	7917.32
533.73	7950.77
534.095	8027.15
534.461	8028.28
534.826	8021.95
535.192	8085
535.557	8025.34
535.923	8008.17
536.288	8042.74
536.653	8036.86
537.019	8051.55
537.384	8072.34
537.749	8092.91
538.114	8096.52
538.479	8072.8
538.845	8082.29
539.21	8117.54
539.575	8105.34
539.94	8140.14
540.305	8145.79
540.67	8125.68
541.034	8146.01
541.399	8178.56
541.764	8228.72
542.129	8276.41
542.494	8219.23
542.858	8234.6
543.223	8265.11
543.587	8240.93
543.952	8252.23
544.316	8181.72
544.681	8245
545.045	8262.4
545.41	8236.41
545.774	8254.71
546.138	8302.85
546.503	8355.05
546.867	8351.66
547.231	8364.77
547.595	8291.32
547.959	8389.85
548.324	8382.84
548.688	8296.75
549.052	8426.46
549.416	8385.1
549.779	8420.13
550.143	8397.76
550.507	8433.69
550.871	8468.04
551.235	8327.03
551.599	8454.03
551.962	8472.56
552.326	8508.49
552.689	8512.78
553.053	8529.28
553.417	8575.61
553.78	8608.38
554.143	8522.95
554.507	8537.42
554.87	8568.15
555.234	8666
555.597	8529.06
555.96	8590.3
556.323	8601.37
556.686	8612.22
557.05	8725.66
557.413	8746
557.776	8649.73
558.139	8738.54
558.502	8795.04
558.865	8714.81
559.228	8813.57
559.59	8811.53
559.953	8836.39
560.316	8904.41
560.679	8910.97
561.041	8955.48
561.404	8944.64
561.767	8969.5
562.129	8985.54
562.492	9115.93
562.854	9015.37
563.217	9034.13
563.579	9126.33
563.941	9127.46
564.304	9245.87
564.666	9219.21
565.028	9218.98
565.39	9206.55
565.753	9286.1
566.115	9257.4
566.477	9357.28
566.839	9358.41
567.201	9458.3
567.563	9402.03
567.925	9445.19
568.287	9515.24
568.648	9468.69
569.01	9610.38
569.372	9550.5
569.734	9610.38
570.095	9756.82
570.457	9717.27
570.819	9681.34
571.18	9676.82
571.542	9778.74
571.903	9777.84
572.265	9857.16
572.626	9872.97
572.987	9882.92
573.349	9911.17
573.71	10030.94
574.071	9972.63
574.432	10039.75
574.794	10119.52
575.155	10060.54
575.516	10076.13
575.877	10132.18
576.238	10129.47
576.599	10093.53
576.96	10192.06
577.32	10143.48
577.681	10297.37
578.042	10304.38
578.403	10357.71
578.763	10306.64
579.124	10351.83
579.485	10426.86
579.845	10484.03
580.206	10423.24
580.566	10477.25
580.927	10462.79
581.287	10585.72
581.648	10577.59
582.008	10606.06
582.368	10628.66
582.728	10694.42
583.089	10703.24
583.449	10663.01
583.809	10695.78
584.169	10766.06
584.529	10820.75
584.889	10921.53
585.249	10819.16
585.609	10858.03
585.969	10923.34
586.329	10894.19
586.688	10887.19
587.048	10911.82
587.408	11017.58
587.768	11075.66
588.127	11010.8
588.487	11046.73
588.846	11089.44
589.206	11075.2
589.565	11141.87
589.925	11230.91
590.284	11162.66
590.643	11163.79
591.003	11240.4
591.362	11197.01
591.721	11303.67
592.08	11252.6
592.44	11372.37
592.799	11293.05
593.158	11366.72
593.517	11373.95
593.876	11400.84
594.235	11410.34
594.593	11410.11
594.952	11439.94
595.311	11451.92
595.67	11500.73
596.029	11505.7
596.387	11540.28
596.746	11635.19
597.104	11592.25
597.463	11519.03
597.822	11591.57
598.18	11583.21
598.538	11603.1
598.897	11642.65
599.255	11600.16
599.613	11808.74
599.972	11716.77
600.33	11725.36
600.688	11758.12
601.046	11750.89
601.404	11849.87
601.762	11801.96
602.12	11811.45
602.478	11880.38
602.836	11853.04
603.194	11792.25
603.552	11772.13
603.91	11830.44
604.268	11921.28
604.625	11789.31
604.983	11876.99
605.341	11804.45
605.698	11856.2
606.056	11950.89
606.413	11936.42
606.771	11999.25
607.128	11991.79
607.485	11959.93
607.843	11924.22
608.2	12045.8
608.557	12034.05
608.914	12038.79
609.272	12009.42
609.629	12063.43
609.986	12106.36
610.343	12102.52
610.7	12138.45
611.057	12064.56
611.414	12076.76
611.771	12183.65
612.127	12216.42
612.484	12156.08
612.841	12181.84
613.198	12184.33
613.554	12180.48
613.911	12300.03
614.267	12266.81
614.624	12198.34
614.98	12295.06
615.337	12342.29
615.693	12383.87
616.05	12279.24
616.406	12358.11
616.762	12360.59
617.118	12279.24
617.475	12333.25
617.831	12390.42
618.187	12413.7
618.543	12360.82
618.899	12448.27
619.255	12400.59
619.611	12457.09
619.967	12482.85
620.323	12485.79
620.678	12472.45
621.034	12403.76
621.39	12390.2
621.746	12408.5
622.101	12577.54
622.457	12419.35
622.812	12461.61
623.168	12556.97
623.523	12454.15
623.879	12541.61
624.234	12421.38
624.589	12420.25
624.945	12472
625.3	12462.51
625.655	12427.26
626.01	12477.2
626.365	12490.08
626.72	12515.39
627.075	12522.17
627.43	12382.51
627.785	12417.54
628.14	12526.92
628.495	12473.81
628.85	12479.69
629.205	12494.83
629.559	12482.62
629.914	12413.47
630.269	12440.14
630.623	12388.61
630.978	12327.15
631.332	12398.78
631.687	12363.98
632.041	12381.61
632.396	12451.21
632.75	12337.32
633.104	12332.35
633.459	12245.34
633.813	12243.53
634.167	12282.63
634.521	12310.2
634.875	12300.03
635.229	12255.96
635.583	12276.08
635.937	12160.37
636.291	12228.85
636.645	12256.19
636.999	12149.3
637.352	12157.21
637.706	12062.75
638.06	12142.97
638.413	12096.42
638.767	12089.19
639.121	12088.51
639.474	12083.99
639.828	12004.9
640.181	12020.94
640.534	12025.91
640.888	11984.33
641.241	11972.35
641.594	11954.73
641.947	12034.95
642.301	11964.67
642.654	12023.2
643.007	11996.99
643.36	11927.16
643.713	11898.91
644.066	11965.8
644.419	11890.77
644.771	11856.2
645.124	11730.55
645.477	11799.48
645.83	11649.88
646.182	11551.57
646.535	11576.88
646.888	11560.16
647.24	11542.54
647.593	11546.6
647.945	11504.12
648.298	11538.47
648.65	11476.55
649.002	11417.34
649.355	11583.21
649.707	11559.48
650.059	11568.07
650.411	11696.2
650.763	11666.15
651.115	11855.97
651.467	11780.5
651.819	11732.14
652.171	11762.19
652.523	11695.3
652.875	11755.41
653.227	11677
653.578	11820.95
653.93	11722.64
654.282	11695.75
654.633	11604
654.985	11736.2
655.337	11742.98
655.688	11747.5
656.039	11794.51
656.391	11716.32
656.742	11612.36
657.094	11757.45
657.445	11760.83
657.796	11721.51
658.147	11704.57
658.498	11671.57
658.849	11663.44
659.2	11699.82
659.551	11667.96
659.902	11840.83
660.253	11669.09
660.604	11810.1
660.955	11681.74
661.306	11799.93
661.656	11666.83
662.007	11695.75
662.358	11721.74
662.708	11742.08
663.059	11701.18
663.409	11588.64
663.76	11810.78
664.11	11712.25
664.461	11669.76
664.811	11726.26
665.161	11667.28
665.511	11737.33
665.862	11766.48
666.212	11722.42
666.562	11781.17
666.912	11725.58
667.262	11722.19
667.612	11786.14
667.962	11706.37
668.312	11802.42
668.662	11733.49
669.011	11727.84
669.361	11719.03
669.711	11726.71
670.06	11658.01
670.41	11677.67
670.76	11693.27
671.109	11719.25
671.459	11672.93
671.808	11735.52
672.157	11674.06
672.507	11645.81
672.856	11656.88
673.205	11591.35
673.554	11702.31
673.904	11623.66
674.253	11626.83
674.602	11636.54
674.951	11532.59
675.3	11354.29
675.649	11591.35
675.998	11525.81
676.346	11598.58
676.695	11583.21
677.044	11389.77
677.393	11508.86
677.741	11552.93
678.09	11420.5
678.438	11466.38
678.787	11519.03
679.135	11408.75
679.484	11401.97
679.832	11442.88
680.181	11437.91
680.529	11418.02
680.877	11382.31
681.225	11407.17
681.573	11381.64
681.922	11241.53
682.27	11321.07
682.618	11333.73
682.966	11243.56
683.314	11238.14
683.661	11281.07
684.009	11212.15
684.357	11164.01
684.705	11140.96
685.053	11162.43
685.4	11107.52
685.748	11106.61
686.095	11024.36
686.443	11000.4
686.79	10987.75
687.138	10990.23
687.485	11056.22
687.832	10912.5
688.18	10980.74
688.527	10915.43
688.874	10854.87
689.221	10902.55
689.568	10919.28
689.915	10795.44
690.262	10752.27
690.609	10720.86
690.956	10731.71
691.303	10637.7
691.65	10653.52
691.997	10665.5
692.344	10568.78
692.69	10539.85
693.037	10500.53
693.383	10416.01
693.73	10533.75
694.077	10415.11
694.423	10436.35
694.769	10363.36
695.116	10382.79
695.462	10349.35
695.808	10336.01
696.155	10323.13
696.501	10182.57
696.847	10188.22
697.193	10100.31
697.539	10098.51
697.885	10001.33
698.231	9991.62
698.577	10069.81
698.923	10004.5
699.269	9939.64
699.614	9919.98
699.96	9886.53
700.306	9821.9
700.651	9845.63
700.997	9769.25
701.342	9780.77
701.688	9660.78
702.033	9654
702.379	9630.04
702.724	9599.99
703.069	9617.61
703.415	9551.63
703.76	9494.91
704.105	9528.8
704.45	9441.12
704.795	9437.96
705.14	9398.64
705.485	9326.1
705.83	9324.29
706.175	9432.76
706.52	9342.59
706.865	9314.12
707.209	9245.19
707.554	9177.63
707.899	9295.81
708.243	9199.09
708.588	9231.64
708.932	9090.4
709.277	9084.07
709.621	9102.15
709.966	9035.93
710.31	9074.35
710.654	9043.17
710.998	8953.23
711.342	9026.44
711.687	8925.2
712.031	8913
712.375	8856.28
712.719	8915.94
713.063	8880.46
713.407	8935.6
713.75	8869.61
714.094	8866.45
714.438	8762.5
714.782	8796.17
715.125	8831.87
715.469	8772.44
715.812	8748.26
716.156	8668.94
716.499	8724.98
716.843	8686.57
717.186	8677.53
717.53	8708.26
717.873	8722.72
718.216	8738.54
718.559	8674.59
718.902	8623.97
719.246	8575.16
719.589	8600.47
719.932	8561.82
720.275	8505.33
720.617	8531.77
720.96	8538.32
721.303	8540.58
721.646	8498.77
721.989	8549.85
722.331	8579.45
722.674	8450.64
723.016	8474.82
723.359	8440.02
723.701	8490.86
724.044	8444.09
724.386	8379.68
724.729	8400.25
725.071	8405.67
725.413	8381.71
725.755	8438.21
726.097	8348.5
726.439	8285.67
726.782	8338.1
727.124	8312.11
727.465	8329.51
727.807	8394.14
728.149	8341.49
728.491	8329.74
728.833	8379.45
729.175	8296.29
729.516	8252.23
729.858	8260.59
730.199	8319.57
730.541	8274.15
730.882	8254.94
731.224	8376.74
731.565	8272.79
731.906	8304.65
732.248	8282.06
732.589	8189.63
732.93	8181.27
733.271	8243.87
733.612	8150.53
733.953	8208.84
734.294	8191.21
734.635	8181.27
734.976	8217.2
735.317	8219.46
735.658	8259.68
735.999	8274.37
736.339	8188.5
736.68	8242.96
737.021	8247.71
737.361	8220.36
737.702	8228.27
738.042	8282.96
738.383	8268.5
738.723	8263.98
739.063	8238.44
739.404	8288.61
739.744	8268.5
740.084	8245.22
740.424	8287.25
740.764	8334.03
741.104	8311.43
741.444	8267.37
741.784	8288.38
742.124	8288.61
742.464	8320.47
742.804	8311.89
743.143	8318.21
743.483	8410.41
743.823	8381.94
744.162	8348.27
744.502	8360.47
744.841	8395.95
745.181	8453.8
745.52	8477.53
745.86	8516.17
746.199	8535.38
746.538	8524.31
746.877	8584.87
747.216	8666
747.556	8647.47
747.895	8647.47
748.234	8667.81
748.573	8729.05
748.911	8778.99
749.25	8846.34
749.589	8939.67
749.928	8922.04
750.267	9004.98
750.605	9087.46
750.944	9158.64
751.283	9169.94
751.621	9316.61
751.96	9243.84
752.298	9439.31
752.636	9483.83
752.975	9505.75
753.313	9613.32
753.651	9728.8
753.989	9730.15
754.327	9823.03
754.666	9876.82
755.004	10098.96
755.342	10206.07
755.679	10290.82
756.017	10344.37
756.355	10566.06
756.693	10592.73
757.031	10778.49
757.368	10767.87
757.706	10976
758.044	11093.51
758.381	11200.4
758.719	11330.34
759.056	11535.98
759.394	11618.01
759.731	11694.62
760.068	11938.68
760.405	12079.92
760.743	12161.05
761.08	12377.99
761.417	12433.36
761.754	12591.77
762.091	12786.34
762.428	12939.33
762.765	13144.3
763.102	13220.01
763.438	13405.31
763.775	13450.73
764.112	13676.04
764.449	13856.15
764.785	13981.34
765.122	14006.43
765.458	14207.1
765.795	14337.26
766.131	14512.63
766.467	14613.87
766.804	14833.97
767.14	14832.62
767.476	14978.15
767.812	15130.92
768.148	15249.33
768.485	15327.97
768.821	15424.69
769.157	15544.01
769.492	15685.25
769.828	15894.06
770.164	15890.44
770.5	16007.95
770.836	16162.75
771.171	16192.13
771.507	16320.49
771.842	16340.6
772.178	16470.09
772.513	16541.5
772.849	16704.89
773.184	16680.48
773.519	16877.31
773.855	16868.27
774.19	16925.67
774.525	17040.47
774.86	17026.01
775.195	17155.27
775.53	17178.32
775.865	17234.36
776.2	17222.61
776.535	17171.54
776.87	17285.66
777.205	17362.04
777.539	17301.03
777.874	17540.34
778.209	17331.76
778.543	17510.29
778.878	17456.5
779.212	17635.03
779.547	17494.24
779.881	17665.99
780.215	17611.3
780.55	17661.7
780.884	17633
781.218	17719.55
781.552	17724.07
781.886	17613.56
782.22	17631.64
782.554	17674.13
782.888	17511.87
783.222	17600.91
783.556	17533.11
783.889	17581.02
784.223	17375.6
784.557	17615.6
784.89	17519.33
785.224	17616.05
785.557	17548.03
785.891	17594.13
786.224	17489.5
786.558	17584.18
786.891	17440.69
787.224	17410.86
787.557	17373.34
787.891	17417.64
788.224	17429.61
788.557	17387.81
788.89	17413.34
789.223	17369.5
789.556	17277.07
789.888	17240.92
790.221	17313.46
790.554	17291.76
790.887	17205.44
791.219	17262.84
791.552	17212.89
791.884	17125.21
792.217	17168.15
792.549	16962.28
792.882	17019.91
793.214	16871.66
793.546	16961.38
793.879	16860.14
794.211	16777.65
794.543	16902.62
794.875	16913.24
795.207	16921.15
795.539	16791.66
795.871	16853.36
796.203	16770.42
796.535	16654.04
796.867	16687.48
797.198	16597.77
797.53	16678.9
797.862	16593.7
798.193	16544.89
798.525	16473.71
798.856	16496.53
799.188	16312.58
799.519	16282.3
799.85	16192.36
800.182	16200.27
800.513	16247.27
800.844	16165.01
801.175	16250.66
801.506	16144.67
801.837	16150.55
802.168	16084.79
802.499	16031.46
802.83	15991.23
803.161	15951.01
803.491	15958.24
803.822	15970.89
804.153	15856.77
804.483	15789.43
804.814	15668.75
805.145	15661.75
805.475	15732.48
805.805	15594.63
806.136	15683.22
806.466	15614.07
806.796	15699.26
807.126	15493.84
807.457	15455.2
807.787	15429.44
808.117	15418.59
808.447	15346.73
808.777	15440.96
809.107	15372.72
809.436	15279.16
809.766	15366.16
810.096	15221.53
810.426	15256.56
810.755	15200.07
811.085	15179.73
811.414	15163.23
811.744	15078.26
812.073	15119.84
812.403	15053.4
812.732	14943.8
813.061	14972.28
813.39	14840.98
813.719	14952.39
814.049	14970.69
814.378	14854.31
814.707	14821.09
815.036	14816.35
815.365	14759.63
815.693	14624.71
816.022	14678.27
816.351	14649.8
816.68	14554.43
817.008	14676.01
817.337	14523.25
817.665	14432.18
817.994	14439.63
818.322	14468.11
818.651	14389.92
818.979	14424.27
819.307	14473.98
819.636	14400.54
819.964	14299.07
820.292	14408.45
820.62	14383.82
820.948	14282.58
821.276	14307.21
821.604	14254.33
821.932	14319.41
822.259	14310.82
822.587	14321.67
822.915	14255.68
823.243	14284.16
823.57	14314.21
823.898	14265.63
824.225	14245.52
824.553	14358.51
824.88	14301.33
825.207	14331.39
825.535	14310.15
825.862	14313.54
826.189	14252.29
826.516	14369.81
826.843	14364.16
827.17	14299.3
827.497	14422.23
827.824	14321.45
828.151	14377.26
828.478	14344.5
828.805	14472.63
829.131	14433.76
829.458	14366.64
829.785	14238.74
830.111	14276.7
830.438	14354.44
830.764	14248.45
831.09	14366.19
831.417	14355.12
831.743	14290.26
832.069	14277.6
832.395	14265.85
832.722	14294.33
833.048	14263.59
833.374	14271.73
833.7	14293.42
834.026	14170.94
834.351	14289.81
834.677	14245.97
835.003	14276.93
835.329	14261.56
835.654	14166.87
835.98	14095.69
836.306	14131.17
836.631	14125.29
836.956	14196.93
837.282	14116.03
837.607	14022.24
837.932	14024.28
838.258	14086.42
838.583	14008.46
838.908	13940.21
839.233	13964.84
839.558	13937.95
839.883	13884.39
840.208	13851.4
840.533	13871.29
840.858	13827.45
841.182	13841.46
841.507	13823.38
841.832	13829.26
842.156	13746.32
842.481	13697.06
842.805	13677.85
843.13	13693.21
843.454	13625.64
843.778	13594.23
844.103	13485.76
844.427	13513.11
844.751	13502.48
845.075	13507.91
845.399	13476.04
845.723	13338.65
846.047	13458.64
846.371	13300.91
846.695	13191.98
847.019	13155.6
847.343	13074.92
847.666	13029.95
847.99	13021.14
848.313	13020.24
848.637	12966
848.96	12902.27
849.284	12882.61
849.607	12816.17
849.931	12745.44
850.254	12640.36
850.577	12678.1
850.9	12491.44
851.223	12542.06
851.546	12415.05
851.869	12333.25
852.192	12390.65
852.515	12323.31
852.838	12266.58
853.161	12234.27
853.483	12128.28
853.806	12126.02
854.129	12166.7
854.451	12056.19
854.774	12041.96
855.096	12008.96
855.419	11984.33
855.741	11960.6
856.063	11829.31
856.385	11858.01
856.708	11858.01
857.03	11760.16
857.352	11727.16
857.674	11751.34
857.996	11683.32
858.318	11624.79
858.64	11669.31
858.961	11576.21
859.283	11564
859.605	11561.29
859.926	11462.54
860.248	11471.8
860.57	11422.31
860.891	11449.2
861.212	11373.5
861.534	11298.47
861.855	11214.63
862.176	11256.22
862.498	11344.8
862.819	11239.94
863.14	11206.27
863.461	11229.78
863.782	11182.09
864.103	11276.1
864.424	11128.54
864.745	11163.56
865.065	11085.37
865.386	11054.86
865.707	10988.43
866.027	11009.44
866.348	11041.31
866.668	11060.06
866.989	10999.72
867.309	11004.02
867.63	10982.55
867.95	10926.51
868.27	10913.4
868.59	10925.38
868.91	10867.07
869.23	10895.32
869.55	10815.32
869.87	10861.2
870.19	10784.59
870.51	10782.33
870.83	10782.56
871.15	10755.21
871.469	10704.37
871.789	10737.36
872.109	10725.61
872.428	10598.15
872.748	10680.64
873.067	10651.49
873.386	10698.04
873.706	10677.47
874.025	10589.79
874.344	10547.31
874.663	10565.39
874.982	10527.65
875.301	10556.8
875.62	10448.33
875.939	10471.38
876.258	10495.56
876.577	10435.22
876.896	10454.88
877.214	10392.06
877.533	10444.03
877.852	10425.5
878.17	10367.2
878.489	10415.79
878.807	10300.76
879.125	10314.09
879.444	10364.49
879.762	10305.05
880.08	10240.2
880.398	10199.97
880.716	10260.08
881.034	10179.86
881.352	10275.68
881.67	10203.59
881.988	10226.41
882.306	10117.71
882.624	10110.48
882.941	10046.98
883.259	10073.65
883.577	10101.44
883.894	10028.9
884.212	9972.63
884.529	10054.67
884.846	9969.02
885.164	9885.4
885.481	9897.83
885.798	9892.64
886.115	9828.68
886.432	9865.74
886.75	9802.92
887.067	9784.84
887.383	9752.98
887.7	9741.45
888.017	9732.41
888.334	9698.97
888.651	9707.33
888.967	9685.18
889.284	9625.75
889.6	9586.2
889.917	9523.83
890.233	9579.65
890.55	9448.81
890.866	9482.7
891.182	9472.08
891.498	9409.71
891.815	9369.49
892.131	9325.87
892.447	9306.44
892.763	9307.34
893.079	9244.74
893.395	9234.12
893.71	9252.88
894.026	9187.57
894.342	9190.05
894.657	9081.81
894.973	9117.06
895.289	9068.93
895.604	9061.7
895.92	9005.65
896.235	8854.92
896.55	8954.35
896.865	8932.21
897.181	8895.6
897.496	8841.82
897.811	8829.61
898.126	8854.92
898.441	8716.85
898.756	8726.79
899.071	8692.44
899.386	8683.85
899.7	8627.36
900.015	8553.24
900.33	8494.71
900.644	8515.72
900.959	8468.27
901.273	8457.87
901.588	8407.7
901.902	8399.79
902.216	8374.48
902.531	8381.04
902.845	8310.98
903.159	8271.21
903.473	8281.15
903.787	8200.25
904.101	8108.28
904.415	8112.8
904.729	8175.62
905.042	8078.45
905.356	8082.29
905.67	8025.34
905.984	7977.43
906.297	7965.91
906.611	7980.82
906.924	7992.57
907.237	7919.13
907.551	7852.01
907.864	7862.41
908.177	7814.72
908.491	7787.83
908.804	7713.48
909.117	7722.97
909.43	7665.35
909.743	7673.26
910.056	7604.56
910.368	7580.83
910.681	7527.95
910.994	7474.39
911.307	7553.04
911.619	7447.28
911.932	7426.26
912.244	7406.6
912.557	7309.88
912.869	7250.22
913.181	7269.65
913.494	7259.71
913.806	7255.19
914.118	7197.79
914.43	7148.75
914.742	7132.48
915.054	7197.11
915.366	7135.65
915.678	7087.96
915.99	7038.47
916.302	6964.8
916.613	6969.77
916.925	6971.13
917.236	6923.22
917.548	6916.67
917.859	6883.45
918.171	6810.91
918.482	6754.41
918.794	6794.64
919.105	6704.47
919.416	6708.54
919.727	6725.49
920.038	6652.49
920.349	6621.76
920.66	6565.72
920.971	6642.1
921.282	6593.51
921.593	6547.41
921.903	6468.32
922.214	6485.27
922.525	6432.16
922.835	6398.94
923.146	6360.98
923.456	6413.18
923.767	6318.04
924.077	6367.76
924.387	6265.84
924.697	6287.31
925.008	6253.64
925.318	6263.35
925.628	6193.52
925.938	6178.61
926.248	6175.9
926.558	6104.71
926.867	6125.05
927.177	6066.3
927.487	6059.74
927.796	5994.88
928.106	6037.6
928.416	5967.99
928.725	6011.38
929.034	5939.52
929.344	5901.78
929.653	5923.25
929.962	5902.68
930.271	5861.1
930.581	5794.66
930.89	5780.65
931.199	5729.58
931.508	5733.2
931.817	5750.6
932.125	5694.1
932.434	5689.13
932.743	5636.48
933.051	5619.98
933.36	5602.35
933.669	5538.63
933.977	5511.06
934.286	5582.01
934.594	5550.6
934.902	5531.85
935.21	5451.17
935.519	5427.89
935.827	5388.8
936.135	5383.6
936.443	5344.51
936.751	5331.63
937.059	5346.31
937.367	5280.1
937.674	5316.48
937.982	5254.11
938.29	5224.74
938.597	5164.4
938.905	5209.14
939.213	5193.78
939.52	5158.07
939.827	5135.25
940.135	5107.68
940.442	5075.81
940.749	5085.08
941.056	5029.49
941.363	4974.57
941.67	5015.48
941.977	4965.08
942.284	4932.99
942.591	4905.87
942.898	4961.47
943.205	4881.92
943.511	4853.9
943.818	4853.9
944.125	4820
944.431	4796.05
944.738	4790.4
945.044	4788.81
945.35	4749.49
945.657	4708.36
945.963	4741.81
946.269	4724.41
946.575	4665.43
946.881	4645.54
947.187	4602.83
947.493	4594.7
947.799	4560.35
948.105	4550.85
948.41	4576.62
948.716	4571.42
949.022	4497.52
949.327	4478.31
949.633	4417.98
949.938	4430.18
950.244	4454.13
950.549	4430.18
950.854	4381.82
951.16	4348.37
951.465	4331.88
951.77	4343.4
952.075	4298.21
952.38	4230.64
952.685	4291.43
952.99	4261.82
953.294	4213.24
953.599	4181.15
953.904	4172.11
954.209	4172.33
954.513	4193.58
954.818	4140.02
955.122	4122.39
955.426	4108.61
955.731	4098.44
956.035	4086.01
956.339	4088.27
956.643	4063.18
956.948	4032.68
957.252	3996.29
957.556	4017.08
957.86	3983.19
958.163	3983.86
958.467	3937.54
958.771	3956.97
959.075	3914.94
959.378	3902.28
959.682	3883.98
959.985	3826.58
960.289	3820.03
960.592	3774.6
960.896	3800.82
961.199	3778.67
961.502	3812.8
961.805	3766.02
962.108	3734.61
962.411	3677.66
962.714	3711.33
963.017	3668.62
963.32	3674.04
963.623	3650.99
963.926	3653.48
964.228	3660.93
964.531	3649.41
964.833	3620.03
965.136	3573.25
965.438	3566.02
965.741	3563.08
966.043	3537.1
966.345	3548.62
966.648	3505.23
966.95	3485.57
967.252	3488.28
967.554	3481.05
967.856	3461.84
968.158	3463.2
968.46	3401.05
968.761	3350.66
969.063	3429.53
969.365	3359.93
969.666	3377.55
969.968	3323.32
970.269	3378.23
970.571	3332.13
970.872	3299.81
971.174	3277.44
971.475	3267.72
971.776	3281.28
972.077	3237.22
972.378	3202.64
972.679	3220.72
972.98	3213.26
973.281	3160.61
973.582	3174.17
973.883	3171.68
974.183	3149.08
974.484	3085.36
974.785	3125.58
975.085	3104.11
975.386	3103.21
975.686	3055.53
975.986	3070.67
976.287	3046.04
976.587	3026.83
976.887	3038.8
977.187	2993.16
977.487	2987.96
977.787	2994.29
978.087	2947.06
978.387	2977.56
978.687	2935.98
978.987	2931.46
979.286	2969.43
979.586	2919.71
979.885	2944.12
980.185	2872.71
980.484	2811.24
980.784	2853.5
981.083	2816.44
981.382	2854.18
981.682	2809.21
981.981	2779.38
982.28	2821.63
982.579	2755.65
982.878	2775.76
983.177	2715.65
983.475	2723.33
983.774	2698.25
984.073	2684.24
984.372	2689.43
984.67	2717.68
984.969	2674.29
985.267	2658.48
985.566	2676.78
985.864	2626.39
986.162	2658.93
986.461	2607.86
986.759	2588.42
987.057	2593.39
987.355	2594.97
987.653	2556.56
987.951	2519.27
988.249	2550.91
988.547	2535.09
988.844	2543.68
989.142	2506.39
989.44	2516.11
989.737	2492.83
990.035	2470.23
990.332	2474.75
990.63	2460.29
990.927	2465.03
991.224	2434.75
991.521	2449.22
991.819	2410.12
992.116	2423.68
992.413	2407.63
992.71	2379.16
993.006	2395.21
993.303	2361.08
993.6	2351.14
993.897	2305.26
994.193	2322.44
994.49	2324.47
994.787	2313.4
995.083	2333.29
995.379	2262.1
995.676	2279.05
995.972	2265.27
996.268	2242.89
996.565	2264.81
996.861	2236.57
997.157	2183.46
997.453	2203.57
997.749	2205.83
998.044	2153.4
998.34	2151.6
998.636	2141.65
998.932	2134.2
999.227	2121.77
999.523	2091.71
999.818	2112.05
1000.114	2046.51
1000.409	2088.09
1000.704	2087.87
1001	2021.2
1001.295	2093.97
1001.59	2056.46
1001.885	2072.28
1002.18	2007.64
1002.475	2025.5
1002.77	2011.03
1003.065	1991.15
1003.359	1937.82
1003.654	1968.55
1003.949	1970.81
1004.243	1905.05
1004.538	1914.77
1004.832	1936.69
1005.127	1929.91
1005.421	1918.83
1005.715	1892.39
1006.009	1882.22
1006.304	1845.84
1006.598	1879.06
1006.892	1845.84
1007.186	1859.63
1007.48	1834.54
1007.773	1801.1
1008.067	1817.14
1008.361	1806.97
1008.655	1776.24
1008.948	1766.07
1009.242	1791.38
1009.535	1762.91
1009.829	1751.38
1010.122	1754.54
1010.415	1742.79
1010.708	1741.66
1011.001	1695.34
1011.295	1710.03
1011.588	1717.94
1011.881	1688.56
1012.173	1715.22
1012.466	1671.61
1012.759	1655.79
1013.052	1644.94
1013.344	1602.01
1013.637	1636.81
1013.93	1616.47
1014.222	1596.81
1014.514	1590.93
1014.807	1580.09
1015.099	1585.51
1015.391	1590.03
1015.683	1546.87
1015.976	1550.93
1016.268	1552.29
1016.56	1510.71
1016.851	1489.47
1017.143	1519.75
1017.435	1506.87
1017.727	1502.12
1018.018	1469.13
1018.31	1482.01
1018.602	1461.44
1018.893	1456.92
1019.185	1435.23
1019.476	1437.49
1019.767	1417.83
1020.058	1430.94
1020.35	1418.28
1020.641	1410.82
1020.932	1401.33
1021.223	1376.02
1021.514	1368.11
1021.804	1334.22
1022.095	1346.19
1022.386	1352.52
1022.677	1346.65
1022.967	1327.44
1023.258	1310.71
1023.548	1315.23
1023.839	1304.16
1024.129	1315.69
1024.419	1303.93
1024.709	1296.7
1025	1275.46
1025.29	1263.71
1025.58	1233.2
1025.87	1253.31
1026.16	1226.42
1026.449	1263.48
1026.739	1218.29
1027.029	1213.77
1027.319	1215.58
1027.608	1202.92
1027.898	1193.88
1028.187	1168.12
1028.477	1139.87
1028.766	1170.38
1029.055	1167.22
1029.344	1136.48
1029.634	1156.37
1029.923	1146.88
1030.212	1131.51
1030.501	1138.52
1030.79	1126.76
1031.078	1112.98
1031.367	1098.74
1031.656	1088.8
1031.945	1103.04
1032.233	1066.2
1032.522	1070.49
1032.81	1058.97
1033.099	1072.75
1033.387	1063.94
1033.675	1044.05
1033.963	1013.32
1034.251	1060.78
1034.54	1022.36
1034.828	1020.78
1035.116	1005.64
1035.403	999.31
1035.691	1009.48
1035.979	977.62
1036.267	995.24
1036.554	963.6
1036.842	966.09
1037.129	981.01
1037.417	951.4
1037.704	948.24
1037.992	952.31
1038.279	945.53
1038.566	955.47
1038.853	955.47
1039.14	955.47
