Data from hue_280_FLMS001491_00089.txt Node
Date: Tue Feb 07 15:55:55 GMT 2017
User: dcchb
Spectrometer: FLMS00149
Trigger mode: 0
Integration Time (sec): 2.000000E-2
Scans to average: 10
Electric dark correction enabled: true
Nonlinearity correction enabled: false
Boxcar width: 0
XAxis mode: Wavelengths
Number of Pixels in Spectrum: 2048
>>>>>Begin Spectral Data<<<<<
341.393	-23.04
341.776	-23.04
342.16	-23.04
342.543	-63.04
342.927	-65.29
343.31	-78.85
343.693	-58.29
344.077	-73.66
344.46	-54.22
344.843	-26.88
345.226	-42.7
345.61	-42.02
345.993	-22.81
346.376	-6.77
346.759	1.14
347.142	20.58
347.525	38.21
347.908	53.35
348.291	96.96
348.674	92.67
349.057	103.29
349.44	121.82
349.823	131.76
350.206	154.13
350.588	183.96
350.971	211.76
351.354	208.37
351.737	224.19
352.119	232.1
352.502	262.38
352.884	268.26
353.267	275.04
353.65	288.59
354.032	277.97
354.414	299.22
354.797	335.15
355.179	326.56
355.562	285.2
355.944	324.75
356.326	312.55
356.709	318.65
357.091	343.73
357.473	345.99
357.855	337.18
358.238	333.79
358.62	344.64
359.002	331.08
359.384	315.03
359.766	305.54
360.148	342.15
360.53	334.47
360.912	327.01
361.294	322.04
361.676	348.03
362.057	324.53
362.439	321.14
362.821	309.84
363.203	314.13
363.584	330.63
363.966	301.48
364.348	332.66
364.729	308.71
365.111	300.57
365.493	299.22
365.874	310.06
366.256	315.49
366.637	296.5
367.019	312.32
367.4	311.19
367.781	319.78
368.163	294.02
368.544	293.11
368.925	310.97
369.306	313
369.688	308.48
370.069	303.28
370.45	311.19
370.831	328.59
371.212	289.5
371.593	310.51
371.974	290.18
372.355	295.83
372.736	308.71
373.117	315.71
373.498	312.77
373.879	316.39
374.26	303.73
374.641	322.27
375.021	298.76
375.402	316.39
375.783	310.74
376.163	322.49
376.544	315.26
376.925	305.09
377.305	318.42
377.686	303.28
378.066	310.51
378.447	311.87
378.827	309.61
379.208	303.96
379.588	321.14
379.968	330.63
380.349	322.27
380.729	329.5
381.109	319.55
381.489	342.83
381.87	336.95
382.25	316.39
382.63	354.13
383.01	343.51
383.39	335.82
383.77	346.67
384.15	329.27
384.53	317.07
384.91	352.32
385.29	323.85
385.67	312.32
386.049	339.67
386.429	341.25
386.809	333.79
387.189	370.63
387.568	333.79
387.948	351.42
388.328	329.27
388.707	364.07
389.087	355.94
389.466	353.68
389.846	337.41
390.225	351.87
390.605	352.1
390.984	352.1
391.363	348.71
391.743	370.17
392.122	363.17
392.501	376.28
392.881	373.11
393.26	361.81
393.639	376.95
394.018	374.47
394.397	382.83
394.776	372.66
395.155	375.37
395.534	382.15
395.913	385.77
396.292	374.69
396.671	366.33
397.05	378.76
397.429	405.43
397.808	368.37
398.186	389.61
398.565	410.4
398.944	402.94
399.323	386.67
399.701	399.1
400.08	392.77
400.458	399.33
400.837	412.21
401.215	413.34
401.594	395.03
401.972	417.4
402.351	415.37
402.729	414.24
403.107	420.57
403.486	416.27
403.864	428.7
404.242	433
404.62	455.37
404.999	423.51
405.377	442.71
405.755	423.51
406.133	440.91
406.511	423.51
406.889	446.1
407.267	445.43
407.645	460.34
408.023	457.86
408.401	474.8
408.779	478.65
409.156	462.83
409.534	500.57
409.912	490.17
410.29	497.85
410.667	498.31
411.045	499.21
411.422	522.49
411.8	513.9
412.178	495.37
412.555	545.76
412.933	534.01
413.31	533.56
413.687	558.42
414.065	528.59
414.442	547.12
414.819	572.43
415.197	570.85
415.574	577.63
415.951	585.99
416.328	588.02
416.705	578.53
417.082	613.11
417.46	562.71
417.837	618.3
418.214	597.29
418.591	623.05
418.967	644.52
419.344	639.09
419.721	654.69
420.098	644.74
420.475	666.44
420.852	657.85
421.228	661.92
421.605	677.74
421.982	688.81
422.358	707.34
422.735	713.67
423.111	696.49
423.488	730.16
423.864	749.15
424.241	750.73
424.617	777.39
424.994	768.36
425.37	760.22
425.746	781.91
426.123	792.76
426.499	782.82
426.875	803.83
427.251	806.77
427.627	816.49
428.003	851.07
428.379	858.97
428.756	859.88
429.132	884.51
429.507	874.12
429.883	893.55
430.259	909.14
430.635	883.83
431.011	902.36
431.387	938.29
431.763	925.87
432.138	954.79
432.514	955.47
432.89	964.73
433.265	1004.51
433.641	1005.64
434.016	1006.54
434.392	1013.77
434.767	1051.29
435.143	1058.74
435.518	1050.38
435.894	1083.15
436.269	1075.01
436.644	1112.53
437.02	1122.24
437.395	1125.86
437.77	1141.91
438.145	1156.82
438.52	1168.12
438.895	1184.39
439.271	1203.82
439.646	1214.22
440.021	1242.02
440.395	1195.01
440.77	1219.42
441.145	1224.39
441.52	1251.51
441.895	1260.55
442.27	1284.73
442.645	1290.6
443.019	1310.26
443.394	1272.52
443.769	1317.95
444.143	1293.31
444.518	1274.1
444.892	1332.18
445.267	1340.77
445.641	1345.74
446.016	1380.32
446.39	1339.87
446.764	1385.06
447.139	1356.36
447.513	1373.99
447.887	1387.1
448.262	1396.36
448.636	1401.33
449.01	1417.15
449.384	1421.45
449.758	1404.72
450.132	1439.98
450.506	1452.41
450.88	1419.41
451.254	1421.9
451.628	1466.64
452.002	1479.52
452.376	1492.18
452.75	1492.18
453.123	1506.64
453.497	1533.08
453.871	1538.73
454.244	1546.87
454.618	1553.87
454.992	1571.05
455.365	1532.63
455.739	1572.63
456.112	1613.76
456.486	1598.39
456.859	1651.72
457.232	1670.7
457.606	1664.38
457.979	1697.37
458.352	1670.25
458.725	1691.04
459.099	1718.61
459.472	1755
459.845	1753.41
460.218	1784.37
460.591	1748.44
460.964	1796.8
461.337	1810.14
461.71	1823.02
462.083	1844.49
462.456	1828.21
462.829	1875.22
463.201	1892.62
463.574	1872.28
463.947	1872.73
464.32	1926.07
464.692	1936.91
465.065	1976.91
465.438	1985.05
465.81	1991.37
466.183	2016.23
466.555	2057.81
466.928	2049.23
467.3	2089
467.672	2062.11
468.045	2114.31
468.417	2100.52
468.789	2123.57
469.161	2151.82
469.534	2181.65
469.906	2201.09
470.278	2255.55
470.65	2273.4
471.022	2268.66
471.394	2309.78
471.766	2343.23
472.138	2312.04
472.51	2353.85
472.882	2408.09
473.253	2408.31
473.625	2418.71
473.997	2491.47
474.369	2456.9
474.74	2519.27
475.112	2517.46
475.484	2585.71
475.855	2594.07
476.227	2605.6
476.598	2679.49
476.97	2701.41
477.341	2757.46
477.713	2757.68
478.084	2752.26
478.455	2830.9
478.827	2869.09
479.198	2883.33
479.569	2933.27
479.94	2942.99
480.311	2992.48
480.682	3034.74
481.053	3088.52
481.424	3070.22
481.795	3151.8
482.166	3178.91
482.537	3212.36
482.908	3254.39
483.279	3270.21
483.65	3314.28
484.021	3391.79
484.391	3387.95
484.762	3393.6
485.133	3445.12
485.503	3455.29
485.874	3505.46
486.244	3531.45
486.615	3583.87
486.985	3583.42
487.356	3644.66
487.726	3681.95
488.097	3741.61
488.467	3709.07
488.837	3789.52
489.207	3853.02
489.578	3864.77
489.948	3915.84
490.318	3980.93
490.688	3916.07
491.058	3969.18
491.428	4021.6
491.798	4062.51
492.168	4104.76
492.538	4150.19
492.908	4181.83
493.278	4213.69
493.648	4233.58
494.017	4241.94
494.387	4293.23
494.757	4329.17
495.126	4334.14
495.496	4351.31
495.866	4385.89
496.235	4425.66
496.605	4432.21
496.974	4456.39
497.344	4487.81
497.713	4491.87
498.082	4519.9
498.452	4530.52
498.821	4561.93
499.19	4533.23
499.559	4612.32
499.928	4606.45
500.298	4619.1
500.667	4663.17
501.036	4659.78
501.405	4713.56
501.774	4686.67
502.143	4765.09
502.512	4753.34
502.88	4818.64
503.249	4767.8
503.618	4790.17
503.987	4825.88
504.356	4787.46
504.724	4862.26
505.093	4838.76
505.462	4862.49
505.83	4888.47
506.199	4850.73
506.567	4941.58
506.936	4947.68
507.304	4952.88
507.672	4973.89
508.041	4964.18
508.409	4982.93
508.777	5060.45
509.145	5089.15
509.514	5064.29
509.882	5099.99
510.25	5075.13
510.618	5106.77
510.986	5086.43
511.354	5146.09
511.722	5206.43
512.09	5212.98
512.458	5198.3
512.826	5243.94
513.193	5238.07
513.561	5218.41
513.929	5281.23
514.297	5263.38
514.664	5302.47
515.032	5286.65
515.4	5323.72
515.767	5307.22
516.135	5319.87
516.502	5307.22
516.869	5426.09
517.237	5414.79
517.604	5378.4
517.972	5359.65
518.339	5432.19
518.706	5419.53
519.073	5417.27
519.44	5449.36
519.808	5479.42
520.175	5521.22
520.542	5528.68
520.909	5525.29
521.276	5531.39
521.643	5558.51
522.009	5608.23
522.376	5608.91
522.743	5612.97
523.11	5617.95
523.477	5648.91
523.843	5702.24
524.21	5718.51
524.577	5771.84
524.943	5753.08
525.31	5714.21
525.676	5813.87
526.043	5822.69
526.409	5842.8
526.776	5909.92
527.142	5849.13
527.508	5886.86
527.874	5929.58
528.241	5935.23
528.607	5941.78
528.973	6045.73
529.339	6007.31
529.705	6007.54
530.071	6035.34
530.437	6083.7
530.803	6099.51
531.169	6118.5
531.535	6079.18
531.901	6166.86
532.267	6116.24
532.632	6180.19
532.998	6167.31
533.364	6224.71
533.73	6226.74
534.095	6247.08
534.461	6259.96
534.826	6234.2
535.192	6251.38
535.557	6333.63
535.923	6331.83
536.288	6306.97
536.653	6317.81
537.019	6284.59
537.384	6403.69
537.749	6351.26
538.114	6393.97
538.479	6340.64
538.845	6370.24
539.21	6362.33
539.575	6467.19
539.94	6477.58
540.305	6455.89
540.67	6434.42
541.034	6500.63
541.399	6471.26
541.764	6515.1
542.129	6495.44
542.494	6528.66
542.858	6535.21
543.223	6591.71
543.587	6567.07
543.952	6545.38
544.316	6576.56
544.681	6571.59
545.045	6624.25
545.41	6632.61
545.774	6630.8
546.138	6619.05
546.503	6654.53
546.867	6633.51
547.231	6698.14
547.595	6711.25
547.959	6710.57
548.324	6708.99
548.688	6755.77
549.052	6706.73
549.416	6767.29
549.779	6774.75
550.143	6807.29
550.507	6820.63
550.871	6785.15
551.235	6829.67
551.599	6886.61
551.962	6859.72
552.326	6908.08
552.689	6860.85
553.053	6869.21
553.417	6901.08
553.78	6961.64
554.143	6880.96
554.507	6934.3
554.87	6990.56
555.234	7000.51
555.597	6937.91
555.96	6958.25
556.323	6970.68
556.686	7030.11
557.05	7058.13
557.413	7051.58
557.776	7017.68
558.139	7083.44
558.502	7118.47
558.865	7132.03
559.228	7158.92
559.59	7190.33
559.953	7207.96
560.316	7297.22
560.679	7223.33
561.041	7310.1
561.404	7203.21
561.767	7297.45
562.129	7349.43
562.492	7443.66
562.854	7367.05
563.217	7397.56
563.579	7462.87
563.941	7449.99
564.304	7459.7
564.666	7532.92
565.028	7546.03
565.39	7546.48
565.753	7591
566.115	7620.15
566.477	7646.82
566.839	7634.16
567.201	7654.5
567.563	7748.06
567.925	7728.17
568.287	7764.33
568.648	7767.04
569.01	7808.17
569.372	7782.86
569.734	7822.18
570.095	7907.6
570.457	7901.28
570.819	8000.71
571.18	7958.9
571.542	8029.86
571.903	7977.43
572.265	8014.49
572.626	8078.45
572.987	8128.39
573.349	8131.33
573.71	8180.36
574.071	8205.45
574.432	8216.3
574.794	8320.02
575.155	8280.93
575.516	8241.61
575.877	8324.32
576.238	8369.06
576.599	8422.84
576.96	8510.07
577.32	8459.9
577.681	8515.04
578.042	8556.17
578.403	8617.19
578.763	8630.3
579.124	8639.11
579.485	8647.24
579.845	8734.93
580.206	8728.37
580.566	8785.09
580.927	8797.07
581.287	8919.78
581.648	8896.73
582.008	9003.39
582.368	9031.64
582.728	9103.5
583.089	9069.15
583.449	9088.14
583.809	9208.13
584.169	9272.54
584.529	9260.79
584.889	9410.84
585.249	9343.95
585.609	9404.96
585.969	9511.63
586.329	9591.17
586.688	9660.78
587.048	9689.93
587.408	9751.85
587.768	9801.56
588.127	9797.04
588.487	9947.78
588.846	9977.83
589.206	9950.26
589.565	10045.85
589.925	10218.73
590.284	10201.1
590.643	10293.3
591.003	10309.12
591.362	10434.99
591.721	10423.47
592.08	10549.34
592.44	10608.55
592.799	10675.67
593.158	10693.52
593.517	10804.25
593.876	10841.31
594.235	10886.96
594.593	10929.9
594.952	11048.09
595.311	11095.54
595.67	11187.74
596.029	11249.89
596.387	11291.24
596.746	11343.44
597.104	11362.88
597.463	11408.53
597.822	11471.35
598.18	11480.39
598.538	11651.46
598.897	11663.44
599.255	11626.15
599.613	11827.05
599.972	11892.36
600.33	11854.17
600.688	11932.81
601.046	11982.52
601.404	12137.1
601.762	12084.89
602.12	12177.32
602.478	12242.4
602.836	12292.35
603.194	12225.91
603.552	12287.37
603.91	12311.78
604.268	12368.5
604.625	12372.8
604.983	12396.52
605.341	12467.71
605.698	12462.06
606.056	12598.55
606.413	12525.11
606.771	12664.99
607.128	12700.47
607.485	12631.32
607.843	12735.27
608.2	12789.06
608.557	12867.02
608.914	12778.21
609.272	13004.87
609.629	12984.76
609.986	13032.89
610.343	13015.27
610.7	13120.57
611.057	13067.47
611.414	13130.29
611.771	13150.85
612.127	13188.59
612.484	13300
612.841	13344.52
613.198	13280.79
613.554	13310.62
613.911	13456.84
614.267	13437.4
614.624	13436.95
614.98	13378.87
615.337	13496.16
615.693	13485.99
616.05	13524.18
616.406	13588.58
616.762	13561.24
617.118	13596.27
617.475	13542.03
617.831	13607.11
618.187	13667.45
618.543	13621.12
618.899	13748.58
619.255	13708.35
619.611	13747.45
619.967	13790.84
620.323	13890.5
620.678	13772.99
621.034	13871.74
621.39	13833.55
621.746	13863.38
622.101	13926.2
622.457	13936.14
622.812	13961
623.168	14016.82
623.523	14032.41
623.879	14000.78
624.234	13880.55
624.589	13989.93
624.945	14000.78
625.3	13980.21
625.655	14015.24
626.01	13971.4
626.365	14040.32
626.72	13959.87
627.075	14025.18
627.43	14021.57
627.785	13942.92
628.14	13979.31
628.495	14091.17
628.85	13995.58
629.205	13888.46
629.559	14018.18
629.914	13975.92
630.269	13977.95
630.623	13901.12
630.978	13959.65
631.332	13954.9
631.687	14028.12
632.041	13900.44
632.396	13957.61
632.75	13969.82
633.104	13941.12
633.459	13841.46
633.813	13921.46
634.167	13923.72
634.521	13897.28
634.875	13809.37
635.229	13890.95
635.583	13837.62
635.937	13917.16
636.291	13866.32
636.645	13798.3
636.999	13793.1
637.352	13807.33
637.706	13743.16
638.06	13742.48
638.413	13699.54
638.767	13733.44
639.121	13733.89
639.474	13587
639.828	13696.38
640.181	13687.79
640.534	13725.3
640.888	13654.34
641.241	13544.06
641.594	13603.72
641.947	13631.07
642.301	13637.85
642.654	13701.8
643.007	13644.18
643.36	13653.89
643.713	13519.43
644.066	13621.12
644.419	13523.73
644.771	13461.13
645.124	13361.7
645.477	13245.32
645.83	13176.62
646.182	13259.1
646.535	13180.91
646.888	13193.34
647.24	13094.81
647.593	13178.88
647.945	13216.84
648.298	13111.08
648.65	13153.11
649.002	13052.33
649.355	13189.72
649.707	13104.08
650.059	13231.08
650.411	13348.36
650.763	13363.73
651.115	13508.59
651.467	13437.63
651.819	13543.61
652.171	13493.44
652.523	13411.19
652.875	13477.17
653.227	13422.94
653.578	13519.43
653.93	13528.25
654.282	13374.8
654.633	13308.14
654.985	13448.02
655.337	13496.83
655.688	13527.34
656.039	13503.39
656.391	13346.1
656.742	13456.38
657.094	13513.33
657.445	13529.38
657.796	13524.4
658.147	13491.64
658.498	13523.95
658.849	13521.47
659.2	13415.48
659.551	13514.24
659.902	13544.74
660.253	13477.85
660.604	13536.83
660.955	13450.51
661.306	13565.08
661.656	13525.08
662.007	13523.95
662.358	13486.89
662.708	13566.89
663.059	13554.46
663.409	13463.16
663.76	13624.74
664.11	13575.93
664.461	13596.04
664.811	13568.92
665.161	13594.46
665.511	13595.81
665.862	13604.18
666.212	13644.85
666.562	13628.81
666.912	13556.49
667.262	13553.33
667.612	13620.67
667.962	13603.27
668.312	13545.42
668.662	13602.59
669.011	13626.32
669.361	13547.68
669.711	13564.63
670.06	13563.95
670.41	13578.64
670.76	13491.41
671.109	13568.7
671.459	13540
671.808	13529.38
672.157	13578.41
672.507	13495.93
672.856	13470.85
673.205	13537.06
673.554	13558.98
673.904	13558.3
674.253	13517.4
674.602	13474.69
674.951	13274.92
675.3	13185.66
675.649	13449.38
675.998	13402.83
676.346	13442.82
676.695	13496.61
677.044	13296.39
677.393	13306.78
677.741	13400.34
678.09	13295.26
678.438	13393.56
678.787	13297.97
679.135	13339.55
679.484	13226.78
679.832	13328.25
680.181	13250.06
680.529	13228.82
680.877	13242.38
681.225	13227.91
681.573	13268.14
681.922	13135.71
682.27	13176.84
682.618	13138.65
682.966	13071.31
683.314	13058.65
683.661	13044.64
684.009	13053.68
684.357	12945.89
684.705	12891.65
685.053	12974.59
685.4	12893.23
685.748	12840.13
686.095	12905.89
686.443	12797.64
686.79	12790.19
687.138	12812.78
687.485	12835.83
687.832	12721.49
688.18	12753.35
688.527	12622.96
688.874	12624.31
689.221	12627.93
689.568	12508.16
689.915	12483.75
690.262	12534.6
690.609	12478.56
690.956	12511.55
691.303	12438.56
691.65	12406.92
691.997	12353.81
692.344	12255.29
692.69	12177.77
693.037	12293.7
693.383	12045.8
693.73	12141.62
694.077	12070.43
694.423	12078.11
694.769	12014.16
695.116	11949.3
695.462	11893.03
695.808	11889.19
696.155	11904.33
696.501	11799.03
696.847	11740.95
697.193	11765.58
697.539	11821.17
697.885	11660.05
698.231	11616.66
698.577	11587.73
698.923	11533.5
699.269	11496.44
699.614	11392.71
699.96	11396.1
700.306	11398.13
700.651	11305.03
700.997	11270.9
701.342	11230.91
701.688	11237.68
702.033	11224.35
702.379	11222.32
702.724	11135.09
703.069	11128.99
703.415	10951.82
703.76	10985.71
704.105	10969.67
704.45	10932.16
704.795	10895.55
705.14	10871.14
705.485	10798.83
705.83	10816.23
706.175	10801.31
706.52	10784.36
706.865	10761.77
707.209	10719.96
707.554	10643.35
707.899	10671.6
708.243	10635.67
708.588	10630.7
708.932	10518.16
709.277	10530.81
709.621	10518.61
709.966	10450.81
710.31	10484.71
710.654	10370.36
710.998	10386.86
711.342	10404.94
711.687	10266.64
712.031	10275.22
712.375	10268.44
712.719	10275
713.063	10240.2
713.407	10276.58
713.75	10227.32
714.094	10179.18
714.438	10188.45
714.782	10175.57
715.125	10164.72
715.469	10155
715.812	10109.35
716.156	10045.4
716.499	9993.2
716.843	10012.86
717.186	9995.68
717.53	10020.99
717.873	10009.24
718.216	9973.99
718.559	9889.7
718.902	9849.47
719.246	9872.97
719.589	9848.34
719.932	9861
720.275	9872.52
720.617	9822.81
720.96	9858.29
721.303	9832.3
721.646	9827.1
721.989	9794.56
722.331	9779.87
722.674	9769.7
723.016	9801.34
723.359	9781.68
723.701	9773.32
724.044	9696.03
724.386	9702.58
724.729	9677.5
725.071	9771.28
725.413	9678.4
725.755	9675.69
726.097	9704.39
726.439	9559.76
726.782	9638.4
727.124	9665.97
727.465	9654.68
727.807	9653.09
728.149	9633.89
728.491	9516.6
728.833	9593.43
729.175	9538.07
729.516	9507.11
729.858	9503.49
730.199	9591.63
730.541	9542.81
730.882	9510.27
731.224	9636.37
731.565	9484.51
731.906	9539.2
732.248	9541.01
732.589	9523.15
732.93	9492.87
733.271	9578.52
733.612	9502.14
733.953	9549.37
734.294	9533.55
734.635	9498.52
734.976	9521.57
735.317	9466.66
735.658	9539.2
735.999	9559.76
736.339	9533.77
736.68	9532.42
737.021	9555.92
737.361	9510.72
737.702	9551.18
738.042	9564.96
738.383	9512.53
738.723	9587.56
739.063	9624.17
739.404	9586.65
739.744	9596.6
740.084	9571.06
740.424	9667.78
740.764	9544.17
741.104	9678.18
741.444	9661.68
741.784	9626.2
742.124	9682.47
742.464	9738.29
742.804	9701.91
743.143	9757.05
743.483	9723.37
743.823	9731.06
744.162	9792.3
744.502	9772.64
744.841	9799.08
745.181	9957.49
745.52	9853.77
745.86	9981.22
746.199	10014.44
746.538	9989.81
746.877	10093.76
747.216	10112.74
747.556	10136.02
747.895	10212.4
748.234	10189.58
748.573	10233.87
748.911	10348.89
749.25	10376.92
749.589	10385.96
749.928	10510.7
750.267	10598.38
750.605	10673.18
750.944	10721.99
751.283	10789.56
751.621	10903.68
751.96	10939.39
752.298	10967.18
752.636	11138.03
752.975	11192.71
753.313	11296.89
753.651	11416.21
753.989	11482.65
754.327	11570.33
754.666	11679.03
755.004	11885.13
755.342	11995.4
755.679	12102.29
756.017	12176.19
756.355	12355.85
756.693	12449.63
757.031	12616.86
757.368	12655.05
757.706	12858.43
758.044	12860.47
758.381	13059.33
758.719	13191.08
759.056	13377.29
759.394	13483.5
759.731	13539.55
760.068	13793.78
760.405	13843.94
760.743	13977.27
761.08	14189.7
761.417	14188.79
761.754	14424.04
762.091	14586.98
762.428	14650.7
762.765	14791.72
763.102	14975.67
763.438	15118.26
763.775	15194.42
764.112	15346.28
764.449	15500.17
764.785	15599.6
765.122	15745.81
765.458	15835.08
765.795	16004.34
766.131	16112.13
766.467	16162.53
766.804	16419.7
767.14	16274.84
767.476	16536.75
767.812	16645.23
768.148	16764.09
768.485	16782.85
768.821	16875.5
769.157	17067.81
769.492	17154.82
769.828	17275.04
770.164	17200.69
770.5	17338.32
770.836	17341.25
771.171	17334.7
771.507	17542.6
771.842	17478.88
772.178	17625.09
772.513	17642.04
772.849	17723.39
773.184	17763.84
773.519	17791.41
773.855	17732.2
774.19	17833.22
774.525	17945.76
774.86	17968.36
775.195	18109.37
775.53	18071.18
775.865	18030.5
776.2	17999.31
776.535	17953.89
776.87	18040.22
777.205	18109.37
777.539	18043.83
777.874	18231.85
778.209	18002.48
778.543	18147.56
778.878	18039.31
779.212	18011.52
779.547	18039.54
779.881	18124.28
780.215	18159.08
780.55	18174.45
780.884	18069.82
781.218	18151.63
781.552	18152.98
781.886	18016.49
782.22	18053.55
782.554	17970.62
782.888	17875.48
783.222	17853.78
783.556	17794.12
783.889	17931.52
784.223	17889.04
784.557	17715.03
784.89	17879.32
785.224	17789.83
785.557	17723.62
785.891	17729.94
786.224	17703.05
786.558	17665.54
786.891	17651.53
787.224	17614.01
787.557	17501.7
787.891	17514.36
788.224	17621.02
788.557	17622.83
788.89	17515.26
789.223	17554.35
789.556	17425.09
789.888	17403.62
790.221	17366.34
790.554	17226.68
790.887	17263.97
791.219	17212.67
791.552	17156.63
791.884	17176.96
792.217	17116.17
792.549	17042.96
792.882	16899.46
793.214	16951.21
793.546	16892.23
793.879	16807.03
794.211	16771.32
794.543	16835.73
794.875	16757.77
795.207	16798.44
795.539	16713.92
795.871	16715.51
796.203	16583.98
796.535	16500.15
796.867	16546.25
797.198	16500.82
797.53	16514.38
797.862	16465.12
798.193	16347.61
798.525	16355.74
798.856	16421.73
799.188	16232.58
799.519	16233.03
799.85	16098.35
800.182	16124.79
800.513	16225.58
800.844	15978.13
801.175	16106.48
801.506	16075.98
801.837	15962.53
802.168	15904.23
802.499	15903.78
802.83	15849.77
803.161	15803.67
803.491	15783.78
803.822	15761.41
804.153	15702.43
804.483	15616.33
804.814	15555.09
805.145	15525.71
805.475	15478.93
805.805	15516.44
806.136	15426.05
806.466	15457.46
806.796	15378.37
807.126	15262.21
807.457	15363.45
807.787	15205.26
808.117	15228.99
808.447	15123.46
808.777	15280.06
809.107	15134.76
809.436	15055.21
809.766	15039.62
810.096	15011.37
810.426	14919.62
810.755	15076.91
811.085	15001.43
811.414	14955.1
811.744	14862.22
812.073	14796.24
812.403	14838.95
812.732	14705.62
813.061	14709.46
813.39	14620.87
813.719	14608.22
814.049	14593.75
814.378	14595.11
814.707	14552.85
815.036	14513.98
815.365	14507.88
815.693	14367.09
816.022	14446.87
816.351	14245.74
816.68	14297.04
817.008	14293.42
817.337	14288.9
817.665	14248.68
817.994	14269.7
818.322	14205.74
818.651	14150.83
818.979	14146.08
819.307	14279.86
819.636	14099.53
819.964	14035.58
820.292	14082.81
820.62	14073.09
820.948	14043.71
821.276	14030.38
821.604	14005.52
821.932	14001.68
822.259	13996.26
822.587	14008.23
822.915	13982.47
823.243	14092.98
823.57	13985.64
823.898	14039.87
824.225	13914.45
824.553	14011.17
824.88	13972.53
825.207	14021.11
825.535	14024.5
825.862	14004.39
826.189	13941.12
826.516	14052.07
826.843	14088.46
827.17	14088.01
827.497	14101.79
827.824	14056.37
828.151	14084.16
828.478	14031.28
828.805	14051.4
829.131	14002.81
829.458	13921.68
829.785	14003.26
830.111	13933.43
830.438	14050.27
830.764	13998.74
831.09	14005.07
831.417	13922.81
831.743	13978.63
832.069	13940.89
832.395	13929.14
832.722	13922.59
833.048	13880.55
833.374	13964.39
833.7	13910.61
834.026	13973.88
834.351	13921.46
834.677	13881.68
835.003	13890.72
835.329	13868.8
835.654	13875.81
835.98	13794
836.306	13838.75
836.631	13775.7
836.956	13834.45
837.282	13791.06
837.607	13635.59
837.932	13733.44
838.258	13781.57
838.583	13697.73
838.908	13669.94
839.233	13642.14
839.558	13573.89
839.883	13514.69
840.208	13465.2
840.533	13595.59
840.858	13589.04
841.182	13522.6
841.507	13492.09
841.832	13427.01
842.156	13417.97
842.481	13379.78
842.805	13349.72
843.13	13366.44
843.454	13296.16
843.778	13277.63
844.103	13192.21
844.427	13123.96
844.751	13213.23
845.075	13197.18
845.399	13181.59
845.723	13018.65
846.047	13075.6
846.371	12937.3
846.695	12957.87
847.019	12831.09
847.343	12776.85
847.666	12664.54
847.99	12629.51
848.313	12628.83
848.637	12613.02
848.96	12594.26
849.284	12529.63
849.607	12492.57
849.931	12377.99
850.254	12334.15
850.577	12250.09
850.9	12170.32
851.223	12267.94
851.546	12120.83
851.869	12087.61
852.192	12132.58
852.515	11989.53
852.838	11998.12
853.161	11934.16
853.483	11826.37
853.806	11829.08
854.129	11888.52
854.451	11762.87
854.774	11677.45
855.096	11729.42
855.419	11665.47
855.741	11666.6
856.063	11617.79
856.385	11546.6
856.708	11453.05
857.03	11440.39
857.352	11530.33
857.674	11388.42
857.996	11327.4
858.318	11340.51
858.64	11281.53
858.961	11254.86
859.283	11294.86
859.605	11184.13
859.926	11263.9
860.248	11199.27
860.57	11150.46
860.891	11130.57
861.212	11084.92
861.534	11095.09
861.855	10964.47
862.176	11027.97
862.498	11011.93
862.819	11085.82
863.14	10961.99
863.461	10942.1
863.782	10943.68
864.103	10949.56
864.424	10785.72
864.745	10879.73
865.065	10782.56
865.386	10748.21
865.707	10779.17
866.027	10745.27
866.348	10754.08
866.668	10733.07
866.989	10776.68
867.309	10704.14
867.63	10616.01
867.95	10683.58
868.27	10628.44
868.59	10650.36
868.91	10565.39
869.23	10538.04
869.55	10548.44
869.87	10614.65
870.19	10532.62
870.51	10519.74
870.83	10517.93
871.15	10446.52
871.469	10446.75
871.789	10465.95
872.109	10416.24
872.428	10379.85
872.748	10438.38
873.067	10354.77
873.386	10390.7
873.706	10318.84
874.025	10253.98
874.344	10247.65
874.663	10251.5
874.982	10260.99
875.301	10295.11
875.62	10290.37
875.939	10249.01
876.258	10252.85
876.577	10195.23
876.896	10199.07
877.214	10190.93
877.533	10185.28
877.852	10069.35
878.17	10092.63
878.489	10112.52
878.807	10137.15
879.125	10148
879.444	10068
879.762	10017.38
880.08	10065.74
880.398	10024.61
880.716	9936.25
881.034	9945.06
881.352	9914.1
881.67	9844.73
881.988	9970.6
882.306	9854.22
882.624	9795.91
882.941	9794.33
883.259	9695.8
883.577	9756.37
883.894	9702.13
884.212	9761.11
884.529	9700.1
884.846	9686.09
885.164	9614.45
885.481	9626.88
885.798	9616.48
886.115	9538.07
886.432	9557.95
886.75	9502.14
887.067	9492.65
887.383	9512.08
887.7	9498.75
888.017	9382.82
888.334	9491.06
888.651	9408.81
888.967	9437.73
889.284	9391.63
889.6	9344.4
889.917	9299.2
890.233	9286.78
890.55	9203.16
890.866	9264.86
891.182	9138.08
891.498	9170.62
891.815	9111.86
892.131	9027.35
892.447	9059.66
892.763	9078.19
893.079	8986.9
893.395	8964.07
893.71	8992.77
894.026	8934.69
894.342	8990.29
894.657	8861.02
894.973	8815.6
895.289	8887.69
895.604	8792.55
895.92	8750.74
896.235	8768.15
896.55	8714.14
896.865	8707.36
897.181	8684.98
897.496	8644.53
897.811	8591.88
898.126	8595.95
898.441	8622.61
898.756	8543.29
899.071	8464.88
899.386	8452.9
899.7	8414.48
900.015	8376.52
900.33	8317.31
900.644	8263.75
900.959	8370.19
901.273	8308.95
901.588	8233.24
901.902	8159.12
902.216	8166.13
902.531	8160.03
902.845	8093.13
903.159	8018.56
903.473	8024.89
903.787	8031.44
904.101	7908.05
904.415	7987.6
904.729	7960.26
905.042	7868.73
905.356	7822.86
905.67	7823.31
905.984	7798.68
906.297	7804.78
906.611	7723.2
906.924	7727.49
907.237	7663.54
907.551	7693.6
907.864	7653.15
908.177	7591.45
908.491	7618.12
908.804	7546.93
909.117	7519.82
909.43	7435.3
909.743	7479.14
910.056	7455.86
910.368	7380.61
910.681	7318.01
910.994	7363.66
911.307	7295.42
911.619	7195.98
911.932	7232.82
912.244	7152.14
912.557	7192.14
912.869	7153.72
913.181	7126.61
913.494	7103.78
913.806	7070.79
914.118	7015.65
914.43	6967.74
914.742	6992.6
915.054	6963.67
915.366	6894.3
915.678	6929.55
915.99	6907.18
916.302	6849.78
916.613	6868.08
916.925	6816.78
917.236	6752.38
917.548	6678.48
917.859	6713.06
918.171	6672.61
918.482	6653.85
918.794	6569.56
919.105	6605.94
919.416	6527.98
919.727	6527.75
920.038	6571.82
920.349	6435.78
920.66	6416.79
920.971	6478.26
921.282	6365.5
921.593	6352.39
921.903	6353.75
922.214	6344.03
922.525	6288.89
922.835	6266.52
923.146	6222
923.456	6272.39
923.767	6193.75
924.077	6156.91
924.387	6131.6
924.697	6114.88
925.008	6068.33
925.318	6095
925.628	6057.48
925.938	6018.16
926.248	5996.01
926.558	5986.98
926.867	5933.64
927.177	5908.56
927.487	5891.61
927.796	5833.99
928.106	5846.87
928.416	5819.75
928.725	5816.58
929.034	5759.64
929.344	5803.03
929.653	5722.8
929.962	5732.29
930.271	5662.46
930.581	5586.76
930.89	5676.7
931.199	5651.62
931.508	5557.16
931.817	5590.38
932.125	5543.82
932.434	5493.65
932.743	5469.25
933.051	5434.45
933.36	5413.21
933.669	5394.67
933.977	5351.51
934.286	5352.19
934.594	5370.95
934.902	5283.27
935.21	5261.8
935.519	5312.64
935.827	5269.03
936.135	5190.84
936.443	5195.58
936.751	5200.56
937.059	5179.54
937.367	5098.64
937.674	5119.88
937.982	5128.47
938.29	5113.78
938.597	5076.94
938.905	5022.48
939.213	5036.94
939.52	4962.14
939.827	4990.62
940.135	4994.23
940.442	4937.74
940.749	4904.07
941.056	4896.61
941.363	4904.52
941.67	4869.94
941.977	4810.28
942.284	4744.75
942.591	4805.99
942.898	4788.59
943.205	4788.59
943.511	4677.18
943.818	4694.13
944.125	4644.64
944.431	4681.7
944.738	4682.83
945.044	4622.04
945.35	4617.29
945.657	4584.53
945.963	4568.48
946.269	4588.37
946.575	4565.09
946.881	4537.97
947.187	4517.41
947.493	4482.83
947.799	4469.95
948.105	4405.1
948.41	4459.78
948.716	4422.04
949.022	4396.06
949.327	4367.58
949.633	4296.4
949.938	4331.65
950.244	4306.34
950.549	4311.77
950.854	4223.86
951.16	4247.59
951.465	4260.69
951.77	4210.98
952.075	4204.42
952.38	4154.71
952.685	4133.46
952.99	4117.87
953.294	4095.73
953.599	4088.72
953.904	4048.72
954.209	4117.87
954.513	4099.12
954.818	4044.88
955.122	4054.14
955.426	3980.93
955.731	4007.14
956.035	3962.4
956.339	3955.62
956.643	3938.67
956.948	3922.4
957.252	3939.8
957.556	3865
957.86	3848.95
958.163	3849.4
958.467	3846.92
958.771	3828.39
959.075	3834.72
959.378	3780.03
959.682	3787.71
959.985	3781.84
960.289	3735.51
960.592	3741.38
960.896	3692.12
961.199	3680.37
961.502	3681.05
961.805	3657.32
962.108	3615.06
962.411	3634.04
962.714	3557.89
963.017	3587.26
963.32	3600.6
963.623	3537.32
963.926	3549.3
964.228	3545.68
964.531	3497.1
964.833	3472.92
965.136	3457.1
965.438	3418.46
965.741	3462.75
966.043	3409.19
966.345	3436.31
966.648	3375.74
966.95	3450.09
967.252	3361.06
967.554	3351.11
967.856	3330.55
968.158	3287.39
968.46	3337.33
968.761	3314.96
969.063	3284.45
969.365	3276.31
969.666	3246.71
969.968	3238.35
970.269	3250.78
970.571	3225.24
970.872	3196.99
971.174	3177.78
971.475	3170.1
971.776	3125.81
972.077	3181.85
972.378	3128.29
972.679	3103.21
972.98	3136.88
973.281	3101.18
973.582	3090.33
973.883	3060.95
974.183	3037.45
974.484	3019.37
974.785	2992.93
975.085	3025.7
975.386	3033.38
975.686	2971.46
975.986	2982.53
976.287	2964.91
976.587	2902.99
976.887	2891.46
977.187	2928.98
977.487	2948.86
977.787	2884.23
978.087	2879.49
978.387	2864.35
978.687	2868.19
978.987	2850.33
979.286	2835.19
979.586	2801.07
979.885	2799.04
980.185	2788.42
980.484	2781.86
980.784	2770.11
981.083	2780.05
981.382	2779.38
981.682	2745.7
981.981	2711.36
982.28	2674.07
982.579	2688.53
982.878	2702.54
983.177	2664.12
983.475	2640.62
983.774	2666.84
984.073	2580.51
984.372	2640.85
984.67	2608.08
984.969	2617.8
985.267	2613.5
985.566	2602.66
985.864	2599.49
986.162	2584.13
986.461	2569.21
986.759	2554.3
987.057	2531.25
987.355	2489.89
987.653	2524.47
987.951	2508.65
988.249	2475.88
988.547	2472.27
988.844	2443.34
989.142	2451.25
989.44	2442.21
989.737	2421.65
990.035	2418.93
990.332	2402.66
990.63	2373.74
990.927	2356.79
991.224	2343.46
991.521	2371.7
991.819	2321.08
992.116	2284.7
992.413	2323.34
992.71	2323.57
993.006	2300.97
993.303	2295.1
993.6	2281.08
993.897	2279.05
994.193	2277.92
994.49	2249.9
994.787	2251.71
995.083	2201.31
995.379	2213.52
995.676	2179.17
995.972	2187.3
996.268	2155.44
996.565	2171.03
996.861	2154.31
997.157	2167.19
997.453	2132.16
997.749	2131.48
998.044	2114.99
998.34	2113.4
998.636	2081.32
998.932	2090.35
999.227	2064.37
999.523	2044.71
999.818	2078.83
1000.114	2026.18
1000.409	2037.25
1000.704	2012.16
1001	1987.76
1001.295	1979.4
1001.59	1991.15
1001.885	1987.53
1002.18	1984.82
1002.475	1973.75
1002.77	1954.99
1003.065	1955.67
1003.359	1931.71
1003.654	1944.82
1003.949	1868.89
1004.243	1874.09
1004.538	1863.69
1004.832	1846.97
1005.127	1860.3
1005.421	1856.01
1005.715	1827.08
1006.009	1828.21
1006.304	1852.39
1006.598	1750.25
1006.892	1785.5
1007.186	1807.2
1007.48	1777.59
1007.773	1731.95
1008.067	1765.17
1008.361	1747.99
1008.655	1739.18
1008.948	1716.35
1009.242	1722.91
1009.535	1711.38
1009.829	1681.78
1010.122	1701.44
1010.415	1659.18
1010.708	1684.72
1011.001	1674.77
1011.295	1665.73
1011.588	1613.76
1011.881	1630.25
1012.173	1637.94
1012.466	1608.11
1012.759	1621.67
1013.052	1609.92
1013.344	1562.23
1013.637	1580.54
1013.93	1552.74
1014.222	1572.18
1014.514	1546.19
1014.807	1537.83
1015.099	1524.95
1015.391	1523.59
1015.683	1497.6
1015.976	1494.89
1016.268	1489.92
1016.56	1457.83
1016.851	1477.72
1017.143	1451.95
1017.435	1454.44
1017.727	1441.56
1018.018	1450.82
1018.31	1440.2
1018.602	1435.68
1018.893	1398.62
1019.185	1416.02
1019.476	1399.3
1019.767	1403.14
1020.058	1414.21
1020.35	1360.66
1020.641	1338.74
1020.932	1359.53
1021.223	1371.28
1021.514	1357.49
1021.804	1332.41
1022.095	1298.51
1022.386	1308.23
1022.677	1308.68
1022.967	1284.95
1023.258	1276.36
1023.548	1278.17
1023.839	1265.29
1024.129	1268.68
1024.419	1240.89
1024.709	1221.9
1025	1251.96
1025.29	1218.74
1025.58	1225.97
1025.87	1183.94
1026.16	1205.86
1026.449	1196.37
1026.739	1214.22
1027.029	1172.64
1027.319	1166.54
1027.608	1146.88
1027.898	1160.44
1028.187	1143.94
1028.477	1119.08
1028.766	1109.59
1029.055	1112.98
1029.344	1101.45
1029.634	1109.36
1029.923	1113.88
1030.212	1098.97
1030.501	1104.17
1030.79	1080.44
1031.078	1085.18
1031.367	1078.4
1031.656	1067.56
1031.945	1052.64
1032.233	1037.95
1032.522	1028.91
1032.81	1017.16
1033.099	1047.67
1033.387	1048.8
1033.675	989.37
1033.963	1011.51
1034.251	995.24
1034.54	1014.22
1034.828	987.33
1035.116	985.98
1035.403	978.29
1035.691	972.64
1035.979	961.57
1036.267	971.29
1036.554	975.58
1036.842	965.64
1037.129	944.17
1037.417	932.19
1037.704	948.69
1037.992	919.54
1038.279	922.02
1038.566	939.42
1038.853	939.42
1039.14	939.42
