Data from hue_260_FLMS001491_00056.txt Node
Date: Tue Feb 07 15:59:12 GMT 2017
User: dcchb
Spectrometer: FLMS00149
Trigger mode: 0
Integration Time (sec): 2.000000E-2
Scans to average: 10
Electric dark correction enabled: true
Nonlinearity correction enabled: false
Boxcar width: 0
XAxis mode: Wavelengths
Number of Pixels in Spectrum: 2048
>>>>>Begin Spectral Data<<<<<
341.393	-0.3
341.776	-0.3
342.16	-0.3
342.543	-47.75
342.927	-53.63
343.31	-56.57
343.693	-64.02
344.077	-65.38
344.46	-52.72
344.843	-47.75
345.226	-43.01
345.61	-37.36
345.993	-18.6
346.376	6.93
346.759	-9.11
347.142	8.74
347.525	29.31
347.908	56.2
348.291	73.6
348.674	97.55
349.057	122.19
349.44	121.06
349.823	157.89
350.206	142.07
350.588	201.51
350.971	218.45
351.354	215.52
351.737	233.14
352.119	231.11
352.502	261.84
352.884	256.65
353.267	268.62
353.65	303.2
354.032	294.84
354.414	305.46
354.797	297.77
355.179	313.14
355.562	317.21
355.944	314.95
356.326	315.4
356.709	321.28
357.091	308.85
357.473	341.39
357.855	346.81
358.238	354.72
358.62	335.97
359.002	338.23
359.384	328.28
359.766	334.38
360.148	324.67
360.53	331.45
360.912	314.5
361.294	316.98
361.676	320.6
362.057	312.24
362.439	321.73
362.821	306.36
363.203	319.69
363.584	308.62
363.966	308.4
364.348	306.14
364.729	320.6
365.111	299.81
365.493	328.96
365.874	309.98
366.256	304.55
366.637	308.17
367.019	316.53
367.4	316.53
367.781	315.4
368.163	312.24
368.544	305.23
368.925	326.02
369.306	324.21
369.688	314.27
370.069	307.04
370.45	311.11
370.831	304.1
371.212	297.77
371.593	330.32
371.974	305.68
372.355	312.69
372.736	312.46
373.117	322.63
373.498	290.32
373.879	305.46
374.26	299.58
374.641	319.47
375.021	321.95
375.402	337.55
375.783	315.85
376.163	302.07
376.544	324.89
376.925	307.49
377.305	309.98
377.686	312.24
378.066	327.83
378.447	310.66
378.827	316.53
379.208	325.8
379.588	331.67
379.968	322.63
380.349	325.8
380.729	327.83
381.109	326.7
381.489	328.51
381.87	340.71
382.25	317.21
382.63	338.68
383.01	348.39
383.39	329.86
383.77	326.47
384.15	346.81
384.53	334.61
384.91	335.97
385.29	344.78
385.67	325.34
386.049	319.24
386.429	344.1
386.809	341.16
387.189	352.46
387.568	343.42
387.948	349.3
388.328	350.2
388.707	373.48
389.087	348.39
389.466	356.3
389.846	358.11
390.225	357.43
390.605	368.96
390.984	366.47
391.363	354.04
391.743	351.78
392.122	373.48
392.501	370.54
392.881	366.02
393.26	391.56
393.639	390.43
394.018	370.99
394.397	366.25
394.776	361.05
395.155	394.72
395.534	401.27
395.913	392.24
396.292	370.32
396.671	373.93
397.05	386.36
397.429	364.89
397.808	386.81
398.186	382.07
398.565	397.43
398.944	403.76
399.323	407.6
399.701	393.59
400.08	401.95
400.458	399.92
400.837	407.15
401.215	427.49
401.594	417.32
401.972	404.21
402.351	415.51
402.729	419.13
403.107	435.4
403.486	419.81
403.864	416.19
404.242	443.99
404.62	450.31
404.999	438.34
405.377	439.47
405.755	431.33
406.133	439.69
406.511	455.51
406.889	453.93
407.267	434.72
407.645	471.33
408.023	462.29
408.401	478.79
408.779	480.59
409.156	455.74
409.534	489.86
409.912	505.23
410.29	516.98
410.667	489.41
411.045	513.59
411.422	529.86
411.8	533.7
412.178	528.73
412.555	538.45
412.933	533.25
413.31	547.94
413.687	566.02
414.065	591.78
414.442	583.64
414.819	591.1
415.197	606.69
415.574	619.8
415.951	594.04
416.328	599.24
416.705	623.19
417.082	619.57
417.46	627.71
417.837	635.84
418.214	620.48
418.591	655.28
418.967	632.46
419.344	666.13
419.721	673.36
420.098	680.82
420.475	680.14
420.852	698.89
421.228	683.53
421.605	732.57
421.982	733.24
422.358	712.23
422.735	732.79
423.111	740.25
423.488	746.8
423.864	754.49
424.241	794.03
424.617	775.5
424.994	784.09
425.37	796.29
425.746	795.61
426.123	833.13
426.499	828.16
426.875	839.91
427.251	865.9
427.627	876.97
428.003	875.61
428.379	886.46
428.756	885.1
429.132	916.06
429.507	923.07
429.883	912.22
430.259	933.92
430.635	928.27
431.011	968.94
431.387	957.19
431.763	968.49
432.138	1007.13
432.514	1022.95
432.89	1009.17
433.265	1053.01
433.641	1066.34
434.016	1051.65
434.392	1089.62
434.767	1109.05
435.143	1106.11
435.518	1135.27
435.894	1155.83
436.269	1171.65
436.644	1167.36
437.02	1193.34
437.395	1187.69
437.77	1218.2
438.145	1252.55
438.52	1274.92
438.895	1282.61
439.271	1284.42
439.646	1318.76
440.021	1322.61
440.395	1327.8
440.77	1356.73
441.145	1342.49
441.52	1374.81
441.895	1399.89
442.27	1403.51
442.645	1433.79
443.019	1449.83
443.394	1457.52
443.769	1427.01
444.143	1455.71
444.518	1492.55
444.892	1493.45
445.267	1518.31
445.641	1525.76
446.016	1490.06
446.39	1544.52
446.764	1556.72
447.139	1542.04
447.513	1552.88
447.887	1569.38
448.262	1556.5
448.636	1600.11
449.01	1620.45
449.384	1610.51
449.758	1633.11
450.132	1650.96
450.506	1663.84
450.88	1634.69
451.254	1655.93
451.628	1713.78
452.002	1706.33
452.376	1732.54
452.75	1708.36
453.123	1726.66
453.497	1766.66
453.871	1798.3
454.244	1789.26
454.618	1799.43
454.992	1817.28
455.365	1847.79
455.739	1891.41
456.112	1882.59
456.486	1936.83
456.859	1915.36
457.232	1944.96
457.606	1956.49
457.979	1969.37
458.352	2044.62
458.725	2052.53
459.099	2047.79
459.472	2079.65
459.845	2084.39
460.218	2101.57
460.591	2131.4
460.964	2145.18
461.337	2189.48
461.71	2229.02
462.083	2235.58
462.456	2228.57
462.829	2284.16
463.201	2312.41
463.574	2303.15
463.947	2336.14
464.32	2379.08
464.692	2380.21
465.065	2443.03
465.438	2443.93
465.81	2474.89
466.183	2496.13
466.555	2528.22
466.928	2547.66
467.3	2544.04
467.672	2590.14
468.045	2637.15
468.417	2628.79
468.789	2696.81
469.161	2681.89
469.534	2728.45
469.906	2752.17
470.278	2777.48
470.65	2820.65
471.022	2861.55
471.394	2921.21
471.766	2937.93
472.138	2983.58
472.51	2966.18
472.882	3084.59
473.253	3077.36
473.625	3113.52
473.997	3181.77
474.369	3177.25
474.74	3245.49
475.112	3281.43
475.484	3315.77
475.855	3381.31
476.227	3388.99
476.598	3436.22
476.97	3455.43
477.341	3497.46
477.713	3590.8
478.084	3612.49
478.455	3682.54
478.827	3751.47
479.198	3850.9
479.569	3774.07
479.94	3923.44
480.311	3944.46
480.682	4041.41
481.053	4095.19
481.424	4125.02
481.795	4187.62
482.166	4240.5
482.537	4231
482.908	4355.3
483.279	4339.7
483.65	4458.12
484.021	4545.8
484.391	4594.84
484.762	4539.47
485.133	4645
485.503	4689.3
485.874	4762.52
486.244	4811.1
486.615	4838.67
486.985	4869.86
487.356	4967.93
487.726	5036.18
488.097	5097.2
488.467	5182.39
488.837	5182.62
489.207	5194.6
489.578	5297.42
489.948	5361.14
490.318	5388.71
490.688	5443.4
491.058	5473.01
491.428	5587.58
491.798	5606.11
492.168	5712.77
492.538	5658.09
492.908	5705.77
493.278	5795.94
493.648	5820.12
494.017	5970.85
494.387	5898.08
494.757	5992.99
495.126	6038.19
495.496	6042.93
495.866	6059.21
496.235	6138.75
496.605	6163.38
496.974	6232.76
497.344	6184.63
497.713	6279.09
498.082	6329.03
498.452	6317.5
498.821	6356.15
499.19	6389.82
499.559	6420.78
499.928	6439.76
500.298	6486.54
500.667	6499.87
501.036	6504.62
501.405	6548.23
501.774	6547.1
502.143	6632.07
502.512	6588.46
502.88	6672.75
503.249	6602.47
503.618	6705.29
503.987	6736.48
504.356	6722.46
504.724	6762.24
505.093	6804.04
505.462	6767.66
505.83	6787.32
506.199	6887.66
506.567	6910.26
506.936	6874.78
507.304	6943.02
507.672	7008.11
508.041	6957.71
508.409	7044.04
508.777	7060.76
509.145	7089.01
509.514	7017.6
509.882	7145.5
510.25	7161.55
510.618	7152.06
510.986	7124.04
511.354	7159.97
511.722	7227.31
512.09	7284.48
512.458	7204.26
512.826	7272.28
513.193	7273.41
513.561	7296.69
513.929	7310.92
514.297	7381.2
514.664	7438.83
515.032	7377.81
515.4	7488.55
515.767	7416.68
516.135	7486.29
516.502	7436.12
516.869	7550.47
517.237	7540.97
517.604	7456.91
517.972	7575.32
518.339	7616.45
518.706	7584.36
519.073	7554.98
519.44	7559.05
519.808	7595.21
520.175	7598.6
520.542	7699.39
520.909	7648.99
521.276	7655.32
521.643	7720.4
522.009	7724.47
522.376	7772.38
522.743	7801.76
523.11	7779.84
523.477	7848.76
523.843	7928.99
524.21	7871.13
524.577	7902.77
524.943	7920.4
525.31	7956.56
525.676	7932.15
526.043	8001.75
526.409	8023.45
526.776	8066.84
527.142	7997.23
527.508	8022.54
527.874	8124.24
528.241	8092.37
528.607	8086.5
528.973	8103.9
529.339	8102.77
529.705	8176.44
530.071	8184.8
530.437	8253.95
530.803	8210.56
531.169	8199.49
531.535	8180.73
531.901	8208.08
532.267	8171.24
532.632	8157
532.998	8232.71
533.364	8292.37
533.73	8226.83
534.095	8233.61
534.461	8206.49
534.826	8239.03
535.192	8239.03
535.557	8230
535.923	8250.79
536.288	8258.24
536.653	8326.49
537.019	8198.81
537.384	8298.24
537.749	8260.28
538.114	8244.01
538.479	8250.11
538.845	8256.89
539.21	8263.21
539.575	8187.51
539.94	8258.24
540.305	8254.63
540.67	8232.93
541.034	8217.57
541.399	8217.79
541.764	8249.66
542.129	8269.32
542.494	8226.83
542.858	8203.33
543.223	8139.15
543.587	8287.85
543.952	8252.59
544.316	8241.97
544.681	8234.74
545.045	8199.71
545.41	8232.03
545.774	8192.26
546.138	8254.4
546.503	8204.91
546.867	8153.84
547.231	8199.94
547.595	8144.8
547.959	8194.74
548.324	8169.43
548.688	8144.8
549.052	8211.46
549.416	8160.17
549.779	8131.47
550.143	8151.58
550.507	8155.42
550.871	8188.64
551.235	8131.02
551.599	8162.65
551.962	8115.65
552.326	8096.89
552.689	8172.82
553.053	8084.91
553.417	8164.46
553.78	8204.23
554.143	8121.52
554.507	8130.11
554.87	8093.5
555.234	8113.16
555.597	8112.03
555.96	8165.14
556.323	8161.07
556.686	8164.46
557.05	8211.01
557.413	8204.46
557.776	8198.58
558.139	8215.76
558.502	8241.07
558.865	8145.7
559.228	8248.3
559.59	8254.4
559.953	8238.81
560.316	8302.54
560.679	8294.4
561.041	8199.71
561.404	8318.35
561.767	8355.42
562.129	8299.15
562.492	8443.78
562.854	8335.3
563.217	8351.35
563.579	8420.27
563.941	8439.03
564.304	8451.91
564.666	8510.21
565.028	8504.11
565.39	8462.31
565.753	8521.29
566.115	8453.49
566.477	8565.35
566.839	8498.91
567.201	8575.75
567.563	8578.69
567.925	8690.55
568.287	8626.82
568.648	8619.36
569.01	8663.2
569.372	8756.08
569.734	8719.02
570.095	8725.8
570.457	8754.95
570.819	8763.09
571.18	8733.71
571.542	8826.14
571.903	8820.49
572.265	8864.33
572.626	8886.25
572.987	8882.18
573.349	8941.39
573.71	8935.74
574.071	8977.55
574.432	9003.31
574.794	9019.35
575.155	9055.96
575.516	9018.45
575.877	9080.59
576.238	9097.32
576.599	9092.8
576.96	9089.86
577.32	9086.92
577.681	9192.91
578.042	9134.15
578.403	9185.68
578.763	9200.59
579.124	9256.18
579.485	9275.62
579.845	9260.02
580.206	9231.1
580.566	9299.8
580.927	9250.76
581.287	9433.81
581.648	9331.21
582.008	9386.12
582.368	9350.42
582.728	9415.05
583.089	9440.59
583.449	9453.24
583.809	9490.3
584.169	9502.5
584.529	9484.43
584.889	9549.96
585.249	9486.91
585.609	9447.36
585.969	9520.81
586.329	9502.96
586.688	9592.22
587.048	9585.89
587.408	9563.29
587.768	9570.75
588.127	9611.43
588.487	9557.64
588.846	9684.65
589.206	9651.65
589.565	9685.1
589.925	9709.96
590.284	9710.86
590.643	9707.24
591.003	9663.4
591.362	9740.24
591.721	9765.1
592.08	9771.65
592.44	9795.15
592.799	9823.63
593.158	9735.72
593.517	9833.57
593.876	9770.07
594.235	9825.66
594.593	9844.19
594.952	9850.74
595.311	9756.51
595.67	9934.13
596.029	9908.37
596.387	9878.54
596.746	9925.77
597.104	9829.05
597.463	9862.95
597.822	9855.72
598.18	9934.36
598.538	9930.74
598.897	9930.29
599.255	9853
599.613	9987.24
599.972	10009.16
600.33	9966.67
600.688	9948.59
601.046	10049.38
601.404	10078.53
601.762	9966.22
602.12	10054.58
602.478	10071.53
602.836	10089.61
603.194	10005.77
603.552	10018.87
603.91	10017.75
604.268	10044.19
604.625	9994.69
604.983	10055.26
605.341	10023.17
605.698	10069.5
606.056	10148.14
606.413	10070.85
606.771	10127.35
607.128	10098.87
607.485	10133.22
607.843	10114.47
608.2	10108.14
608.557	10182.71
608.914	10182.03
609.272	10223.39
609.629	10239.89
609.986	10213.45
610.343	10155.14
610.7	10272.43
611.057	10215.48
611.414	10259.09
611.771	10236.72
612.127	10331.64
612.484	10307.45
612.841	10323.95
613.198	10322.37
613.554	10343.16
613.911	10374.8
614.267	10291.64
614.624	10271.52
614.98	10239.43
615.337	10424.29
615.693	10351.3
616.05	10344.06
616.406	10481.91
616.762	10386.55
617.118	10395.81
617.475	10345.87
617.831	10432.65
618.187	10417.51
618.543	10443.27
618.899	10500.9
619.255	10492.99
619.611	10453.67
619.967	10473.1
620.323	10465.87
620.678	10432.88
621.034	10412.31
621.39	10413.89
621.746	10483.27
622.101	10519.2
622.457	10422.25
622.812	10486.43
623.168	10494.57
623.523	10488.24
623.879	10514.91
624.234	10419.09
624.589	10456.38
624.945	10457.96
625.3	10473.1
625.655	10439.2
626.01	10505.64
626.365	10481.46
626.72	10500.67
627.075	10435.59
627.43	10425.19
627.785	10420.45
628.14	10472.65
628.495	10464.51
628.85	10411.86
629.205	10403.05
629.559	10419.99
629.914	10381.13
630.269	10428.13
630.623	10412.08
630.978	10402.37
631.332	10434.68
631.687	10434.68
632.041	10348.81
632.396	10352.65
632.75	10327.12
633.104	10300.68
633.459	10257.96
633.813	10287.57
634.167	10240.56
634.521	10285.08
634.875	10177.51
635.229	10176.84
635.583	10227.01
635.937	10181.58
636.291	10240.34
636.645	10157.18
636.999	10212.32
637.352	10219.32
637.706	10123.28
638.06	10098.19
638.413	10123.51
638.767	10083.96
639.121	10195.37
639.474	10045.09
639.828	10030.4
640.181	10091.87
640.534	10030.63
640.888	10124.41
641.241	10029.04
641.594	10025.43
641.947	10024.3
642.301	10037.41
642.654	10020.46
643.007	10015.26
643.36	10005.99
643.713	9991.76
644.066	10024.52
644.419	9904.3
644.771	9867.47
645.124	9809.84
645.477	9740.46
645.83	9696.4
646.182	9664.53
646.535	9654.14
646.888	9650.98
647.24	9631.77
647.593	9689.17
647.945	9623.41
648.298	9629.28
648.65	9577.3
649.002	9574.14
649.355	9638.55
649.707	9651.2
650.059	9638.55
650.411	9753.12
650.763	9710.18
651.115	9830.63
651.467	9836.96
651.819	9813.46
652.171	9813.23
652.523	9876.51
652.875	9797.86
653.227	9740.69
653.578	9847.35
653.93	9836.51
654.282	9795.6
654.633	9712.67
654.985	9831.08
655.337	9846
655.688	9761.25
656.039	9856.85
656.391	9745.66
656.742	9747.24
657.094	9793.57
657.445	9810.29
657.796	9728.94
658.147	9749.28
658.498	9754.25
658.849	9823.17
659.2	9783.17
659.551	9747.02
659.902	9768.71
660.253	9773.23
660.604	9752.89
660.955	9716.28
661.306	9792.21
661.656	9798.09
662.007	9763.74
662.358	9797.86
662.708	9851.2
663.059	9805.32
663.409	9696.4
663.76	9794.7
664.11	9783.85
664.461	9765.32
664.811	9769.39
665.161	9820.46
665.511	9733.01
665.862	9765.77
666.212	9832.67
666.562	9830.18
666.912	9852.55
667.262	9744.53
667.612	9752.89
667.962	9832.67
668.312	9731.42
668.662	9849.39
669.011	9759.9
669.361	9775.27
669.711	9801.03
670.06	9760.58
670.41	9821.14
670.76	9738.2
671.109	9789.5
671.459	9711.99
671.808	9651.2
672.157	9765.55
672.507	9706.11
672.856	9704.76
673.205	9682.84
673.554	9721.03
673.904	9679
674.253	9722.84
674.602	9673.57
674.951	9509.51
675.3	9502.73
675.649	9624.31
675.998	9611.2
676.346	9664.76
676.695	9608.04
677.044	9607.59
677.393	9550.19
677.741	9601.94
678.09	9621.82
678.438	9537.08
678.787	9544.31
679.135	9556.74
679.484	9515.61
679.832	9553.8
680.181	9497.31
680.529	9513.35
680.877	9482.84
681.225	9450.3
681.573	9470.19
681.922	9438.33
682.27	9385.67
682.618	9466.57
682.966	9348.16
683.314	9399.23
683.661	9346.35
684.009	9405.33
684.357	9318.33
684.705	9269.52
685.053	9278.33
685.4	9256.18
685.748	9207.37
686.095	9223.87
686.443	9135.51
686.79	9165.56
687.138	9186.58
687.485	9146.58
687.832	9125.11
688.18	9120.82
688.527	9098.22
688.874	9072.46
689.221	9070.43
689.568	9000.82
689.915	9009.64
690.262	8974.83
690.609	8959.24
690.956	8854.16
691.303	8895.74
691.65	8867.04
691.997	8893.48
692.344	8810.77
692.69	8792.24
693.037	8694.84
693.383	8693.94
693.73	8772.58
694.077	8596.54
694.423	8628.4
694.769	8615.3
695.116	8607.61
695.462	8541.63
695.808	8515.41
696.155	8466.37
696.501	8406.04
696.847	8447.16
697.193	8342.31
697.539	8404
697.885	8362.2
698.231	8315.87
698.577	8296.43
698.923	8215.53
699.269	8230.45
699.614	8270.22
699.96	8175.31
700.306	8204.01
700.651	8156.1
700.997	8148.87
701.342	8112.71
701.688	8079.26
702.033	8070
702.379	8086.27
702.724	7946.39
703.069	8012.15
703.415	7931.25
703.76	7951.36
704.105	7893.28
704.45	7885.15
704.795	7789.56
705.14	7813.96
705.485	7790.68
705.83	7741.19
706.175	7771.25
706.52	7793.62
706.865	7710.69
707.209	7644.25
707.554	7659.16
707.899	7669.33
708.243	7651.71
708.588	7600.18
708.932	7510.01
709.277	7567.41
709.621	7551.37
709.966	7487.19
710.31	7555.66
710.654	7406.51
710.998	7417.36
711.342	7430.47
711.687	7414.2
712.031	7435.89
712.375	7408.32
712.719	7382.79
713.063	7331.49
713.407	7345.05
713.75	7314.99
714.094	7287.87
714.438	7342.11
714.782	7273.18
715.125	7233.19
715.469	7233.19
715.812	7224.6
716.156	7174.43
716.499	7138.27
716.843	7193.41
717.186	7184.6
717.53	7219.63
717.873	7144.37
718.216	7156.35
718.559	7145.5
718.902	7082
719.246	7097.37
719.589	7035.9
719.932	7058.5
720.275	7081.78
720.617	7020.54
720.96	7082.91
721.303	7031.38
721.646	7005.39
721.989	6958.39
722.331	7026.19
722.674	7033.64
723.016	7030.03
723.359	6968.33
723.701	6969.92
724.044	6988.45
724.386	6948.67
724.729	6979.18
725.071	6936.92
725.413	6916.36
725.755	6928.11
726.097	6942.8
726.439	6898.05
726.782	6892.4
727.124	6911.39
727.465	6929.69
727.807	6859.86
728.149	6857.38
728.491	6910.26
728.833	6878.39
729.175	6843.59
729.516	6844.95
729.858	6850.82
730.199	6865.29
730.541	6877.04
730.882	6793.65
731.224	6936.47
731.565	6825.29
731.906	6884.72
732.248	6885.62
732.589	6852.86
732.93	6795.23
733.271	6805.85
733.612	6835.68
733.953	6822.8
734.294	6816.7
734.635	6779.86
734.976	6809.92
735.317	6737.61
735.658	6812.86
735.999	6777.38
736.339	6721.33
736.68	6865.74
737.021	6819.64
737.361	6751.62
737.702	6844.27
738.042	6828.45
738.383	6805.17
738.723	6849.92
739.063	6864.38
739.404	6819.64
739.744	6856.25
740.084	6828.45
740.424	6835.68
740.764	6832.74
741.104	6873.65
741.444	6864.16
741.784	6828.9
742.124	6848.56
742.464	6878.39
742.804	6893.53
743.143	6938.28
743.483	6928.79
743.823	6883.14
744.162	6931.95
744.502	6938.05
744.841	6945.06
745.181	7049.69
745.52	6960.65
745.86	7039.74
746.199	7058.73
746.538	7060.53
746.877	7104.6
747.216	7124.49
747.556	7165.84
747.895	7179.85
748.234	7223.02
748.573	7274.54
748.911	7276.35
749.25	7324.03
749.589	7381.43
749.928	7483.57
750.267	7460.75
750.605	7525.61
750.944	7638.6
751.283	7679.5
751.621	7752.72
751.96	7757.92
752.298	7796.56
752.636	7884.47
752.975	7976.89
753.313	8017.35
753.651	8146.83
753.989	8207.4
754.327	8258.7
754.666	8295.3
755.004	8466.37
755.342	8495.98
755.679	8595.18
756.017	8681.74
756.355	8798.34
756.693	8868.85
757.031	9006.25
757.368	9141.84
757.706	9154.49
758.044	9269.06
758.381	9429.96
758.719	9515.39
759.056	9706.34
759.394	9746.79
759.731	9838.54
760.068	9988.37
760.405	10098.65
760.743	10158.31
761.08	10295.25
761.417	10367.34
761.754	10562.59
762.091	10684.85
762.428	10804.84
762.765	10896.14
763.102	11079.41
763.438	11133.65
763.775	11127.55
764.112	11372.74
764.449	11552.85
764.785	11675.33
765.122	11701.54
765.458	11807.98
765.795	11896.57
766.131	12127.07
766.467	12127.97
766.804	12290.45
767.14	12357.8
767.476	12516.44
767.812	12572.25
768.148	12692.03
768.485	12737
768.821	12778.35
769.157	12900.83
769.492	13026.71
769.828	13124.78
770.164	13132.92
770.5	13212.92
770.836	13346.92
771.171	13351.67
771.507	13444.77
771.842	13479.35
772.178	13563.64
772.513	13660.14
772.849	13684.09
773.184	13775.84
773.519	13921.37
773.855	13779.23
774.19	13870.75
774.525	13959.79
774.86	14028.49
775.195	14087.69
775.53	14113.46
775.865	14092.89
776.2	14157.52
776.535	14005.66
776.87	14166.11
777.205	14100.8
777.539	14185.77
777.874	14226.22
778.209	14238.65
778.543	14149.84
778.878	14209.5
779.212	14284.98
779.547	14207.69
779.881	14359.33
780.215	14282.72
780.55	14356.16
780.884	14302.6
781.218	14304.64
781.552	14295.37
781.886	14324.3
782.22	14289.27
782.554	14298.08
782.888	14171.99
783.222	14201.59
783.556	14169.95
783.889	14235.04
784.223	14182.38
784.557	14092.21
784.89	14205.21
785.224	14186.45
785.557	14120.91
785.891	14103.51
786.224	14126.34
786.558	14103.51
786.891	14039.11
787.224	14023.97
787.557	13979.45
787.891	14024.87
788.224	14046.11
788.557	14011.31
788.89	14123.85
789.223	14037.75
789.556	13881.82
789.888	13950.07
790.221	13902.61
790.554	13770.19
790.887	13859
791.219	13790.3
791.552	13765.44
791.884	13754.82
792.217	13730.87
792.549	13655.84
792.882	13631.66
793.214	13668.04
793.546	13644.99
793.879	13605.9
794.211	13492.91
794.543	13606.8
794.875	13506.47
795.207	13609.52
795.539	13479.57
795.871	13450.88
796.203	13355.74
796.535	13346.02
796.867	13337.88
797.198	13269.19
797.53	13330.88
797.862	13228.73
798.193	13244.78
798.525	13209.98
798.856	13239.36
799.188	13055.41
799.519	13032.36
799.85	13079.81
800.182	13070.77
800.513	13085.91
800.844	12910.1
801.175	12951.68
801.506	12961.85
801.837	12971.79
802.168	12875.75
802.499	12879.36
802.83	12796.43
803.161	12777.67
803.491	12717.79
803.822	12784.68
804.153	12721.63
804.483	12605.7
804.814	12590.78
805.145	12542.42
805.475	12540.84
805.805	12513.05
806.136	12495.87
806.466	12553.05
806.796	12494.29
807.126	12430.56
807.457	12398.02
807.787	12372.94
808.117	12302.43
808.447	12270.34
808.777	12401.86
809.107	12301.98
809.436	12253.84
809.766	12250.91
810.096	12223.11
810.426	12089.33
810.755	12127.07
811.085	12091.14
811.414	12139.5
811.744	12002.55
812.073	12082.55
812.403	11880.75
812.732	11937.69
813.061	11923.91
813.39	11903.57
813.719	11816.79
814.049	11881.65
814.378	11923.68
814.707	11768.89
815.036	11803.91
815.365	11738.38
815.693	11669.23
816.022	11662.22
816.351	11674.42
816.68	11621.32
817.008	11650.92
817.337	11524.6
817.665	11463.36
817.994	11570.92
818.322	11535.22
818.651	11558.72
818.979	11509.68
819.307	11584.48
819.636	11505.16
819.964	11400.31
820.292	11455.22
820.62	11470.81
820.948	11315.34
821.276	11524.6
821.604	11443.7
821.932	11458.39
822.259	11471.04
822.587	11400.08
822.915	11327.54
823.243	11349.69
823.57	11429.69
823.898	11410.93
824.225	11396.92
824.553	11321.21
824.88	11412.51
825.207	11376.13
825.535	11352.4
825.862	11385.62
826.189	11375.9
826.516	11389.23
826.843	11420.65
827.17	11466.97
827.497	11444.37
827.824	11465.62
828.151	11421.78
828.478	11400.76
828.805	11462.9
829.131	11414.77
829.458	11427.88
829.785	11356.92
830.111	11403.47
830.438	11444.6
830.764	11455.45
831.09	11408.44
831.417	11455
831.743	11398.73
832.069	11423.36
832.395	11359.4
832.722	11449.35
833.048	11312.63
833.374	11448.22
833.7	11311.72
834.026	11365.05
834.351	11383.58
834.677	11346.3
835.003	11344.26
835.329	11316.92
835.654	11345.17
835.98	11283.47
836.306	11250.71
836.631	11206.64
836.956	11251.61
837.282	11280.31
837.607	11208.45
837.932	11154.66
838.258	11168.22
838.583	11218.39
838.908	11072.18
839.233	11175.91
839.558	11112.86
839.883	11035.8
840.208	11015.91
840.533	11018.4
840.858	11082.12
841.182	11027.21
841.507	10952.64
841.832	10998.51
842.156	10942.69
842.481	10916.25
842.805	10920.32
843.13	10852.53
843.454	10867.89
843.778	10885.07
844.103	10851.62
844.427	10675.81
844.751	10819.76
845.075	10753.09
845.399	10724.85
845.723	10642.14
846.047	10649.59
846.371	10516.94
846.695	10564.62
847.019	10482.37
847.343	10433.33
847.666	10427
847.99	10386.55
848.313	10347.45
848.637	10293.9
848.96	10358.3
849.284	10195.59
849.607	10189.04
849.931	10235.37
850.254	10040.8
850.577	9969.16
850.9	9992.66
851.223	9976.39
851.546	9870.18
851.869	9839.22
852.192	9894.13
852.515	9827.02
852.838	9751.76
853.161	9783.4
853.483	9782.95
853.806	9690.07
854.129	9640.13
854.451	9660.01
854.774	9647.59
855.096	9512.67
855.419	9625.66
855.741	9572.11
856.063	9464.09
856.385	9480.58
856.708	9439.46
857.03	9415.5
857.352	9413.02
857.674	9361.49
857.996	9345.9
858.318	9332.57
858.64	9287.14
858.961	9201.5
859.283	9179.58
859.605	9180.25
859.926	9219.57
860.248	9192.23
860.57	9199.24
860.891	9156.3
861.212	9076.07
861.534	9006.47
861.855	9046.25
862.176	9024.1
862.498	9035.85
862.819	9003.31
863.14	8972.8
863.461	8978
863.782	8942.97
864.103	8898.23
864.424	8931.67
864.745	8866.59
865.065	8871.79
865.386	8799.92
865.707	8825.01
866.027	8874.72
866.348	8868.4
866.668	8811
866.989	8825.69
867.309	8723.09
867.63	8771.9
867.95	8695.07
868.27	8654.84
868.59	8693.03
868.91	8694.84
869.23	8621.85
869.55	8650.32
869.87	8674.28
870.19	8647.84
870.51	8605.13
870.83	8660.49
871.15	8518.8
871.469	8530.33
871.789	8579.36
872.109	8572.36
872.428	8499.14
872.748	8610.55
873.067	8536.65
873.386	8500.04
873.706	8519.25
874.025	8449.88
874.344	8439.03
874.663	8458.46
874.982	8487.62
875.301	8446.03
875.62	8411.01
875.939	8369.43
876.258	8426.6
876.577	8392.48
876.896	8427.28
877.214	8380.27
877.533	8351.57
877.852	8335.53
878.17	8310.67
878.489	8350.9
878.807	8307.51
879.125	8279.94
879.444	8233.16
879.762	8243.55
880.08	8249.43
880.398	8210.11
880.716	8271.58
881.034	8246.72
881.352	8161.3
881.67	8136.66
881.988	8154.74
882.306	8156.1
882.624	8065.93
882.941	8118.13
883.259	8047.4
883.577	7994.07
883.894	8005.82
884.212	7996.56
884.529	7999.27
884.846	7930.79
885.164	7948.87
885.481	7945.03
885.798	7905.48
886.115	7870.68
886.432	7878.14
886.75	7897.12
887.067	7880.85
887.383	7854.41
887.7	7763.12
888.017	7776.67
888.334	7816
888.651	7795.43
888.967	7695.55
889.284	7703.23
889.6	7655.32
889.917	7607.64
890.233	7598.83
890.55	7607.19
890.866	7624.14
891.182	7564.02
891.498	7531.03
891.815	7524.48
892.131	7468.21
892.447	7457.59
892.763	7459.85
893.079	7374.88
893.395	7432.73
893.71	7379.62
894.026	7398.15
894.342	7360.64
894.657	7270.7
894.973	7294.2
895.289	7302.56
895.604	7295.1
895.92	7214.65
896.235	7173.98
896.55	7176.92
896.865	7168.1
897.181	7041.33
897.496	7162.68
897.811	7122.91
898.126	7013.3
898.441	7101.21
898.756	7001.33
899.071	6966.75
899.386	7010.82
899.7	6931.05
900.015	6911.39
900.33	6853.31
900.644	6849.47
900.959	6843.14
901.273	6839.52
901.588	6752.07
901.902	6817.15
902.216	6736.02
902.531	6696.48
902.845	6659.42
903.159	6657.83
903.473	6600.43
903.787	6591.17
904.101	6569.25
904.415	6577.38
904.729	6587.55
905.042	6520.21
905.356	6517.95
905.67	6525.63
905.984	6445.64
906.297	6468.69
906.611	6406.54
906.924	6369.03
907.237	6389.37
907.551	6313.89
907.864	6352.53
908.177	6266.88
908.491	6265.08
908.804	6182.37
909.117	6222.82
909.43	6148.24
909.743	6159.09
910.056	6137.85
910.368	6141.24
910.681	6083.16
910.994	6022.6
911.307	6004.52
911.619	6029.38
911.932	5999.77
912.244	5953.67
912.557	5902.37
912.869	5956.61
913.181	5884.75
913.494	5908.47
913.806	5818.99
914.118	5841.58
914.43	5742.38
914.742	5816.73
915.054	5721.59
915.366	5713
915.678	5719.1
915.99	5697.86
916.302	5608.82
916.613	5649.5
916.925	5606.79
917.236	5608.37
917.548	5562.04
917.859	5556.62
918.171	5486.79
918.482	5478.88
918.794	5439.33
919.105	5472.33
919.416	5433.23
919.727	5427.58
920.038	5386
920.349	5366.12
920.66	5349.85
920.971	5347.13
921.282	5355.27
921.593	5268.72
921.903	5235.5
922.214	5217.19
922.525	5254.25
922.835	5200.24
923.146	5164.99
923.456	5138.1
923.767	5158.66
924.077	5100.13
924.387	5116.63
924.697	5056.29
925.008	5052.23
925.318	4989.4
925.628	5026.24
925.938	4998.44
926.248	4933.36
926.558	4994.83
926.867	4925.22
927.177	4930.42
927.487	4875.51
927.796	4873.7
928.106	4870.08
928.416	4839.58
928.725	4803.19
929.034	4810.65
929.344	4816.3
929.653	4760.71
929.962	4706.25
930.271	4770.2
930.581	4751.22
930.89	4685.91
931.199	4648.39
931.508	4632.58
931.817	4643.2
932.125	4670.99
932.434	4601.39
932.743	4558.68
933.051	4546.48
933.36	4509.19
933.669	4518.91
933.977	4493.82
934.286	4499.47
934.594	4469.19
934.902	4411.56
935.21	4420.15
935.519	4388.29
935.827	4416.08
936.135	4379.93
936.443	4334.05
936.751	4340.38
937.059	4365.24
937.367	4322.3
937.674	4287.05
937.982	4260.16
938.29	4245.69
938.597	4205.02
938.905	4191.23
939.213	4143.32
939.52	4117.56
939.827	4190.55
940.135	4139.26
940.442	4141.06
940.749	4104.23
941.056	4086.15
941.363	4052.03
941.67	4066.04
941.977	3996.66
942.284	3967.06
942.591	4012.71
942.898	3968.41
943.205	3944.01
943.511	3918.92
943.818	3964.12
944.125	3927.74
944.431	3930.9
944.738	3914.85
945.044	3840.73
945.35	3889.09
945.657	3840.73
945.963	3814.52
946.269	3777.01
946.575	3812.71
946.881	3779.94
947.187	3788.98
947.493	3719.83
947.799	3717.8
948.105	3694.07
948.41	3705.59
948.716	3710.79
949.022	3685.93
949.327	3661.08
949.633	3617.01
949.938	3624.47
950.244	3626.5
950.549	3571.81
950.854	3584.24
951.16	3561.42
951.465	3552.15
951.77	3492.72
952.075	3500.85
952.38	3477.58
952.685	3531.36
952.99	3474.41
953.294	3440.52
953.599	3461.08
953.904	3428.99
954.209	3396.45
954.513	3431.25
954.818	3404.81
955.122	3374.76
955.426	3357.13
955.731	3340.18
956.035	3341.76
956.339	3307.87
956.643	3346.96
956.948	3297.47
957.252	3319.84
957.556	3269.22
957.86	3233.52
958.163	3245.49
958.467	3212.95
958.771	3192.84
959.075	3184.25
959.378	3184.93
959.682	3162.78
959.985	3164.37
960.289	3162.78
960.592	3149.23
960.896	3117.14
961.199	3097.02
961.502	3114.88
961.805	3073.52
962.108	3053.18
962.411	3065.39
962.714	3042.34
963.017	3064.93
963.32	3032.84
963.623	3056.35
963.926	2980.64
964.228	2993.97
964.531	2971.6
964.833	2950.36
965.136	2942.22
965.438	2937.93
965.741	2899.74
966.043	2922.56
966.345	2905.16
966.648	2874.66
966.95	2907.65
967.252	2848.44
967.554	2813.41
967.856	2810.25
968.158	2815
968.46	2807.54
968.761	2777.03
969.063	2770.93
969.365	2758.05
969.666	2794.66
969.968	2722.34
970.269	2708.33
970.571	2740.2
970.872	2719.63
971.174	2709.91
971.475	2676.7
971.776	2661.55
972.077	2657.94
972.378	2628.33
972.679	2629.92
972.98	2643.93
973.281	2624.04
973.582	2606.64
973.883	2575.23
974.183	2601.89
974.484	2588.79
974.785	2543.82
975.085	2549.24
975.386	2570.71
975.686	2527.32
975.986	2509.69
976.287	2547.43
976.587	2486.19
976.887	2469.69
977.187	2497.49
977.487	2452.07
977.787	2472.63
978.087	2434.67
978.387	2443.25
978.687	2470.15
978.987	2441.67
979.286	2397.38
979.586	2366.65
979.885	2374.1
980.185	2399.87
980.484	2363.94
980.784	2355.35
981.083	2361
981.382	2340.21
981.682	2346.99
981.981	2301.11
982.28	2301.34
982.579	2285.07
982.878	2306.31
983.177	2283.03
983.475	2295.91
983.774	2255.69
984.073	2241.68
984.372	2241.23
984.67	2234.22
984.969	2236.25
985.267	2237.16
985.566	2224.96
985.864	2181.57
986.162	2196.71
986.461	2144.05
986.759	2144.05
987.057	2151.96
987.355	2157.16
987.653	2128.01
987.951	2085.75
988.249	2110.16
988.547	2115.13
988.844	2087.33
989.142	2077.84
989.44	2071.74
989.737	2049.59
990.035	2041.68
990.332	2036.26
990.63	2039.2
990.927	2023.15
991.224	2037.84
991.521	1984.28
991.819	2007.79
992.116	2025.64
992.413	1986.54
992.71	1988.13
993.006	1955.36
993.303	1940.9
993.6	1937.28
993.897	1905.19
994.193	1927.56
994.49	1942.03
994.787	1916.49
995.083	1873.33
995.379	1877.85
995.676	1905.42
995.972	1878.07
996.268	1875.13
996.565	1859.99
996.861	1859.32
997.157	1880.33
997.453	1832.42
997.749	1840.33
998.044	1803.27
998.34	1850.5
998.636	1768.7
998.932	1766.89
999.227	1738.64
999.523	1794.23
999.818	1783.16
1000.114	1739.09
1000.409	1739.32
1000.704	1696.16
1001	1716.95
1001.295	1676.95
1001.59	1709.04
1001.885	1683.73
1002.18	1688.47
1002.475	1688.92
1002.77	1669.72
1003.065	1666.78
1003.359	1627.91
1003.654	1638.3
1003.949	1635.37
1004.243	1624.52
1004.538	1611.64
1004.832	1603.73
1005.127	1603.5
1005.421	1582.71
1005.715	1596.27
1006.009	1570.51
1006.304	1570.28
1006.598	1565.31
1006.892	1565.54
1007.186	1523.05
1007.48	1569.83
1007.773	1504.3
1008.067	1522.15
1008.361	1516.27
1008.655	1501.36
1008.948	1498.65
1009.242	1509.27
1009.535	1490.74
1009.829	1488.03
1010.122	1423.62
1010.415	1418.65
1010.708	1431.3
1011.001	1439.21
1011.295	1432.43
1011.588	1404.19
1011.881	1422.04
1012.173	1394.69
1012.466	1397.18
1012.759	1366.67
1013.052	1407.8
1013.344	1363.28
1013.637	1363.96
1013.93	1358.31
1014.222	1357.63
1014.514	1328.03
1014.807	1348.14
1015.099	1335.49
1015.391	1285.55
1015.683	1321.93
1015.976	1321.02
1016.268	1280.35
1016.56	1284.42
1016.851	1287.13
1017.143	1278.54
1017.435	1267.24
1017.727	1268.14
1018.018	1271.08
1018.31	1259.33
1018.602	1209.84
1018.893	1223.4
1019.185	1208.03
1019.476	1216.85
1019.767	1211.42
1020.058	1186.11
1020.35	1191.76
1020.641	1195.38
1020.932	1191.31
1021.223	1151.09
1021.514	1163.97
1021.804	1167.58
1022.095	1127.36
1022.386	1146.79
1022.677	1146.57
1022.967	1134.59
1023.258	1140.92
1023.548	1096.17
1023.839	1106.11
1024.129	1109.73
1024.419	1117.19
1024.709	1061.6
1025	1079.45
1025.29	1079.22
1025.58	1064.76
1025.87	1072.9
1026.16	1085.1
1026.449	1068.83
1026.739	1031.31
1027.029	1024.99
1027.319	1028.6
1027.608	1028.83
1027.898	1019.11
1028.187	1016.85
1028.477	1005.1
1028.766	998.55
1029.055	988.38
1029.344	981.82
1029.634	989.06
1029.923	990.19
1030.212	971.43
1030.501	982.73
1030.79	962.16
1031.078	961.26
1031.367	939.34
1031.656	953.35
1031.945	923.07
1032.233	938.66
1032.522	924.42
1032.81	919.45
1033.099	932.11
1033.387	933.01
1033.675	916.29
1033.963	907.02
1034.251	873.8
1034.54	897.31
1034.828	884.43
1035.116	894.82
1035.403	877.42
1035.691	866.35
1035.979	862.96
1036.267	859.79
1036.554	859.79
1036.842	877.42
1037.129	837.2
1037.417	828.83
1037.704	856.18
1037.992	826.57
1038.279	833.81
1038.566	821.6
1038.853	821.6
1039.14	821.6
