Data from hue_330_FLMS001491_55.txt Node
Date: Mon Feb 06 15:45:35 GMT 2017
User: dcchb
Spectrometer: FLMS00149
Trigger mode: 0
Integration Time (sec): 2.000000E-2
Scans to average: 10
Electric dark correction enabled: true
Nonlinearity correction enabled: false
Boxcar width: 0
XAxis mode: Wavelengths
Number of Pixels in Spectrum: 2048
>>>>>Begin Spectral Data<<<<<
341.393	-10.07
341.776	-10.07
342.16	-10.07
342.543	-49.17
342.927	-80.13
343.31	-72.44
343.693	-74.7
344.077	-86.23
344.46	-56.85
344.843	-60.01
345.226	-43.74
345.61	-35.15
345.993	-14.59
346.376	-2.39
346.759	20.66
347.142	22.25
347.525	58.63
347.908	56.37
348.291	72.41
348.674	92.75
349.057	123.03
349.44	140.43
349.823	135.69
350.206	159.19
350.588	186.08
350.971	201.9
351.354	225.4
351.737	220.43
352.119	251.62
352.502	269.7
352.884	271.96
353.267	285.06
353.65	288
354.032	290.71
354.414	305.4
354.797	312.18
355.179	321.67
355.562	330.71
355.944	322.35
356.326	316.47
356.709	354.44
357.091	354.21
357.473	343.37
357.855	339.3
358.238	337.72
358.62	341.78
359.002	329.58
359.384	330.71
359.766	348.34
360.148	312.86
360.53	341.33
360.912	348.56
361.294	331.39
361.676	332.29
362.057	312.18
362.439	335.23
362.821	324.61
363.203	322.58
363.584	317.15
363.966	342.24
364.348	324.38
364.729	334.78
365.111	336.14
365.493	307.21
365.874	312.18
366.256	321.22
366.637	309.92
367.019	310.83
367.4	307.66
367.781	318.06
368.163	309.02
368.544	310.6
368.925	307.66
369.306	329.81
369.688	334.1
370.069	313.31
370.45	301.79
370.831	330.71
371.212	311.96
371.593	324.16
371.974	314.67
372.355	309.7
372.736	321.45
373.117	340.43
373.498	316.7
373.879	327.77
374.26	320.09
374.641	290.26
375.021	315.12
375.402	322.8
375.783	311.5
376.163	319.19
376.544	337.72
376.925	309.92
377.305	333.65
377.686	311.5
378.066	317.83
378.447	316.7
378.827	326.87
379.208	326.19
379.588	351.28
379.968	338.85
380.349	329.81
380.729	355.34
381.109	351.28
381.489	332.75
381.87	328
382.25	323.71
382.63	335.46
383.01	330.71
383.39	352.63
383.77	350.37
384.15	345.85
384.53	331.84
384.91	348.11
385.29	344.72
385.67	352.63
386.049	348.56
386.429	337.94
386.809	332.52
387.189	334.55
387.568	346.98
387.948	356.47
388.328	351.05
388.707	346.3
389.087	359.41
389.466	360.09
389.846	347.43
390.225	361.45
390.605	349.02
390.984	361.22
391.363	363.03
391.743	366.64
392.122	367.55
392.501	366.42
392.881	388.79
393.26	387.43
393.639	358.28
394.018	378.85
394.397	393.76
394.776	379.3
395.155	364.61
395.534	392.86
395.913	383.82
396.292	378.39
396.671	387.66
397.05	396.25
397.429	412.97
397.808	366.19
398.186	393.53
398.565	378.62
398.944	384.04
399.323	393.99
399.701	401.22
400.08	384.72
400.458	395.57
400.837	407.09
401.215	410.94
401.594	408.68
401.972	421.78
402.351	405.96
402.729	419.07
403.107	420.2
403.486	431.05
403.864	394.21
404.242	424.49
404.62	436.02
404.999	434.21
405.377	429.69
405.755	437.38
406.133	422.01
406.511	444.38
406.889	434.44
407.267	441.44
407.645	463.82
408.023	467.43
408.401	454.55
408.779	454.55
409.156	470.14
409.534	475.11
409.912	465.62
410.29	497.03
410.667	494.55
411.045	487.77
411.422	488.9
411.8	478.05
412.178	495.91
412.555	494.32
412.933	521.22
413.31	530.93
413.687	512.85
414.065	549.24
414.442	515.34
414.819	524.6
415.197	551.27
415.574	569.12
415.951	532.97
416.328	581.33
416.705	579.97
417.082	569.35
417.46	567.77
417.837	585.17
418.214	593.3
418.591	559.41
418.967	614.32
419.344	596.69
419.721	607.54
420.098	628.56
420.475	634.21
420.852	630.14
421.228	619.97
421.605	651.61
421.982	656.8
422.358	660.87
422.735	660.19
423.111	661.32
423.488	681.44
423.864	682.11
424.241	694.09
424.617	684.15
424.994	692.51
425.37	699.52
425.746	708.78
426.123	735.22
426.499	693.87
426.875	729.35
427.251	724.83
427.627	742.45
428.003	750.14
428.379	754.2
428.756	771.6
429.132	746.29
429.507	782.45
429.883	786.74
430.259	795.56
430.635	802.11
431.011	811.38
431.387	827.65
431.763	821.55
432.138	836.46
432.514	840.98
432.89	853.86
433.265	862.45
433.641	885.95
434.016	889.79
434.392	870.81
434.767	909.23
435.143	904.26
435.518	881.88
435.894	909.23
436.269	929.79
436.644	921.66
437.02	956.68
437.395	969.34
437.77	956.68
438.145	966.63
438.52	955.55
438.895	1014.99
439.271	969.79
439.646	990.81
440.021	1003.46
440.395	1000.52
440.77	996
441.145	1034.42
441.52	1023.57
441.895	1008.21
442.27	1062.9
442.645	1030.35
443.019	1044.37
443.394	1056.79
443.769	1050.24
444.143	1050.47
444.518	1053.4
444.892	1064.48
445.267	1075.78
445.641	1070.13
446.016	1083.69
446.39	1097.92
446.764	1111.71
447.139	1120.07
447.513	1091.14
447.887	1124.59
448.262	1122.1
448.636	1109.22
449.01	1146.96
449.384	1141.54
449.758	1161.2
450.132	1157.13
450.506	1139.05
450.88	1141.76
451.254	1159.39
451.628	1174.98
452.002	1203.68
452.376	1198.94
452.75	1188.99
453.123	1199.39
453.497	1208.2
453.871	1217.69
454.244	1235.55
454.618	1266.96
454.992	1250.69
455.365	1257.24
455.739	1302.21
456.112	1281.65
456.486	1281.65
456.859	1299.05
457.232	1303.79
457.606	1322.55
457.979	1335.66
458.352	1319.61
458.725	1337.69
459.099	1350.57
459.472	1361.87
459.845	1403.23
460.218	1424.69
460.591	1410.46
460.964	1408.88
461.337	1471.92
461.71	1468.31
462.083	1493.17
462.456	1464.47
462.829	1454.07
463.201	1512.83
463.574	1486.16
463.947	1506.05
464.32	1550.57
464.692	1563.9
465.065	1579.27
465.438	1584.24
465.81	1611.58
466.183	1608.64
466.555	1621.3
466.928	1609.77
467.3	1659.72
467.672	1672.6
468.045	1674.63
468.417	1701.75
468.789	1704.69
469.161	1714.63
469.534	1769.77
469.906	1793.5
470.278	1792.37
470.65	1822.65
471.022	1822.65
471.394	1861.97
471.766	1841.86
472.138	1891.57
472.51	1863.78
472.882	1957.56
473.253	1969.31
473.625	1960.5
473.997	1978.58
474.369	1984.68
474.74	2012.25
475.112	2082.76
475.484	2085.47
475.855	2107.39
476.227	2111.46
476.598	2180.38
476.97	2226.48
477.341	2238.46
477.713	2262.41
478.084	2263.77
478.455	2300.15
478.827	2306.48
479.198	2399.36
479.569	2395.52
479.94	2435.97
480.311	2475.29
480.682	2490.88
481.053	2553.25
481.424	2583.08
481.795	2618.34
482.166	2630.31
482.537	2668.5
482.908	2694.04
483.279	2745.11
483.65	2797.31
484.021	2834.6
484.391	2860.81
484.762	2874.6
485.133	2914.6
485.503	2891.77
485.874	2982.39
486.244	2991.43
486.615	3011.77
486.985	3097.64
487.356	3096.51
487.726	3114.14
488.097	3169.06
488.467	3173.35
488.837	3288.15
489.207	3302.84
489.578	3328.15
489.948	3343.29
490.318	3424.42
490.688	3420.12
491.058	3454.25
491.428	3465.32
491.798	3536.28
492.168	3564.3
492.538	3576.05
492.908	3607.24
493.278	3676.39
493.648	3651.75
494.017	3724.07
494.387	3732.43
494.757	3744.86
495.126	3760.45
495.496	3781.02
495.866	3813.56
496.235	3821.92
496.605	3872.99
496.974	3903.73
497.344	3955.25
497.713	3917.96
498.082	3965.64
498.452	3986.89
498.821	3969.94
499.19	4031.41
499.559	4033.21
499.928	4078.64
500.298	4100.1
500.667	4149.14
501.036	4115.24
501.405	4152.76
501.774	4174.23
502.143	4186.88
502.512	4177.62
502.88	4238.18
503.249	4258.29
503.618	4226.2
503.987	4294.22
504.356	4326.31
504.724	4322.02
505.093	4304.84
505.462	4332.64
505.83	4359.08
506.199	4395.46
506.567	4400.89
506.936	4444.73
507.304	4465.74
507.672	4458.06
508.041	4525.86
508.409	4494.9
508.777	4559.75
509.145	4564.95
509.514	4582.8
509.882	4573.76
510.25	4564.27
510.618	4620.54
510.986	4616.25
511.354	4622.35
511.722	4631.62
512.09	4680.2
512.458	4672.29
512.826	4718.62
513.193	4752.74
513.561	4760.65
513.929	4723.59
514.297	4826.41
514.664	4800.88
515.032	4797.49
515.4	4857.15
515.767	4876.58
516.135	4910.93
516.502	4838.16
516.869	4921.55
517.237	4912.29
517.604	4890.59
517.972	4960.87
518.339	4947.09
518.706	4926.3
519.073	4972.17
519.44	4959.29
519.808	5035.67
520.175	5020.76
520.542	5074.09
520.909	5086.74
521.276	5074.99
521.643	5103.47
522.009	5175.1
522.376	5179.17
522.743	5176.01
523.11	5202
523.477	5267.76
523.843	5244.03
524.21	5276.34
524.577	5359.05
524.943	5354.76
525.31	5363.57
525.676	5420.07
526.043	5474.76
526.409	5451.71
526.776	5486.96
527.142	5514.08
527.508	5557.47
527.874	5572.38
528.241	5614.64
528.607	5634.75
528.973	5693.51
529.339	5677.69
529.705	5676.33
530.071	5750.23
530.437	5756.11
530.803	5746.61
531.169	5825.71
531.535	5816.9
531.901	5824.35
532.267	5863.22
532.632	5897.8
532.998	5904.58
533.364	5930.79
533.73	5985.93
534.095	6015.08
534.461	6047.85
534.826	6035.65
535.192	6074.06
535.557	6152.71
535.923	6121.52
536.288	6127.62
536.653	6186.15
537.019	6094.4
537.384	6168.3
537.749	6288.3
538.114	6297.11
538.479	6243.78
538.845	6303.44
539.21	6292.81
539.575	6344.11
539.94	6350.21
540.305	6408.07
540.67	6424.79
541.034	6468.4
541.399	6485.58
541.764	6511.57
542.129	6542.07
542.494	6556.76
542.858	6540.49
543.223	6618
543.587	6643.54
543.952	6654.39
544.316	6683.09
544.681	6706.82
545.045	6752.92
545.41	6825.68
545.774	6817.09
546.138	6797.89
546.503	6860.94
546.867	6857.55
547.231	6895.96
547.595	6913.36
547.959	6850.77
548.324	6921.05
548.688	6992.68
549.052	6953.81
549.416	7081.72
549.779	7035.85
550.143	7033.13
550.507	7073.13
550.871	7095.96
551.235	7036.3
551.599	7185.9
551.962	7175.5
552.326	7241.94
552.689	7311.55
553.053	7148.84
553.417	7183.86
553.78	7347.25
554.143	7295.95
554.507	7336.4
554.87	7323.52
555.234	7397.87
555.597	7406.46
555.96	7409.17
556.323	7396.29
556.686	7446.91
557.05	7492.33
557.413	7539.11
557.776	7449.62
558.139	7594.25
558.502	7551.09
558.865	7583.18
559.228	7627.02
559.59	7662.5
559.953	7633.8
560.316	7723.29
560.679	7753.57
561.041	7802.83
561.404	7773.23
561.767	7848.48
562.129	7867.24
562.492	7935.94
562.854	7908.82
563.217	7929.61
563.579	7958.31
563.941	8003.73
564.304	7978.42
564.666	8072.88
565.028	8056.84
565.39	8092.54
565.753	8175.25
566.115	8153.33
566.477	8230.62
566.839	8179.54
567.201	8211.63
567.563	8287.56
567.925	8361.91
568.287	8344.74
568.648	8336.38
569.01	8407.11
569.372	8453.89
569.734	8410.73
570.095	8435.81
570.457	8544.06
570.819	8563.72
571.18	8600.55
571.542	8617.95
571.903	8729.36
572.265	8721.68
572.626	8753.99
572.987	8771.62
573.349	8844.84
573.71	8884.16
574.071	8939.3
574.432	8985.85
574.794	9086.19
575.155	9094.1
575.516	9189.91
575.877	9147.2
576.238	9280.53
576.599	9362.56
576.96	9392.39
577.32	9487.98
577.681	9577.47
578.042	9634.42
578.403	9750.12
578.763	9877.58
579.124	9892.04
579.485	10047.07
579.845	10185.37
580.206	10201.86
580.566	10285.03
580.927	10408.64
581.287	10596.2
581.648	10754.62
582.008	10847.72
582.368	10964.33
582.728	11120.71
583.089	11261.05
583.449	11350.99
583.809	11597.53
584.169	11750.98
584.529	11889.5
584.889	12227.8
585.249	12305.31
585.609	12364.75
585.969	12719.99
586.329	12926.76
586.688	13066.42
587.048	13312.29
587.408	13482.23
587.768	13752.51
588.127	13939.85
588.487	14197.01
588.846	14450.34
589.206	14629.09
589.565	14853.95
589.925	15216.2
590.284	15453.03
590.643	15764.66
591.003	16055.04
591.362	16300.91
591.721	16654.58
592.08	16780.22
592.44	17195.35
592.799	17461.11
593.158	17730.48
593.517	17930.25
593.876	18283.01
594.235	18542.44
594.593	18792.6
594.952	19241.4
595.311	19387.61
595.67	19838.22
596.029	20109.63
596.387	20448.15
596.746	20842.49
597.104	20887.69
597.463	21189.37
597.822	21531.51
598.18	21789.36
598.538	22151.83
598.897	22531.03
599.255	22575.32
599.613	23206.72
599.972	23318.58
600.33	23582.3
600.688	23783.65
601.046	24170.08
601.404	24626.34
601.762	24803.29
602.12	25291.41
602.478	25403.72
602.836	25708.58
603.194	25816.82
603.552	26131.62
603.91	26389.46
604.268	26769.79
604.625	26834.65
604.983	27321.19
605.341	27358.48
605.698	27679.15
606.056	28044.11
606.413	28308.73
606.771	28463.31
607.128	28832.79
607.485	28904.2
607.843	29268.26
608.2	29445.65
608.557	29795.7
608.914	29821.69
609.272	30195.01
609.629	30288.12
609.986	30790.25
610.343	30844.49
610.7	31259.39
611.057	31237.02
611.414	31497.8
611.771	31704.8
612.127	32004.91
612.484	32233.6
612.841	32487.61
613.198	32626.36
613.554	32739.35
613.911	33102.73
614.267	33234.25
614.624	33416.62
614.98	33585.2
615.337	33769.83
615.693	33828.81
616.05	34023.61
616.406	34230.84
616.762	34350.16
617.118	34585.86
617.475	34634.89
617.831	34782.46
618.187	35003.02
618.543	35327.98
618.899	35392.39
619.255	35417.25
619.611	35433.97
619.967	35879.38
620.323	36041.64
620.678	36042.54
621.034	36033.5
621.39	36180.39
621.746	36244.12
622.101	36659.47
622.457	36487.95
622.812	36617.22
623.168	36845.68
623.523	36937.88
623.879	37014.72
624.234	36833.48
624.589	37020.37
624.945	37183.3
625.3	37377.2
625.655	37471.43
626.01	37513.69
626.365	37730.41
626.72	37607.02
627.075	37724.08
627.43	37715.94
627.785	37785.09
628.14	37751.2
628.495	38015.14
628.85	37989.61
629.205	37985.99
629.559	38329.03
629.914	38089.94
630.269	38319.77
630.623	38077.06
630.978	38114.35
631.332	38241.13
631.687	38416.94
632.041	38267.57
632.396	38402.93
632.75	38369.26
633.104	38474.57
633.459	38281.58
633.813	38249.94
634.167	38518.63
634.521	38425.3
634.875	38517.73
635.229	38373.33
635.583	38344.85
635.937	38474.57
636.291	38416.72
636.645	38463.49
636.999	38396.15
637.352	38533.55
637.706	38307.34
638.06	38474.79
638.413	38416.04
638.767	38420.78
639.121	38421.24
639.474	38271.18
639.828	38217.85
640.181	38292.43
640.534	38367.68
640.888	38457.84
641.241	38174.24
641.594	38253.1
641.947	38445.87
642.301	38334.01
642.654	38370.39
643.007	38377.17
643.36	38298.3
643.713	38366.77
644.066	38431.18
644.419	38195.03
644.771	37983.96
645.124	37755.72
645.477	37654.48
645.83	37354.14
646.182	37363.64
646.535	37241.15
646.888	37248.61
647.24	37125.22
647.593	37310.76
647.945	37241.15
648.298	36983.76
648.65	37081.16
649.002	37009.52
649.355	37154.15
649.707	37098.56
650.059	37215.17
650.411	37731.31
650.763	37727.92
651.115	38062.83
651.467	37990.51
651.819	37998.42
652.171	37946.9
652.523	37919.55
652.875	37881.81
653.227	37585.55
653.578	37970.85
653.93	37787.35
654.282	37661.71
654.633	37707.81
654.985	37652.67
655.337	37868.03
655.688	37685.66
656.039	37778.99
656.391	37559.79
656.742	37651.31
657.094	37753.23
657.445	37743.06
657.796	37716.62
658.147	37613.57
658.498	37593.01
658.849	37607.47
659.2	37644.98
659.551	37546
659.902	37704.19
660.253	37554.37
660.604	37449.06
660.955	37498.55
661.306	37624.65
661.656	37566.57
662.007	37483.18
662.358	37559.34
662.708	37555.27
663.059	37542.39
663.409	37351.89
663.76	37587.13
664.11	37527.25
664.461	37586
664.811	37624.42
665.161	37461.03
665.511	37406.35
665.862	37524.54
666.212	37533.58
666.562	37570.86
666.912	37512.11
667.262	37468.49
667.612	37393.92
667.962	37522.5
668.312	37433.46
668.662	37634.36
669.011	37455.16
669.361	37344.2
669.711	37499.23
670.06	37349.4
670.41	37187.37
670.76	37282.73
671.109	37392.11
671.459	37399.12
671.808	37253.58
672.157	37498.32
672.507	37122.06
672.856	37237.31
673.205	37285.67
673.554	37466.68
673.904	37201.15
674.253	37426.46
674.602	37167.26
674.951	36735.86
675.3	36619.02
675.649	37216.3
675.998	37071.89
676.346	37034.15
676.695	37221.27
677.044	36870.77
677.393	37062.63
677.741	37056.3
678.09	36994.38
678.438	36873.71
678.787	36946.25
679.135	37000.48
679.484	36710.77
679.832	36824.44
680.181	36811.33
680.529	36829.41
680.877	36719.36
681.225	36700.83
681.573	37022.85
681.922	36582.87
682.27	36486.15
682.618	36564.79
682.966	36508.29
683.314	36508.29
683.661	36296.32
684.009	36261.07
684.357	36299.26
684.705	36094.97
685.053	36179.49
685.4	35912.37
685.748	35859.72
686.095	35993.28
686.443	35877.8
686.79	35803.68
687.138	35866.95
687.485	35922.09
687.832	35802.32
688.18	35736.79
688.527	35579.95
688.874	35559.16
689.221	35378.15
689.568	35432.39
689.915	35313.97
690.262	35318.72
690.609	35266.52
690.956	35098.39
691.303	35020.2
691.65	34788.34
691.997	34795.79
692.344	34639.41
692.69	34747.43
693.037	34683.48
693.383	34355.13
693.73	34485.52
694.077	34323.49
694.423	34322.81
694.769	34217.28
695.116	34181.35
695.462	34062.93
695.808	33963.95
696.155	34033.55
696.501	33831.98
696.847	33768.02
697.193	33501.82
697.539	33724.18
697.885	33321.03
698.231	33422.04
698.577	33344.31
698.923	33350.86
699.269	33127.36
699.614	32994.26
699.96	32957.65
700.306	32994.26
700.651	32879.91
700.997	32773.47
701.342	32715.4
701.688	32688.28
702.033	32536.42
702.379	32449.19
702.724	32504.78
703.069	32456.19
703.415	32143.66
703.76	32118.12
704.105	32260.04
704.45	32099.82
704.795	31867.96
705.14	31765.82
705.485	31768.3
705.83	31639.72
706.175	31675.42
706.52	31630.91
706.865	31442.89
707.209	31365.83
707.554	31334.42
707.899	31498.25
708.243	31259.84
708.588	31313.4
708.932	31035.67
709.277	30910.02
709.621	31007.87
709.966	30774.43
710.31	30777.14
710.654	30611.95
710.998	30742.34
711.342	30658.95
711.687	30562.91
712.031	30481.11
712.375	30355.68
712.719	30458.73
713.063	30390.94
713.407	30376.25
713.75	30200.89
714.094	30159.31
714.438	29996.82
714.782	29967.67
715.125	29934.68
715.469	30033.43
715.812	29737.85
716.156	29660.56
716.499	29807.45
716.843	29706.89
717.186	29555.03
717.53	29715.48
717.873	29592.09
718.216	29509.83
718.559	29344.41
718.902	29252.44
719.246	29403.85
719.589	29299.22
719.932	29091.31
720.275	29170.18
720.617	29007.92
720.96	29021.03
721.303	29113.23
721.646	28988.49
721.989	28897.64
722.331	29047.47
722.674	28804.31
723.016	28774.94
723.359	28705.11
723.701	28813.13
724.044	28604.54
724.386	28449.29
724.729	28566.35
725.071	28467.37
725.413	28460.37
725.755	28373.59
726.097	28252.46
726.439	28148.74
726.782	28248.62
727.124	28369.97
727.465	28308.28
727.807	28087.95
728.149	28151
728.491	28069.19
728.833	28039.14
729.175	27980.83
729.516	27820.84
729.858	27842.3
730.199	27997.33
730.541	27763.66
730.882	27738.35
731.224	27930.44
731.565	27666.26
731.906	27621.97
732.248	27706.49
732.589	27555.76
732.93	27441.86
733.271	27422.43
733.612	27453.61
733.953	27503.33
734.294	27246.16
734.635	27290.68
734.976	27302.43
735.317	27150.8
735.658	27190.12
735.999	27195.32
736.339	27169.55
736.68	27083.91
737.021	27010.69
737.361	26928.43
737.702	27020.63
738.042	26862.9
738.383	26807.53
738.723	26984.25
739.063	26881.43
739.404	26805.04
739.744	26782.45
740.084	26670.81
740.424	26607.08
740.764	26641.88
741.104	26772.28
741.444	26536.35
741.784	26548.1
742.124	26463.36
742.464	26364.83
742.804	26493.87
743.143	26246.87
743.483	26322.12
743.823	26210.26
744.162	26165.29
744.502	26251.39
744.841	26096.36
745.181	26314.89
745.52	26196.47
745.86	26125.74
746.199	26090.94
746.538	26016.14
746.877	26124.84
747.216	26101.79
747.556	25834.9
747.895	25931.62
748.234	25788.35
748.573	25841
748.911	25792.64
749.25	25574.79
749.589	25720.78
749.928	25539.99
750.267	25662.7
750.605	25556.49
750.944	25497.51
751.283	25408.47
751.621	25438.3
751.96	25378.19
752.298	25372.09
752.636	25345.42
752.975	25162.15
753.313	25147.46
753.651	25239.89
753.989	25024.07
754.327	25029.5
754.666	24894.36
755.004	24940.01
755.342	24759
755.679	24844.87
756.017	24722.39
756.355	24726.91
756.693	24637.87
757.031	24633.12
757.368	24505.22
757.706	24542.5
758.044	24409.17
758.381	24420.25
758.719	24228.39
759.056	24271.78
759.394	24262.51
759.731	23996.98
760.068	24124.89
760.405	24051.44
760.743	23830.43
761.08	23887.15
761.417	23740.27
761.754	23689.42
762.091	23607.84
762.428	23579.14
762.765	23435.64
763.102	23423.44
763.438	23370.56
763.775	23251.46
764.112	23243.33
764.449	23281.07
764.785	23164.01
765.122	22992.94
765.458	22985.48
765.795	23004.24
766.131	22935.54
766.467	22817.13
766.804	22647.64
767.14	22566.29
767.476	22669.79
767.812	22468.21
768.148	22439.06
768.485	22385.95
768.821	22300.3
769.157	22279.29
769.492	22241.32
769.828	22221.21
770.164	21933.31
770.5	21875.23
770.836	21847.89
771.171	21716.82
771.507	21690.6
771.842	21534.9
772.178	21544.62
772.513	21477.5
772.849	21454.45
773.184	21325.41
773.519	21353.66
773.855	21223.72
774.19	20988.93
774.525	20996.61
774.86	20860.57
775.195	20994.35
775.53	20847.69
775.865	20664.87
776.2	20632.1
776.535	20388.49
776.87	20409.51
777.205	20463.29
777.539	20263.29
777.874	20349.39
778.209	20122.06
778.543	19956.18
778.878	20021.04
779.212	20064.88
779.547	19828.28
779.881	19941.95
780.215	19684.55
780.55	19877.99
780.884	19748.28
781.218	19600.26
781.552	19522.07
781.886	19393.94
782.22	19307.84
782.554	19283.21
782.888	19178.58
783.222	19113.72
783.556	19028.98
783.889	18974.06
784.223	18888.19
784.557	18871.24
784.89	18893.16
785.224	18715.54
785.557	18674.41
785.891	18582.89
786.224	18529.56
786.558	18541.76
786.891	18376.56
787.224	18312.84
787.557	18270.13
787.891	18206.63
788.224	18236.23
788.557	18283.23
788.89	18191.48
789.223	18037.59
789.556	18006.41
789.888	17942.45
790.221	17837.6
790.554	17708.79
790.887	17698.84
791.219	17659.97
791.552	17624.49
791.884	17571.61
792.217	17493.42
792.549	17393.54
792.882	17249.59
793.214	17183.6
793.546	17185.41
793.879	17120.78
794.211	17037.17
794.543	17036.71
794.875	16988.58
795.207	17046.43
795.539	16876.72
795.871	16782.48
796.203	16699.55
796.535	16643.96
796.867	16577.06
797.198	16588.59
797.53	16517.4
797.862	16399.44
798.193	16528.03
798.525	16354.47
798.856	16417.97
799.188	16203.74
799.519	16114.25
799.85	16086
800.182	16031.54
800.513	16092.56
800.844	15952.45
801.175	16028.15
801.506	15933.69
801.837	15790.87
802.168	15829.97
802.499	15756.75
802.83	15719.01
803.161	15654.38
803.491	15630.2
803.822	15608.73
804.153	15522.63
804.483	15405.12
804.814	15262.07
805.145	15245.8
805.475	15325.8
805.805	15290.77
806.136	15204.22
806.466	15272.24
806.796	15192.24
807.126	15125.35
807.457	15050.55
807.787	15055.52
808.117	15021.4
808.447	14916.99
808.777	14946.82
809.107	14814.4
809.436	14859.6
809.766	14837
810.096	14710.67
810.426	14648.98
810.755	14728.75
811.085	14662.31
811.414	14613.27
811.744	14485.59
812.073	14495.08
812.403	14440.62
812.732	14382.32
813.061	14430.68
813.39	14274.53
813.719	14285.15
814.049	14286.28
814.378	14229.1
814.707	14248.54
815.036	14110.69
815.365	14118.15
815.693	13969.68
816.022	14001.76
816.351	13924.25
816.68	13873.63
817.008	13934.65
817.337	13810.58
817.665	13839.28
817.994	13806.97
818.322	13784.14
818.651	13691.49
818.979	13710.92
819.307	13785.05
819.636	13697.37
819.964	13586.86
820.292	13641.55
820.62	13590.48
820.948	13573.53
821.276	13538.5
821.604	13514.09
821.932	13616.01
822.259	13571.49
822.587	13470.71
822.915	13394.1
823.243	13551.38
823.57	13520.65
823.898	13529.01
824.225	13444.04
824.553	13586.86
824.88	13547.77
825.207	13457.6
825.535	13443.59
825.862	13470.48
826.189	13376.7
826.516	13591.15
826.843	13472.29
827.17	13481.55
827.497	13475.22
827.824	13471.16
828.151	13551.61
828.478	13548.67
828.805	13448.33
829.131	13448.33
829.458	13415.34
829.785	13393.19
830.111	13415.34
830.438	13453.08
830.764	13420.54
831.09	13424.6
831.417	13429.58
831.743	13497.37
832.069	13492.4
832.395	13434.77
832.722	13366.08
833.048	13330.82
833.374	13327.21
833.7	13323.36
834.026	13300.09
834.351	13283.37
834.677	13281.33
835.003	13364.95
835.329	13314.55
835.654	13265.96
835.98	13209.47
836.306	13176.02
836.631	13210.15
836.956	13199.75
837.282	13178.96
837.607	13041.34
837.932	13112.3
838.258	13095.12
838.583	13107.55
838.908	12989.59
839.233	12997.27
839.558	13012.41
839.883	12906.65
840.208	12922.92
840.533	12878.4
840.858	12945.07
841.182	12924.96
841.507	12868.01
841.832	12849.03
842.156	12846.99
842.481	12868.91
842.805	12735.13
843.13	12743.27
843.454	12655.81
843.778	12595.25
844.103	12580.33
844.427	12618.75
844.751	12661.23
845.075	12491.75
845.399	12545.08
845.723	12462.82
846.047	12465.08
846.371	12272.54
846.695	12358.87
847.019	12277.52
847.343	12190.29
847.666	12126.11
847.99	12096.5
848.313	12047.47
848.637	11970.41
848.96	11915.49
849.284	11931.31
849.607	11876.4
849.931	11876.4
850.254	11840.92
850.577	11685.89
850.9	11651.09
851.223	11616.74
851.546	11521.6
851.869	11531.55
852.192	11564.54
852.515	11499.01
852.838	11351.21
853.161	11380.14
853.483	11337.2
853.806	11281.61
854.129	11227.37
854.451	11248.62
854.774	11115.29
855.096	11092.46
855.419	11116.64
855.741	11059.92
856.063	11019.24
856.385	10983.76
856.708	10942.18
857.03	10879.59
857.352	10912.81
857.674	10858.8
857.996	10796.43
858.318	10750.1
858.64	10816.76
858.961	10728.18
859.283	10725.01
859.605	10682.76
859.926	10638.46
860.248	10630.78
860.57	10605.92
860.891	10652.47
861.212	10560.27
861.534	10604.11
861.855	10507.39
862.176	10548.3
862.498	10499.71
862.819	10451.12
863.14	10375.42
863.461	10408.86
863.782	10370.67
864.103	10374.52
864.424	10316.66
864.745	10347.62
865.065	10295.87
865.386	10237.57
865.707	10256.1
866.027	10265.14
866.348	10266.72
866.668	10279.38
866.989	10255.42
867.309	10183.56
867.63	10181.07
867.95	10116.9
868.27	10092.49
868.59	10118.25
868.91	10041.42
869.23	10066.5
869.55	10080.74
869.87	10016.33
870.19	10000.06
870.51	10052.26
870.83	9993.96
871.15	9937.92
871.469	9967.29
871.789	9918.03
872.109	9932.95
872.428	9885.49
872.748	9903.34
873.067	9865.15
873.386	9848.65
873.706	9854.98
874.025	9763.68
874.344	9752.16
874.663	9809.33
874.982	9724.36
875.301	9796.68
875.62	9706.06
875.939	9693.4
876.258	9712.61
876.577	9672.61
876.896	9656.12
877.214	9668.09
877.533	9586.74
877.852	9627.19
878.17	9644.37
878.489	9584.48
878.807	9537.93
879.125	9592.62
879.444	9577.7
879.762	9453.18
880.08	9532.5
880.398	9518.27
880.716	9499.06
881.034	9419.29
881.352	9454.99
881.67	9369.34
881.988	9429
882.306	9433.75
882.624	9381.77
882.941	9323.92
883.259	9248.22
883.577	9255.9
883.894	9306.29
884.212	9260.65
884.529	9261.32
884.846	9262.68
885.164	9225.84
885.481	9214.77
885.798	9204.15
886.115	9147.2
886.432	9130.71
886.75	9064.49
887.067	9061.1
887.383	9012.52
887.7	9063.59
888.017	8937.04
888.334	8919.19
888.651	8888
888.967	8888.68
889.284	8869.02
889.6	8854.78
889.917	8782.01
890.233	8800.09
890.55	8760.32
890.866	8766.42
891.182	8775.69
891.498	8730.26
891.815	8657.27
892.131	8671.06
892.447	8648.91
892.763	8636.48
893.079	8629.93
893.395	8530.5
893.71	8553.09
894.026	8495.02
894.342	8517.62
894.657	8437.39
894.973	8457.05
895.289	8450.27
895.604	8379.77
895.92	8379.99
896.235	8327.56
896.55	8330.05
896.865	8276.94
897.181	8286.21
897.496	8205.53
897.811	8151.97
898.126	8154.91
898.441	8135.7
898.756	8090.51
899.071	8088.7
899.386	8100.68
899.7	8026.55
900.015	7965.99
900.33	7940.23
900.644	7939.55
900.959	7951.75
901.273	7916.5
901.588	7842.6
901.902	7847.12
902.216	7735.94
902.531	7722.61
902.845	7767.35
903.159	7749.27
903.473	7638.77
903.787	7633.34
904.101	7610.07
904.415	7587.02
904.729	7617.75
905.042	7507.92
905.356	7541.37
905.67	7485.55
905.984	7459.11
906.297	7479.45
906.611	7389.96
906.924	7421.6
907.237	7370.75
907.551	7364.65
907.864	7283.3
908.177	7282.85
908.491	7265.22
908.804	7227.71
909.117	7147.26
909.43	7142.74
909.743	7153.58
910.056	7096.64
910.368	7065.9
910.681	7060.03
910.994	6954.04
911.307	6996.75
911.619	6859.35
911.932	6931.44
912.244	6953.59
912.557	6884.21
912.869	6793.14
913.181	6791.33
913.494	6790.2
913.806	6675.63
914.118	6711.56
914.43	6725.35
914.742	6685.12
915.054	6632.47
915.366	6586.14
915.678	6598.34
915.99	6510.21
916.302	6543.66
916.613	6502.07
916.925	6506.14
917.236	6462.3
917.548	6361.51
917.859	6393.83
918.171	6399.93
918.482	6305.02
918.794	6300.95
919.105	6319.71
919.416	6227.73
919.727	6259.37
920.038	6203.78
920.349	6224.12
920.66	6164.91
920.971	6152.03
921.282	6113.16
921.593	6079.49
921.903	6036.1
922.214	6048.75
922.525	6027.06
922.835	6038.58
923.146	5945.25
923.456	5953.84
923.767	5941.19
924.077	5917.68
924.387	5853.96
924.697	5857.8
925.008	5798.82
925.318	5831.81
925.628	5818.48
925.938	5757.91
926.248	5715.2
926.558	5730.57
926.867	5691.02
927.177	5648.31
927.487	5625.26
927.796	5598.37
928.106	5613.74
928.416	5540.74
928.725	5595.21
929.034	5516.11
929.344	5521.76
929.653	5497.13
929.962	5431.82
930.271	5411.93
930.581	5407.19
930.89	5351.82
931.199	5369.45
931.508	5296.46
931.817	5318.38
932.125	5267.76
932.434	5273.63
932.743	5235.44
933.051	5225.72
933.36	5194.31
933.669	5196.8
933.977	5162
934.286	5108.67
934.594	5131.26
934.902	5056.01
935.21	5009.23
935.519	5003.81
935.827	5032.73
936.135	5016.46
936.443	4931.95
936.751	4918.61
937.059	4948.67
937.367	4875
937.674	4902.12
937.982	4895.34
938.29	4823.02
938.597	4843.36
938.905	4765.62
939.213	4777.15
939.52	4772.18
939.827	4755.68
940.135	4746.87
940.442	4704.83
940.749	4690.6
941.056	4704.38
941.363	4605.63
941.67	4652.86
941.977	4557.27
942.284	4598.85
942.591	4564.72
942.898	4542.8
943.205	4540.09
943.511	4540.32
943.818	4497.61
944.125	4455.57
944.431	4433.2
944.738	4406.76
945.044	4413.09
945.35	4412.64
945.657	4376.93
945.963	4349.59
946.269	4335.13
946.575	4296.03
946.881	4270.72
947.187	4289.25
947.493	4273.43
947.799	4288.35
948.105	4257.39
948.41	4219.42
948.716	4213.55
949.022	4211.51
949.327	4205.19
949.633	4118.86
949.938	4137.39
950.244	4139.2
950.549	4051.97
950.854	4070.95
951.16	4056.04
951.465	4019.88
951.77	4001.35
952.075	3973.1
952.38	3998.19
952.685	4008.81
952.99	3941.46
953.294	3912.31
953.599	3865.53
953.904	3893.56
954.209	3881.13
954.513	3929.49
954.818	3829.83
955.122	3837.06
955.426	3868.25
955.731	3801.81
956.035	3789.15
956.339	3768.36
956.643	3760.9
956.948	3729.27
957.252	3694.92
957.556	3696.72
957.86	3709.38
958.163	3662.38
958.467	3639.78
958.771	3693.79
959.075	3650.17
959.378	3607.46
959.682	3625.77
959.985	3579.67
960.289	3559.33
960.592	3596.39
960.896	3556.62
961.199	3527.92
961.502	3482.04
961.805	3490.4
962.108	3470.06
962.411	3483.85
962.714	3451.76
963.017	3412.44
963.32	3413.57
963.623	3382.83
963.926	3348.03
964.228	3366.34
964.531	3334.25
964.833	3346.9
965.136	3318.43
965.438	3337.19
965.741	3302.61
966.043	3276.62
966.345	3276.17
966.648	3255.61
966.95	3234.14
967.252	3230.75
967.554	3183.29
967.856	3205.21
968.158	3148.49
968.46	3166.8
968.761	3175.61
969.063	3133.58
969.365	3123.41
969.666	3127.93
969.968	3142.84
970.269	3079.11
970.571	3105.33
970.872	3095.84
971.174	3078.66
971.475	3009.96
971.776	3051.32
972.077	3024.43
972.378	3010.19
972.679	2969.74
972.98	2982.17
973.281	2965.9
973.582	2971.32
973.883	2947.14
974.183	2912.56
974.484	2888.61
974.785	2857.88
975.085	2894.26
975.386	2859.46
975.686	2829.85
975.986	2856.52
976.287	2837.76
976.587	2820.14
976.887	2771.1
977.187	2790.08
977.487	2782.85
977.787	2761.16
978.087	2720.03
978.387	2758.67
978.687	2751.66
978.987	2732
979.286	2693.59
979.586	2702.17
979.885	2671.67
980.185	2691.78
980.484	2689.52
980.784	2679.8
981.083	2668.96
981.382	2627.6
981.682	2603.65
981.981	2609.07
982.28	2593.03
982.579	2582.4
982.878	2599.35
983.177	2591.44
983.475	2527.94
983.774	2515.96
984.073	2521.84
984.372	2528.85
984.67	2515.29
984.969	2487.94
985.267	2516.64
985.566	2486.14
985.864	2459.24
986.162	2468.06
986.461	2485.68
986.759	2431.22
987.057	2407.72
987.355	2375.63
987.653	2397.1
987.951	2395.52
988.249	2377.66
988.547	2376.31
988.844	2370.88
989.142	2366.14
989.44	2345.57
989.737	2332.92
990.035	2337.44
990.332	2276.88
990.63	2306.93
990.927	2274.39
991.224	2278.23
991.521	2235.07
991.819	2248.18
992.116	2237.1
992.413	2222.19
992.71	2213.6
993.006	2197.1
993.303	2229.64
993.6	2179.7
993.897	2152.58
994.193	2166.6
994.49	2169.99
994.787	2134.05
995.083	2150.1
995.379	2108.74
995.676	2094.73
995.972	2092.25
996.268	2096.31
996.565	2100.61
996.861	2064.23
997.157	2090.67
997.453	2080.27
997.749	2059.25
998.044	2030.78
998.34	2042.08
998.636	2036.2
998.932	1988.97
999.227	1971.35
999.523	1974.06
999.818	2005.24
1000.114	1943.1
1000.409	1973.61
1000.704	1935.64
1001	1923.89
1001.295	1912.36
1001.59	1928.41
1001.885	1926.15
1002.18	1897
1002.475	1902.87
1002.77	1884.12
1003.065	1887.51
1003.359	1892.48
1003.654	1848.41
1003.949	1835.53
1004.243	1839.15
1004.538	1801.86
1004.832	1800.96
1005.127	1804.35
1005.421	1783.78
1005.715	1772.03
1006.009	1752.14
1006.304	1736.1
1006.598	1744.01
1006.892	1765.48
1007.186	1737
1007.48	1715.08
1007.773	1706.04
1008.067	1710.79
1008.361	1699.94
1008.655	1700.85
1008.948	1695.2
1009.242	1633.05
1009.535	1650.68
1009.829	1666.5
1010.122	1661.98
1010.415	1623.56
1010.708	1625.82
1011.001	1599.15
1011.295	1595.31
1011.588	1598.7
1011.881	1571.58
1012.173	1572.94
1012.466	1569.55
1012.759	1544.69
1013.052	1570.23
1013.344	1532.94
1013.637	1509.66
1013.93	1534.07
1014.222	1532.94
1014.514	1542.21
1014.807	1501.75
1015.099	1475.99
1015.391	1498.14
1015.683	1465.82
1015.976	1477.12
1016.268	1485.48
1016.56	1470.34
1016.851	1426.95
1017.143	1444.58
1017.435	1421.08
1017.727	1425.37
1018.018	1419.72
1018.31	1413.4
1018.602	1398.25
1018.893	1378.82
1019.185	1353.51
1019.476	1361.87
1019.767	1374.53
1020.058	1341.31
1020.35	1348.31
1020.641	1331.59
1020.932	1318.03
1021.223	1319.16
1021.514	1304.92
1021.804	1285.71
1022.095	1285.26
1022.386	1302.89
1022.677	1275.55
1022.967	1256.56
1023.258	1258.82
1023.548	1252.72
1023.839	1229.45
1024.129	1250.91
1024.419	1261.99
1024.709	1216.79
1025	1187.41
1025.29	1208.88
1025.58	1172.27
1025.87	1203.91
1026.16	1170.46
1026.449	1177.92
1026.739	1159.84
1027.029	1176.57
1027.319	1161.42
1027.608	1155.1
1027.898	1148.54
1028.187	1115.32
1028.477	1111.48
1028.766	1104.02
1029.055	1108.09
1029.344	1115.78
1029.634	1089.56
1029.923	1087.3
1030.212	1073.97
1030.501	1077.36
1030.79	1076
1031.078	1075.78
1031.367	1045.72
1031.656	1071.48
1031.945	1043.91
1032.233	1024.03
1032.522	1026.96
1032.81	1026.29
1033.099	1027.19
1033.387	1033.52
1033.675	1012.28
1033.963	975.21
1034.251	1006.63
1034.54	967.31
1034.828	964.82
1035.116	995.1
1035.403	959.62
1035.691	958.49
1035.979	963.24
1036.267	942.45
1036.554	952.16
1036.842	930.24
1037.129	909.91
1037.417	939.74
1037.704	923.01
1037.992	915.78
1038.279	911.04
1038.566	908.55
1038.853	908.55
1039.14	908.55
