Data from hue_80_FLMS001491_24.txt Node
Date: Mon Feb 06 15:22:43 GMT 2017
User: dcchb
Spectrometer: FLMS00149
Trigger mode: 0
Integration Time (sec): 2.000000E-2
Scans to average: 10
Electric dark correction enabled: true
Nonlinearity correction enabled: false
Boxcar width: 0
XAxis mode: Wavelengths
Number of Pixels in Spectrum: 2048
>>>>>Begin Spectral Data<<<<<
341.393	-9.55
341.776	-9.55
342.16	-9.55
342.543	-71.69
342.927	-83.44
343.31	-75.99
343.693	-76.44
344.077	-64.69
344.46	-61.98
344.843	-45.25
345.226	-34.18
345.61	-39.6
345.993	-12.26
346.376	-14.07
346.759	0.62
347.142	30.68
347.525	53.5
347.908	74.52
348.291	60.05
348.674	88.75
349.057	116.32
349.44	128.75
349.823	137.57
350.206	147.28
350.588	178.7
350.971	209.88
351.354	210.33
351.737	236.1
352.119	243.78
352.502	274.06
352.884	267.06
353.267	286.04
353.65	292.59
354.032	293.5
354.414	299.14
354.797	302.53
355.179	318.58
355.562	317.68
355.944	313.38
356.326	322.87
356.709	347.05
357.091	355.19
357.473	345.02
357.855	313.16
358.238	346.6
358.62	341.4
359.002	320.16
359.384	334.4
359.766	345.47
360.148	337.11
360.53	326.71
360.912	357
361.294	318.35
361.676	306.15
362.057	330.78
362.439	310.22
362.821	316.32
363.203	334.85
363.584	320.61
363.966	319.48
364.348	326.71
364.729	302.08
365.111	329.43
365.493	321.97
365.874	314.06
366.256	310.44
366.637	292.82
367.019	317.22
367.4	322.87
367.781	316.77
368.163	311.8
368.544	314.74
368.925	285.59
369.306	309.77
369.688	317.9
370.069	284.46
370.45	300.5
370.831	306.83
371.212	308.86
371.593	321.74
371.974	330.78
372.355	295.98
372.736	303.66
373.117	316.32
373.498	307.28
373.879	307.96
374.26	310.67
374.641	314.96
375.021	323.32
375.402	301.86
375.783	300.27
376.163	301.4
376.544	333.95
376.925	309.54
377.305	324.45
377.686	311.12
378.066	327.17
378.447	313.38
378.827	346.83
379.208	318.81
379.588	326.71
379.968	339.37
380.349	348.86
380.729	327.39
381.109	334.4
381.489	328.52
381.87	341.18
382.25	323.32
382.63	327.39
383.01	320.39
383.39	343.44
383.77	321.52
384.15	328.75
384.53	342.31
384.91	335.3
385.29	345.47
385.67	365.13
386.049	341.86
386.429	343.89
386.809	320.61
387.189	352.02
387.568	342.76
387.948	341.86
388.328	358.13
388.707	355.87
389.087	333.72
389.466	352.93
389.846	324.91
390.225	373.49
390.605	337.34
390.984	342.76
391.363	365.13
391.743	351.35
392.122	359.26
392.501	368.52
392.881	364.45
393.26	345.92
393.639	345.25
394.018	378.46
394.397	377.11
394.776	360.39
395.155	383.44
395.534	363.55
395.913	368.52
396.292	382.31
396.671	372.14
397.05	366.94
397.429	352.48
397.808	341.86
398.186	374.85
398.565	374.17
398.944	370.33
399.323	381.18
399.701	404.68
400.08	358.35
400.458	384.79
400.837	379.82
401.215	382.31
401.594	382.53
401.972	380.72
402.351	399.93
402.729	384.11
403.107	381.18
403.486	406.26
403.864	382.31
404.242	394.51
404.62	390.22
404.999	405.81
405.377	399.71
405.755	420.72
406.133	405.36
406.511	404.23
406.889	411.23
407.267	416.66
407.645	418.46
408.023	427.28
408.401	398.35
408.779	411.23
409.156	405.36
409.534	432.47
409.912	404.9
410.29	439.25
410.667	434.28
411.045	424.57
411.422	439.25
411.8	439.71
412.178	446.94
412.555	435.41
412.933	472.93
413.31	441.06
413.687	459.37
414.065	444.45
414.442	460.95
414.819	461.85
415.197	463.66
415.574	468.18
415.951	471.12
416.328	450.78
416.705	465.69
417.082	466.82
417.46	491.91
417.837	495.07
418.214	465.92
418.591	479.48
418.967	480.83
419.344	483.77
419.721	507.95
420.098	496.2
420.475	489.2
420.852	483.77
421.228	507.73
421.605	503.89
421.982	506.6
422.358	509.76
422.735	514.28
423.111	529.87
423.488	512.25
423.864	523.77
424.241	534.84
424.617	533.49
424.994	534.39
425.37	517.67
425.746	526.48
426.123	554.96
426.499	538.23
426.875	546.14
427.251	538.01
427.627	549.76
428.003	557.67
428.379	553.15
428.756	577.56
429.132	540.72
429.507	571.45
429.883	571.91
430.259	577.33
430.635	590.44
431.011	583.43
431.387	605.8
431.763	594.5
432.138	606.03
432.514	591.57
432.89	615.97
433.265	601.28
433.641	629.08
434.016	634.28
434.392	639.7
434.767	640.15
435.143	643.32
435.518	666.82
435.894	641.51
436.269	650.55
436.644	672.24
437.02	651.9
437.395	654.16
437.77	665.91
438.145	688.06
438.52	700.49
438.895	678.8
439.271	691.68
439.646	711.79
440.021	700.49
440.395	705.46
440.77	710.21
441.145	720.6
441.52	730.09
441.895	711.79
442.27	714.28
442.645	721.73
443.019	736.42
443.394	711.34
443.769	731.22
444.143	748.85
444.518	735.74
444.892	727.16
445.267	741.62
445.641	742.07
446.016	776.87
446.39	770.09
446.764	765.8
447.139	760.38
447.513	789.53
447.887	791.79
448.262	772.35
448.636	788.4
449.01	804.67
449.384	818.68
449.758	815.97
450.132	819.58
450.506	830.2
450.88	825.91
451.254	812.35
451.628	823.2
452.002	821.16
452.376	843.09
452.75	855.97
453.123	865.91
453.497	867.27
453.871	896.64
454.244	877.66
454.618	873.14
454.992	914.95
455.365	889.19
455.739	933.25
456.112	928.96
456.486	941.16
456.859	936.19
457.232	979.13
457.606	940.26
457.979	967.6
458.352	964.44
458.725	1023.87
459.099	1021.39
459.472	1028.17
459.845	1023.87
460.218	1064.55
460.591	1057.54
460.964	1071.33
461.337	1072.91
461.71	1102.51
462.083	1111.78
462.456	1120.37
462.829	1091.44
463.201	1146.35
463.574	1162.62
463.947	1153.36
464.32	1142.96
464.692	1203.98
465.065	1215.05
465.438	1204.88
465.81	1210.76
466.183	1239.91
466.555	1266.12
466.928	1256.41
467.3	1283.98
467.672	1304.77
468.045	1358.1
468.417	1357.42
468.789	1372.11
469.161	1410.53
469.534	1407.14
469.906	1452.33
470.278	1454.14
470.65	1481.03
471.022	1511.99
471.394	1566.23
471.766	1583.4
472.138	1564.65
472.51	1608.71
472.882	1661.59
473.253	1704.98
473.625	1749.95
473.997	1791.99
474.369	1777.07
474.74	1818.43
475.112	1904.07
475.484	1918.31
475.855	1980.23
476.227	1991.3
476.598	2053
476.97	2102.04
477.341	2125.54
477.713	2217.74
478.084	2284.86
478.455	2371.18
478.827	2393.78
479.198	2470.84
479.569	2515.58
479.94	2589.48
480.311	2641
480.682	2776.37
481.053	2820.66
481.424	2919.41
481.795	2939.3
482.166	3009.81
482.537	3113.76
482.908	3237.15
483.279	3307.43
483.65	3387.65
484.021	3509.91
484.391	3562.34
484.762	3682.56
485.133	3785.83
485.503	3903.57
485.874	3959.84
486.244	4066.96
486.615	4169.55
486.985	4309.66
487.356	4460.17
487.726	4556.43
488.097	4652.48
488.467	4744.45
488.837	4923.2
489.207	4974.5
489.578	5184.89
489.948	5261.5
490.318	5426.02
490.688	5496.3
491.058	5646.35
491.428	5793.46
491.798	5950.07
492.168	6068.26
492.538	6159.33
492.908	6277.52
493.278	6441.13
493.648	6510.05
494.017	6703.72
494.387	6835.02
494.757	6908.91
495.126	7097.61
495.496	7165.86
495.866	7320.88
496.235	7470.26
496.605	7605.17
496.974	7725.62
497.344	7874.76
497.713	7943.46
498.082	8069.56
498.452	8288.99
498.821	8363.57
499.19	8432.94
499.559	8595.42
499.928	8764.46
500.298	8812.14
500.667	8900.73
501.036	8954.51
501.405	9179.36
501.774	9239.02
502.143	9335.74
502.512	9486.93
502.88	9603.08
503.249	9634.27
503.618	9749.29
503.987	9928.95
504.356	9964.2
504.724	10077.42
505.093	10143.63
505.462	10277.64
505.83	10320.35
506.199	10462.04
506.567	10615.03
506.936	10562.15
507.304	10826.33
507.672	10800.56
508.041	11023.83
508.409	10967.79
508.777	11170.5
509.145	11241.46
509.514	11297.95
509.882	11415.46
510.25	11499.08
510.618	11599.41
510.986	11556.48
511.354	11769.35
511.722	11859.29
512.09	11949.01
512.458	12005.05
512.826	12109.91
513.193	12165.95
513.561	12193.3
513.929	12330.69
514.297	12395.78
514.664	12517.81
515.032	12532.95
515.4	12610.69
515.767	12597.35
516.135	12709.89
516.502	12645.94
516.869	12958.02
517.237	12950.79
517.604	12879.83
517.972	13129.99
518.339	13177
518.706	13141.29
519.073	13250.22
519.44	13247.5
519.808	13487.05
520.175	13396.43
520.542	13519.36
520.909	13647.72
521.276	13610.43
521.643	13730.88
522.009	13802.74
522.376	13802.74
522.743	13872.57
523.11	14033.25
523.477	14176.97
523.843	14042.51
524.21	14331.54
524.577	14317.31
524.943	14417.64
525.31	14400.92
525.676	14504.19
526.043	14533.57
526.409	14571.54
526.776	14796.16
527.142	14815.83
527.508	14802.27
527.874	14905.31
528.241	14935.37
528.607	14823.28
528.973	15058.3
529.339	14964.3
529.705	15074.35
530.071	15158.41
530.437	15174.91
530.803	15258.07
531.169	15323.38
531.535	15207.23
531.901	15291.29
532.267	15317.96
532.632	15367.45
532.998	15279.09
533.364	15457.84
533.73	15413.1
534.095	15482.25
534.461	15470.05
534.826	15561.12
535.192	15616.48
535.557	15620.55
535.923	15564.51
536.288	15606.99
536.653	15555.01
537.019	15570.83
537.384	15604.05
537.749	15622.81
538.114	15585.75
538.479	15518.63
538.845	15576.26
539.21	15558.86
539.575	15634.11
539.94	15598.86
540.305	15661.9
540.67	15614.67
541.034	15617.61
541.399	15710.04
541.764	15670.04
542.129	15638.18
542.494	15572.42
542.858	15725.41
543.223	15553.43
543.587	15768.12
543.952	15608.8
544.316	15588.69
544.681	15656.48
545.045	15627.1
545.41	15752.52
545.774	15606.31
546.138	15633.43
546.503	15625.3
546.867	15613.54
547.231	15662.13
547.595	15593.88
547.959	15612.19
548.324	15639.31
548.688	15541.68
549.052	15566.77
549.416	15536.03
549.779	15533.77
550.143	15535.13
550.507	15616.48
550.871	15584.84
551.235	15491.74
551.599	15605.41
551.962	15618.97
552.326	15586.88
552.689	15660.55
553.053	15581.68
553.417	15602.02
553.78	15706.65
554.143	15595.47
554.507	15642.7
554.87	15604.05
555.234	15707.78
555.597	15589.82
555.96	15544.85
556.323	15706.88
556.686	15639.08
557.05	15682.02
557.413	15703.26
557.776	15714.56
558.139	15789.36
558.502	15790.26
558.865	15812.41
559.228	15887.44
559.59	15906.64
559.953	15745.74
560.316	15890.83
560.679	15935.34
561.041	16033.65
561.404	15995.23
561.767	16097.6
562.129	15927.89
562.492	16069.13
562.854	16038.39
563.217	16080.65
563.579	16078.16
563.941	16169.91
564.304	16101.22
564.666	16267.99
565.028	16271.38
565.39	16273.87
565.753	16283.36
566.115	16331.94
566.477	16384.82
566.839	16402
567.201	16573.97
567.563	16517.25
567.925	16561.54
568.287	16618.04
568.648	16556.12
569.01	16646.74
569.372	16695.55
569.734	16603.35
570.095	16715.89
570.457	16797.02
570.819	16823
571.18	16794.53
571.542	16845.6
571.903	16850.12
572.265	16827.3
572.626	16919.72
572.987	16842.66
573.349	17028.2
573.71	16915.2
574.071	16992.04
574.432	17001.76
574.794	17121.08
575.155	17117.46
575.516	17030.91
575.877	17106.39
576.238	17165.37
576.599	17062.09
576.96	17108.87
577.32	17165.37
577.681	17210.56
578.042	17310.22
578.403	17256.66
578.763	17155.2
579.124	17242.88
579.485	17367.85
579.845	17260.96
580.206	17215.54
580.566	17228.42
580.927	17243.11
581.287	17363.78
581.648	17249.21
582.008	17309.09
582.368	17292.37
582.728	17348.87
583.089	17355.19
583.449	17320.39
583.809	17308.19
584.169	17290.79
584.529	17294.4
584.889	17286.04
585.249	17263.67
585.609	17191.58
585.969	17284.23
586.329	17300.73
586.688	17281.07
587.048	17285.36
587.408	17237
587.768	17224.35
588.127	17138.25
588.487	17171.7
588.846	17258.02
589.206	17131.7
589.565	17168.31
589.925	17246.5
590.284	17159.72
590.643	17125.59
591.003	17214.86
591.362	17305.25
591.721	17225.71
592.08	17224.58
592.44	17239.94
592.799	17227.06
593.158	17196.78
593.517	17132.83
593.876	17193.62
594.235	17128.53
594.593	17116.78
594.952	17129.66
595.311	17163.79
595.67	17198.36
596.029	17261.64
596.387	17169.89
596.746	17265.25
597.104	17201.53
597.463	17130.11
597.822	17179.38
598.18	17158.81
598.538	17112.04
598.897	17219.83
599.255	17090.12
599.613	17364.68
599.972	17190.23
600.33	17266.16
600.688	17100.06
601.046	17230.9
601.404	17294.4
601.762	17271.81
602.12	17312.48
602.478	17243.11
602.836	17233.16
603.194	17247.85
603.552	17267.06
603.91	17150.23
604.268	17270.68
604.625	17190.45
604.983	17366.72
605.341	17186.38
605.698	17329.21
606.056	17347.06
606.413	17303.44
606.771	17304.57
607.128	17287.17
607.485	17265.93
607.843	17285.59
608.2	17396.32
608.557	17447.39
608.914	17393.38
609.272	17463.67
609.629	17494.62
609.986	17500.73
610.343	17383.67
610.7	17507.96
611.057	17445.36
611.414	17419.15
611.771	17582.08
612.127	17470.44
612.484	17567.62
612.841	17605.81
613.198	17567.17
613.554	17577.79
613.911	17679.25
614.267	17659.14
614.624	17624.11
614.98	17639.03
615.337	17768.97
615.693	17653.26
616.05	17652.59
616.406	17858.68
616.762	17738.46
617.118	17805.13
617.475	17726.26
617.831	17830.21
618.187	17800.61
618.543	17902.52
618.899	17852.36
619.255	17895.74
619.611	17873.82
619.967	17856.88
620.323	17973.48
620.678	17904.78
621.034	17851.23
621.39	17829.76
621.746	17753.83
622.101	18006.48
622.457	17794.96
622.812	17928.51
623.168	17931.68
623.523	17952.69
623.879	17931.22
624.234	17874.95
624.589	17926.93
624.945	17918.34
625.3	17990.43
625.655	18016.19
626.01	17996.76
626.365	18003.99
626.72	18019.81
627.075	17932.81
627.43	17955.86
627.785	17837.21
628.14	17924.9
628.495	18017.77
628.85	17948.62
629.205	17881.06
629.559	17949.75
629.914	17808.51
630.269	17865.69
630.623	17825.69
630.978	17762.87
631.332	17896.87
631.687	17916.76
632.041	17894.39
632.396	17825.01
632.75	17740.27
633.104	17840.15
633.459	17742.08
633.813	17760.61
634.167	17831.79
634.521	17740.95
634.875	17720.83
635.229	17676.99
635.583	17651
635.937	17574.85
636.291	17464.34
636.645	17546.83
636.999	17543.44
637.352	17546.83
637.706	17463.89
638.06	17544.34
638.413	17495.75
638.767	17570.55
639.121	17477.9
639.474	17421.63
639.828	17420.95
640.181	17373.5
640.534	17475.87
640.888	17404.68
641.241	17290.11
641.594	17369.43
641.947	17432.48
642.301	17397.23
642.654	17345.93
643.007	17440.61
643.36	17397.9
643.713	17316.55
644.066	17376.44
644.419	17352.03
644.771	17140.06
645.124	16885.6
645.477	16945.26
645.83	16786.85
646.182	16798.15
646.535	16809.9
646.888	16810.35
647.24	16750.24
647.593	16824.36
647.945	16742.55
648.298	16655.78
648.65	16761.99
649.002	16589.11
649.355	16682.67
649.707	16599.96
650.059	16764.7
650.411	16977.12
650.763	16931.48
651.115	17166.27
651.467	17105.03
651.819	17098.25
652.171	17111.58
652.523	17096.67
652.875	17015.99
653.227	16942.77
653.578	16999.95
653.93	17059.61
654.282	16986.39
654.633	16986.62
654.985	16991.59
655.337	17110.91
655.688	16972.15
656.039	16972.15
656.391	16912.04
656.742	16887.86
657.094	16984.58
657.445	16999.04
657.796	17120.17
658.147	16918.14
658.498	16958.37
658.849	17046.5
659.2	16956.79
659.551	17018.71
659.902	17037.69
660.253	17060.06
660.604	17084.69
660.955	16966.5
661.306	17003.79
661.656	16948.42
662.007	17081.75
662.358	17023.9
662.708	17040.63
663.059	16980.06
663.409	16937.35
663.76	17051.25
664.11	17094.18
664.461	17079.04
664.811	17031.59
665.161	17131.92
665.511	17071.13
665.862	17138.93
666.212	17176.44
666.562	17101.41
666.912	17147.74
667.262	17044.69
667.612	17032.94
667.962	17113.39
668.312	17028.2
668.662	17086.27
669.011	17157.23
669.361	17042.43
669.711	17054.41
670.06	16966.5
670.41	17051.7
670.76	17001.08
671.109	17076.78
671.459	17002.66
671.808	16917.69
672.157	17060.96
672.507	16917.24
672.856	16859.84
673.205	16900.97
673.554	16867.07
673.904	16900.97
674.253	16925.15
674.602	16902.78
674.951	16689
675.3	16519.06
675.649	16845.15
675.998	16803.8
676.346	16817.58
676.695	16864.58
677.044	16691.26
677.393	16667.75
677.741	16806.28
678.09	16795.66
678.438	16748.88
678.787	16694.65
679.135	16721.99
679.484	16680.41
679.832	16785.49
680.181	16533.75
680.529	16624.59
680.877	16651.71
681.225	16557.7
681.573	16678.83
681.922	16390.25
682.27	16549.11
682.618	16477.7
682.966	16402
683.314	16397.93
683.661	16386.41
684.009	16277.26
684.357	16347.99
684.705	16226.86
685.053	16240.19
685.4	16220.53
685.748	16154.1
686.095	16019.18
686.443	16040.65
686.79	16012.63
687.138	16108.22
687.485	16090.37
687.832	16033.65
688.18	15999.3
688.527	15907.77
688.874	15933.99
689.221	15857.61
689.568	15795.01
689.915	15765.86
690.262	15711.62
690.609	15693.09
690.956	15559.53
691.303	15559.76
691.65	15566.54
691.997	15455.13
692.344	15386.21
692.69	15435.02
693.037	15361.35
693.383	15182.82
693.73	15306.66
694.077	15179.21
694.423	15172.88
694.769	15076.61
695.116	14964.52
695.462	15009.94
695.808	14932.43
696.155	15013.79
696.501	14836.39
696.847	14809.27
697.193	14797.97
697.539	14818.08
697.885	14695.6
698.231	14621.71
698.577	14604.53
698.923	14569.05
699.269	14435.72
699.614	14431.65
699.96	14334.03
700.306	14326.35
700.651	14248.38
700.997	14214.26
701.342	14188.5
701.688	14172.68
702.033	14190.3
702.379	14168.61
702.724	14034.38
703.069	14096.97
703.415	13908.28
703.76	13921.39
704.105	13839.13
704.45	13845.68
704.795	13787.38
705.14	13718.23
705.485	13745.34
705.83	13635.29
706.175	13652.69
706.52	13501.51
706.865	13522.98
707.209	13590.77
707.554	13463.54
707.899	13504.22
708.243	13375.64
708.588	13359.59
708.932	13261.52
709.277	13141.97
709.621	13230.33
709.966	13263.78
710.31	13158.92
710.654	13005.93
710.998	13070.79
711.342	13091.58
711.687	13060.17
712.031	13025.36
712.375	12927.74
712.719	12980.17
713.063	12872.37
713.407	12914.63
713.75	12870.11
714.094	12810.23
714.438	12825.59
714.782	12792.83
715.125	12672.6
715.469	12850
715.812	12637.35
716.156	12650.01
716.499	12552.83
716.843	12644.58
717.186	12518.48
717.53	12616.56
717.873	12594.64
718.216	12606.39
718.559	12483.23
718.902	12499.95
719.246	12519.39
719.589	12471.25
719.932	12401.2
720.275	12440.75
720.617	12425.15
720.96	12401.43
721.303	12380.41
721.646	12288.66
721.989	12289.34
722.331	12325.04
722.674	12323.01
723.016	12308.32
723.359	12342.67
723.701	12337.25
724.044	12285.95
724.386	12176.35
724.729	12163.24
725.071	12084.15
725.413	12185.16
725.755	12190.58
726.097	12181.77
726.439	12080.76
726.782	12071.72
727.124	12115.56
727.465	12017.93
727.807	12029.91
728.149	12012.73
728.491	12029.68
728.833	12000.31
729.175	12025.39
729.516	12010.93
729.858	11957.82
730.199	11989.68
730.541	12008.67
730.882	11923.25
731.224	12039.63
731.565	11923.47
731.906	12025.84
732.248	11981.1
732.589	11927.09
732.93	11877.37
733.271	11885.96
733.612	11928.67
733.953	11945.39
734.294	11861.33
734.635	11914.43
734.976	12036.24
735.317	11880.54
735.658	11896.35
735.999	11944.49
736.339	11850.71
736.68	11973.87
737.021	11902.23
737.361	11920.53
737.702	12025.39
738.042	11896.13
738.383	11865.17
738.723	11945.17
739.063	11897.26
739.404	11914.21
739.744	11878.28
740.084	11991.49
740.424	11902.68
740.764	11906.75
741.104	11962.34
741.444	11970.93
741.784	11985.39
742.124	11993.07
742.464	11972.06
742.804	12060.87
743.143	11979.29
743.483	12052.51
743.823	12000.53
744.162	12017.48
744.502	12132.73
744.841	12058.16
745.181	12188.55
745.52	12168.89
745.86	12238.49
746.199	12188.32
746.538	12247.08
746.877	12333.4
747.216	12390.13
747.556	12417.92
747.895	12393.97
748.234	12410.01
748.573	12465.83
748.911	12549.22
749.25	12612.95
749.589	12622.89
749.928	12706.73
750.267	12777.46
750.605	12776.78
750.944	12873.28
751.283	12884.35
751.621	13092.25
751.96	12974.74
752.298	13162.31
752.636	13139.71
752.975	13253.83
753.313	13302.64
753.651	13335.41
753.989	13460.83
754.327	13487.5
754.666	13662.18
755.004	13818.34
755.342	13777.21
755.679	13899.69
756.017	13977.43
756.355	14186.01
756.693	14137.42
757.031	14327.02
757.368	14416.06
757.706	14502.61
758.044	14537.19
758.381	14711.2
758.719	14817.41
759.056	14943.28
759.394	14957.06
759.731	15020.11
760.068	15179.21
760.405	15247.23
760.743	15357.96
761.08	15438.63
761.417	15525.86
761.754	15715.24
762.091	15832.3
762.428	15848.11
762.765	15865.74
763.102	16053.98
763.438	16183.47
763.775	16144.38
764.112	16312.73
764.449	16519.96
764.785	16551.82
765.122	16548.66
765.458	16569.9
765.795	16813.96
766.131	16898.26
766.467	16942.1
766.804	16882.66
767.14	16920.4
767.476	17052.15
767.812	16987.52
768.148	17195.2
768.485	17113.17
768.821	17176.67
769.157	17228.64
769.492	17320.62
769.828	17287.17
770.164	17366.27
770.5	17371.01
770.836	17501.4
771.171	17387.28
771.507	17491.69
771.842	17449.2
772.178	17463.67
772.513	17538.92
772.849	17581.18
773.184	17519.93
773.519	17491.24
773.855	17622.31
774.19	17501.4
774.525	17538.01
774.86	17584.34
775.195	17575.53
775.53	17587.28
775.865	17521.29
776.2	17404.46
776.535	17345.48
776.87	17442.2
777.205	17484.46
777.539	17403.1
777.874	17479.94
778.209	17387.96
778.543	17380.96
778.878	17329.21
779.212	17332.14
779.547	17262.77
779.881	17333.05
780.215	17301.18
780.55	17324.01
780.884	17211.02
781.218	17180.06
781.552	17177.34
781.886	17177.57
782.22	17103.67
782.554	17112.26
782.888	17039.04
783.222	16837.24
783.556	16850.35
783.889	16884.47
784.223	16801.31
784.557	16762.44
784.89	16731.48
785.224	16626.17
785.557	16693.97
785.891	16572.16
786.224	16617.13
786.558	16655.55
786.891	16473.86
787.224	16453.07
787.557	16453.52
787.891	16444.03
788.224	16355.22
788.557	16376.46
788.89	16344.15
789.223	16313.64
789.556	16175.79
789.888	16174.43
790.221	16117.71
790.554	16001.1
790.887	16034.55
791.219	16037.49
791.552	15971.27
791.884	15944.61
792.217	15804.05
792.549	15808.57
792.882	15686.99
793.214	15691.51
793.546	15759.08
793.879	15576.03
794.211	15521.57
794.543	15646.99
794.875	15510.95
795.207	15543.94
795.539	15514.34
795.871	15416.26
796.203	15292.65
796.535	15266.43
796.867	15292.2
797.198	15258.53
797.53	15218.75
797.862	14999.55
798.193	15178.08
798.525	15120.22
798.856	15114.12
799.188	14929.27
799.519	14891.53
799.85	14814.92
800.182	14960
800.513	14818.08
800.844	14734.7
801.175	14795.26
801.506	14787.8
801.837	14651.31
802.168	14649.95
802.499	14582.38
802.83	14534.93
803.161	14423.29
803.491	14567.24
803.822	14464.42
804.153	14385.33
804.483	14411.54
804.814	14272.79
805.145	14228.04
805.475	14265.33
805.805	14141.94
806.136	14190.98
806.466	14218.55
806.796	14113.92
807.126	13987.37
807.457	13989.63
807.787	14013.36
808.117	13955.06
808.447	13889.07
808.777	13924.1
809.107	13872.8
809.436	13785.12
809.766	13757.55
810.096	13737.21
810.426	13654.5
810.755	13718.23
811.085	13651.11
811.414	13706.25
811.744	13553.71
812.073	13491.11
812.403	13509.64
812.732	13454.28
813.061	13455.63
813.39	13341.97
813.719	13374.28
814.049	13448.18
814.378	13316.88
814.707	13301.97
815.036	13334.06
815.365	13245.02
815.693	13115.3
816.022	13213.83
816.351	13096.1
816.68	13052.26
817.008	13077.79
817.337	12885.93
817.665	12951.47
817.994	12971.81
818.322	12945.37
818.651	12869.44
818.979	12824.47
819.307	12922.54
819.636	12808.19
819.964	12778.36
820.292	12811.13
820.62	12821.75
820.948	12744.02
821.276	12835.09
821.604	12704.92
821.932	12732.26
822.259	12832.83
822.587	12712.38
822.915	12750.34
823.243	12794.64
823.57	12688.2
823.898	12668.76
824.225	12717.35
824.553	12685.71
824.88	12657.24
825.207	12716.67
825.535	12662.44
825.862	12702.21
826.189	12646.39
826.516	12724.81
826.843	12775.43
827.17	12733.62
827.497	12737.91
827.824	12657.24
828.151	12734.98
828.478	12640.97
828.805	12714.86
829.131	12626.5
829.458	12604.36
829.785	12623.57
830.111	12659.5
830.438	12660.18
830.764	12608.65
831.09	12666.5
831.417	12570.01
831.743	12652.49
832.069	12617.24
832.395	12658.82
832.722	12627.63
833.048	12583.34
833.374	12586.51
833.7	12530.69
834.026	12571.82
834.351	12605.71
834.677	12647.29
835.003	12565.26
835.329	12574.98
835.654	12528.2
835.98	12484.36
836.306	12495.89
836.631	12461.08
836.956	12483.68
837.282	12456.11
837.607	12368.21
837.932	12358.49
838.258	12404.36
838.583	12384.48
838.908	12327.75
839.233	12313.74
839.558	12338.38
839.883	12250.02
840.208	12195.33
840.533	12178.61
840.858	12227.19
841.182	12196.01
841.507	12224.48
841.832	12074.65
842.156	12102.9
842.481	12089.12
842.805	12091.6
843.13	12074.2
843.454	12044.82
843.778	12041.43
844.103	11984.49
844.427	11898.84
844.751	11932.06
845.075	11831.5
845.399	11811.84
845.723	11770.03
846.047	11749.69
846.371	11677.6
846.695	11758.28
847.019	11627.66
847.343	11552.18
847.666	11524.39
847.99	11409.59
848.313	11502.69
848.637	11370.27
848.96	11361.23
849.284	11315.8
849.607	11286.65
849.931	11202.59
850.254	11213.89
850.577	11108.35
850.9	11027
851.223	11040.33
851.546	10892.76
851.869	10903.16
852.192	10915.14
852.515	10815.7
852.838	10759.66
853.161	10791.98
853.483	10732.32
853.806	10698.87
854.129	10596.28
854.451	10626.78
854.774	10570.29
855.096	10581.59
855.419	10554.92
855.741	10497.75
856.063	10422.72
856.385	10384.53
856.708	10302.95
857.03	10377.07
857.352	10382.27
857.674	10318.99
857.996	10239
858.318	10214.36
858.64	10209.39
858.961	10134.37
859.283	10196.74
859.605	10075.38
859.926	10111.99
860.248	10050.53
860.57	10033.8
860.891	10051.43
861.212	10001.49
861.534	9975.5
861.855	9939.34
862.176	9921.26
862.498	9943.18
862.819	9942.96
863.14	9804.21
863.461	9824.32
863.782	9781.83
864.103	9764.21
864.424	9791.78
864.745	9840.36
865.065	9788.39
865.386	9720.59
865.707	9719.24
866.027	9680.82
866.348	9678.79
866.668	9662.74
866.989	9603.98
867.309	9589.07
867.63	9615.96
867.95	9567.6
868.27	9573.7
868.59	9559.92
868.91	9530.99
869.23	9563.31
869.55	9465.23
869.87	9494.38
870.19	9482.18
870.51	9555.4
870.83	9486.47
871.15	9411.45
871.469	9435.63
871.789	9460.71
872.109	9368.06
872.428	9316.99
872.748	9435.18
873.067	9346.14
873.386	9365.35
873.706	9349.75
874.025	9316.31
874.344	9305.24
874.663	9308.85
874.982	9318.34
875.301	9289.19
875.62	9263.88
875.939	9256.2
876.258	9188.4
876.577	9136.2
876.896	9149.08
877.214	9147.5
877.533	9166.48
877.852	9182.3
878.17	9126.26
878.489	9164
878.807	9088.07
879.125	9104.34
879.444	9044.45
879.762	9058.46
880.08	9054.85
880.398	9049.2
880.716	9097.11
881.034	8975.07
881.352	8974.17
881.67	8939.6
881.988	8971.69
882.306	8831.58
882.624	8877.68
882.941	8859.6
883.259	8748.64
883.577	8805.36
883.894	8771.24
884.212	8740.28
884.529	8687.17
884.846	8671.58
885.164	8712.03
885.481	8717.23
885.798	8716.32
886.115	8648.98
886.432	8638.59
886.75	8596.55
887.067	8601.07
887.383	8574.86
887.7	8545.03
888.017	8559.49
888.334	8502.77
888.651	8454.64
888.967	8465.03
889.284	8442.89
889.6	8397.01
889.917	8339.61
890.233	8386.39
890.55	8323.34
890.866	8330.35
891.182	8328.54
891.498	8204.25
891.815	8256.22
892.131	8229.56
892.447	8145.04
892.763	8182.78
893.079	8135.55
893.395	8075.21
893.71	8083.8
894.026	8068.43
894.342	8046.29
894.657	8008.77
894.973	8009.22
895.289	7977.81
895.604	7989.34
895.92	7913.41
896.235	7810.13
896.55	7903.24
896.865	7889.68
897.181	7795.9
897.496	7825.73
897.811	7740.53
898.126	7767.87
898.441	7766.74
898.756	7763.81
899.071	7650.36
899.386	7664.37
899.7	7609.01
900.015	7517.03
900.33	7520.88
900.644	7442.46
900.959	7485.17
901.273	7441.56
901.588	7446.08
901.902	7361.56
902.216	7390.26
902.531	7335.34
902.845	7304.16
903.159	7303.71
903.473	7240.66
903.787	7232.07
904.101	7195.01
904.415	7266.87
904.729	7169.47
905.042	7154.56
905.356	7127.67
905.67	7046.76
905.984	7133.77
906.297	7030.49
906.611	6984.39
906.924	7024.84
907.237	6952.3
907.551	6904.85
907.864	6906.2
908.177	6892.19
908.491	6871.63
908.804	6836.6
909.117	6784.62
909.43	6717.96
909.743	6745.53
910.056	6748.47
910.368	6709.6
910.681	6669.82
910.994	6611.52
911.307	6570.17
911.619	6550.05
911.932	6532.88
912.244	6511.41
912.557	6532.43
912.869	6508.25
913.181	6416.05
913.494	6383.5
913.806	6349.61
914.118	6388.48
914.43	6341.47
914.742	6334.01
915.054	6310.74
915.366	6288.82
915.678	6238.42
915.99	6168.37
916.302	6214.47
916.613	6145.54
916.925	6139.44
917.236	6122.49
917.548	6090.86
917.859	6077.98
918.171	6023.06
918.482	5982.16
918.794	5969.5
919.105	5952.33
919.416	5962.72
919.727	5949.39
920.038	5875.04
920.349	5903.29
920.66	5832.56
920.971	5823.52
921.282	5782.84
921.593	5756.4
921.903	5715.95
922.214	5722.5
922.525	5657.87
922.835	5673.47
923.146	5677.31
923.456	5622.62
923.767	5591.66
924.077	5587.82
924.387	5593.92
924.697	5527.03
925.008	5545.11
925.318	5504.21
925.628	5482.29
925.938	5448.16
926.248	5386.02
926.558	5399.8
926.867	5352.12
927.177	5362.29
927.487	5323.87
927.796	5278
928.106	5308.5
928.416	5265.57
928.725	5287.49
929.034	5235.74
929.344	5221.5
929.653	5180.82
929.962	5170.43
930.271	5149.64
930.581	5172.69
930.89	5079.58
931.199	5050.43
931.508	5033.94
931.817	5047.72
932.125	5009.76
932.434	5009.53
932.743	4974.5
933.051	4973.15
933.36	4939.7
933.669	4928.85
933.977	4861.51
934.286	4846.37
934.594	4866.26
934.902	4843.66
935.21	4831
935.519	4841.4
935.827	4798.46
936.135	4757.11
936.443	4743.32
936.751	4689.31
937.059	4683.21
937.367	4666.04
937.674	4668.75
937.982	4648.63
938.29	4628.07
938.597	4626.94
938.905	4594.17
939.213	4584.23
939.52	4502.42
939.827	4519.6
940.135	4503.1
940.442	4527.73
940.749	4482.09
941.056	4480.05
941.363	4446.15
941.67	4371.58
941.977	4381.75
942.284	4341.07
942.591	4320.73
942.898	4340.39
943.205	4348.3
943.511	4294.29
943.818	4282.09
944.125	4244.35
944.431	4249.1
944.738	4252.71
945.044	4220.4
945.35	4181.75
945.657	4172.72
945.963	4150.34
946.269	4137.91
946.575	4082.55
946.881	4080.97
947.187	4046.39
947.493	4064.92
947.799	4045.49
948.105	4000.97
948.41	4035.77
948.716	4011.82
949.022	3961.65
949.327	3990.57
949.633	3919.61
949.938	3945.15
950.244	3935.43
950.549	3884.59
950.854	3898.6
951.16	3868.32
951.465	3843.01
951.77	3824.93
952.075	3760.75
952.38	3800.52
952.685	3790.58
952.99	3731.82
953.294	3749.22
953.599	3719.39
953.904	3702.22
954.209	3701.99
954.513	3702.67
954.818	3655.21
955.122	3644.82
955.426	3639.85
955.731	3614.31
956.035	3604.82
956.339	3606.18
956.643	3570.25
956.948	3564.14
957.252	3503.81
957.556	3553.3
957.86	3528.66
958.163	3513.98
958.467	3491.83
958.771	3475.56
959.075	3473.75
959.378	3437.14
959.682	3379.29
959.985	3422.45
960.289	3400.76
960.592	3383.13
960.896	3359.63
961.199	3345.39
961.502	3327.77
961.805	3328.9
962.108	3284.83
962.411	3295.9
962.714	3249.8
963.017	3283.25
963.32	3266.07
963.623	3225.62
963.926	3197.37
964.228	3205.51
964.531	3173.87
964.833	3180.2
965.136	3128.9
965.438	3153.98
965.741	3146.98
966.043	3119.41
966.345	3130.71
966.648	3086.19
966.95	3066.3
967.252	3136.81
967.554	3068.34
967.856	3040.99
968.158	3022.91
968.46	3040.77
968.761	3004.61
969.063	2994.44
969.365	2986.98
969.666	2965.06
969.968	2932.3
970.269	2924.39
970.571	2934.1
970.872	2932.3
971.174	2901.34
971.475	2916.03
971.776	2896.82
972.077	2847.33
972.378	2833.54
972.679	2824.73
972.98	2848
973.281	2813.2
973.582	2825.41
973.883	2803.26
974.183	2782.47
974.484	2779.98
974.785	2732.98
975.085	2774.56
975.386	2728.23
975.686	2695.92
975.986	2721.68
976.287	2720.1
976.587	2669.48
976.887	2718.29
977.187	2651.85
977.487	2605.52
977.787	2648.46
978.087	2638.52
978.387	2622.02
978.687	2594.9
978.987	2563.72
979.286	2554.68
979.586	2566.88
979.885	2520.1
980.185	2564.17
980.484	2523.72
980.784	2525.53
981.083	2524.4
981.382	2524.85
981.682	2505.87
981.981	2484.17
982.28	2474.91
982.579	2433.33
982.878	2492.53
983.177	2437.17
983.475	2450.73
983.774	2436.94
984.073	2448.01
984.372	2389.71
984.67	2417.28
984.969	2382.03
985.267	2381.58
985.566	2375.7
985.864	2384.06
986.162	2337.06
986.461	2322.37
986.759	2320.33
987.057	2330.5
987.355	2293.67
987.653	2307.68
987.951	2278.53
988.249	2305.19
988.547	2279.66
988.844	2245.53
989.142	2280.79
989.44	2212.09
989.737	2170.96
990.035	2198.53
990.332	2212.31
990.63	2201.92
990.927	2180.68
991.224	2181.36
991.521	2196.04
991.819	2141.81
992.116	2138.64
992.413	2104.07
992.71	2103.62
993.006	2077.18
993.303	2120.57
993.6	2112.2
993.897	2116.27
994.193	2063.17
994.49	2076.27
994.787	2083.28
995.083	2028.82
995.379	2039.21
995.676	2031.98
995.972	2036.73
996.268	2011.64
996.565	2003.51
996.861	1998.76
997.157	1988.82
997.453	1950.4
997.749	2000.57
998.044	1976.84
998.34	1923.06
998.636	1941.36
998.932	1909.27
999.227	1925.54
999.523	1891.87
999.818	1895.71
1000.114	1871.53
1000.409	1864.08
1000.704	1849.84
1001	1840.12
1001.295	1822.27
1001.59	1841.25
1001.885	1857.07
1002.18	1785.89
1002.475	1798.54
1002.77	1804.64
1003.065	1773.91
1003.359	1760.8
1003.654	1785.89
1003.949	1753.34
1004.243	1748.6
1004.538	1714.93
1004.832	1742.04
1005.127	1704.76
1005.421	1734.36
1005.715	1688.71
1006.009	1698.66
1006.304	1679.45
1006.598	1676.96
1006.892	1695.94
1007.186	1664.31
1007.48	1643.52
1007.773	1676.51
1008.067	1618.43
1008.361	1605.55
1008.655	1622.73
1008.948	1624.53
1009.242	1604.42
1009.535	1609.17
1009.829	1568.49
1010.122	1542.73
1010.415	1566.68
1010.708	1557.42
1011.001	1523.97
1011.295	1522.16
1011.588	1504.54
1011.881	1512.67
1012.173	1501.82
1012.466	1530.07
1012.759	1502.05
1013.052	1486.01
1013.344	1473.8
1013.637	1480.81
1013.93	1475.61
1014.222	1471.09
1014.514	1452.79
1014.807	1428.61
1015.099	1409.62
1015.391	1427.48
1015.683	1407.14
1015.976	1424.99
1016.268	1388.83
1016.56	1416.18
1016.851	1389.29
1017.143	1370.53
1017.435	1329.85
1017.727	1361.49
1018.018	1364.88
1018.31	1333.69
1018.602	1332.79
1018.893	1325.33
1019.185	1304.09
1019.476	1312.45
1019.767	1277.42
1020.058	1290.31
1020.35	1272.23
1020.641	1279.46
1020.932	1277.65
1021.223	1250.08
1021.514	1242.85
1021.804	1230.65
1022.095	1248.5
1022.386	1233.81
1022.677	1221.83
1022.967	1220.7
1023.258	1206.24
1023.548	1174.83
1023.839	1190.87
1024.129	1173.02
1024.419	1165.34
1024.709	1166.69
1025	1200.14
1025.29	1187.48
1025.58	1140.48
1025.87	1132.12
1026.16	1133.92
1026.449	1100.71
1026.739	1125.79
1027.029	1118.78
1027.319	1131.67
1027.608	1103.64
1027.898	1083.76
1028.187	1069.29
1028.477	1073.14
1028.766	1057.99
1029.055	1063.64
1029.344	1070.42
1029.634	1043.98
1029.923	1057.54
1030.212	1037.66
1030.501	1035.62
1030.79	1042.18
1031.078	1010.76
1031.367	1011.44
1031.656	1000.14
1031.945	1003.76
1032.233	998.11
1032.522	983.65
1032.81	1000.14
1033.099	984.78
1033.387	967.38
1033.675	953.36
1033.963	954.04
1034.251	946.59
1034.54	945.46
1034.828	919.47
1035.116	945.46
1035.403	937.09
1035.691	913.82
1035.979	926.02
1036.267	926.7
1036.554	916.76
1036.842	883.31
1037.129	890.32
1037.417	863.88
1037.704	884.21
1037.992	867.27
1038.279	847.15
1038.566	868.4
1038.853	868.4
1039.14	868.4
