Data from hue_50_FLMS001491_19.txt Node
Date: Mon Feb 06 15:09:41 GMT 2017
User: dcchb
Spectrometer: FLMS00149
Trigger mode: 0
Integration Time (sec): 2.000000E-2
Scans to average: 10
Electric dark correction enabled: true
Nonlinearity correction enabled: false
Boxcar width: 0
XAxis mode: Wavelengths
Number of Pixels in Spectrum: 2048
>>>>>Begin Spectral Data<<<<<
341.393	-5.27
341.776	-5.27
342.16	-5.27
342.543	-61.99
342.927	-75.32
343.31	-57.7
343.693	-78.71
344.077	-80.07
344.46	-52.95
344.843	-56.34
345.226	-28.54
345.61	-19.96
345.993	-6.4
346.376	-19.28
346.759	4.45
347.142	10.55
347.525	46.71
347.908	64.56
348.291	71.57
348.674	98.91
349.057	103.2
349.44	129.64
349.823	141.85
350.206	152.24
350.588	187.04
350.971	201.96
351.354	232.69
351.737	234.95
352.119	250.09
352.502	249.87
352.884	286.93
353.267	279.7
353.65	306.59
354.032	292.13
354.414	319.47
354.797	325.8
355.179	323.31
355.562	310.88
355.944	347.26
356.326	331.9
356.709	333.71
357.091	335.29
357.473	335.74
357.855	326.7
358.238	335.06
358.62	336.64
359.002	322.41
359.384	336.87
359.766	330.09
360.148	339.58
360.53	332.58
360.912	338.68
361.294	346.36
361.676	315.4
362.057	344.78
362.439	343.42
362.821	329.19
363.203	356.08
363.584	322.41
363.966	325.57
364.348	314.5
364.729	329.64
365.111	312.69
365.493	311.79
365.874	314.05
366.256	317.21
366.637	322.18
367.019	328.28
367.4	320.82
367.781	326.47
368.163	317.66
368.544	310.2
368.925	304.1
369.306	324.67
369.688	321.05
370.069	329.19
370.45	321.28
370.831	318.57
371.212	314.95
371.593	311.11
371.974	326.25
372.355	301.62
372.736	307.49
373.117	322.41
373.498	307.27
373.879	317.89
374.26	319.92
374.641	316.08
375.021	316.98
375.402	313.59
375.783	309.75
376.163	320.82
376.544	316.31
376.925	345.68
377.305	342.52
377.686	333.93
378.066	337.77
378.447	323.08
378.827	331.22
379.208	322.18
379.588	351.56
379.968	357.43
380.349	329.19
380.729	336.64
381.109	343.65
381.489	334.84
381.87	354.72
382.25	335.06
382.63	336.19
383.01	311.33
383.39	335.51
383.77	335.06
384.15	329.64
384.53	346.13
384.91	345.46
385.29	328.51
385.67	346.36
386.049	360.37
386.429	321.73
386.809	338.23
387.189	346.81
387.568	351.11
387.948	362.18
388.328	344.1
388.707	347.94
389.087	366.25
389.466	351.56
389.846	366.02
390.225	368.06
390.605	364.89
390.984	361.73
391.363	360.37
391.743	367.15
392.122	342.97
392.501	364.67
392.881	358.79
393.26	357.21
393.639	388.62
394.018	392.69
394.397	382.97
394.776	374.38
395.155	350.88
395.534	392.01
395.913	385.68
396.292	367.6
396.671	383.42
397.05	394.27
397.429	340.03
397.808	391.33
398.186	379.81
398.565	368.06
398.944	394.04
399.323	375.06
399.701	369.86
400.08	378.9
400.458	400.37
400.837	377.77
401.215	390.43
401.594	371.45
401.972	391.11
402.351	383.42
402.729	380.26
403.107	399.92
403.486	383.65
403.864	382.52
404.242	406.92
404.62	417.77
404.999	401.05
405.377	405.57
405.755	410.54
406.133	417.09
406.511	408.28
406.889	405.57
407.267	415.96
407.645	421.61
408.023	420.94
408.401	410.31
408.779	413.25
409.156	433.82
409.534	440.6
409.912	443.99
410.29	441.5
410.667	409.41
411.045	405.34
411.422	422.97
411.8	424.78
412.178	446.7
412.555	451.44
412.933	422.97
413.31	441.27
413.687	437.21
414.065	445.79
414.442	451.44
414.819	422.74
415.197	444.89
415.574	448.28
415.951	461.84
416.328	471.1
416.705	477.2
417.082	459.13
417.46	454.15
417.837	463.42
418.214	496.87
418.591	461.16
418.967	492.35
419.344	488.05
419.721	466.58
420.098	478.33
420.475	476.3
420.852	473.36
421.228	504.55
421.605	494.61
421.982	516.98
422.358	472.23
422.735	492.12
423.111	470.2
423.488	515.4
423.864	514.49
424.241	520.59
424.617	514.94
424.994	502.29
425.37	517.66
425.746	530.99
426.123	538.22
426.499	530.54
426.875	541.84
427.251	531.21
427.627	525.11
428.003	523.08
428.379	537.99
428.756	533.02
429.132	536.64
429.507	557.43
429.883	554.04
430.259	559.46
430.635	560.82
431.011	577.99
431.387	592.91
431.763	577.54
432.138	585.22
432.514	560.37
432.89	596.75
433.265	625.68
433.641	603.3
434.016	606.92
434.392	604.66
434.767	606.47
435.143	619.35
435.518	611.44
435.894	616.64
436.269	631.33
436.644	626.58
437.02	629.97
437.395	632.91
437.77	644.66
438.145	647.6
438.52	643.98
438.895	653.47
439.271	636.52
439.646	691.21
440.021	668.61
440.395	681.27
440.77	641.95
441.145	676.07
441.52	693.24
441.895	678.1
442.27	674.26
442.645	687.82
443.019	676.3
443.394	695.05
443.769	677.2
444.143	679.23
444.518	708.16
444.892	691.89
445.267	698.67
445.641	714.49
446.016	741.38
446.39	739.12
446.764	714.03
447.139	696.86
447.513	726.69
447.887	736.63
448.262	759.23
448.636	745.45
449.01	734.6
449.384	741.15
449.758	758.78
450.132	770.76
450.506	768.95
450.88	774.82
451.254	768.95
451.628	770.3
452.002	762.85
452.376	770.98
452.75	787.48
453.123	803.52
453.497	800.59
453.871	832.68
454.244	808.04
454.618	820.25
454.992	834.94
455.365	826.12
455.739	837.42
456.112	862.96
456.486	850.3
456.859	868.16
457.232	897.08
457.606	897.31
457.979	899.34
458.352	901.83
458.725	907.93
459.099	913.35
459.472	945.22
459.845	925.78
460.218	930.53
460.591	949.06
460.964	953.35
461.337	979.11
461.71	963.52
462.083	1011.65
462.456	995.84
462.829	1034.48
463.201	1005.78
463.574	1044.2
463.947	1027.47
464.32	1081.71
464.692	1089.17
465.065	1069.51
465.438	1108.6
465.81	1103.4
466.183	1102.95
466.555	1134.81
466.928	1150.18
467.3	1170.29
467.672	1178.43
468.045	1207.13
468.417	1198.32
468.789	1232.89
469.161	1227.24
469.534	1266.79
469.906	1265.21
470.278	1327.13
470.65	1341.14
471.022	1362.83
471.394	1391.76
471.766	1435.6
472.138	1456.16
472.51	1454.58
472.882	1504.07
473.253	1518.76
473.625	1571.87
473.997	1596.72
474.369	1604.18
474.74	1677.4
475.112	1693.9
475.484	1723.05
475.855	1765.31
476.227	1792.2
476.598	1858.64
476.97	1860.67
477.341	1962.36
477.713	1998.97
478.084	2054.56
478.455	2100.44
478.827	2154.9
479.198	2234.67
479.569	2266.76
479.94	2386.53
480.311	2403.93
480.682	2504.5
481.053	2557.6
481.424	2622.23
481.795	2690.93
482.166	2760.31
482.537	2810.02
482.908	2959.4
483.279	2978.61
483.65	3089.79
484.021	3176.34
484.391	3304.7
484.762	3384.47
485.133	3422.89
485.503	3534.3
485.874	3601.64
486.244	3724.35
486.615	3826.27
486.985	3969.77
487.356	4080.73
487.726	4194.4
488.097	4310.32
488.467	4350.55
488.837	4520.71
489.207	4628.51
489.578	4786.92
489.948	4854.04
490.318	4959.35
490.688	5075.5
491.058	5216.29
491.428	5379.9
491.798	5466.23
492.168	5660.12
492.538	5748.03
492.908	5840.91
493.278	6009.26
493.648	6052.43
494.017	6272.76
494.387	6375.58
494.757	6451.51
495.126	6650.6
495.496	6744.61
495.866	6804.72
496.235	6974.66
496.605	7113.19
496.974	7217.14
497.344	7413.75
497.713	7498.94
498.082	7600.18
498.452	7805.6
498.821	7841.08
499.19	7982.09
499.559	8093.73
499.928	8242.88
500.298	8310.45
500.667	8391.57
501.036	8551.79
501.405	8665.92
501.774	8811
502.143	8876.53
502.512	8942.07
502.88	9110.42
503.249	9150.2
503.618	9286.46
503.987	9460.02
504.356	9529.85
504.724	9602.39
505.093	9801.71
505.462	9862.27
505.83	9916.5
506.199	10053
506.567	10250.28
506.936	10369.15
507.304	10411.63
507.672	10452.54
508.041	10639.88
508.409	10734.56
508.777	10855.46
509.145	11039.19
509.514	11041.9
509.882	11144.72
510.25	11189.69
510.618	11333.19
510.986	11412.51
511.354	11557.59
511.722	11693.41
512.09	11771.37
512.458	11772.95
512.826	11953.29
513.193	12038.71
513.561	12076.9
513.929	12263.34
514.297	12341.53
514.664	12409.55
515.032	12524.35
515.4	12692.03
515.767	12697.45
516.135	12817.9
516.502	12797.33
516.869	13109.64
517.237	13099.7
517.604	13080.49
517.972	13329.97
518.339	13329.52
518.706	13419.69
519.073	13506.92
519.44	13726.35
519.808	13875.5
520.175	13847.47
520.542	13992.33
520.909	14126.34
521.276	14080.46
521.643	14321.81
522.009	14347.8
522.376	14459.44
522.743	14607.68
523.11	14696.04
523.477	14870.05
523.843	14936.71
524.21	15121.79
524.577	15216.48
524.943	15259.87
525.31	15435.46
525.676	15552.97
526.043	15663.7
526.409	15643.36
526.776	15952.96
527.142	15962
527.508	15978.04
527.874	16255.77
528.241	16258.94
528.607	16252.61
528.973	16475.65
529.339	16523.79
529.705	16703.44
530.071	16944.79
530.437	16832.03
530.803	17029.09
531.169	17062.98
531.535	17083.77
531.901	17124.68
532.267	17213.71
532.632	17394.73
532.998	17447.83
533.364	17527.38
533.73	17588.17
534.095	17725.57
534.461	17741.16
534.826	17948.61
535.192	18006.46
535.557	18088.04
535.923	18039.91
536.288	18155.61
536.653	18351.09
537.019	18314.93
537.384	18258.66
537.749	18446
538.114	18498.2
538.479	18530.74
538.845	18641.7
539.21	18612.32
539.575	18697.06
539.94	18794.46
540.305	18893.44
540.67	18905.42
541.034	18947.45
541.399	19158.07
541.764	19191.97
542.129	19236.49
542.494	19270.16
542.858	19380.21
543.223	19423.6
543.587	19590.83
543.952	19536.82
544.316	19618.17
544.681	19518.29
545.045	19777.04
545.41	19819.75
545.774	20062
546.138	19894.55
546.503	19869.92
546.867	20043.92
547.231	20200.53
547.595	20230.58
547.959	20266.74
548.324	20281.2
548.688	20338.6
549.052	20468.54
549.416	20459.96
549.779	20444.36
550.143	20534.53
550.507	20652.27
550.871	20795.31
551.235	20730.91
551.599	20918.25
551.962	20998.7
552.326	20999.6
552.689	21193.5
553.053	21137.9
553.417	21300.84
553.78	21482.98
554.143	21365.92
554.507	21621.28
554.87	21584.22
555.234	21783.99
555.597	21676.42
555.96	21822.86
556.323	22001.61
556.686	21833.25
557.05	21985.79
557.413	22148.95
557.776	22198.44
558.139	22438.44
558.502	22403.41
558.865	22412
559.228	22666.9
559.59	22673.23
559.953	22701.93
560.316	22953.9
560.679	22931.53
561.041	23027.35
561.404	23178.53
561.767	23221.92
562.129	23268.02
562.492	23536.26
562.854	23556.15
563.217	23428.69
563.579	23586.88
563.941	23767.21
564.304	23881.34
564.666	24084.95
565.028	23918.85
565.39	24122.46
565.753	24253.98
566.115	24312.51
566.477	24467.76
566.839	24563.8
567.201	24634.31
567.563	24711.82
567.925	24876.11
568.287	24895.77
568.648	25007.18
569.01	25180.51
569.372	25197.68
569.734	25288.76
570.095	25397.23
570.457	25581.63
570.819	25518.35
571.18	25653.04
571.542	25730.1
571.903	25771.68
572.265	25990.66
572.626	26040.6
572.987	26103.2
573.349	26301.61
573.71	26314.04
574.071	26316.75
574.432	26445.11
574.794	26717.42
575.155	26618.66
575.516	26670.19
575.877	26783.63
576.238	26917.64
576.599	27019.33
576.96	26983.17
577.32	27031.76
577.681	27184.98
578.042	27417.06
578.403	27418.87
578.763	27473.33
579.124	27528.02
579.485	27653.89
579.845	27709.94
580.206	27806.88
580.566	27893.66
580.927	28077.38
581.287	28166.19
581.648	28217.72
582.008	28311.95
582.368	28458.39
582.728	28534.32
583.089	28532.74
583.449	28702.68
583.809	28698.84
584.169	28794.2
584.529	28927.98
584.889	29206.85
585.249	29092.5
585.609	29017.47
585.969	29354.41
586.329	29323.45
586.688	29518.02
587.048	29558.93
587.408	29578.59
587.768	29779.49
588.127	29736.77
588.487	29784.46
588.846	30027.39
589.206	29925.24
589.565	30113.26
589.925	30459.47
590.284	30342.18
590.643	30451.11
591.003	30538.34
591.362	30725.45
591.721	30831.44
592.08	30788.27
592.44	30993.46
592.799	31136.96
593.158	31033.92
593.517	31108.04
593.876	31286.34
594.235	31252.67
594.593	31418.31
594.952	31595.93
595.311	31477.07
595.67	31722.49
596.029	31895.14
596.387	31917.28
596.746	32060.1
597.104	32032.31
597.463	32163.15
597.822	32455.35
598.18	32207.9
598.538	32451.96
598.897	32623.7
599.255	32390.72
599.613	32842.46
599.972	32792.97
600.33	32885.17
600.688	32685.4
601.046	33058.5
601.404	33119.06
601.762	33186.4
602.12	33464.59
602.478	33408.77
602.836	33538.71
603.194	33411.48
603.552	33552.72
603.91	33441.54
604.268	33819.38
604.625	33741.64
604.983	33764.92
605.341	33896.21
605.698	33895.99
606.056	34027.06
606.413	34189.54
606.771	34216.88
607.128	34319.03
607.485	34262.76
607.843	34354.28
608.2	34603.99
608.557	34710.43
608.914	34621.84
609.272	34945.9
609.629	34828.84
609.986	35031.78
610.343	34944.32
610.7	35149.74
611.057	35114.03
611.414	35133.92
611.771	35212.79
612.127	35448.94
612.484	35276.52
612.841	35423.63
613.198	35397.19
613.554	35582.27
613.911	35792.21
614.267	35643.51
614.624	35786.79
614.98	35868.14
615.337	36003.28
615.693	36038.08
616.05	35953.79
616.406	36217.73
616.762	36050.73
617.118	36137.28
617.475	36325.08
617.831	36307.9
618.187	36458.63
618.543	36409.59
618.899	36616.59
619.255	36619.08
619.611	36558.97
619.967	36905.4
620.323	36923.25
620.678	36802.13
621.034	36722.58
621.39	36832.86
621.746	36793.99
622.101	37130.03
622.457	36902.46
622.812	37069.92
623.168	37211.38
623.523	37085.28
623.879	37226.07
624.234	37108.11
624.589	37229.01
624.945	37365.95
625.3	37410.47
625.655	37381.32
626.01	37355.11
626.365	37305.84
626.72	37298.61
627.075	37313.52
627.43	37360.75
627.785	37378.61
628.14	37418.38
628.495	37495.21
628.85	37476.01
629.205	37212.74
629.559	37662.44
629.914	37338.16
630.269	37543.12
630.623	37414.99
630.978	37246.63
631.332	37496.34
631.687	37550.58
632.041	37405.95
632.396	37562.56
632.75	37334.09
633.104	37465.38
633.459	37251.15
633.813	37219.52
634.167	37255
634.521	37318.04
634.875	37297.25
635.229	37341.32
635.583	37302.23
635.937	37196.47
636.291	37127.09
636.645	37057.94
636.999	37080.31
637.352	37226.3
637.706	37035.57
638.06	37203.24
638.413	37073.3
638.767	37055.68
639.121	37023.14
639.474	36843.03
639.828	36858.17
640.181	36902.91
640.534	36978.62
640.888	36863.14
641.241	36779.75
641.594	36797.15
641.947	36911.05
642.301	36711.05
642.654	36763.93
643.007	36754.9
643.36	36828.11
643.713	36656.82
644.066	36897.26
644.419	36593.77
644.771	36443.49
645.124	36020.68
645.477	36077.62
645.83	35835.6
646.182	35707.01
646.535	35478.32
646.888	35747.69
647.24	35489.62
647.593	35718.09
647.945	35610.52
648.298	35463.18
648.65	35368.26
649.002	35253.69
649.355	35516.28
649.707	35363.75
650.059	35515.61
650.411	35950.17
650.763	35969.61
651.115	36381.12
651.467	36231.52
651.819	36145.19
652.171	36154.46
652.523	36049.38
652.875	36143.61
653.227	35824.75
653.578	36248.69
653.93	36119.88
654.282	35941.81
654.633	35903.17
654.985	35969.83
655.337	36002.15
655.688	35937.06
656.039	36025.2
656.391	35805.32
656.742	35717.86
657.094	35826.33
657.445	35968.48
657.796	35853.45
658.147	35780.91
658.498	35824.07
658.849	35876.27
659.2	35752.66
659.551	35786.11
659.902	35829.95
660.253	35770.06
660.604	35871.08
660.955	35697.97
661.306	35791.3
661.656	35734.13
662.007	35678.31
662.358	35840.79
662.708	35774.13
663.059	35705.21
663.409	35428.38
663.76	35726.9
664.11	35716.96
664.461	35801.25
664.811	35562.16
665.161	35727.13
665.511	35576.17
665.862	35592.67
666.212	35714.24
666.562	35730.97
666.912	35659.1
667.262	35485.32
667.612	35594.47
667.962	35556.06
668.312	35562.61
668.662	35529.62
669.011	35515.61
669.361	35481.71
669.711	35570.97
670.06	35528.94
670.41	35348.6
670.76	35494.59
671.109	35419.56
671.459	35394.7
671.808	35432.9
672.157	35424.31
672.507	35202.62
672.856	35330.53
673.205	35352.9
673.554	35500.01
673.904	35408.26
674.253	35406.46
674.602	35286.91
674.951	34896.19
675.3	34815.06
675.649	35319.9
675.998	35152.23
676.346	35210.75
676.695	35392.45
677.044	34975.96
677.393	35114.49
677.741	35248.72
678.09	35173.69
678.438	34982.74
678.787	35068.61
679.135	35155.39
679.484	34879.01
679.832	35109.51
680.181	34706.14
680.529	34952.68
680.877	34775.74
681.225	34746.81
681.573	34990.42
681.922	34590.66
682.27	34653.48
682.618	34700.71
682.966	34658.91
683.314	34661.39
683.661	34620.04
684.009	34431.57
684.357	34294.17
684.705	34302.53
685.053	34320.61
685.4	34221.63
685.748	33957.45
686.095	33973.27
686.443	33834.07
686.79	33826.38
687.138	33934.86
687.485	33797.91
687.832	33772.83
688.18	33810.79
688.527	33611.25
688.874	33621.87
689.221	33601.31
689.568	33373.06
689.915	33424.59
690.262	33402.67
690.609	33298.26
690.956	33271.82
691.303	32996.12
691.65	33089.91
691.997	33175.1
692.344	32859.63
692.69	32870.93
693.037	32871.83
693.383	32470.94
693.73	32684.72
694.077	32597.04
694.423	32564.27
694.769	32366.31
695.116	32291.28
695.462	32309.59
695.808	32190.27
696.155	32181
696.501	31918.86
696.847	31973.33
697.193	31762.48
697.539	31862.14
697.885	31660.11
698.231	31622.6
698.577	31557.29
698.923	31539.89
699.269	31353
699.614	31172.22
699.96	31126.12
700.306	31358.65
700.651	31062.84
700.997	30987.36
701.342	30978.78
701.688	30938.55
702.033	30823.53
702.379	30830.31
702.724	30637.32
703.069	30759.8
703.415	30363.88
703.76	30435.51
704.105	30317.32
704.45	30271.45
704.795	30148.06
705.14	30080.95
705.485	30111
705.83	29967.95
706.175	29957.56
706.52	29901.29
706.865	29822.87
707.209	29838.01
707.554	29648.87
707.899	29653.84
708.243	29537.91
708.588	29527.06
708.932	29348.31
709.277	29254.98
709.621	29329.33
709.966	29121.42
710.31	29217.69
710.654	28948.09
710.998	29035.32
711.342	28884.14
711.687	28876.23
712.031	28658.16
712.375	28739.74
712.719	28781.32
713.063	28615
713.407	28697.48
713.75	28421.55
714.094	28554.88
714.438	28422.46
714.782	28397.83
715.125	28158.74
715.469	28440.99
715.812	28160.32
716.156	28028.12
716.499	27946.09
716.843	28016.14
717.186	27975.24
717.53	28059.53
717.873	27963.04
718.216	27888.46
718.559	27829.71
718.902	27684.85
719.246	27640.11
719.589	27636.26
719.932	27464.97
720.275	27555.59
720.617	27473.11
720.96	27491.18
721.303	27377.51
721.646	27397.4
721.989	27211.42
722.331	27315.82
722.674	27302.26
723.016	27307.46
723.359	27211.87
723.701	27239.21
724.044	26965.32
724.386	26909.28
724.729	26978.43
725.071	26979.33
725.413	26981.37
725.755	26854.59
726.097	26835.83
726.439	26667.25
726.782	26606.69
727.124	26783.18
727.465	26547.03
727.807	26593.81
728.149	26565.78
728.491	26520.14
728.833	26577.54
729.175	26462.51
729.516	26330.31
729.858	26366.69
730.199	26359.91
730.541	26371.21
730.882	26251.22
731.224	26289.86
731.565	26193.82
731.906	26027.72
732.248	26105.23
732.589	26048.28
732.93	25942.3
733.271	25891.9
733.612	25937.33
733.953	25961.96
734.294	25759.25
734.635	25771.46
734.976	25836.76
735.317	25666.15
735.658	25690.33
735.999	25604.68
736.339	25548.86
736.68	25591.12
737.021	25581.86
737.361	25432.93
737.702	25583.66
738.042	25536.43
738.383	25553.61
738.723	25409.2
739.063	25464.57
739.404	25348.87
739.744	25345.25
740.084	25238.81
740.424	25287.17
740.764	25223.45
741.104	25270.68
741.444	25028.42
741.784	25110.68
742.124	25019.61
742.464	24985.26
742.804	24942.32
743.143	24864.36
743.483	25023.9
743.823	24731.03
744.162	24737.81
744.502	24943.91
744.841	24763.57
745.181	24752.72
745.52	24640.19
745.86	24780.07
746.199	24654.42
746.538	24576.23
746.877	24635.89
747.216	24483.81
747.556	24479.74
747.895	24576.01
748.234	24363.13
748.573	24273.64
748.911	24396.12
749.25	24301.66
749.589	24084.72
749.928	24310.25
750.267	24208.56
750.605	24146.64
750.944	24030.03
751.283	23934.67
751.621	24071.84
751.96	23969.24
752.298	23808.79
752.636	23900.09
752.975	23785.29
753.313	23690.61
753.651	23786.42
753.989	23605.18
754.327	23587.33
754.666	23496.71
755.004	23512.53
755.342	23509.82
755.679	23530.38
756.017	23347.79
756.355	23373.55
756.693	23227.57
757.031	23310.28
757.368	23119.1
757.706	23225.31
758.044	23036.39
758.381	23088.36
758.719	22997.97
759.056	23005.88
759.394	22965.65
759.731	22775.38
760.068	22687.47
760.405	22712.33
760.743	22481.15
761.08	22575.61
761.417	22435.95
761.754	22462.62
762.091	22439.34
762.428	22315.5
762.765	22256.52
763.102	22316.63
763.438	22169.74
763.775	21978.56
764.112	22039.8
764.449	21957.54
764.785	22007.26
765.122	21817.43
765.458	21741.96
765.795	21696.31
766.131	21666.93
766.467	21576.76
766.804	21433.49
767.14	21358.01
767.476	21354.85
767.812	21258.58
768.148	21249.31
768.485	21110.79
768.821	21030.34
769.157	20994.86
769.492	20920.06
769.828	20956.67
770.164	20662.21
770.5	20657.01
770.836	20632.61
771.171	20511.25
771.507	20541.76
771.842	20432.39
772.178	20361.88
772.513	20243.69
772.849	20220.19
773.184	20178.16
773.519	20221.54
773.855	20013.87
774.19	19978.61
774.525	19940.65
774.86	19875.79
775.195	19814.78
775.53	19747.21
775.865	19583.37
776.2	19494.78
776.535	19419.31
776.87	19367.78
777.205	19267.45
777.539	19203.27
777.874	19180.67
778.209	19079.88
778.543	19107
778.878	18964.18
779.212	18977.28
779.547	18916.49
779.881	18798.53
780.215	18732.54
780.55	18727.12
780.884	18618.87
781.218	18631.3
781.552	18623.62
781.886	18442.83
782.22	18372.78
782.554	18257.98
782.888	18138.89
783.222	18038.55
783.556	17990.19
783.889	17967.82
784.223	17910.19
784.557	17814.38
784.89	17845.56
785.224	17713.59
785.557	17633.14
785.891	17539.58
786.224	17521.5
786.558	17587.49
786.891	17312.02
787.224	17312.47
787.557	17243.32
787.891	17173.04
788.224	17198.12
788.557	17109.31
788.89	17033.38
789.223	17096.43
789.556	16859.83
789.888	16834.06
790.221	16793.61
790.554	16676.55
790.887	16708.19
791.219	16512.94
791.552	16572.83
791.884	16471.13
792.217	16478.59
792.549	16322.89
792.882	16227.07
793.214	16204.93
793.546	16177.36
793.879	16098.72
794.211	16072.28
794.543	16116.12
794.875	16023.01
795.207	15992.28
795.539	15989.34
795.871	15938.04
796.203	15827.99
796.535	15687.88
796.867	15764.26
797.198	15618.73
797.53	15634.55
797.862	15514.1
798.193	15505.96
798.525	15414.89
798.856	15452.63
799.188	15223.48
799.519	15272.52
799.85	15177.61
800.182	15184.84
800.513	15177.84
800.844	15030.27
801.175	15077.27
801.506	15036.37
801.837	14964.06
802.168	14897.62
802.499	14904.17
802.83	14810.84
803.161	14788.47
803.491	14691.52
803.822	14799.77
804.153	14713.21
804.483	14610.39
804.814	14468.02
805.145	14573.56
805.475	14427.57
805.805	14417.4
806.136	14491.53
806.466	14428.25
806.796	14333.34
807.126	14250.85
807.457	14184.42
807.787	14193.91
808.117	14175.6
808.447	14055.38
808.777	14105.55
809.107	14022.61
809.436	13981.03
809.766	13973.35
810.096	13879.11
810.426	13811.54
810.755	13840.02
811.085	13873.01
811.414	13784.88
811.744	13722.05
812.073	13758.44
812.403	13694.26
812.732	13537.65
813.061	13595.28
813.39	13489.74
813.719	13463.98
814.049	13541.04
814.378	13483.87
814.707	13388.05
815.036	13398
815.365	13397.09
815.693	13248.39
816.022	13267.38
816.351	13131.79
816.68	13157.55
817.008	13126.82
817.337	13025.12
817.665	13000.94
817.994	13041.62
818.322	13013.82
818.651	12933.6
818.979	12871.68
819.307	13002.98
819.636	12930.66
819.964	12876.2
820.292	12892.92
820.62	12851.57
820.948	12824.68
821.276	12863.09
821.604	12817.45
821.932	12834.62
822.259	12840.72
822.587	12808.86
822.915	12750.1
823.243	12812.47
823.57	12801.17
823.898	12755.53
824.225	12734.28
824.553	12695.87
824.88	12709.2
825.207	12832.13
825.535	12696.77
825.862	12698.13
826.189	12712.14
826.516	12772.7
826.843	12739.48
827.17	12722.53
827.497	12836.2
827.824	12765.47
828.151	12737
828.478	12703.55
828.805	12734.51
829.131	12699.48
829.458	12715.53
829.785	12701.29
830.111	12737.9
830.438	12709.2
830.764	12605.93
831.09	12688.64
831.417	12619.48
831.743	12725.24
832.069	12686.6
832.395	12600.28
832.722	12679.6
833.048	12642.31
833.374	12698.8
833.7	12571.58
834.026	12617.45
834.351	12648.86
834.677	12576.32
835.003	12701.52
835.329	12502.88
835.654	12527.06
835.98	12513.5
836.306	12448.19
836.631	12381.07
836.956	12447.96
837.282	12450
837.607	12418.36
837.932	12347.85
838.258	12423.33
838.583	12331.36
838.908	12252.04
839.233	12375.65
839.558	12247.74
839.883	12155.32
840.208	12265.14
840.533	12271.92
840.858	12269.21
841.182	12266.05
841.507	12193.96
841.832	12106.28
842.156	12055.88
842.481	12096.11
842.805	12073.06
843.13	11973.17
843.454	12027.86
843.778	11975.43
844.103	11941.08
844.427	11930.69
844.751	11864.48
845.075	11942.67
845.399	11763.46
845.723	11749.22
846.047	11797.81
846.371	11674.65
846.695	11683.92
847.019	11557.82
847.343	11538.61
847.666	11442.34
847.99	11363.92
848.313	11376.58
848.637	11351.95
848.96	11298.62
849.284	11248.67
849.607	11220.88
849.931	11254.77
850.254	11095.91
850.577	11043.48
850.9	10929.13
851.223	10957.61
851.546	10977.95
851.869	10795.13
852.192	10824.5
852.515	10848.23
852.838	10780.44
853.161	10811.85
853.483	10683.04
853.806	10684.85
854.129	10594.68
854.451	10643.04
854.774	10514.46
855.096	10476.72
855.419	10433.55
855.741	10497.05
856.063	10394.68
856.385	10377.74
856.708	10347
857.03	10276.04
857.352	10244.41
857.674	10272.65
857.996	10175.03
858.318	10207.34
858.64	10151.75
858.961	10147.46
859.283	10085.99
859.605	10049.16
859.926	10103.62
860.248	10005.77
860.57	10032.21
860.891	10056.16
861.212	9907.01
861.534	9929.61
861.855	9934.36
862.176	9948.82
862.498	9878.09
862.819	9863.62
863.14	9866.34
863.461	9796.28
863.782	9810.97
864.103	9750.63
864.424	9711.99
864.745	9805.32
865.065	9688.26
865.386	9705.21
865.707	9601.94
866.027	9647.81
866.348	9652.1
866.668	9655.95
866.989	9650.52
867.309	9559.9
867.63	9608.72
867.95	9574.59
868.27	9503.86
868.59	9504.09
868.91	9523.75
869.23	9508.38
869.55	9507.25
869.87	9497.98
870.19	9436.52
870.51	9449.85
870.83	9498.89
871.15	9357.65
871.469	9407.59
871.789	9413.92
872.109	9410.08
872.428	9314.26
872.748	9346.35
873.067	9340.25
873.386	9360.59
873.706	9280.59
874.025	9279.91
874.344	9251.89
874.663	9262.96
874.982	9235.62
875.301	9145.68
875.62	9149.07
875.939	9111.55
876.258	9089.63
876.577	9161.04
876.896	9137.54
877.214	9136.19
877.533	9131.21
877.852	9139.8
878.17	9089.41
878.489	9086.7
878.807	9082.4
879.125	9082.4
879.444	9074.04
879.762	9060.93
880.08	8984.55
880.398	8991.33
880.716	8965.12
881.034	8972.35
881.352	8956.98
881.67	8881.73
881.988	8895.74
882.306	8876.31
882.624	8873.14
882.941	8797.89
883.259	8770.09
883.577	8708.85
883.894	8782.52
884.212	8765.12
884.529	8714.05
884.846	8709.08
885.164	8681.28
885.481	8691.68
885.798	8615.52
886.115	8590.44
886.432	8586.6
886.75	8522.64
887.067	8548.41
887.383	8504.79
887.7	8467.28
888.017	8475.41
888.334	8475.41
888.651	8447.16
888.967	8436.32
889.284	8403.78
889.6	8372.36
889.917	8307.96
890.233	8357.9
890.55	8301.63
890.866	8281.97
891.182	8237.68
891.498	8242.88
891.815	8163.33
892.131	8190.45
892.447	8128.08
892.763	8136.44
893.079	8131.92
893.395	8070.23
893.71	8081.98
894.026	8079.04
894.342	8003.56
894.657	7973.05
894.973	7935.99
895.289	7927.18
895.604	7945.94
895.92	7879.04
896.235	7827.07
896.55	7873.62
896.865	7816.45
897.181	7806.73
897.496	7793.62
897.811	7700.97
898.126	7803.79
898.441	7684.47
898.756	7691.48
899.071	7613.29
899.386	7654.19
899.7	7569.9
900.015	7511.14
900.33	7505.04
900.644	7492.16
900.959	7441.32
901.273	7427.98
901.588	7439.96
901.902	7346.18
902.216	7353.18
902.531	7347.31
902.845	7367.19
903.159	7324.48
903.473	7269.12
903.787	7257.59
904.101	7218.5
904.415	7174.2
904.729	7127.88
905.042	7130.14
905.356	7100.76
905.67	7067.54
905.984	7095.34
906.297	7022.34
906.611	6942.8
906.924	6974.44
907.237	6978.5
907.551	6940.99
907.864	6856.7
908.177	6906.41
908.491	6841.33
908.804	6771.28
909.117	6788
909.43	6737.61
909.743	6697.61
910.056	6761.79
910.368	6685.18
910.681	6625.29
910.994	6616.25
911.307	6626.42
911.619	6588
911.932	6571.96
912.244	6494.22
912.557	6550.72
912.869	6490.83
913.181	6440.44
913.494	6380.55
913.806	6379.42
914.118	6366.54
914.43	6322.7
914.742	6366.77
915.054	6332.42
915.366	6265.98
915.678	6225.53
915.99	6233.66
916.302	6187.79
916.613	6129.71
916.925	6114.8
917.236	6105.76
917.548	6074.57
917.859	6043.84
918.171	6029.83
918.482	5993.9
918.794	5975.59
919.105	5978.08
919.416	5925.2
919.727	5901.7
920.038	5878.42
920.349	5847.01
920.66	5801.81
920.971	5850.17
921.282	5844.07
921.593	5761.81
921.903	5743.06
922.214	5701.93
922.525	5661.25
922.835	5652.66
923.146	5577.86
923.456	5597.3
923.767	5595.94
924.077	5623.28
924.387	5575.6
924.697	5525.89
925.008	5545.32
925.318	5527.92
925.628	5466.68
925.938	5484.53
926.248	5384.42
926.558	5356.62
926.867	5357.08
927.177	5344.65
927.487	5322.5
927.796	5271.2
928.106	5287.93
928.416	5239.57
928.725	5207.7
929.034	5209.74
929.344	5215.61
929.653	5176.06
929.962	5144.65
930.271	5128.38
930.581	5110.76
930.89	5029.85
931.199	5008.39
931.508	5051.77
931.817	5049.74
932.125	5030.31
932.434	4985.34
932.743	4911.44
933.051	4929.07
933.36	4910.99
933.669	4855.17
933.977	4843.87
934.286	4836.86
934.594	4803.19
934.902	4815.62
935.21	4747.38
935.519	4770.43
935.827	4769.75
936.135	4725.45
936.443	4691.56
936.751	4706.02
937.059	4641.84
937.367	4671.44
937.674	4644.1
937.982	4642.07
938.29	4579.7
938.597	4592.13
938.905	4529.98
939.213	4509.87
939.52	4508.51
939.827	4482.3
940.135	4497.44
940.442	4446.37
940.749	4443.2
941.056	4410.89
941.363	4405.92
941.67	4380.38
941.977	4380.61
942.284	4310.32
942.591	4317.1
942.898	4319.82
943.205	4270.55
943.511	4282.08
943.818	4213.38
944.125	4186.49
944.431	4171.35
944.738	4219.03
945.044	4172.25
945.35	4179.03
945.657	4149.2
945.963	4121.4
946.269	4072.36
946.575	4094.29
946.881	4059.94
947.187	4083.44
947.493	4103.32
947.799	4046.38
948.105	3989.88
948.41	3995.53
948.716	3999.6
949.022	3957.79
949.327	3974.29
949.633	3928.41
949.938	3901.97
950.244	3918.02
950.549	3857
950.854	3823.33
951.16	3865.36
951.465	3837.57
951.77	3779.27
952.075	3781.3
952.38	3794.18
952.685	3764.35
952.99	3724.35
953.294	3744.46
953.599	3704.01
953.904	3674.86
954.209	3648.87
954.513	3643.9
954.818	3654.75
955.122	3641.87
955.426	3609.78
955.731	3598.25
956.035	3556.67
956.339	3611.59
956.643	3524.36
956.948	3510.35
957.252	3565.71
957.556	3530.01
957.86	3507.18
958.163	3496.11
958.467	3463.79
958.771	3443.68
959.075	3457.69
959.378	3416.56
959.682	3417.01
959.985	3396.22
960.289	3375.21
960.592	3371.59
960.896	3346.73
961.199	3348.32
961.502	3313.29
961.805	3293.85
962.108	3288.43
962.411	3239.39
962.714	3255.89
963.017	3241.65
963.32	3256.34
963.623	3214.31
963.926	3195.78
964.228	3198.04
964.531	3219.51
964.833	3186.96
965.136	3143.8
965.438	3137.02
965.741	3117.36
966.043	3088.21
966.345	3122.33
966.648	3097.93
966.95	3063.35
967.252	3060.19
967.554	3043.92
967.856	3032.17
968.158	3030.58
968.46	2986.29
968.761	2996.46
969.063	2977.48
969.365	2931.15
969.666	2954.88
969.968	2928.67
970.269	2945.61
970.571	2952.62
970.872	2941.55
971.174	2913.75
971.475	2849.57
971.776	2888.67
972.077	2878.5
972.378	2864.26
972.679	2836.24
972.98	2848.22
973.281	2805.96
973.582	2815
973.883	2790.82
974.183	2757.82
974.484	2774.32
974.785	2730.71
975.085	2745.17
975.386	2731.38
975.686	2746.52
975.986	2706.52
976.287	2697.94
976.587	2681.67
976.887	2665.85
977.187	2669.46
977.487	2654.32
977.787	2609.58
978.087	2601.22
978.387	2596.7
978.687	2596.25
978.987	2572.97
979.286	2563.7
979.586	2592.63
979.885	2577.71
980.185	2496.81
980.484	2504.04
980.784	2512.41
981.083	2498.17
981.382	2485.51
981.682	2506.76
981.981	2452.52
982.28	2455.23
982.579	2444.16
982.878	2465.18
983.177	2446.87
983.475	2445.74
983.774	2407.78
984.073	2397.15
984.372	2392.18
984.67	2399.19
984.969	2374.1
985.267	2377.72
985.566	2338.85
985.864	2341.34
986.162	2325.07
986.461	2322.58
986.759	2335.01
987.057	2272.19
987.355	2286.42
987.653	2265.86
987.951	2268.57
988.249	2281.45
988.547	2265.41
988.844	2228.35
989.142	2251.62
989.44	2226.09
989.737	2217.72
990.035	2192.87
990.332	2207.55
990.63	2177.73
990.927	2221.79
991.224	2171.4
991.521	2152.42
991.819	2138.86
992.116	2128.24
992.413	2130.04
992.71	2082.13
993.006	2095.92
993.303	2078.29
993.6	2067.45
993.897	2066.54
994.193	2085.98
994.49	2081.91
994.787	2075.13
995.083	2038.97
995.379	2012.76
995.676	2041.23
995.972	2001.91
996.268	2017.5
996.565	1995.58
996.861	1991.06
997.157	1965.08
997.453	1954
997.749	1939.09
998.044	1927.79
998.34	1910.39
998.636	1915.81
998.932	1930.27
999.227	1916.72
999.523	1876.04
999.818	1889.6
1000.114	1867.9
1000.409	1856.38
1000.704	1864.97
1001	1837.85
1001.295	1815.7
1001.59	1815.25
1001.885	1824.29
1002.18	1782.26
1002.475	1803.95
1002.77	1770.73
1003.065	1795.36
1003.359	1761.46
1003.654	1765.53
1003.949	1736.15
1004.243	1714.46
1004.538	1737.74
1004.832	1740.9
1005.127	1732.77
1005.421	1685.31
1005.715	1698.64
1006.009	1687.79
1006.304	1683.73
1006.598	1674.24
1006.892	1661.81
1007.186	1648.25
1007.48	1660.45
1007.773	1623.62
1008.067	1595.14
1008.361	1610.06
1008.655	1602.37
1008.948	1594.24
1009.242	1617.97
1009.535	1578.87
1009.829	1563.5
1010.122	1565.99
1010.415	1523.73
1010.708	1540.45
1011.001	1546.56
1011.295	1526.67
1011.588	1523.96
1011.881	1505.65
1012.173	1497.74
1012.466	1485.99
1012.759	1477.4
1013.052	1479.44
1013.344	1463.85
1013.637	1462.94
1013.93	1461.13
1014.222	1442.6
1014.514	1443.06
1014.807	1419.1
1015.099	1435.6
1015.391	1421.59
1015.683	1423.17
1015.976	1403.96
1016.268	1399.89
1016.56	1384.07
1016.851	1396.28
1017.143	1389.5
1017.435	1348.37
1017.727	1365.77
1018.018	1322.83
1018.31	1322.83
1018.602	1304.98
1018.893	1295.49
1019.185	1311.99
1019.476	1323.28
1019.767	1277.41
1020.058	1275.6
1020.35	1279.9
1020.641	1244.87
1020.932	1281.48
1021.223	1241.25
1021.514	1233.34
1021.804	1220.69
1022.095	1236.28
1022.386	1222.72
1022.677	1220.46
1022.967	1232.44
1023.258	1180.24
1023.548	1176.62
1023.839	1189.28
1024.129	1205.77
1024.419	1188.15
1024.709	1141.14
1025	1166.9
1025.29	1146.11
1025.58	1150.41
1025.87	1128.49
1026.16	1138.66
1026.449	1160.58
1026.739	1128.71
1027.029	1110.18
1027.319	1118.32
1027.608	1092.78
1027.898	1072.9
1028.187	1082.84
1028.477	1060.92
1028.766	1067.02
1029.055	1075.61
1029.344	1035.83
1029.634	1037.87
1029.923	1069.51
1030.212	1031.77
1030.501	1052.11
1030.79	1009.17
1031.078	1017.76
1031.367	996.29
1031.656	1017.08
1031.945	1000.58
1032.233	970.98
1032.522	996.06
1032.81	968.94
1033.099	991.54
1033.387	976.4
1033.675	991.09
1033.963	943.18
1034.251	941.37
1034.54	939.11
1034.828	942.73
1035.116	918.55
1035.403	917.65
1035.691	921.04
1035.979	935.95
1036.267	904.76
1036.554	907.25
1036.842	904.31
1037.129	881.71
1037.417	876.97
1037.704	897.53
1037.992	879.45
1038.279	892.79
1038.566	877.42
1038.853	877.42
1039.14	877.42
