Data from hue_180_FLMS001491_00099.txt Node
Date: Tue Feb 07 16:47:45 GMT 2017
User: dcchb
Spectrometer: FLMS00149
Trigger mode: 0
Integration Time (sec): 2.000000E-2
Scans to average: 10
Electric dark correction enabled: true
Nonlinearity correction enabled: false
Boxcar width: 0
XAxis mode: Wavelengths
Number of Pixels in Spectrum: 2048
>>>>>Begin Spectral Data<<<<<
341.393	-17.27
341.776	-17.27
342.16	-17.27
342.543	-77.38
342.927	-51.85
343.31	-62.47
343.693	-74.22
344.077	-73.32
344.46	-74.45
344.843	-54.11
345.226	-43.71
345.61	-46.43
345.993	-7.1
346.376	-2.81
346.759	12.33
347.142	29.96
347.525	47.81
347.908	49.62
348.291	97.75
348.674	94.81
349.057	106.34
349.44	152.67
349.823	151.76
350.206	161.7
350.588	177.52
350.971	227.47
351.354	216.62
351.737	243.51
352.119	224.75
352.502	241.7
352.884	262.49
353.267	285.09
353.65	287.35
354.032	292.1
354.414	324.19
354.797	315.37
355.179	319.67
355.562	316.95
355.944	328.25
356.326	316.73
356.709	340.01
357.091	316.95
357.473	315.37
357.855	324.41
358.238	332.77
358.62	357.86
359.002	353.56
359.384	342.04
359.766	353.34
360.148	340.46
360.53	350.4
360.912	337.97
361.294	350.4
361.676	316.73
362.057	328.71
362.439	339.33
362.821	315.83
363.203	323.28
363.584	308.37
363.966	312.44
364.348	304.98
364.729	331.19
365.111	311.98
365.493	316.95
365.874	319.21
366.256	342.04
366.637	297.97
367.019	299.78
367.4	306.33
367.781	308.59
368.163	331.42
368.544	330.06
368.925	303.62
369.306	304.3
369.688	314.7
370.069	297.75
370.45	315.37
370.831	307.24
371.212	304.75
371.593	305.66
371.974	315.37
372.355	300.91
372.736	293.23
373.117	310.4
373.498	336.84
373.879	313.11
374.26	319.89
374.641	322.15
375.021	309.72
375.402	314.7
375.783	311.08
376.163	317.18
376.544	326.45
376.925	330.74
377.305	343.62
377.686	322.83
378.066	330.51
378.447	307.92
378.827	331.64
379.208	335.71
379.588	323.96
379.968	326.67
380.349	339.1
380.729	332.1
381.109	320.34
381.489	312.44
381.87	339.33
382.25	337.75
382.63	329.61
383.01	341.14
383.39	346.56
383.77	341.59
384.15	338.88
384.53	346.11
384.91	328.71
385.29	335.71
385.67	345.65
386.049	345.88
386.429	340.68
386.809	327.35
387.189	334.36
387.568	357.41
387.948	348.82
388.328	358.08
388.707	367.35
389.087	365.32
389.466	362.15
389.846	364.86
390.225	365.77
390.605	351.98
390.984	363.51
391.363	380.23
391.743	385.88
392.122	372.32
392.501	360.8
392.881	366.22
393.26	373.22
393.639	374.81
394.018	393.34
394.397	374.81
394.776	380.68
395.155	364.19
395.534	365.54
395.913	369.38
396.292	373.22
396.671	380.91
397.05	372.55
397.429	392.66
397.808	382.49
398.186	393.56
398.565	410.06
398.944	411.64
399.323	405.54
399.701	385.2
400.08	405.54
400.458	394.47
400.837	404.18
401.215	414.35
401.594	420.46
401.972	405.99
402.351	409.61
402.729	412.09
403.107	420.46
403.486	413
403.864	427.91
404.242	406.44
404.62	424.07
404.999	453.45
405.377	451.19
405.755	461.13
406.133	438.76
406.511	431.53
406.889	429.27
407.267	460.45
407.645	437.4
408.023	479.21
408.401	473.56
408.779	469.49
409.156	497.74
409.534	454.13
409.912	488.48
410.29	482.37
410.667	502.49
411.045	493.45
411.422	516.72
411.8	502.03
412.178	526.21
412.555	509.49
412.933	544.97
413.31	552.65
413.687	551.98
414.065	536.61
414.442	561.69
414.819	585.65
415.197	589.72
415.574	584.52
415.951	586.78
416.328	599.21
416.705	613.44
417.082	603.5
417.46	629.26
417.837	616.61
418.214	635.14
418.591	622.48
418.967	640.11
419.344	645.08
419.721	672.65
420.098	671.75
420.475	646.66
420.852	677.62
421.228	700.22
421.605	702.71
421.982	729.15
422.358	710.39
422.735	746.77
423.111	740.67
423.488	769.15
423.864	768.24
424.241	761.01
424.617	763.5
424.994	796.49
425.37	800.56
425.746	803.95
426.123	817.73
426.499	829.48
426.875	838.52
427.251	835.81
427.627	857.05
428.003	874.23
428.379	901.35
428.756	878.97
429.132	875.58
429.507	928.01
429.883	922.14
430.259	932.53
430.635	929.14
431.011	952.19
431.387	947.22
431.763	980.44
432.138	994.68
432.514	1005.3
432.89	1004.62
433.265	1051.62
433.641	1037.16
434.016	1079.19
434.392	1088.91
434.767	1092.53
435.143	1115.35
435.518	1139.98
435.894	1139.08
436.269	1182.02
436.644	1195.12
437.02	1202.58
437.395	1202.36
437.77	1226.31
438.145	1235.57
438.52	1262.47
438.895	1283.94
439.271	1283.94
439.646	1311.96
440.021	1313.76
440.395	1343.37
440.77	1329.58
441.145	1362.58
441.52	1395.34
441.895	1386.53
442.27	1417.94
442.645	1410.03
443.019	1435.8
443.394	1422.46
443.769	1466.3
444.143	1474.89
444.518	1474.21
444.892	1481.22
445.267	1512.18
445.641	1535
446.016	1553.53
446.39	1546.3
446.764	1546.75
447.139	1546.98
447.513	1586.53
447.887	1566.41
448.262	1592.85
448.636	1622.01
449.01	1625.4
449.384	1625.85
449.758	1652.51
450.132	1664.26
450.506	1657.71
450.88	1676.24
451.254	1708.56
451.628	1710.36
452.002	1735.45
452.376	1748.56
452.75	1784.71
453.123	1779.52
453.497	1813.19
453.871	1846.18
454.244	1867.2
454.618	1886.86
454.992	1887.54
455.365	1910.36
455.739	1943.13
456.112	1988.1
456.486	1965.5
456.859	1997.59
457.232	2041.43
457.606	2049.79
457.979	2081.2
458.352	2140.64
458.725	2149.9
459.099	2140.41
459.472	2198.49
459.845	2238.94
460.218	2227.87
460.591	2281.88
460.964	2272.38
461.337	2346.05
461.71	2349.44
462.083	2398.26
462.456	2410.46
462.829	2404.58
463.201	2449.55
463.574	2478.03
463.947	2497.46
464.32	2574.75
464.692	2603.9
465.065	2631.24
465.438	2658.59
465.81	2708.98
466.183	2719.15
466.555	2802.54
466.928	2820.17
467.3	2796.44
467.672	2822.65
468.045	2917.56
468.417	2985.13
468.789	3011.35
469.161	2993.49
469.534	3078.24
469.906	3124.34
470.278	3175.86
470.65	3197.11
471.022	3276.88
471.394	3306.93
471.766	3373.37
472.138	3435.29
472.51	3493.82
472.882	3503.99
473.253	3607.26
473.625	3660.37
473.997	3754.83
474.369	3788.73
474.74	3821.72
475.112	3909.63
475.484	3998.67
475.855	4045.9
476.227	4112.34
476.598	4225.33
476.97	4276.4
477.341	4339.9
477.713	4433.46
478.084	4483.63
478.455	4564.3
478.827	4648.14
479.198	4800.23
479.569	4840.68
479.94	4983.95
480.311	5048.36
480.682	5181.69
481.053	5262.36
481.424	5370.16
481.795	5425.3
482.166	5534.9
482.537	5592.97
482.908	5714.33
483.279	5804.49
483.65	5933.3
484.021	5991.83
484.391	6122.68
484.762	6180.08
485.133	6262.56
485.503	6314.76
485.874	6521.31
486.244	6576
486.615	6683.57
486.985	6806.73
487.356	6968.76
487.726	7012.15
488.097	7209.88
488.467	7231.12
488.837	7362.87
489.207	7431.8
489.578	7572.81
489.948	7673.15
490.318	7796.08
490.688	7825.46
491.058	7926.92
491.428	8017.77
491.798	8150.42
492.168	8322.17
492.538	8361.04
492.908	8432.9
493.278	8627.7
493.648	8610.07
494.017	8685.55
494.387	8785.21
494.757	8836.5
495.126	8950.63
495.496	8975.26
495.866	9029.49
496.235	9127.57
496.605	9296.38
496.974	9309.26
497.344	9383.84
497.713	9445.75
498.082	9467.22
498.452	9562.36
498.821	9608.91
499.19	9658.4
499.559	9707.67
499.928	9798.74
500.298	9849.13
500.667	9949.02
501.036	9960.09
501.405	10057.72
501.774	10031.5
502.143	10042.35
502.512	10151.05
502.88	10227.65
503.249	10222.01
503.618	10272.17
503.987	10348.33
504.356	10331.83
504.724	10302.46
505.093	10422.9
505.462	10355.56
505.83	10504.48
506.199	10497.25
506.567	10671.48
506.936	10617.25
507.304	10673.74
507.672	10747.19
508.041	10685.5
508.409	10745.16
508.777	10838.71
509.145	10873.97
509.514	10923.91
509.882	10922.55
510.25	10986.05
510.618	10980.4
510.986	10953.96
511.354	11106.95
511.722	11044.81
512.09	11172.26
512.458	11133.39
512.826	11199.83
513.193	11241.87
513.561	11186.05
513.929	11249.55
514.297	11353.27
514.664	11305.59
515.032	11371.35
515.4	11355.99
515.767	11477.11
516.135	11428.98
516.502	11316.44
516.869	11490.22
517.237	11518.02
517.604	11382.65
517.972	11516.89
518.339	11607.05
518.706	11487.73
519.073	11509.2
519.44	11533.16
519.808	11609.09
520.175	11560.05
520.542	11669.2
520.909	11656.32
521.276	11539.71
521.643	11675.53
522.009	11655.41
522.376	11699.48
522.743	11671.91
523.11	11765.47
523.477	11812.7
523.843	11789.42
524.21	11832.81
524.577	11932.69
524.943	11855.18
525.31	11886.37
525.676	11901.06
526.043	11914.39
526.409	11896.76
526.776	11995.07
527.142	11985.8
527.508	11942.19
527.874	11937.67
528.241	11959.81
528.607	11933.37
528.973	11925.92
529.339	11909.42
529.705	11988.51
530.071	11943.77
530.437	11953.94
530.803	12044.56
531.169	11949.87
531.535	11916.42
531.901	11926.59
532.267	11894.96
532.632	11887.5
532.998	11876.2
533.364	11860.83
533.73	11810.44
534.095	11889.08
534.461	11778.8
534.826	11756.65
535.192	11824
535.557	11768.18
535.923	11683.89
536.288	11689.09
536.653	11669.65
537.019	11594.4
537.384	11578.35
537.749	11491.8
538.114	11510.11
538.479	11421.97
538.845	11505.36
539.21	11381.3
539.575	11316.89
539.94	11311.47
540.305	11249.32
540.67	11270.34
541.034	11155.77
541.399	11205.93
541.764	11194.18
542.129	11101.98
542.494	11100.63
542.858	11080.51
543.223	10919.16
543.587	11026.5
543.952	10931.82
544.316	10905.38
544.681	10834.19
545.045	10895.66
545.41	10856.34
545.774	10859.73
546.138	10769.79
546.503	10670.13
546.867	10607.31
547.231	10666.51
547.595	10612.96
547.959	10588.78
548.324	10600.98
548.688	10473.52
549.052	10459.74
549.416	10421.55
549.779	10388.33
550.143	10264.72
550.507	10262.91
550.871	10259.52
551.235	10213.87
551.599	10280.08
551.962	10136.81
552.326	10149.69
552.689	10201.21
553.053	10032.86
553.417	10009.13
553.78	10059.75
554.143	9997.38
554.507	9997.6
554.87	9954.89
555.234	9963.48
555.597	9873.54
555.96	9884.16
556.323	9866.08
556.686	9898.85
557.05	9851.85
557.413	9786.08
557.776	9811.62
558.139	9830.15
558.502	9782.02
558.865	9685.3
559.228	9754.67
559.59	9685.75
559.953	9722.13
560.316	9756.71
560.679	9658.4
561.041	9786.99
561.404	9694.34
561.767	9701.11
562.129	9642.59
562.492	9785.86
562.854	9674
563.217	9634.22
563.579	9616.37
563.941	9704.05
564.304	9699.53
564.666	9702.02
565.028	9648.91
565.39	9681.23
565.753	9709.25
566.115	9677.61
566.477	9671.29
566.839	9704.05
567.201	9682.58
567.563	9718.29
567.925	9740.21
568.287	9654.34
568.648	9676.48
569.01	9751.96
569.372	9699.31
569.734	9645.75
570.095	9753.77
570.457	9759.64
570.819	9669.03
571.18	9665.18
571.542	9693.43
571.903	9738.4
572.265	9789.47
572.626	9751.96
572.987	9716.93
573.349	9674.22
573.71	9749.93
574.071	9758.74
574.432	9663.6
574.794	9838.29
575.155	9781.11
575.516	9692.98
575.877	9731.4
576.238	9750.15
576.599	9780.43
576.96	9796.93
577.32	9693.21
577.681	9696.6
578.042	9722.36
578.403	9689.14
578.763	9754.22
579.124	9753.99
579.485	9790.38
579.845	9751.06
580.206	9755.8
580.566	9794.45
580.927	9765.07
581.287	9752.64
581.648	9716.71
582.008	9735.69
582.368	9744.28
582.728	9794.9
583.089	9702.24
583.449	9709.7
583.809	9752.41
584.169	9714.45
584.529	9631.29
584.889	9724.62
585.249	9598.07
585.609	9653.88
585.969	9613.89
586.329	9573.21
586.688	9620.44
587.048	9599.42
587.408	9522.14
587.768	9572.3
588.127	9551.06
588.487	9507.67
588.846	9595.36
589.206	9506.77
589.565	9556.03
589.925	9565.53
590.284	9469.93
590.643	9434.91
591.003	9515.81
591.362	9510.61
591.721	9490.05
592.08	9476.49
592.44	9485.3
592.799	9504.74
593.158	9425.64
593.517	9445.3
593.876	9574.11
594.235	9458.41
594.593	9477.39
594.952	9429.48
595.311	9414.57
595.67	9392.2
596.029	9458.86
596.387	9432.65
596.746	9425.87
597.104	9375.25
597.463	9394.68
597.822	9455.25
598.18	9422.03
598.538	9317.4
598.897	9456.15
599.255	9302.93
599.613	9490.5
599.972	9345.42
600.33	9395.59
600.688	9335.25
601.046	9358.3
601.404	9340.67
601.762	9378.19
602.12	9362.37
602.478	9406.43
602.836	9398.3
603.194	9358.07
603.552	9321.24
603.91	9324.63
604.268	9339.99
604.625	9325.76
604.983	9339.54
605.341	9271.75
605.698	9333.67
606.056	9344.74
606.413	9350.84
606.771	9342.25
607.128	9332.54
607.485	9268.58
607.843	9317.4
608.2	9416.38
608.557	9374.12
608.914	9248.02
609.272	9389.48
609.629	9393.78
609.986	9303.84
610.343	9393.1
610.7	9431.07
611.057	9362.37
611.414	9468.58
611.771	9410.5
612.127	9396.04
612.484	9407.79
612.841	9487.79
613.198	9437.17
613.554	9367.79
613.911	9417.05
614.267	9438.52
614.624	9439.88
614.98	9417.28
615.337	9458.86
615.693	9467.9
616.05	9418.41
616.406	9500.22
616.762	9483.49
617.118	9437.39
617.475	9491.18
617.831	9473.1
618.187	9471.06
618.543	9438.3
618.899	9526.88
619.255	9513.1
619.611	9524.62
619.967	9503.38
620.323	9553.1
620.678	9463.83
621.034	9543.83
621.39	9515.13
621.746	9470.84
622.101	9628.35
622.457	9498.41
622.812	9532.31
623.168	9579.54
623.523	9591.74
623.879	9563.94
624.234	9521.01
624.589	9469.03
624.945	9538.41
625.3	9505.41
625.655	9549.25
626.01	9551.74
626.365	9521.23
626.72	9560.1
627.075	9535.24
627.43	9494.57
627.785	9508.13
628.14	9562.14
628.495	9587.9
628.85	9528.24
629.205	9485.53
629.559	9511.97
629.914	9528.01
630.269	9478.75
630.623	9404.17
630.978	9468.35
631.332	9490.27
631.687	9473.78
632.041	9387.22
632.396	9476.26
632.75	9400.33
633.104	9445.98
633.459	9338.86
633.813	9365.98
634.167	9316.94
634.521	9328.7
634.875	9375.02
635.229	9293.44
635.583	9280.34
635.937	9314.91
636.291	9213.22
636.645	9284.63
636.999	9284.18
637.352	9242.37
637.706	9189.26
638.06	9233.78
638.413	9223.16
638.767	9208.92
639.121	9164.41
639.474	9144.29
639.828	9196.5
640.181	9113.56
640.534	9145.42
640.888	9066.1
641.241	9057.06
641.594	9097.29
641.947	9125.99
642.301	9146.78
642.654	9109.04
643.007	9166.44
643.36	9080.57
643.713	9095.48
644.066	9121.02
644.419	9044.64
644.771	8958.54
645.124	8954.69
645.477	8915.15
645.83	8866.56
646.182	8871.98
646.535	8799.67
646.888	8811.87
647.24	8796.05
647.593	8800.12
647.945	8744.08
648.298	8778.88
648.65	8734.13
649.002	8726.23
649.355	8847.13
649.707	8762.61
650.059	8770.74
650.411	8886.67
650.763	8949.72
651.115	9045.09
651.467	8993.34
651.819	8979.55
652.171	9043.28
652.523	8934.13
652.875	8974.35
653.227	8943.39
653.578	8961.47
653.93	9019.55
654.282	8940.68
654.633	8973.9
654.985	8916.05
655.337	8910.63
655.688	9024.52
656.039	9032.66
656.391	8930.06
656.742	8950.63
657.094	9001.47
657.445	9063.84
657.796	9013
658.147	8966.9
658.498	8946.78
658.849	8986.11
659.2	8965.77
659.551	8989.72
659.902	9020
660.253	9044.86
660.604	8987.69
660.955	8996.05
661.306	8978.2
661.656	9009.16
662.007	9045.31
662.358	9034.69
662.708	9076.05
663.059	9065.43
663.409	8944.07
663.76	9034.92
664.11	9043.96
664.461	9005.31
664.811	9011.42
665.161	9076.5
665.511	9027.69
665.862	9008.93
666.212	9032.66
666.562	9105.65
666.912	9060.91
667.262	9057.06
667.612	9029.49
667.962	9100
668.312	9068.59
668.662	9075.14
669.011	9070.85
669.361	8982.26
669.711	9022.71
670.06	9034.01
670.41	9007.35
670.76	9008.48
671.109	9080.34
671.459	9036.27
671.808	9009.83
672.157	9051.41
672.507	8917.86
672.856	8954.47
673.205	8905.88
673.554	9029.72
673.904	8935.94
674.253	9015.26
674.602	8969.83
674.951	8794.02
675.3	8729.62
675.649	8873.34
675.998	8890.06
676.346	8865.43
676.695	8877.41
677.044	8851.42
677.393	8846.45
677.741	8856.17
678.09	8895.03
678.438	8838.54
678.787	8835.38
679.135	8833.34
679.484	8749.73
679.832	8836.96
680.181	8803.06
680.529	8795.6
680.877	8742.5
681.225	8727.36
681.573	8758.77
681.922	8668.83
682.27	8709.73
682.618	8683.74
682.966	8653.01
683.314	8626.57
683.661	8687.13
684.009	8599
684.357	8644.87
684.705	8548.83
685.053	8519.68
685.4	8545.89
685.748	8572.78
686.095	8485.1
686.443	8520.13
686.79	8467.93
687.138	8495.5
687.485	8479.68
687.832	8400.36
688.18	8417.76
688.527	8387.7
688.874	8370.75
689.221	8361.26
689.568	8326.69
689.915	8265.22
690.262	8256.18
690.609	8182.51
690.956	8157.2
691.303	8204.88
691.65	8186.35
691.997	8154.71
692.344	8109.74
692.69	8067.49
693.037	8034.72
693.383	7958.79
693.73	8035.85
694.077	7979.58
694.423	7963.76
694.769	7923.08
695.116	7948.62
695.462	7868.17
695.808	7857.55
696.155	7846.47
696.501	7775.06
696.847	7770.32
697.193	7688.51
697.539	7759.25
697.885	7753.82
698.231	7674.05
698.577	7636.08
698.923	7605.58
699.269	7603.77
699.614	7539.59
699.96	7478.12
700.306	7481.51
700.651	7438.8
700.997	7471.12
701.342	7401.97
701.688	7367.62
702.033	7367.62
702.379	7341.18
702.724	7293.72
703.069	7309.54
703.415	7190.9
703.76	7177.79
704.105	7195.42
704.45	7207.17
704.795	7145.02
705.14	7114.97
705.485	7093.95
705.83	7039.94
706.175	7099.38
706.52	7043.56
706.865	7011.24
707.209	7035.2
707.554	6940.06
707.899	6977.8
708.243	6898.02
708.588	6913.62
708.932	6839.27
709.277	6835.43
709.621	6813.06
709.966	6791.59
710.31	6788.88
710.654	6764.92
710.998	6797.01
711.342	6779.38
711.687	6707.97
712.031	6672.04
712.375	6692.15
712.719	6702.32
713.063	6639.27
713.407	6709.78
713.75	6589.56
714.094	6597.69
714.438	6632.5
714.782	6617.35
715.125	6578.03
715.469	6595.21
715.812	6557.92
716.156	6536.23
716.499	6543.46
716.843	6576.45
717.186	6485.15
717.53	6550.24
717.873	6468.21
718.216	6495.55
718.559	6503.46
718.902	6471.37
719.246	6472.27
719.589	6413.74
719.932	6420.75
720.275	6410.58
720.617	6369.9
720.96	6438.83
721.303	6397.02
721.646	6425.72
721.989	6427.53
722.331	6419.17
722.674	6366.74
723.016	6423.24
723.359	6399.28
723.701	6349.56
724.044	6384.82
724.386	6296.46
724.729	6374.2
725.071	6352.5
725.413	6352.28
725.755	6376.46
726.097	6347.76
726.439	6293.29
726.782	6282.22
727.124	6293.07
727.465	6273.41
727.807	6260.98
728.149	6287.87
728.491	6272.05
728.833	6328.55
729.175	6267.76
729.516	6253.07
729.858	6262.11
730.199	6244.71
730.541	6310.24
730.882	6281.54
731.224	6327.64
731.565	6273.41
731.906	6307.53
732.248	6261.43
732.589	6267.31
732.93	6213.98
733.271	6249.45
733.612	6300.75
733.953	6272.73
734.294	6236.57
734.635	6279.28
734.976	6338.94
735.317	6259.4
735.658	6273.63
735.999	6221.43
736.339	6231.6
736.68	6290.36
737.021	6277.93
737.361	6244.93
737.702	6331.71
738.042	6289.45
738.383	6302.79
738.723	6319.73
739.063	6373.97
739.404	6354.08
739.744	6337.36
740.084	6336.91
740.424	6318.15
740.764	6299.4
741.104	6433.4
741.444	6349.34
741.784	6329.23
742.124	6406.06
742.464	6477.02
742.804	6472.05
743.143	6452.16
743.483	6543.23
743.823	6493.29
744.162	6526.51
744.502	6526.51
744.841	6553.85
745.181	6644.25
745.52	6634.75
745.86	6687.41
746.199	6685.83
746.538	6743.9
746.877	6768.08
747.216	6817.12
747.556	6823.9
747.895	6881.08
748.234	6896.67
748.573	6917.69
748.911	7045.37
749.25	7077
749.589	7121.52
749.928	7227.28
750.267	7291.69
750.605	7321.52
750.944	7359.71
751.283	7503.21
751.621	7513.38
751.96	7547.05
752.298	7731.45
752.636	7720.38
752.975	7882.63
753.313	7959.92
753.651	8121.95
753.989	8095.51
754.327	8213.92
754.666	8260.93
755.004	8463.63
755.342	8561.71
755.679	8702.27
756.017	8766.22
756.355	8959.21
756.693	9104.52
757.031	9121.7
757.368	9261.58
757.706	9324.63
758.044	9538.63
758.381	9664.51
758.719	9801.45
759.056	9929.58
759.394	10091.39
759.731	10214.1
760.068	10359.63
760.405	10520.75
760.743	10685.27
761.08	10888.2
761.417	10962.1
761.754	11245.03
762.091	11279.6
762.428	11406.15
762.765	11576.55
763.102	11783.09
763.438	11925.92
763.775	11967.95
764.112	12217.66
764.449	12445.68
764.785	12568.38
765.122	12695.84
765.458	12818.55
765.795	12985.32
766.131	13184.41
766.467	13376.95
766.804	13454.91
767.14	13530.62
767.476	13728.81
767.812	13802.25
768.148	14056.93
768.485	14073.2
768.821	14166.76
769.157	14361.56
769.492	14426.41
769.828	14581.66
770.164	14569.91
770.5	14652.4
770.836	14875.22
771.171	14953.86
771.507	15097.36
771.842	15086.28
772.178	15211.7
772.513	15285.15
772.849	15431.59
773.184	15448.99
773.519	15525.14
773.855	15608.53
774.19	15759.26
774.525	15802.65
774.86	15913.61
775.195	15914.06
775.53	15938.01
775.865	16027.28
776.2	15978.24
776.535	15976.66
776.87	16046.94
777.205	16044.45
777.539	16124.9
777.874	16283.99
778.209	16222.3
778.543	16223.66
778.878	16199.7
779.212	16189.08
779.547	16300.04
779.881	16404.44
780.215	16429.07
780.55	16507.26
780.884	16388.85
781.218	16422.97
781.552	16427.49
781.886	16436.31
782.22	16436.31
782.554	16424.33
782.888	16391.79
783.222	16452.35
783.556	16349.08
783.889	16346.59
784.223	16311.79
784.557	16342.07
784.89	16436.31
785.224	16408.96
785.557	16364.67
785.891	16357.89
786.224	16359.24
786.558	16403.54
786.891	16250.1
787.224	16261.39
787.557	16335.06
787.891	16331.68
788.224	16259.36
788.557	16278.34
788.89	16238.57
789.223	16319.25
789.556	16329.87
789.888	16220.27
790.221	16149.53
790.554	16113.38
790.887	16109.31
791.219	16086.48
791.552	16035.86
791.884	16078.12
792.217	15951.12
792.549	15874.96
792.882	15912.48
793.214	15867.51
793.546	15953.61
793.879	15817.11
794.211	15776.66
794.543	15746.83
794.875	15768.98
795.207	15796.55
795.539	15745.02
795.871	15741.86
796.203	15688.75
796.535	15608.98
796.867	15515.65
797.198	15472.94
797.53	15569.21
797.862	15480.85
798.193	15462.09
798.525	15361.76
798.856	15401.08
799.188	15291.02
799.519	15267.75
799.85	15192.5
800.182	15253.74
800.513	15288.76
800.844	15167.64
801.175	15181.65
801.506	15195.66
801.837	15039.51
802.168	15000.18
802.499	15002.67
802.83	14970.13
803.161	14919.96
803.491	14949.56
803.822	14976
804.153	14839.28
804.483	14800.87
804.814	14844.48
805.145	14753.19
805.475	14766.29
805.805	14716.12
806.136	14690.14
806.466	14690.59
806.796	14622.12
807.126	14620.53
807.457	14482.68
807.787	14491.72
808.117	14454.44
808.447	14422.12
808.777	14443.59
809.107	14432.52
809.436	14384.61
809.766	14291.73
810.096	14354.33
810.426	14268.9
810.755	14252.18
811.085	14164.27
811.414	14176.7
811.744	14152.98
812.073	14043.15
812.403	14102.58
812.732	14043.37
813.061	13958.63
813.39	13896.03
813.719	13944.39
814.049	13997.95
814.378	13913.43
814.707	13869.59
815.036	13813.32
815.365	13839.99
815.693	13665.3
816.022	13719.31
816.351	13718.86
816.68	13678.86
817.008	13689.71
817.337	13627.34
817.665	13642.71
817.994	13600.9
818.322	13623.05
818.651	13498.08
818.979	13523.16
819.307	13580.79
819.636	13452.43
819.964	13449.49
820.292	13474.12
820.62	13460.11
820.948	13415.82
821.276	13420.34
821.604	13425.08
821.932	13439.55
822.259	13503.73
822.587	13461.69
822.915	13421.24
823.243	13455.59
823.57	13361.13
823.898	13409.49
824.225	13453.11
824.553	13360
824.88	13339.89
825.207	13470.28
825.535	13481.58
825.862	13432.09
826.189	13362.04
826.516	13477.96
826.843	13443.39
827.17	13512.99
827.497	13539.66
827.824	13479.09
828.151	13523.61
828.478	13452.88
828.805	13522.26
829.131	13409.72
829.458	13463.5
829.785	13392.32
830.111	13484.74
830.438	13505.99
830.764	13479.77
831.09	13524.29
831.417	13385.31
831.743	13420.11
832.069	13342.6
832.395	13418.53
832.722	13432.54
833.048	13344.41
833.374	13456.27
833.7	13273
834.026	13322.26
834.351	13318.65
834.677	13315.71
835.003	13303.73
835.329	13278.65
835.654	13299.21
835.98	13275.03
836.306	13287.01
836.631	13199.55
836.956	13273.68
837.282	13231.87
837.607	13202.94
837.932	13135.83
838.258	13204.07
838.583	13147.8
838.908	13134.25
839.233	13113
839.558	13076.62
839.883	12992.1
840.208	13016.73
840.533	13023.74
840.858	12988.71
841.182	13007.69
841.507	12946.91
841.832	12863.74
842.156	12896.96
842.481	12839.79
842.805	12832.11
843.13	12778.32
843.454	12795.95
843.778	12734.48
844.103	12729.28
844.427	12634.82
844.751	12697.42
845.075	12615.39
845.399	12602.51
845.723	12481.15
846.047	12526.58
846.371	12436.64
846.695	12504.88
847.019	12361.16
847.343	12299.92
847.666	12240.71
847.99	12245
848.313	12120.49
848.637	12105.57
848.96	11990.55
849.284	12091.11
849.607	11966.37
849.931	12001.17
850.254	11871.23
850.577	11845.69
850.9	11793.26
851.223	11727.5
851.546	11717.56
851.869	11583.1
852.192	11665.81
852.515	11542.2
852.838	11553.95
853.161	11562.08
853.483	11410
853.806	11403.9
854.129	11439.83
854.451	11338.36
854.774	11332.94
855.096	11256.78
855.419	11255.42
855.741	11163.22
856.063	11113.51
856.385	11080.51
856.708	11037.58
857.03	11055.43
857.352	11060.85
857.674	11009.56
857.996	10977.92
858.318	10872.16
858.64	10836.23
858.961	10868.09
859.283	10793.74
859.605	10852.72
859.926	10811.82
860.248	10730.01
860.57	10670.81
860.891	10664.71
861.212	10604.82
861.534	10713.29
861.855	10525.95
862.176	10647.98
862.498	10565.95
862.819	10616.12
863.14	10547.19
863.461	10507.87
863.782	10512.85
864.103	10506.29
864.424	10477.37
864.745	10418.38
865.065	10433.98
865.386	10387.88
865.707	10405.5
866.027	10397.14
866.348	10388.33
866.668	10353.98
866.989	10332.74
867.309	10185.62
867.63	10319.63
867.95	10287.09
868.27	10167.54
868.59	10198.28
868.91	10228.56
869.23	10171.84
869.55	10146.75
869.87	10120.76
870.19	10156.7
870.51	10165.51
870.83	10146.53
871.15	10095.45
871.469	10125.74
871.789	10079.86
872.109	10071.73
872.428	10010.26
872.748	10040.32
873.067	10001.45
873.386	10063.14
873.706	10012.52
874.025	9952.18
874.344	9902.01
874.663	9910.83
874.982	9896.36
875.301	9899.53
875.62	9936.81
875.939	9866.31
876.258	9901.11
876.577	9818.17
876.896	9844.61
877.214	9825.63
877.533	9748.8
877.852	9753.09
878.17	9821.11
878.489	9698.86
878.807	9721.68
879.125	9665.64
879.444	9722.13
879.762	9643.94
880.08	9658.4
880.398	9642.36
880.716	9592.87
881.034	9622.02
881.352	9586.54
881.67	9567.33
881.988	9516.04
882.306	9534.11
882.624	9428.35
882.941	9373.21
883.259	9390.84
883.577	9407.11
883.894	9320.11
884.212	9379.77
884.529	9429.26
884.846	9377.73
885.164	9362.14
885.481	9340.22
885.798	9317.17
886.115	9197.63
886.432	9215.48
886.75	9183.16
887.067	9142.49
887.383	9127.34
887.7	9198.98
888.017	9078.98
888.334	9155.37
888.651	9067.69
888.967	9083.05
889.284	8987.91
889.6	8955.15
889.917	8942.26
890.233	8943.17
890.55	8872.66
890.866	8906.79
891.182	8857.52
891.498	8826.11
891.815	8840.8
892.131	8806.22
892.447	8714.93
892.763	8755.6
893.079	8790.4
893.395	8677.87
893.71	8697.98
894.026	8653.91
894.342	8638.54
894.657	8531.43
894.973	8531.2
895.289	8524.2
895.604	8546.12
895.92	8456.85
896.235	8407.36
896.55	8472.67
896.865	8396.97
897.181	8319
897.496	8327.82
897.811	8322.85
898.126	8290.3
898.441	8261.6
898.756	8258.44
899.071	8145.68
899.386	8153.59
899.7	8108.61
900.015	8079.01
900.33	8073.14
900.644	8025.9
900.959	7995.85
901.273	7919.01
901.588	7965.34
901.902	7867.26
902.216	7865.23
902.531	7868.62
902.845	7839.24
903.159	7802.18
903.473	7744.33
903.787	7771.45
904.101	7667.95
904.415	7603.32
904.729	7655.07
905.042	7677.89
905.356	7590.21
905.67	7596.54
905.984	7584.11
906.297	7499.14
906.611	7521.51
906.924	7474.51
907.237	7429.08
907.551	7393.83
907.864	7312.93
908.177	7352.25
908.491	7308.41
908.804	7287.39
909.117	7250.56
909.43	7183.67
909.743	7164.68
910.056	7150.9
910.368	7126.72
910.681	7125.82
910.994	7115.42
911.307	7058.02
911.619	6999.94
911.932	7022.77
912.244	6977.12
912.557	7004.91
912.869	6936.22
913.181	6838.14
913.494	6882.66
913.806	6815.99
914.118	6763.79
914.43	6740.06
914.742	6709.78
915.054	6775.09
915.366	6701.42
915.678	6698.93
915.99	6619.61
916.302	6565.38
916.613	6539.39
916.925	6545.27
917.236	6508.43
917.548	6475.44
917.859	6496.91
918.171	6454.65
918.482	6395.21
918.794	6408.55
919.105	6356.57
919.416	6319.96
919.727	6337.81
920.038	6299.4
920.349	6265.5
920.66	6253.07
920.971	6248.78
921.282	6252.84
921.593	6136.01
921.903	6137.82
922.214	6058.95
922.525	6113.86
922.835	6064.6
923.146	6059.63
923.456	6037.93
923.767	5982.57
924.077	6014.43
924.387	5955
924.697	5918.16
925.008	5929.01
925.318	5866.41
925.628	5876.81
925.938	5833.19
926.248	5730.37
926.558	5771.5
926.867	5781.44
927.177	5744.38
927.487	5761.56
927.796	5660.09
928.106	5650.15
928.416	5638.85
928.725	5658.51
929.034	5623.48
929.344	5596.82
929.653	5576.03
929.962	5516.14
930.271	5492.86
930.581	5440.66
930.89	5447.22
931.199	5423.04
931.508	5413.09
931.817	5398.86
932.125	5383.49
932.434	5351.62
932.743	5284.06
933.051	5308.46
933.36	5311.63
933.669	5197.96
933.977	5235.24
934.286	5184.17
934.594	5180.78
934.902	5139.65
935.21	5125.64
935.519	5134.68
935.827	5105.98
936.135	5069.82
936.443	5059.2
936.751	5020.79
937.059	5017.4
937.367	5028.92
937.674	5015.36
937.982	4948.47
938.29	4931.52
938.597	4969.94
938.905	4893.78
939.213	4906.66
939.52	4847.91
939.827	4861.02
940.135	4841.81
940.442	4810.17
940.749	4759.32
941.056	4808.14
941.363	4733.56
941.67	4728.82
941.977	4697.63
942.284	4693.34
942.591	4688.14
942.898	4661.47
943.205	4610.63
943.511	4651.53
943.818	4620.12
944.125	4564.07
944.431	4576.73
944.738	4538.54
945.044	4516.84
945.35	4487.01
945.657	4431.65
945.963	4476.85
946.269	4432.55
946.575	4392.1
946.881	4390.75
947.187	4402.95
947.493	4337.19
947.799	4362.72
948.105	4342.84
948.41	4297.64
948.716	4299.9
949.022	4257.19
949.327	4276.62
949.633	4208.38
949.938	4244.08
950.244	4191.2
950.549	4177.87
950.854	4183.07
951.16	4085.22
951.465	4082.51
951.77	4061.26
952.075	4075.27
952.38	4110.08
952.685	4095.16
952.99	4003.86
953.294	4018.33
953.599	4015.61
953.904	3962.28
954.209	3966.8
954.513	3953.92
954.818	3896.52
955.122	3932.45
955.426	3896.52
955.731	3911.66
956.035	3821.72
956.339	3828.05
956.643	3865.34
956.948	3794.38
957.252	3722.74
957.556	3812.91
957.86	3748.5
958.163	3754.15
958.467	3708.73
958.771	3713.93
959.075	3699.01
959.378	3708.5
959.682	3702.18
959.985	3638.45
960.289	3620.37
960.592	3610.43
960.896	3615.85
961.199	3577.21
961.502	3576.3
961.805	3570.2
962.108	3524.55
962.411	3508.51
962.714	3520.03
963.017	3495.85
963.32	3471.9
963.623	3502.63
963.926	3487.95
964.228	3467.15
964.531	3436.65
964.833	3428.96
965.136	3412.24
965.438	3398.23
965.741	3343.77
966.043	3365.24
966.345	3377.21
966.648	3344.67
966.95	3355.07
967.252	3278.23
967.554	3289.08
967.856	3264
968.158	3221.06
968.46	3217.67
968.761	3198.46
969.063	3233.04
969.365	3194.17
969.666	3205.69
969.968	3180.16
970.269	3138.35
970.571	3147.39
970.872	3144.68
971.174	3134.06
971.475	3091.35
971.776	3072.36
972.077	3041.4
972.378	3102.19
972.679	3017.9
972.98	3049.76
973.281	3019.71
973.582	3007.28
973.883	3001.63
974.183	2984
974.484	3005.47
974.785	2958.02
975.085	2954.63
975.386	2945.13
975.686	2908.3
975.986	2934.74
976.287	2953.72
976.587	2881.41
976.887	2890.22
977.187	2879.15
977.487	2867.17
977.787	2852.26
978.087	2798.25
978.387	2806.38
978.687	2781.97
978.987	2788.3
979.286	2792.6
979.586	2771.81
979.885	2729.32
980.185	2715.31
980.484	2697.68
980.784	2718.7
981.083	2719.15
981.382	2650.23
981.682	2674.86
981.981	2692.71
982.28	2668.53
982.579	2632.83
982.878	2625.14
983.177	2642.09
983.475	2621.75
983.774	2603.9
984.073	2596.89
984.372	2551.47
984.67	2593.96
984.969	2574.75
985.267	2491.14
985.566	2512.15
985.864	2513.73
986.162	2512.83
986.461	2487.52
986.759	2495.88
987.057	2481.42
987.355	2476.22
987.653	2483.9
987.951	2431.25
988.249	2454.3
988.547	2428.31
988.844	2442.77
989.142	2422.21
989.44	2415.66
989.737	2368.2
990.035	2367.75
990.332	2370.69
990.63	2329.56
990.927	2303.12
991.224	2322.78
991.521	2344.02
991.819	2300.41
992.116	2279.39
992.413	2287.07
992.71	2277.58
993.006	2227.64
993.303	2280.52
993.6	2249.33
993.897	2210.69
994.193	2260.18
994.49	2202.1
994.787	2196.45
995.083	2174.08
995.379	2181.09
995.676	2135.66
995.972	2138.38
996.268	2136.57
996.565	2130.01
996.861	2136.79
997.157	2102.44
997.453	2129.79
997.749	2074.65
998.044	2087.3
998.34	2053.86
998.636	2066.97
998.932	2051.15
999.227	2043.24
999.523	2051.82
999.818	2016.12
1000.114	1988.55
1000.409	1972.73
1000.704	1989.23
1001	1977.25
1001.295	1957.36
1001.59	1967.31
1001.885	1934.31
1002.18	1923.47
1002.475	1921.43
1002.77	1909
1003.065	1913.52
1003.359	1893.18
1003.654	1886.86
1003.949	1868.33
1004.243	1849.8
1004.538	1856.58
1004.832	1848.67
1005.127	1854.99
1005.421	1802.57
1005.715	1822.23
1006.009	1828.55
1006.304	1768.44
1006.598	1775.45
1006.892	1773.19
1007.186	1741.32
1007.48	1746.52
1007.773	1753.75
1008.067	1735.45
1008.361	1718.95
1008.655	1732.96
1008.948	1686.18
1009.242	1705.39
1009.535	1709.01
1009.829	1664.04
1010.122	1676.92
1010.415	1638.5
1010.708	1648.45
1011.001	1633.98
1011.295	1639.63
1011.588	1655.9
1011.881	1617.49
1012.173	1622.46
1012.466	1579.97
1012.759	1589.46
1013.052	1566.87
1013.344	1573.65
1013.637	1560.76
1013.93	1573.87
1014.222	1549.01
1014.514	1518.28
1014.807	1511.5
1015.099	1528.67
1015.391	1520.99
1015.683	1484.38
1015.976	1507.88
1016.268	1459.98
1016.56	1480.77
1016.851	1460.88
1017.143	1448
1017.435	1445.06
1017.727	1423.59
1018.018	1446.19
1018.31	1397.83
1018.602	1402.58
1018.893	1403.48
1019.185	1400.32
1019.476	1389.02
1019.767	1384.5
1020.058	1366.19
1020.35	1357.61
1020.641	1349.92
1020.932	1309.92
1021.223	1319.41
1021.514	1347.44
1021.804	1307.66
1022.095	1289.58
1022.386	1294.1
1022.677	1287.78
1022.967	1260.21
1023.258	1293.2
1023.548	1273.99
1023.839	1257.5
1024.129	1238.29
1024.419	1243.94
1024.709	1224.28
1025	1218.85
1025.29	1203.03
1025.58	1241.9
1025.87	1204.62
1026.16	1200.1
1026.449	1203.49
1026.739	1162.81
1027.029	1190.83
1027.319	1168.23
1027.608	1163.26
1027.898	1156.03
1028.187	1143.15
1028.477	1137.72
1028.766	1141.34
1029.055	1125.52
1029.344	1142.24
1029.634	1082.58
1029.923	1105.86
1030.212	1079.87
1030.501	1098.18
1030.79	1076.48
1031.078	1044.39
1031.367	1070.38
1031.656	1077.84
1031.945	1054.11
1032.233	1037.16
1032.522	1066.09
1032.81	1029.7
1033.099	1020.44
1033.387	1020.44
1033.675	1008.01
1033.963	1017.5
1034.251	999.87
1034.54	1007.78
1034.828	997.84
1035.116	987.9
1035.403	978.63
1035.691	981.8
1035.979	989.48
1036.267	958.97
1036.554	931.18
1036.842	940.89
1037.129	948.8
1037.417	937.28
1037.704	903.83
1037.992	916.71
1038.279	902.48
1038.566	918.75
1038.853	918.75
1039.14	918.75
