Data from hue_60_FLMS001491_4.txt Node
Date: Mon Feb 06 15:11:50 GMT 2017
User: dcchb
Spectrometer: FLMS00149
Trigger mode: 0
Integration Time (sec): 2.000000E-2
Scans to average: 10
Electric dark correction enabled: true
Nonlinearity correction enabled: false
Boxcar width: 0
XAxis mode: Wavelengths
Number of Pixels in Spectrum: 2048
>>>>>Begin Spectral Data<<<<<
341.393	-6.44
341.776	-6.44
342.16	-6.44
342.543	-61.13
342.927	-45.99
343.31	-61.13
343.693	-69.26
344.077	-58.87
344.46	-53.22
344.843	-40.11
345.226	-33.11
345.61	-40.34
345.993	-44.18
346.376	4.41
346.759	8.25
347.142	39.89
347.525	34.46
347.908	62.48
348.291	50.73
348.674	100.9
349.057	99.09
349.44	129.38
349.823	142.03
350.206	180.67
350.588	199.66
350.971	225.87
351.354	248.47
351.737	254.12
352.119	264.74
352.502	274
352.884	308.81
353.267	294.79
353.65	319.43
354.032	303.38
354.414	312.2
354.797	334.79
355.179	325.53
355.562	339.31
355.944	341.8
356.326	344.28
356.709	322.59
357.091	357.39
357.473	367.33
357.855	366.43
358.238	348.35
358.62	352.65
359.002	328.69
359.384	340.44
359.766	346.54
360.148	361.69
360.53	361.91
360.912	330.95
361.294	363.27
361.676	363.49
362.057	344.06
362.439	368.24
362.821	330.05
363.203	364.62
363.584	320.78
363.966	323.95
364.348	343.61
364.729	323.72
365.111	321.23
365.493	310.61
365.874	314.91
366.256	323.04
366.637	318.07
367.019	335.47
367.4	300.67
367.781	330.05
368.163	337.73
368.544	314
368.925	322.82
369.306	330.05
369.688	308.35
370.069	315.58
370.45	328.47
370.831	320.78
371.212	313.55
371.593	309.26
371.974	319.43
372.355	301.12
372.736	321.01
373.117	317.84
373.498	334.34
373.879	324.85
374.26	316.94
374.641	318.97
375.021	315.58
375.402	313.33
375.783	325.08
376.163	326.43
376.544	309.03
376.925	328.24
377.305	325.75
377.686	339.31
378.066	330.5
378.447	350.16
378.827	318.3
379.208	329.6
379.588	363.04
379.968	347.67
380.349	357.84
380.729	343.61
381.109	369.59
381.489	364.4
381.87	346.77
382.25	325.98
382.63	342.48
383.01	346.54
383.39	360.78
383.77	348.35
384.15	333.66
384.53	356.94
384.91	343.61
385.29	330.73
385.67	350.39
386.049	346.54
386.429	354.23
386.809	356.49
387.189	356.26
387.568	361.46
387.948	349.03
388.328	369.59
388.707	353.1
389.087	347
389.466	380.67
389.846	378.86
390.225	361.46
390.605	370.72
390.984	388.35
391.363	393.32
391.743	360.56
392.122	392.65
392.501	372.08
392.881	361.69
393.26	378.86
393.639	371.63
394.018	368.46
394.397	374.79
394.776	384.06
395.155	381.57
395.534	382.93
395.913	392.65
396.292	380.22
396.671	385.64
397.05	374.79
397.429	401.01
397.808	397.84
398.186	413.89
398.565	392.65
398.944	387.22
399.323	390.39
399.701	398.29
400.08	408.69
400.458	400.55
400.837	404.4
401.215	419.09
401.594	403.27
401.972	412.08
402.351	388.13
402.729	426.54
403.107	419.54
403.486	399.88
403.864	415.24
404.242	413.89
404.62	424.28
404.999	427.45
405.377	434
405.755	403.49
406.133	416.15
406.511	423.15
406.889	420.89
407.267	423.15
407.645	408.01
408.023	442.59
408.401	442.59
408.779	433.1
409.156	414.57
409.534	436.49
409.912	429.71
410.29	445.53
410.667	462.93
411.045	457.05
411.422	449.37
411.8	459.54
412.178	462.25
412.555	462.47
412.933	474.45
413.31	462.25
413.687	485.98
414.065	475.35
414.442	474.9
414.819	482.59
415.197	497.73
415.574	493.21
415.951	501.34
416.328	490.27
416.705	525.52
417.082	504.05
417.46	514.68
417.837	492.3
418.214	517.61
418.591	510.83
418.967	512.19
419.344	521.23
419.721	518.52
420.098	536.6
420.475	511.29
420.852	520.55
421.228	516.03
421.605	519.65
421.982	538.63
422.358	542.25
422.735	544.05
423.111	553.32
423.488	562.36
423.864	570.49
424.241	546.54
424.617	566.43
424.994	535.24
425.37	564.84
425.746	564.84
426.123	562.36
426.499	575.24
426.875	575.92
427.251	584.73
427.627	560.32
428.003	580.66
428.379	591.51
428.756	624.5
429.132	603.03
429.507	611.17
429.883	591.28
430.259	638.97
430.635	629.47
431.011	609.14
431.387	623.83
431.763	653.66
432.138	655.01
432.514	656.14
432.89	631.28
433.265	669.7
433.641	658.63
434.016	669.02
434.392	666.08
434.767	669.25
435.143	675.8
435.518	683.03
435.894	681.9
436.269	692.07
436.644	697.27
437.02	711.73
437.395	715.57
437.77	709.25
438.145	728.23
438.52	717.83
438.895	719.64
439.271	734.1
439.646	742.24
440.021	736.36
440.395	747.66
440.77	735.46
441.145	739.98
441.52	780.21
441.895	762.58
442.27	758.51
442.645	778.17
443.019	772.97
443.394	763.71
443.769	789.24
444.143	783.6
444.518	802.13
444.892	792.86
445.267	789.92
445.641	775.01
446.016	810.04
446.39	809.13
446.764	808.45
447.139	826.53
447.513	831.5
447.887	826.53
448.262	829.7
448.636	835.12
449.01	829.24
449.384	822.92
449.758	828.34
450.132	847.32
450.506	869.47
450.88	880.09
451.254	878.06
451.628	869.24
452.002	890.03
452.376	908.56
452.75	886.19
453.123	901.56
453.497	949.92
453.871	915.12
454.244	937.72
454.618	918.05
454.992	944.95
455.365	972.74
455.739	978.62
456.112	971.61
456.486	959.86
456.859	1002.8
457.232	993.76
457.606	1006.41
457.979	1019.52
458.352	1042.57
458.725	1048.45
459.099	1037.83
459.472	1047.09
459.845	1085.73
460.218	1088.22
460.591	1092.97
460.964	1064.04
461.337	1123.7
461.71	1128.22
462.083	1144.72
462.456	1149.69
462.829	1182.45
463.201	1175.9
463.574	1189.69
463.947	1208.89
464.32	1207.54
464.692	1266.52
465.065	1247.54
465.438	1294.32
465.81	1296.58
466.183	1339.06
466.555	1325.95
466.928	1359.4
467.3	1346.52
467.672	1375.67
468.045	1422.9
468.417	1440.08
468.789	1452.28
469.161	1483.69
469.534	1519.17
469.906	1540.19
470.278	1573.86
470.65	1568.89
471.022	1601.65
471.394	1635.55
471.766	1658.37
472.138	1681.88
472.51	1758.94
472.882	1795.09
473.253	1838.26
473.625	1854.75
473.997	1918.71
474.369	1927.75
474.74	1978.59
475.112	2022.88
475.484	2077.8
475.855	2097.46
476.227	2180.39
476.598	2253.39
476.97	2297.45
477.341	2325.02
477.713	2414.29
478.084	2461.52
478.455	2581.74
478.827	2607.28
479.198	2699.03
479.569	2741.28
479.94	2811.11
480.311	2908.51
480.682	2971.56
481.053	3149.86
481.424	3182.63
481.795	3286.13
482.166	3360.48
482.537	3489.96
482.908	3614.71
483.279	3653.35
483.65	3781.48
484.021	3954.59
484.391	4004.98
484.762	4132.89
485.133	4219.66
485.503	4297.63
485.874	4523.16
486.244	4573.78
486.615	4784.85
486.985	4874.79
487.356	4995.69
487.726	5117.94
488.097	5314.55
488.467	5411.04
488.837	5626.18
489.207	5768.1
489.578	5898.26
489.948	6048.99
490.318	6226.62
490.688	6328.76
491.058	6537.12
491.428	6679.94
491.798	6891.01
492.168	7088.97
492.538	7180.72
492.908	7386.59
493.278	7519.01
493.648	7649.63
494.017	7913.13
494.387	8032.44
494.757	8222.04
495.126	8371.64
495.496	8569.38
495.866	8689.83
496.235	8892.31
496.605	9106.99
496.974	9185.86
497.344	9408.68
497.713	9508.34
498.082	9733.64
498.452	9851.61
498.821	10068.1
499.19	10195.78
499.559	10357.13
499.928	10521.19
500.298	10749.89
500.667	10855.19
501.036	10957.56
501.405	11168.63
501.774	11222.42
502.143	11486.14
502.512	11579.7
502.88	11847.49
503.249	12004.32
503.618	12121.15
503.987	12300.13
504.356	12408.6
504.724	12549.39
505.093	12780.79
505.462	12831.41
505.83	13034.57
506.199	13235.25
506.567	13350.95
506.936	13495.8
507.304	13677.95
507.672	13869.58
508.041	13993.87
508.409	14133.3
508.777	14372.39
509.145	14518.6
509.514	14578.26
509.882	14811.02
510.25	14932.15
510.618	15059.15
510.986	15255.98
511.354	15352.48
511.722	15560.61
512.09	15824.78
512.458	15768.74
512.826	16067.04
513.193	16110.42
513.561	16181.83
513.929	16449.4
514.297	16599.9
514.664	16800.12
515.032	16936.16
515.4	17050.06
515.767	17158.98
516.135	17364.85
516.502	17328.02
516.869	17652.53
517.237	17783.37
517.604	17868.12
517.972	18002.8
518.339	18197.83
518.706	18277.37
519.073	18412.28
519.44	18644.37
519.808	18829.45
520.175	18938.37
520.542	19210.68
520.909	19302.2
521.276	19330.45
521.643	19577.68
522.009	19824.45
522.376	19888.63
522.743	20010.66
523.11	20258.79
523.477	20472.12
523.843	20584.2
524.21	20944.2
524.577	20920.47
524.943	21101.25
525.31	21276.16
525.676	21430.28
526.043	21708.69
526.409	21779.2
526.776	21893.77
527.142	21963.15
527.508	22167.44
527.874	22457.83
528.241	22492.4
528.607	22566.53
528.973	22776.69
529.339	22877.25
529.705	23140.97
530.071	23207.64
530.437	23371.48
530.803	23540.06
531.169	23680.17
531.535	23794.06
531.901	23798.13
532.267	23990.44
532.632	24081.06
532.998	24171
533.364	24409.41
533.73	24442.18
534.095	24622.52
534.461	24733.25
534.826	24814.38
535.192	24823.64
535.557	25143.18
535.923	25153.58
536.288	25318.09
536.653	25377.75
537.019	25420.46
537.384	25513.11
537.749	25615.94
538.114	25684.41
538.479	25766.22
538.845	26000.56
539.21	25919.43
539.575	26064.74
539.94	26111.74
540.305	26374.11
540.67	26286.65
541.034	26445.75
541.399	26563.26
541.764	26654.1
542.129	26712.4
542.494	26803.93
542.858	26937.71
543.223	26979.97
543.587	27168.89
543.952	27034.43
544.316	27144.94
544.681	27203.69
545.045	27503.57
545.41	27557.35
545.774	27596
546.138	27661.98
546.503	27793.51
546.867	27751.47
547.231	28008.64
547.595	27985.37
547.959	28131.58
548.324	28176.32
548.688	28254.51
549.052	28308.3
549.416	28478.01
549.779	28447.05
550.143	28559.59
550.507	28661.96
550.871	28856.3
551.235	28840.26
551.599	29110.31
551.962	29168.39
552.326	29263.75
552.689	29416.97
553.053	29281.38
553.417	29555.95
553.78	29843.62
554.143	29666.23
554.507	29832.1
554.87	29914.13
555.234	30104.86
555.597	30024.18
555.96	30235.48
556.323	30293.33
556.686	30446.32
557.05	30618.74
557.413	30755.46
557.776	30732.64
558.139	31124.04
558.502	31107.32
558.865	31115.68
559.228	31425.5
559.59	31467.99
559.953	31602.9
560.316	31927.18
560.679	31977.58
561.041	32046.95
561.404	32241.07
561.767	32368.3
562.129	32353.61
562.492	32742.08
562.854	32589.31
563.217	32787.05
563.579	32879.02
563.941	33171.44
564.304	33204.89
564.666	33497.31
565.028	33519.91
565.39	33634.93
565.753	33756.06
566.115	33923.51
566.477	34063.85
566.839	34091.87
567.201	34386.78
567.563	34364.18
567.925	34538.64
568.287	34717.62
568.648	34780.22
569.01	34931.62
569.372	35042.36
569.734	35014.79
570.095	35266.98
570.457	35434.66
570.819	35465.17
571.18	35500.42
571.542	35842.56
571.903	35723.24
572.265	35982.9
572.626	36079.39
572.987	36018.37
573.349	36222.44
573.71	36469.21
574.071	36501.07
574.432	36626.27
574.794	36783.55
575.155	36666.49
575.516	36637.79
575.877	36896.32
576.238	37037.11
576.599	37117.78
576.96	37082.08
577.32	36995.75
577.681	37136.54
578.042	37313.26
578.403	37397.32
578.763	37508.73
579.124	37454.04
579.485	37644.32
579.845	37784.2
580.206	37725.22
580.566	37682.06
580.927	37766.58
581.287	38044.99
581.648	37901.94
582.008	38006.57
582.368	37934.48
582.728	38058.77
583.089	37965.44
583.449	37906.46
583.809	38085.89
584.169	38142.61
584.529	38044.54
584.889	38329.27
585.249	38090.41
585.609	38011.32
585.969	38305.09
586.329	38150.97
586.688	38255.83
587.048	38329.5
587.408	38225.1
587.768	38253.12
588.127	38241.59
588.487	38154.14
588.846	38471.19
589.206	38251.31
589.565	38343.06
589.925	38523.62
590.284	38486.33
590.643	38421.48
591.003	38656.95
591.362	38592.32
591.721	38580.12
592.08	38585.99
592.44	38711.41
592.799	38670.73
593.158	38653.11
593.517	38726.78
593.876	38733.56
594.235	38737.85
594.593	38722.03
594.952	38738.76
595.311	38804.29
595.67	38872.54
596.029	38997.51
596.387	39125.64
596.746	39069.82
597.104	38950.95
597.463	39005.87
597.822	39100.33
598.18	39043.83
598.538	38948.69
598.897	39136.94
599.255	38934.68
599.613	39314.11
599.972	39314.11
600.33	39373.09
600.688	39325.63
601.046	39381.22
601.404	39613.31
601.762	39422.58
602.12	39625.29
602.478	39587.32
602.836	39557.94
603.194	39470.49
603.552	39599.3
603.91	39404.27
604.268	39763.81
604.625	39597.72
604.983	39787.32
605.341	39759.75
605.698	39800.2
606.056	40009.91
606.413	39974.2
606.771	40082
607.128	40165.84
607.485	39990.47
607.843	40077.03
608.2	40358.15
608.557	40418.94
608.914	40369.67
609.272	40658.03
609.629	40615.54
609.986	40764.01
610.343	40579.84
610.7	40942.77
611.057	40844.69
611.414	40766.95
611.771	40877.91
612.127	41018.47
612.484	41063.89
612.841	41142.08
613.198	40902.77
613.554	41147.28
613.911	41423.2
614.267	41321.06
614.624	41268.18
614.98	41472.24
615.337	41545.91
615.693	41536.42
616.05	41563.31
616.406	41785.91
616.762	41781.61
617.118	41654.16
617.475	41682.41
617.831	41802.86
618.187	41814.83
618.543	41893.02
618.899	42156.74
619.255	42217.99
619.611	42149.06
619.967	42401.71
620.323	42439.45
620.678	42249.85
621.034	42203.98
621.39	42233.58
621.746	42206.69
622.101	42694.13
622.457	42375.5
622.812	42452.78
623.168	42553.12
623.523	42465.89
623.879	42621.82
624.234	42354.93
624.589	42550.86
624.945	42628.37
625.3	42559.67
625.655	42723.28
626.01	42721.25
626.365	42774.36
626.72	42758.54
627.075	42596.28
627.43	42697.75
627.785	42673.57
628.14	42858.87
628.495	42864.75
628.85	42611.42
629.205	42585.21
629.559	42765.09
629.914	42643.96
630.269	42700.69
630.623	42630.4
630.978	42531.65
631.332	42760.34
631.687	42786.11
632.041	42591.99
632.396	42772.55
632.75	42486.68
633.104	42557.41
633.459	42339.79
633.813	42482.16
634.167	42577.3
634.521	42463.4
634.875	42479.45
635.229	42380.47
635.583	42180.47
635.937	42226.57
636.291	42356.51
636.645	42334.37
636.999	42190.19
637.352	42396.74
637.706	42185.44
638.06	42306.8
638.413	42217.08
638.767	42058.22
639.121	42210.75
639.474	41813.25
639.828	41957.88
640.181	42059.35
640.534	42156.29
640.888	41927.6
641.241	41747.26
641.594	41975.73
641.947	41960.37
642.301	41738.68
642.654	41846.92
643.007	41764.89
643.36	41735.29
643.713	41718.34
644.066	41852.35
644.419	41555.18
644.771	41164.23
645.124	40954.74
645.477	40853.73
645.83	40717.46
646.182	40481.76
646.535	40387.3
646.888	40469.11
647.24	40288.77
647.593	40553.4
647.945	40457.13
648.298	40303.91
648.65	40204.03
649.002	40215.55
649.355	40357.92
649.707	40058.27
650.059	40441.31
650.411	40887.85
650.763	40845.14
651.115	41162.42
651.467	41099.6
651.819	41010.56
652.171	40975.31
652.523	40884.69
652.875	40963.78
653.227	40731.92
653.578	40979.37
653.93	41024.12
654.282	40810.57
654.633	40590.68
654.985	40786.61
655.337	40695.09
655.688	40752.49
656.039	40968.98
656.391	40420.52
656.742	40597.92
657.094	40626.39
657.445	40642.66
657.796	40610.12
658.147	40615.54
658.498	40465.72
658.849	40592.49
659.2	40477.69
659.551	40318.83
659.902	40598.59
660.253	40463.23
660.604	40533.28
660.955	40395.44
661.306	40584.81
661.656	40364.7
662.007	40421.88
662.358	40522.21
662.708	40383.23
663.059	40298.26
663.409	40355.89
663.76	40405.38
664.11	40408.09
664.461	40420.97
664.811	40417.81
665.161	40342.56
665.511	40270.01
665.862	40300.3
666.212	40357.02
666.562	40459.39
666.912	40340.52
667.262	40223.46
667.612	40333.52
667.962	40361.31
668.312	40155.89
668.662	40426.17
669.011	40265.04
669.361	40039.96
669.711	40166.29
670.06	40145.05
670.41	40039.06
670.76	40045.61
671.109	40086.97
671.459	40008.33
671.808	40079.74
672.157	40184.59
672.507	39898.72
672.856	39832.96
673.205	39897.14
673.554	39903.47
673.904	39813.98
674.253	40190.02
674.602	39835.68
674.951	39366.31
675.3	39214.45
675.649	39935.56
675.998	39717.03
676.346	39872.28
676.695	39984.37
677.044	39456.7
677.393	39681.1
677.741	39861.21
678.09	39634.55
678.438	39558.62
678.787	39785.73
679.135	39760.65
679.484	39387.1
679.832	39567.66
680.181	39331.51
680.529	39332.64
680.877	39293.77
681.225	39401.56
681.573	39349.36
681.922	39184.39
682.27	39021.69
682.618	39140.33
682.966	39068.92
683.314	39130.16
683.661	39015.36
684.009	38817.62
684.357	38788.02
684.705	38718.42
685.053	38795.25
685.4	38653.56
685.748	38372.89
686.095	38515.94
686.443	38491.08
686.79	38434.58
687.138	38332.21
687.485	38421.25
687.832	38189.39
688.18	38200.69
688.527	37968.15
688.874	38070.3
689.221	37852.45
689.568	37796.41
689.915	37692.23
690.262	37677.77
690.609	37689.97
690.956	37434.38
691.303	37529.52
691.65	37253.6
691.997	37175.86
692.344	37104
692.69	37107.84
693.037	37103.32
693.383	36777
693.73	37014.06
694.077	36706.94
694.423	36779.71
694.769	36667.17
695.116	36499.49
695.462	36426.27
695.808	36207.75
696.155	36384.69
696.501	36009.11
696.847	36119.39
697.193	35863.8
697.539	35824.71
697.885	35726.18
698.231	35643.47
698.577	35651.6
698.923	35542
699.269	35495.68
699.614	35257.72
699.96	35323.03
700.306	35204.16
700.651	35138.17
700.997	35080.77
701.342	35100.21
701.688	34949.02
702.033	34808.92
702.379	34859.76
702.724	34625.42
703.069	34718.52
703.415	34415.93
703.76	34451.41
704.105	34517.4
704.45	34258.65
704.795	34175.03
705.14	34076.28
705.485	34005.32
705.83	33853.23
706.175	33846.68
706.52	33728.94
706.865	33656.86
707.209	33761.03
707.554	33436.97
707.899	33544.32
708.243	33390.42
708.588	33348.16
708.932	33162.4
709.277	33121.5
709.621	33098.45
709.966	32838.35
710.31	32927.83
710.654	32775.52
710.998	32784.56
711.342	32714.51
711.687	32571.23
712.031	32528.3
712.375	32443.55
712.719	32535.53
713.063	32279.94
713.407	32593.83
713.75	32255.31
714.094	32203.56
714.438	32055.77
714.782	32106.84
715.125	31783.46
715.469	31930.35
715.812	31845.83
716.156	31720.86
716.499	31593.18
716.843	31759.5
717.186	31408.1
717.53	31756.79
717.873	31620.52
718.216	31527.42
718.559	31415.56
718.902	31226.18
719.246	31329.68
719.589	31240.2
719.932	31012.18
720.275	31046.75
720.617	31129.69
720.96	31031.16
721.303	31067.09
721.646	30942.35
721.989	30837.27
722.331	30810.6
722.674	30708.46
723.016	30816.03
723.359	30676.37
723.701	30718.4
724.044	30437.5
724.386	30305.53
724.729	30517.5
725.071	30444.74
725.413	30310.28
725.755	30368.81
726.097	30166.78
726.439	30133.11
726.782	29953.22
727.124	30241.8
727.465	30078.87
727.807	30004.97
728.149	29987.57
728.491	29811.53
728.833	29959.78
729.175	29891.76
729.516	29636.62
729.858	29661.25
730.199	29740.35
730.541	29589.17
730.882	29661.03
731.224	29641.59
731.565	29428.94
731.906	29447.47
732.248	29496.29
732.589	29282.73
732.93	29231.43
733.271	29187.37
733.612	29186.01
733.953	29186.46
734.294	29144.21
734.635	28964.55
734.976	29230.3
735.317	28997.32
735.658	28921.84
735.999	28880.71
736.339	28975.4
736.68	28970.88
737.021	28867.83
737.361	28695.86
737.702	28821.73
738.042	28786.47
738.383	28631.22
738.723	28584.22
739.063	28721.17
739.404	28715.74
739.744	28522.75
740.084	28314.85
740.424	28482.3
740.764	28328.41
741.104	28463.77
741.444	28217.68
741.784	28212.7
742.124	28242.76
742.464	28145.14
742.804	28113.95
743.143	27936.1
743.483	28026.95
743.823	27898.14
744.162	27896.78
744.502	27788.76
744.841	27713.73
745.181	27843.67
745.52	27723.45
745.86	27757.8
746.199	27706.96
746.538	27618.82
746.877	27608.2
747.216	27612.72
747.556	27527.75
747.895	27574.98
748.234	27388.09
748.573	27312.84
748.911	27283.46
749.25	27278.27
749.589	27025.17
749.928	27119.4
750.267	27240.07
750.605	27183.13
750.944	27045.73
751.283	26896.58
751.621	27112.39
751.96	26850.25
752.298	26796.92
752.636	26899.74
752.975	26729.35
753.313	26711.28
753.651	26779.07
753.989	26520.55
754.327	26518.51
754.666	26422.47
755.004	26497.5
755.342	26324.84
755.679	26355.8
756.017	26202.36
756.355	26175.47
756.693	26128.47
757.031	26166.2
757.368	25897.51
757.706	26029.71
758.044	25906.32
758.381	25863.16
758.719	25819.77
759.056	25848.02
759.394	25847.57
759.731	25679.89
760.068	25564.19
760.405	25362.61
760.743	25306.57
761.08	25375.04
761.417	25162.16
761.754	25246
762.091	25126.46
762.428	24937.99
762.765	24863.19
763.102	24930.08
763.438	24781.16
763.775	24677.88
764.112	24700.71
764.449	24640.14
764.785	24523.99
765.122	24385.01
765.458	24247.84
765.795	24290.77
766.131	24239.93
766.467	24129.42
766.804	24016.66
767.14	23831.8
767.476	23981.18
767.812	23731.69
768.148	23862.76
768.485	23684.46
768.821	23523.56
769.157	23611.47
769.492	23502.09
769.828	23382.32
770.164	23274.76
770.5	23223.91
770.836	23189.33
771.171	22998.6
771.507	22986.18
771.842	22828.67
772.178	22883.13
772.513	22772.85
772.849	22704.83
773.184	22592.74
773.519	22537.15
773.855	22518.16
774.19	22338.51
774.525	22228.46
774.86	22283.59
775.195	22244.95
775.53	22053.32
775.865	22032.98
776.2	21783.5
776.535	21640.45
776.87	21708.02
777.205	21510.06
777.539	21483.16
777.874	21486.1
778.209	21305.09
778.543	21271.64
778.878	21170.4
779.212	21172.21
779.547	21103.29
779.881	21152.78
780.215	20967.92
780.55	20988.94
780.884	20765.67
781.218	20816.51
781.552	20742.17
781.886	20582.4
782.22	20576.97
782.554	20466.24
782.888	20238.68
783.222	20216.98
783.556	20069.87
783.889	20094.5
784.223	19977.67
784.557	19902.19
784.89	19912.58
785.224	19838.46
785.557	19683.66
785.891	19692.48
786.224	19661.97
786.558	19590.33
786.891	19346.04
787.224	19270.79
787.557	19278.02
787.891	19235.54
788.224	19193.73
788.557	19229.66
788.89	19108.99
789.223	19058.14
789.556	18934.08
789.888	18933.85
790.221	18723.24
790.554	18693.86
790.887	18676.46
791.219	18580.19
791.552	18568.66
791.884	18412.06
792.217	18408.67
792.549	18375.9
792.882	18155.12
793.214	18036.47
793.546	18138.85
793.879	18034.44
794.211	17902.02
794.543	18095.91
794.875	17903.15
795.207	17968.91
795.539	17786.76
795.871	17823.6
796.203	17649.59
796.535	17467
796.867	17588.58
797.198	17502.03
797.53	17446.21
797.862	17421.12
798.193	17381.35
798.525	17266.55
798.856	17263.61
799.188	17128.02
799.519	17050.06
799.85	17040.12
800.182	17020.23
800.513	16959.67
800.844	16907.69
801.175	16886.22
801.506	16781.14
801.837	16763.29
802.168	16708.83
802.499	16661.14
802.83	16579.34
803.161	16548.15
803.491	16449.4
803.822	16538.89
804.153	16447.36
804.483	16273.13
804.814	16188.84
805.145	16247.37
805.475	16141.84
805.805	16156.52
806.136	16096.41
806.466	16220.25
806.796	15988.62
807.126	16020.03
807.457	15843.31
807.787	15890.09
808.117	15815.06
808.447	15739.36
808.777	15881.05
809.107	15683.77
809.436	15625.46
809.766	15738
810.096	15591.79
810.426	15482.64
810.755	15611.45
811.085	15493.04
811.414	15370.78
811.744	15325.59
812.073	15296.89
812.403	15282.87
812.732	15242.65
813.061	15170.34
813.39	15164.69
813.719	15017.57
814.049	15110.68
814.378	15034.52
814.707	14944.58
815.036	14914.75
815.365	14957.46
815.693	14757.01
816.022	14800.4
816.351	14782.55
816.68	14710.91
817.008	14654.19
817.337	14598.6
817.665	14501.2
817.994	14587.98
818.322	14508.66
818.651	14472.05
818.979	14460.3
819.307	14467.3
819.636	14400.64
819.964	14367.64
820.292	14348.44
820.62	14389.79
820.948	14269.79
821.276	14319.06
821.604	14284.26
821.932	14332.84
822.259	14341.88
822.587	14339.62
822.915	14224.6
823.243	14286.97
823.57	14229.57
823.898	14247.2
824.225	14289
824.553	14243.13
824.88	14140.53
825.207	14253.75
825.535	14162.68
825.862	14274.54
826.189	14191.38
826.516	14232.96
826.843	14269.79
827.17	14147.31
827.497	14274.77
827.824	14227.31
828.151	14215.78
828.478	14142.79
828.805	14249.68
829.131	14190.47
829.458	14177.37
829.785	14158.38
830.111	14138.5
830.438	14183.69
830.764	14148.44
831.09	14132.85
831.417	14150.7
831.743	14183.92
832.069	14144.6
832.395	14024.38
832.722	14147.31
833.048	14062.12
833.374	14009.46
833.7	14071.61
834.026	14002
834.351	14069.8
834.677	14130.81
835.003	14101.66
835.329	14005.17
835.654	13978.28
835.98	13992.06
836.306	13955.68
836.631	13901.22
836.956	13917.26
837.282	13980.08
837.607	13855.79
837.932	13828.68
838.258	13743.48
838.583	13797.94
838.908	13778.73
839.233	13713.42
839.558	13680.21
839.883	13660.54
840.208	13632.3
840.533	13617.61
840.858	13595.24
841.182	13642.92
841.507	13553.2
841.832	13543.49
842.156	13394.56
842.481	13448.57
842.805	13413.55
843.13	13420.33
843.454	13438.4
843.778	13364.28
844.103	13362.47
844.427	13320.21
844.751	13252.65
845.075	13200.9
845.399	13147.34
845.723	13075.25
846.047	13226.88
846.371	13070.05
846.695	12982.82
847.019	12886.55
847.343	12893.79
847.666	12854.46
847.99	12727.91
848.313	12698.08
848.637	12655.15
848.96	12598.65
849.284	12505.55
849.607	12481.59
849.931	12482.95
850.254	12432.1
850.577	12353.69
850.9	12192.56
851.223	12228.27
851.546	12173.8
851.869	11997.31
852.192	12135.39
852.515	12012.45
852.838	12019.23
853.161	12013.36
853.483	11931.78
853.806	11897.2
854.129	11863.98
854.451	11806.13
854.774	11832.34
855.096	11780.82
855.419	11657.43
855.741	11717.55
856.063	11571.56
856.385	11606.36
856.708	11566.59
857.03	11484.78
857.352	11500.83
857.674	11460.83
857.996	11381.06
858.318	11404.78
858.64	11371.79
858.961	11341.51
859.283	11301.96
859.605	11247.5
859.926	11255.86
860.248	11215.41
860.57	11178.12
860.891	11194.17
861.212	11056.09
861.534	11028.75
861.855	11011.8
862.176	11113.27
862.498	11093.83
862.819	10968.19
863.14	11020.16
863.461	10963.67
863.782	10867.4
864.103	10890.9
864.424	10813.39
864.745	10804.12
865.065	10765.93
865.386	10787.63
865.707	10761.19
866.027	10768.19
866.348	10705.82
866.668	10767.51
866.989	10690.91
867.309	10652.49
867.63	10657.01
867.95	10652.94
868.27	10644.35
868.59	10649.32
868.91	10598.25
869.23	10605.48
869.55	10508.54
869.87	10566.16
870.19	10558.71
870.51	10522.1
870.83	10513.06
871.15	10425.38
871.469	10466.73
871.789	10395.55
872.109	10431.48
872.428	10372.04
872.748	10440.29
873.067	10424.92
873.386	10349.9
873.706	10409.1
874.025	10334.53
874.344	10335.43
874.663	10337.47
874.982	10254.98
875.301	10280.29
875.62	10301.09
875.939	10187.64
876.258	10189
876.577	10118.72
876.896	10127.98
877.214	10133.18
877.533	10170.92
877.852	10164.82
878.17	10123.46
878.489	10115.55
878.807	10127.08
879.125	10017.02
879.444	10064.93
879.762	9981.09
880.08	10055.44
880.398	9934.54
880.716	10041.66
881.034	9974.77
881.352	9902
881.67	9918.95
881.988	9935.9
882.306	9857.25
882.624	9829.91
882.941	9882.11
883.259	9793.53
883.577	9784.26
883.894	9734.77
884.212	9670.82
884.529	9665.85
884.846	9653.19
885.164	9666.3
885.481	9704.72
885.798	9654.55
886.115	9563.25
886.432	9578.39
886.75	9476.25
887.067	9553.08
887.383	9478.28
887.7	9525.96
888.017	9425.4
888.334	9518.73
888.651	9402.8
888.967	9390.83
889.284	9261.56
889.6	9313.09
889.917	9273.77
890.233	9248.01
890.55	9202.36
890.866	9198.29
891.182	9180.44
891.498	9190.61
891.815	9125.75
892.131	9133.21
892.447	9064.51
892.763	9055.92
893.079	9015.7
893.395	8987.9
893.71	8968.46
894.026	8943.61
894.342	8882.59
894.657	8911.29
894.973	8903.83
895.289	8828.81
895.604	8831.52
895.92	8741.13
896.235	8717.85
896.55	8714.01
896.865	8742.71
897.181	8713.78
897.496	8631.52
897.811	8568.7
898.126	8619.1
898.441	8501.36
898.756	8522.83
899.071	8493
899.386	8484.64
899.7	8394.47
900.015	8354.02
900.33	8333.45
900.644	8288.71
900.959	8318.54
901.273	8305.21
901.588	8268.37
901.902	8192.67
902.216	8152.44
902.531	8105.66
902.845	8136.17
903.159	8059.11
903.473	8027.7
903.787	8088.49
904.101	7979.79
904.415	8034.25
904.729	7962.16
905.042	7924.88
905.356	7912
905.67	7884.2
905.984	7882.62
906.297	7852.79
906.611	7739.8
906.924	7753.13
907.237	7761.26
907.551	7646.69
907.864	7632
908.177	7663.19
908.491	7643.98
908.804	7565.11
909.117	7538.67
909.43	7509.75
909.743	7438.79
910.056	7452.12
910.368	7408.28
910.681	7380.26
910.994	7406.47
911.307	7393.36
911.619	7258.68
911.932	7297.55
912.244	7163.77
912.557	7147.5
912.869	7134.84
913.181	7117.89
913.494	7146.14
913.806	7098.23
914.118	7034.05
914.43	7023.43
914.742	6998.57
915.054	6990.44
915.366	6886.49
915.678	6947.05
915.99	6877.67
916.302	6878.8
916.613	6823.89
916.925	6760.61
917.236	6793.15
917.548	6748.86
917.859	6768.52
918.171	6733.27
918.482	6650.56
918.794	6663.21
919.105	6638.81
919.416	6606.72
919.727	6536.66
920.038	6600.17
920.349	6484.69
920.66	6485.14
920.971	6459.15
921.282	6401.3
921.593	6394.52
921.903	6317.69
922.214	6384.8
922.525	6292.15
922.835	6303.22
923.146	6228.88
923.456	6218.25
923.767	6142.1
924.077	6179.39
924.387	6112.27
924.697	6134.19
925.008	6122.44
925.318	6127.41
925.628	6073.85
925.938	6009.22
926.248	5962.67
926.558	5998.37
926.867	5942.1
927.177	5863.69
927.487	5903.01
927.796	5839.73
928.106	5822.33
928.416	5754.54
928.725	5780.98
929.034	5747.31
929.344	5765.39
929.653	5731.26
929.962	5660.76
930.271	5665.95
930.581	5634.77
930.89	5641.09
931.199	5557.03
931.508	5596.35
931.817	5554.54
932.125	5521.32
932.434	5528.1
932.743	5493.75
933.051	5443.59
933.36	5383.25
933.669	5374.43
933.977	5362.46
934.286	5364.27
934.594	5357.71
934.902	5311.16
935.21	5337.83
935.519	5291.95
935.827	5242.24
936.135	5230.94
936.443	5206.08
936.751	5218.51
937.059	5187.55
937.367	5132.63
937.674	5151.62
937.982	5137.38
938.29	5076.36
938.597	5067.1
938.905	5024.84
939.213	5002.24
939.52	4978.51
939.827	5013.09
940.135	4968.57
940.442	4902.81
940.749	4913.88
941.056	4919.08
941.363	4815.58
941.67	4862.81
941.977	4830.27
942.284	4766.99
942.591	4793.21
942.898	4788.24
943.205	4713.44
943.511	4686.09
943.818	4727.45
944.125	4661.23
944.431	4664.17
944.738	4628.92
945.044	4640.89
945.35	4600.9
945.657	4574.68
945.963	4530.39
946.269	4535.36
946.575	4516.38
946.881	4491.75
947.187	4475.48
947.493	4463.27
947.799	4452.43
948.105	4411.52
948.41	4401.13
948.716	4395.93
949.022	4371.07
949.327	4360.9
949.633	4299.89
949.938	4313.67
950.244	4362.26
950.549	4247.68
950.854	4241.36
951.16	4183.96
951.465	4212.66
951.77	4200
952.075	4142.6
952.38	4145.31
952.685	4165.88
952.99	4153.9
953.294	4101.47
953.599	4105.77
953.904	4088.59
954.209	4018.54
954.513	4039.55
954.818	4036.17
955.122	3990.52
955.426	3994.81
955.731	3988.71
956.035	3942.38
956.339	3896.06
956.643	3925.21
956.948	3896.28
957.252	3896.51
957.556	3890.41
957.86	3858.09
958.163	3861.25
958.467	3817.41
958.771	3811.09
959.075	3801.37
959.378	3741.94
959.682	3764.76
959.985	3788.71
960.289	3706.91
960.592	3703.52
960.896	3700.35
961.199	3699.9
961.502	3672.11
961.805	3626.91
962.108	3636.4
962.411	3604.76
962.714	3586.46
963.017	3600.02
963.32	3598.66
963.623	3542.84
963.926	3551.88
964.228	3560.47
964.531	3496.52
964.833	3508.04
965.136	3465.78
965.438	3450.64
965.741	3435.5
966.043	3412.68
966.345	3437.76
966.648	3367.93
966.95	3381.27
967.252	3367.26
967.554	3331.55
967.856	3365.45
968.158	3299.01
968.46	3282.74
968.761	3305.79
969.063	3295.17
969.365	3280.03
969.666	3301.72
969.968	3232.57
970.269	3246.58
970.571	3197.77
970.872	3198.22
971.174	3191.44
971.475	3177.2
971.776	3150.76
972.077	3156.19
972.378	3129.07
972.679	3138.56
972.98	3114.61
973.281	3083.42
973.582	3084.78
973.883	3072.35
974.183	3051.78
974.484	3032.12
974.785	3022.18
975.085	3013.59
975.386	3013.14
975.686	2960.04
975.986	2951.67
976.287	2954.84
976.587	2938.34
976.887	2944.44
977.187	2904.22
977.487	2888.85
977.787	2913.26
978.087	2842.07
978.387	2848.63
978.687	2853.6
978.987	2856.08
979.286	2827.84
979.586	2812.47
979.885	2801.62
980.185	2783.54
980.484	2761.17
980.784	2751
981.083	2758.91
981.382	2746.03
981.682	2720.04
981.981	2688.63
982.28	2685.69
982.579	2739.7
982.878	2699.03
983.177	2643.89
983.475	2678.69
983.774	2624.9
984.073	2630.55
984.372	2603.66
984.67	2584.45
984.969	2615.86
985.267	2619.48
985.566	2631.68
985.864	2584.68
986.162	2580.61
986.461	2549.65
986.759	2544
987.057	2501.74
987.355	2509.2
987.653	2493.61
987.951	2491.35
988.249	2459.26
988.547	2465.13
988.844	2433.95
989.142	2443.44
989.44	2449.09
989.737	2402.31
990.035	2407.51
990.332	2371.8
990.63	2384.23
990.927	2381.29
991.224	2352.59
991.521	2334.51
991.819	2338.81
992.116	2357.11
992.413	2337
992.71	2285.93
993.006	2301.97
993.303	2310.33
993.6	2295.65
993.897	2273.95
994.193	2259.04
994.49	2261.52
994.787	2266.27
995.083	2229.88
995.379	2233.5
995.676	2194.63
995.972	2188.08
996.268	2215.42
996.565	2170.45
996.861	2178.81
997.157	2138.59
997.453	2157.57
997.749	2119.83
998.044	2108.31
998.34	2084.8
998.636	2140.4
998.932	2102.2
999.227	2083
999.523	2093.39
999.818	2070.34
1000.114	2065.6
1000.409	2058.14
1000.704	2050.23
1001	2010.91
1001.295	1984.47
1001.59	1990.12
1001.885	2000.74
1002.18	1964.36
1002.475	2008.2
1002.77	1972.72
1003.065	1969.78
1003.359	1970.23
1003.654	1942.43
1003.949	1927.29
1004.243	1912.83
1004.538	1871.93
1004.832	1897.69
1005.127	1871.25
1005.421	1900.63
1005.715	1854.3
1006.009	1852.95
1006.304	1837.8
1006.598	1816.56
1006.892	1788.77
1007.186	1820.18
1007.48	1799.16
1007.773	1780.63
1008.067	1742.67
1008.361	1757.35
1008.655	1774.53
1008.948	1740.86
1009.242	1717.81
1009.535	1734.08
1009.829	1697.92
1010.122	1669.9
1010.415	1706.06
1010.708	1665.83
1011.001	1650.01
1011.295	1645.72
1011.588	1645.95
1011.881	1658.37
1012.173	1631.03
1012.466	1633.97
1012.759	1620.18
1013.052	1592.39
1013.344	1593.07
1013.637	1620.18
1013.93	1592.39
1014.222	1563.69
1014.514	1548.55
1014.807	1564.82
1015.099	1535.44
1015.391	1544.71
1015.683	1518.72
1015.976	1520.07
1016.268	1524.82
1016.56	1498.6
1016.851	1487.76
1017.143	1503.12
1017.435	1476.91
1017.727	1466.74
1018.018	1445.27
1018.31	1440.53
1018.602	1438.72
1018.893	1447.31
1019.185	1435.56
1019.476	1407.53
1019.767	1414.77
1020.058	1406.86
1020.35	1403.69
1020.641	1351.26
1020.932	1353.75
1021.223	1372.96
1021.514	1365.5
1021.804	1323.92
1022.095	1358.5
1022.386	1325.95
1022.677	1329.12
1022.967	1299.97
1023.258	1294.99
1023.548	1292.06
1023.839	1296.58
1024.129	1281.44
1024.419	1252.74
1024.709	1243.02
1025	1261.32
1025.29	1259.74
1025.58	1264.94
1025.87	1194.88
1026.16	1234.66
1026.449	1222.23
1026.739	1218.61
1027.029	1227.65
1027.319	1209.12
1027.608	1180.42
1027.898	1163.02
1028.187	1165.05
1028.477	1168.67
1028.766	1132.29
1029.055	1137.71
1029.344	1131.38
1029.634	1133.64
1029.923	1137.03
1030.212	1109.69
1030.501	1109.01
1030.79	1104.04
1031.078	1109.69
1031.367	1094.32
1031.656	1056.36
1031.945	1087.99
1032.233	1062.46
1032.522	1038.73
1032.81	1045.06
1033.099	1069.01
1033.387	1037.83
1033.675	1034.44
1033.963	1028.79
1034.251	1039.41
1034.54	1006.19
1034.828	1029.01
1035.116	1007.32
1035.403	997.15
1035.691	991.73
1035.979	981.1
1036.267	979.07
1036.554	961.22
1036.842	943.37
1037.129	978.39
1037.417	928.68
1037.704	970.03
1037.992	934.78
1038.279	929.58
1038.566	917.15
1038.853	917.15
1039.14	917.15
