Data from hue_32_FLMS001491_00079.txt Node
Date: Tue Feb 07 17:23:54 GMT 2017
User: dcchb
Spectrometer: FLMS00149
Trigger mode: 0
Integration Time (sec): 2.000000E-2
Scans to average: 10
Electric dark correction enabled: true
Nonlinearity correction enabled: false
Boxcar width: 0
XAxis mode: Wavelengths
Number of Pixels in Spectrum: 2048
>>>>>Begin Spectral Data<<<<<
341.393	-37.81
341.776	-37.81
342.16	-37.81
342.543	-61.99
342.927	-61.31
343.31	-64.48
343.693	-69.22
344.077	-52.95
344.46	-67.87
344.843	-64.25
345.226	-46.85
345.61	-44.82
345.993	-34.87
346.376	2.64
346.759	-7.3
347.142	22.53
347.525	64.79
347.908	57.1
348.291	86.93
348.674	106.82
349.057	111.79
349.44	132.58
349.823	135.97
350.206	155.63
350.588	201.05
350.971	231.34
351.354	223.65
351.737	241.05
352.119	248.74
352.502	242.63
352.884	277.44
353.267	298
353.65	292.35
354.032	300.26
354.414	303.88
354.797	315.85
355.179	325.57
355.562	316.98
355.944	320.37
356.326	345.68
356.709	338
357.091	343.2
357.473	352.24
357.855	330.54
358.238	328.96
358.62	326.93
359.002	335.29
359.384	339.13
359.766	351.11
360.148	336.64
360.53	344.78
360.912	331.9
361.294	329.86
361.676	337.32
362.057	328.28
362.439	350.2
362.821	329.19
363.203	326.47
363.584	326.47
363.966	353.14
364.348	318.79
364.729	319.02
365.111	324.44
365.493	320.82
365.874	314.95
366.256	323.08
366.637	301.84
367.019	303.42
367.4	316.76
367.781	312.24
368.163	314.05
368.544	325.12
368.925	312.69
369.306	323.54
369.688	314.27
370.069	328.06
370.45	315.18
370.831	307.94
371.212	304.78
371.593	332.8
371.974	322.63
372.355	318.79
372.736	309.75
373.117	319.02
373.498	319.92
373.879	314.05
374.26	306.14
374.641	314.27
375.021	319.69
375.402	319.92
375.783	333.25
376.163	321.05
376.544	313.14
376.925	342.07
377.305	345.46
377.686	323.76
378.066	316.53
378.447	347.72
378.827	333.93
379.208	322.41
379.588	319.92
379.968	350.88
380.349	331.22
380.729	312.46
381.109	331.9
381.489	314.27
381.87	344.78
382.25	361.5
382.63	344.78
383.01	353.82
383.39	345.23
383.77	333.03
384.15	344.1
384.53	360.82
384.91	347.72
385.29	335.29
385.67	356.76
386.049	338.45
386.429	344.33
386.809	359.92
387.189	330.77
387.568	360.37
387.948	361.95
388.328	362.86
388.707	339.81
389.087	371.9
389.466	357.66
389.846	358.79
390.225	352.46
390.605	370.09
390.984	362.86
391.363	374.83
391.743	374.38
392.122	368.96
392.501	384.1
392.881	350.65
393.26	366.47
393.639	355.63
394.018	377.09
394.397	370.99
394.776	372.57
395.155	381.16
395.534	383.87
395.913	387.72
396.292	396.76
396.671	384.33
397.05	384.1
397.429	383.42
397.808	401.73
398.186	381.61
398.565	381.61
398.944	388.62
399.323	405.57
399.701	410.77
400.08	395.4
400.458	375.96
400.837	403.08
401.215	415.29
401.594	408.96
401.972	400.14
402.351	408.96
402.729	413.7
403.107	396.76
403.486	411.9
403.864	394.5
404.242	400.82
404.62	417.09
404.999	424.55
405.377	394.72
405.755	429.3
406.133	398.56
406.511	431.1
406.889	424.1
407.267	411.9
407.645	436.3
408.023	427.04
408.401	427.71
408.779	434.72
409.156	438.56
409.534	420.94
409.912	451.67
410.29	463.19
410.667	444.44
411.045	451.44
411.422	446.02
411.8	473.59
412.178	450.09
412.555	484.66
412.933	439.69
413.31	461.39
413.687	461.84
414.065	471.1
414.442	478.56
414.819	456.41
415.197	470.88
415.574	479.92
415.951	468.17
416.328	475.85
416.705	493.7
417.082	501.16
417.46	512.91
417.837	499.13
418.214	497.09
418.591	497.54
418.967	515.4
419.344	530.54
419.721	520.37
420.098	532.34
420.475	509.52
420.852	507.49
421.228	543.87
421.605	547.49
421.982	517.43
422.358	533.25
422.735	538.45
423.111	566.47
423.488	553.59
423.864	539.8
424.241	528.05
424.617	569.18
424.994	553.14
425.37	576.86
425.746	553.36
426.123	555.17
426.499	570.99
426.875	579.58
427.251	593.13
427.627	574.15
428.003	571.21
428.379	590.65
428.756	582.96
429.132	606.02
429.507	616.41
429.883	607.6
430.259	611.21
430.635	604.21
431.011	627.94
431.387	631.78
431.763	635.17
432.138	628.84
432.514	644.66
432.89	629.97
433.265	677.88
433.641	641.49
434.016	682.17
434.392	667.48
434.767	676.3
435.143	676.75
435.518	685.34
435.894	704.77
436.269	702.28
436.644	705.45
437.02	681.04
437.395	717.42
437.77	718.78
438.145	742.06
438.52	739.34
438.895	732.34
439.271	738.22
439.646	748.84
440.021	748.38
440.395	745.45
440.77	740.25
441.145	767.82
441.52	744.77
441.895	766.69
442.27	747.48
442.645	779.34
443.019	769.85
443.394	759.01
443.769	775.95
444.143	811.89
444.518	808.04
444.892	798.55
445.267	804.43
445.641	813.47
446.016	803.98
446.39	806.91
446.764	825.22
447.139	806.46
447.513	804.43
447.887	815.95
448.262	811.66
448.636	844.88
449.01	856.63
449.384	865.67
449.758	852.34
450.132	864.54
450.506	846.23
450.88	875.39
451.254	890.98
451.628	871.77
452.002	884.43
452.376	903.63
452.75	910.19
453.123	911.32
453.497	912
453.871	923.07
454.244	950.64
454.618	942.28
454.992	956.97
455.365	953.12
455.739	971.2
456.112	965.78
456.486	978.43
456.859	1002.84
457.232	1037.87
457.606	1016.4
457.979	1010.07
458.352	1022.28
458.725	1049.17
459.099	1054.14
459.472	1077.87
459.845	1087.81
460.218	1077.19
460.591	1111.09
460.964	1104.76
461.337	1114.48
461.71	1129.84
462.083	1172.33
462.456	1146.79
462.829	1158.54
463.201	1176.17
463.574	1180.92
463.947	1191.08
464.32	1238.31
464.692	1232.67
465.065	1236.28
465.438	1289.84
465.81	1278.77
466.183	1257.52
466.555	1319.67
466.928	1347.24
467.3	1320.57
467.672	1350.18
468.045	1388.37
468.417	1380.01
468.789	1390.63
469.161	1403.73
469.534	1416.39
469.906	1487.35
470.278	1503.17
470.65	1515.82
471.022	1542.94
471.394	1579.1
471.766	1568.25
472.138	1641.69
472.51	1645.08
472.882	1658.19
473.253	1665.2
473.625	1705.42
473.997	1755.14
474.369	1771.86
474.74	1821.12
475.112	1831.29
475.484	1877.85
475.855	1885.53
476.227	1955.36
476.598	2006.2
476.97	2044.62
477.341	2078.29
477.713	2128.69
478.084	2145.64
478.455	2214.33
478.827	2265.41
479.198	2321.9
479.569	2331.39
479.94	2453.42
480.311	2431.96
480.682	2520.32
481.053	2585.4
481.424	2634.21
481.795	2709.01
482.166	2758.27
482.537	2813.64
482.908	2876.92
483.279	2944.94
483.65	2987.42
484.021	3104.03
484.391	3135.67
484.762	3189.22
485.133	3243.01
485.503	3354.19
485.874	3439.16
486.244	3473.74
486.615	3566.16
486.985	3669.89
487.356	3693.62
487.726	3798.02
488.097	3897.91
488.467	3930.22
488.837	4056.09
489.207	4130.22
489.578	4233.49
489.948	4298.12
490.318	4371.79
490.688	4442.98
491.058	4550.77
491.428	4598.45
491.798	4686.36
492.168	4782.63
492.538	4882.74
492.908	4937.2
493.278	5068.27
493.648	5049.74
494.017	5137.65
494.387	5186.23
494.757	5292.22
495.126	5404.99
495.496	5460.12
495.866	5519.11
496.235	5598.43
496.605	5675.71
496.974	5695.37
497.344	5833.22
497.713	5858.53
498.082	5941.02
498.452	6037.28
498.821	6081.13
499.19	6153.67
499.559	6197.28
499.928	6270.95
500.298	6323.6
500.667	6410.38
501.036	6457.39
501.405	6547.78
501.774	6537.16
502.143	6670.94
502.512	6651.28
502.88	6797.04
503.249	6771.73
503.618	6907.09
503.987	6936.92
504.356	6983.47
504.724	6997.49
505.093	7072.06
505.462	7106.64
505.83	7238.16
506.199	7206.52
506.567	7345.72
506.936	7330.36
507.304	7423.01
507.672	7422.79
508.041	7533.06
508.409	7618.94
508.777	7648.99
509.145	7720.86
509.514	7716.56
509.882	7797.24
510.25	7850.57
510.618	7918.14
510.986	7868.42
511.354	7997.69
511.722	8034.29
512.09	8154.74
512.458	8097.8
512.826	8171.69
513.193	8254.85
513.561	8243.78
513.929	8355.87
514.297	8379.37
514.664	8469.99
515.032	8442.87
515.4	8525.13
515.767	8618.01
516.135	8629.76
516.502	8504.56
516.869	8740.94
517.237	8790.21
517.604	8796.76
517.972	8830.66
518.339	8875.85
518.706	8911.56
519.073	8932.58
519.44	8992.69
519.808	9001.95
520.175	9003.53
520.542	9139.58
520.909	9159.69
521.276	9166.69
521.643	9316.97
522.009	9305.9
522.376	9413.02
522.743	9487.59
523.11	9478.1
523.477	9619.56
523.843	9578.43
524.21	9815.26
524.577	9789.05
524.943	9819.56
525.31	9867.47
525.676	9943.17
526.043	9962.15
526.409	10017.29
526.776	10107.91
527.142	10126.22
527.508	10222.49
527.874	10252.99
528.241	10360.11
528.607	10361.92
528.973	10395.36
529.339	10477.62
529.705	10526.21
530.071	10659.08
530.437	10629.93
530.803	10703.38
531.169	10740.21
531.535	10827.89
531.901	10812.98
532.267	10878.06
532.632	10943.14
532.998	10959.19
533.364	11037.38
533.73	11137.94
534.095	11186.08
534.461	11185.17
534.826	11247.54
535.192	11238.73
535.557	11431.27
535.923	11418.16
536.288	11339.29
536.653	11457.26
537.019	11479.63
537.384	11565.5
537.749	11623.58
538.114	11690.02
538.479	11705.61
538.845	11718.72
539.21	11750.13
539.575	11776.57
539.94	11889.33
540.305	11961.42
540.67	11923.91
541.034	12009.11
541.399	12071.02
541.764	12024.7
542.129	12133.17
542.494	12237.12
542.858	12265.82
543.223	12245.48
543.587	12269.44
543.952	12355.76
544.316	12454.29
544.681	12333.62
545.045	12506.04
545.41	12500.39
545.774	12551.69
546.138	12612.93
546.503	12685.47
546.867	12671.69
547.231	12843.66
547.595	12801.17
547.959	12885.47
548.324	12866.03
548.688	12984.67
549.052	12967.95
549.416	13080.26
549.779	13061.96
550.143	13132.24
550.507	13167.04
550.871	13230.77
551.235	13250.2
551.599	13368.62
551.962	13388.28
552.326	13379.24
552.689	13544.21
553.053	13425.11
553.417	13472.8
553.78	13600.48
554.143	13563.87
554.507	13697.65
554.87	13702.62
555.234	13815.61
555.597	13755.27
555.96	13862.84
556.323	13856.74
556.686	13837.53
557.05	14021.71
557.413	14095.6
557.776	14087.92
558.139	14222.38
558.502	14177.86
558.865	14221.48
559.228	14283.62
559.59	14279.1
559.953	14421.25
560.316	14475.48
560.679	14467.35
561.041	14563.16
561.404	14640.67
561.767	14631.86
562.129	14661.01
562.492	14788.69
562.854	14763.16
563.217	14787.56
563.579	14820.33
563.941	14875.47
564.304	14999.08
564.666	15031.62
565.028	15122.24
565.39	15129.48
565.753	15187.55
566.115	15321.79
566.477	15361.11
566.839	15319.3
567.201	15470.71
567.563	15469.13
567.925	15626.41
568.287	15560.2
568.648	15648.78
569.01	15774.2
569.372	15776.69
569.734	15783.24
570.095	15899.62
570.457	16026.63
570.819	16034.31
571.18	16095.1
571.542	16138.94
571.903	16150.01
572.265	16231.14
572.626	16336.67
572.987	16476.11
573.349	16505.26
573.71	16640.62
574.071	16691.02
574.432	16780.96
574.794	16941.4
575.155	16936.89
575.516	16890.56
575.877	17195.86
576.238	17268.4
576.599	17342.3
576.96	17425.23
577.32	17508.85
577.681	17702.06
578.042	17847.6
578.403	17907.93
578.763	18050.98
579.124	18217.76
579.485	18312.67
579.845	18522.61
580.206	18604.86
580.566	18742.04
580.927	18886.21
581.287	19087.79
581.648	19216.15
582.008	19441.68
582.368	19557.16
582.728	19779.75
583.089	19900.65
583.449	20044.6
583.809	20295.67
584.169	20526.4
584.529	20653.4
584.889	21085.48
585.249	21061.75
585.609	21318.46
585.969	21722.75
586.329	21751.45
586.688	22114.38
587.048	22186.69
587.408	22561.14
587.768	22723.4
588.127	22977.4
588.487	23151.19
588.846	23529.71
589.206	23785.07
589.565	23904.61
589.925	24263.47
590.284	24569.68
590.643	24632.73
591.003	25190.68
591.362	25391.8
591.721	25590.67
592.08	25887.16
592.44	26176.19
592.799	26356.75
593.158	26751.32
593.517	26919
593.876	27226.56
594.235	27504.06
594.593	27707.45
594.952	28040.32
595.311	28292.97
595.67	28516.69
596.029	28942.9
596.387	29104.7
596.746	29403.22
597.104	29570.45
597.463	29817.22
597.822	30168.18
598.18	30304.44
598.538	30596.86
598.897	31101.48
599.255	30975.61
599.613	31618.53
599.972	31576.73
600.33	32077.73
600.688	32097.84
601.046	32557.04
601.404	32792.74
601.762	32895.79
602.12	33153.86
602.478	33523.12
602.836	33658.25
603.194	33784.8
603.552	33942.09
603.91	34077.9
604.268	34523.09
604.625	34671.11
604.983	34892.57
605.341	35041.27
605.698	35269.06
606.056	35568.03
606.413	35630.4
606.771	35855.94
607.128	36189.03
607.485	36118.75
607.843	36262.93
608.2	36611.85
608.557	36915.57
608.914	36888.22
609.272	37132.29
609.629	37401.43
609.986	37664.93
610.343	37641.2
610.7	38108.08
611.057	38130.23
611.414	38266.27
611.771	38379.03
612.127	38581.51
612.484	38682.08
612.841	39050.65
613.198	39051.11
613.554	39139.47
613.911	39457.42
614.267	39623.29
614.624	39605.22
614.98	39736.06
615.337	40037.29
615.693	39991.65
616.05	40185.99
616.406	40545.98
616.762	40446.78
617.118	40545.76
617.475	40643.15
617.831	40781.68
618.187	40879.98
618.543	40979.64
618.899	41273.42
619.255	41294.44
619.611	41326.3
619.967	41507.99
620.323	41651.49
620.678	41622.11
621.034	41471.16
621.39	41742.79
621.746	41737.81
622.101	42227.29
622.457	41922.89
622.812	42087.41
623.168	42253.06
623.523	42292.38
623.879	42456.67
624.234	42389.78
624.589	42365.6
624.945	42546.38
625.3	42674.74
625.655	42684.23
626.01	42727.39
626.365	42796.09
626.72	42803.1
627.075	42790.44
627.43	42924.68
627.785	42914.73
628.14	42935.52
628.495	43062.75
628.85	43054.16
629.205	42898.91
629.559	43095.07
629.914	42966.71
630.269	43287.83
630.623	43163.09
630.978	42907.05
631.332	43137.78
631.687	43313.82
632.041	43103.43
632.396	43323.31
632.75	43112.92
633.104	43115.18
633.459	43047.61
633.813	43069.53
634.167	43113.82
634.521	43054.39
634.875	43136.42
635.229	43168.06
635.583	42911.57
635.937	43034.96
636.291	42981.85
636.645	43197.89
636.999	43066.59
637.352	43155.4
637.706	43070.89
638.06	43167.16
638.413	42982.3
638.767	42892.59
639.121	43147.5
639.474	42770.78
639.828	42928.52
640.181	42920.83
640.534	42941.63
640.888	42919.25
641.241	42662.99
641.594	42874.06
641.947	43008.29
642.301	42909.76
642.654	42724.91
643.007	42792.7
643.36	42876.77
643.713	42710.22
644.066	42998.35
644.419	42632.93
644.771	42396.33
645.124	42032.95
645.477	41911.37
645.83	41676.12
646.182	41546.63
646.535	41560.87
646.888	41623.24
647.24	41353.19
647.593	41527.88
647.945	41493.53
648.298	41332.4
648.65	41326.75
649.002	41276.58
649.355	41370.14
649.707	41412.85
650.059	41550.7
650.411	41872.5
650.763	41971.03
651.115	42284.24
651.467	42265.48
651.819	42250.8
652.171	42100.07
652.523	42140.74
652.875	42124.25
653.227	41965.83
653.578	42243.34
653.93	42279.72
654.282	41908.88
654.633	41942.56
654.985	41878.83
655.337	41935.78
655.688	41949.79
656.039	42071.82
656.391	41735.1
656.742	41714.76
657.094	41929.67
657.445	42034.53
657.796	41875.44
658.147	41840.64
658.498	41789.79
658.849	41833.18
659.2	41843.35
659.551	41650.59
659.902	41841.09
660.253	41727.87
660.604	41806.97
660.955	41661.88
661.306	41836.8
661.656	41720.19
662.007	41750.92
662.358	41830.69
662.708	41686.74
663.059	41658.5
663.409	41448.11
663.76	41769.9
664.11	41704.82
664.461	41726.97
664.811	41860.07
665.161	41737.14
665.511	41682.45
665.862	41724.71
666.212	41708.66
666.562	41622.34
666.912	41609.91
667.262	41632.06
667.612	41467.77
667.962	41605.16
668.312	41576.46
668.662	41604.71
669.011	41583.24
669.361	41444.94
669.711	41486.97
670.06	41531.49
670.41	41407.88
670.76	41414.89
671.109	41520.19
671.459	41417.37
671.808	41380.54
672.157	41496.47
672.507	41160.43
672.856	41300.09
673.205	41303.7
673.554	41432.06
673.904	41147.1
674.253	41418.73
674.602	41294.44
674.951	40784.39
675.3	40532.87
675.649	41216.47
675.998	41186.42
676.346	41200.88
676.695	41205.63
677.044	41077.49
677.393	41141.9
677.741	41244.04
678.09	41192.74
678.438	40938.97
678.787	41116.36
679.135	41044.5
679.484	40762.93
679.832	40884.73
680.181	40854.9
680.529	40857.84
680.877	40721.12
681.225	40762.47
681.573	41028.46
681.922	40587.34
682.27	40585.98
682.618	40534
682.966	40477.28
683.314	40558.41
683.661	40578.75
684.009	40265.31
684.357	40137.41
684.705	40150.96
685.053	40110.06
685.4	40085.43
685.748	39888.37
686.095	39914.13
686.443	39799.11
686.79	39741.94
687.138	39889.95
687.485	39752.1
687.832	39496.29
688.18	39514.14
688.527	39410.19
688.874	39444.77
689.221	39249.52
689.568	39175.17
689.915	39091.78
690.262	39202.29
690.609	39033.93
690.956	38941.05
691.303	38814.05
691.65	38607.95
691.997	38625.35
692.344	38439.14
692.69	38431.01
693.037	38438.01
693.383	38104.46
693.73	38474.4
694.077	38089.32
694.423	38019.95
694.769	37960.97
695.116	37946.73
695.462	37941.53
695.808	37695.66
696.155	37814.98
696.501	37444.59
696.847	37475.1
697.193	37244.37
697.539	37457.25
697.885	37207.09
698.231	36951.27
698.577	36927.32
698.923	37046.41
699.269	36770.49
699.614	36601.9
699.96	36577.05
700.306	36513.32
700.651	36389.48
700.997	36386.32
701.342	36215.7
701.688	36142.26
702.033	36053.9
702.379	36165.98
702.724	36001.69
703.069	36039.66
703.415	35766.45
703.76	35659.56
704.105	35619.78
704.45	35539.11
704.795	35338.66
705.14	35291.43
705.485	35246.23
705.83	35108.61
706.175	35125.33
706.52	35103.64
706.865	34928.5
707.209	34826.81
707.554	34855.96
707.899	34866.58
708.243	34692.58
708.588	34572.81
708.932	34404.45
709.277	34317.45
709.621	34363.77
709.966	34170.56
710.31	34165.58
710.654	33888.3
710.998	34030.45
711.342	34138.47
711.687	33872.71
712.031	33695.09
712.375	33801.3
712.719	33695.77
713.063	33615.09
713.407	33714.98
713.75	33532.16
714.094	33483.79
714.438	33331.93
714.782	33416.9
715.125	33181.66
715.469	33284.25
715.812	33171.26
716.156	32992.51
716.499	33016.91
716.843	32998.16
717.186	32834.32
717.53	32931.04
717.873	32892.4
718.216	32668.67
718.559	32592.74
718.902	32491.96
719.246	32506.65
719.589	32408.34
719.932	32375.8
720.275	32442.92
720.617	32250.15
720.96	32254.67
721.303	32137.16
721.646	32248.12
721.989	31999.99
722.331	32182.81
722.674	32121.57
723.016	32034.79
723.359	31947.56
723.701	31966.55
724.044	31739.21
724.386	31562.26
724.729	31642.71
725.071	31642.71
725.413	31724.07
725.755	31526.33
726.097	31291.31
726.439	31347.58
726.782	31295.38
727.124	31455.6
727.465	31295.6
727.807	31302.38
728.149	31191.2
728.491	31072.78
728.833	31258.77
729.175	31126.79
729.516	30981.71
729.858	30855.84
730.199	30849.97
730.541	30852.68
730.882	30865.56
731.224	30995.05
731.565	30678.67
731.906	30658.11
732.248	30738.56
732.589	30565.45
732.93	30526.81
733.271	30501.27
733.612	30476.87
733.953	30552.12
734.294	30391.67
734.635	30272.13
734.976	30325.69
735.317	30201.17
735.658	30189.64
735.999	30170.66
736.339	30039.37
736.68	30192.13
737.021	30021.74
737.361	29956.2
737.702	30149.65
738.042	29895.19
738.383	29892.02
738.723	29947.39
739.063	29836.21
739.404	29877.79
739.744	29751.92
740.084	29666.04
740.424	29751.46
740.764	29650.9
741.104	29709.66
741.444	29530.68
741.784	29492.94
742.124	29565.48
742.464	29389.67
742.804	29460.85
743.143	29268.76
743.483	29322.77
743.823	29232.83
744.162	29325.71
744.502	29195.09
744.841	29117.13
745.181	29135.21
745.52	28994.2
745.86	29157.81
746.199	29060.41
746.538	29027.41
746.877	28989
747.216	29002.1
747.556	28864.71
747.895	28877.81
748.234	28723.69
748.573	28696.12
748.911	28574.55
749.25	28692.96
749.589	28525.96
749.928	28566.18
750.267	28612.74
750.605	28501.33
750.944	28447.32
751.283	28239.64
751.621	28432.4
751.96	28147.44
752.298	28083.03
752.636	28269.92
752.975	28027.67
753.313	27951.96
753.651	28095.01
753.989	27939.99
754.327	27934.11
754.666	27876.94
755.004	27909.48
755.342	27893.66
755.679	27734.12
756.017	27529.83
756.355	27756.71
756.693	27529.38
757.031	27652.54
757.368	27422.49
757.706	27427.91
758.044	27319.89
758.381	27311.08
758.719	27274.69
759.056	27319.89
759.394	27166.67
759.731	27032.89
760.068	26974.14
760.405	26901.59
760.743	26767.81
761.08	26766.46
761.417	26669.74
761.754	26601.26
762.091	26582.28
762.428	26504.54
762.765	26365.34
763.102	26382.29
763.438	26195.62
763.775	26203.31
764.112	26172.12
764.449	26161.05
764.785	26082.86
765.122	25791.34
765.458	25760.38
765.795	25764.22
766.131	25694.85
766.467	25684.45
766.804	25510.22
767.14	25405.59
767.476	25423.67
767.812	25315.42
768.148	25349.32
768.485	25068.65
768.821	25086.95
769.157	25040.63
769.492	24913.17
769.828	24903.68
770.164	24744.82
770.5	24554.76
770.836	24598.15
771.171	24426.41
771.507	24366.52
771.842	24120.88
772.178	24341.89
772.513	24176.47
772.849	23974.89
773.184	23951.16
773.519	24023.25
773.855	23872.97
774.19	23725.63
774.525	23632.53
774.86	23632.08
775.195	23607.67
775.53	23447.45
775.865	23312.76
776.2	23226.89
776.535	23098.76
776.87	23065.31
777.205	22979.21
777.539	22872.55
777.874	22907.12
778.209	22647.7
778.543	22667.81
778.878	22553.91
779.212	22599.34
779.547	22385.56
779.881	22469.85
780.215	22297.87
780.55	22281.38
780.884	22099.91
781.218	22121.38
781.552	22091.78
781.886	21946.92
782.22	21785.8
782.554	21685.01
782.888	21483.66
783.222	21455.64
783.556	21442.08
783.889	21350.78
784.223	21176.32
784.557	21179.26
784.89	21212.93
785.224	21161.18
785.557	20999.15
785.891	20970.45
786.224	20801.19
786.558	20818.14
786.891	20653.85
787.224	20514.87
787.557	20498.15
787.891	20531.37
788.224	20458.15
788.557	20455.44
788.89	20365.95
789.223	20255.22
789.556	20120.53
789.888	20177.7
790.221	20037.14
790.554	19960.08
790.887	19935.68
791.219	19853.64
791.552	19803.48
791.884	19715.12
792.217	19553.54
792.549	19558.74
792.882	19453.88
793.214	19355.35
793.546	19325.07
793.879	19206.2
794.211	19183.15
794.543	19151.06
794.875	19162.14
795.207	19181.57
795.539	19064.29
795.871	19086.89
796.203	18785.65
796.535	18761.24
796.867	18682.15
797.198	18716.27
797.53	18704.52
797.862	18497.3
798.193	18588.82
798.525	18406.9
798.856	18445.09
799.188	18223.41
799.519	18162.84
799.85	18090.3
800.182	18094.59
800.513	18209.17
800.844	17880.36
801.175	17977.08
801.506	17982.06
801.837	17861.38
802.168	17840.82
802.499	17859.8
802.83	17673.36
803.161	17676.3
803.491	17653.48
803.822	17588.17
804.153	17472.46
804.483	17415.52
804.814	17303.88
805.145	17274.73
805.475	17265.24
805.805	17166.03
806.136	17246.48
806.466	17199.03
806.796	17054.17
807.126	16992.7
807.457	17031.57
807.787	16934.63
808.117	16829.77
808.447	16749.09
808.777	16828.41
809.107	16744.12
809.436	16605.14
809.766	16727.63
810.096	16591.81
810.426	16559.27
810.755	16528.31
811.085	16490.34
811.414	16557.46
811.744	16296.9
812.073	16318.82
812.403	16256.68
812.732	16200.63
813.061	16214.42
813.39	16124.7
813.719	16141.43
814.049	16096.23
814.378	16011.26
814.707	16024.82
815.036	15893.75
815.365	15868.89
815.693	15742.57
816.022	15695.56
816.351	15755.9
816.68	15667.31
817.008	15605.62
817.337	15541.89
817.665	15544.38
817.994	15603.81
818.322	15496.02
818.651	15435.23
818.979	15446.98
819.307	15536.24
819.636	15374.89
819.964	15273.88
820.292	15423.03
820.62	15334.89
820.948	15316.81
821.276	15384.84
821.604	15374.21
821.932	15332.63
822.259	15343.48
822.587	15263.03
822.915	15294.89
823.243	15259.19
823.57	15153.66
823.898	15301.67
824.225	15186.2
824.553	15199.53
824.88	15197.95
825.207	15211.51
825.535	15140.32
825.862	15233.43
826.189	15174.45
826.516	15220.09
826.843	15189.59
827.17	15162.24
827.497	15221.68
827.824	15224.84
828.151	15202.02
828.478	15062.13
828.805	15224.61
829.131	15102.58
829.458	15162.02
829.785	15080.89
830.111	15244.27
830.438	15216.7
830.764	15124.73
831.09	15104.84
831.417	15055.35
831.743	15147.1
832.069	15104.62
832.395	15048.35
832.722	15089.02
833.048	15124.96
833.374	15017.16
833.7	15047.22
834.026	14998.63
834.351	15058.74
834.677	14931.06
835.003	14980.55
835.329	14929.48
835.654	14964.28
835.98	14925.19
836.306	14807.9
836.631	14837.28
836.956	14899.65
837.282	14834.34
837.607	14784.4
837.932	14728.36
838.258	14759.32
838.583	14663.27
838.908	14676.15
839.233	14648.13
839.558	14607.91
839.883	14486.33
840.208	14544.41
840.533	14599.55
840.858	14504.86
841.182	14526.55
841.507	14510.96
841.832	14388.48
842.156	14372.21
842.481	14406.1
842.805	14397.74
843.13	14336.73
843.454	14308.03
843.778	14217.63
844.103	14205.21
844.427	14150.07
844.751	14235.26
845.075	14140.8
845.399	14061.71
845.723	13996.17
846.047	13992.33
846.371	13858.32
846.695	13931.77
847.019	13776.52
847.343	13717.08
847.666	13716.18
847.99	13576.3
848.313	13576.52
848.637	13525.22
848.96	13482.96
849.284	13473.02
849.607	13400.93
849.931	13351.44
850.254	13235.74
850.577	13189.41
850.9	13108.29
851.223	13072.35
851.546	12996.2
851.869	13031.23
852.192	13072.58
852.515	12943.77
852.838	12804.34
853.161	12893.15
853.483	12767.73
853.806	12631.01
854.129	12728.63
854.451	12651.35
854.774	12585.14
855.096	12508.75
855.419	12573.84
855.741	12476.44
856.063	12400.06
856.385	12402.99
856.708	12370.9
857.03	12371.81
857.352	12378.59
857.674	12273.28
857.996	12245.26
858.318	12172.26
858.64	12105.37
858.961	12073.74
859.283	12098.14
859.605	11937.92
859.926	11982.67
860.248	11927.53
860.57	11841.88
860.891	11864.48
861.212	11912.61
861.534	11848.66
861.855	11791.26
862.176	11791.71
862.498	11813.4
862.819	11697.7
863.14	11732.05
863.461	11660.41
863.782	11610.92
864.103	11647.08
864.424	11592.17
864.745	11541.55
865.065	11554.65
865.386	11553.98
865.707	11539.96
866.027	11546.74
866.348	11454.32
866.668	11519.63
866.989	11486.18
867.309	11396.69
867.63	11375
867.95	11368.22
868.27	11305.62
868.59	11320.99
868.91	11331.38
869.23	11235.34
869.55	11230.59
869.87	11209.35
870.19	11282.12
870.51	11225.4
870.83	11302.01
871.15	11141.11
871.469	11177.71
871.789	11186.53
872.109	11120.54
872.428	11058.62
872.748	11126.42
873.067	11153.08
873.386	11089.81
873.706	11006.42
874.025	10967.1
874.344	10982.69
874.663	10945.4
874.982	10925.52
875.301	10964.16
875.62	10977.27
875.939	10868.34
876.258	10906.76
876.577	10885.74
876.896	10875.8
877.214	10849.36
877.533	10781.57
877.852	10803.04
878.17	10862.69
878.489	10792.87
878.807	10752.64
879.125	10747.67
879.444	10771.17
879.762	10683.72
880.08	10701.79
880.398	10685.07
880.716	10702.47
881.034	10664.51
881.352	10576.15
881.67	10542.7
881.988	10569.37
882.306	10578.86
882.624	10560.56
882.941	10499.09
883.259	10456.83
883.577	10385.19
883.894	10386.1
884.212	10330.28
884.529	10345.42
884.846	10323.95
885.164	10360.79
885.481	10280.56
885.798	10215.71
886.115	10225.65
886.432	10204.63
886.75	10148.82
887.067	10166.89
887.383	10103.62
887.7	10129.83
888.017	10052.09
888.334	10068.14
888.651	10029.95
888.967	10089.16
889.284	9951.08
889.6	9989.27
889.917	9838.77
890.233	9928.03
890.55	9862.04
890.866	9867.92
891.182	9864.3
891.498	9765.77
891.815	9803.51
892.131	9806.23
892.447	9724.42
892.763	9704.98
893.079	9669.51
893.395	9650.52
893.71	9618.89
894.026	9496.4
894.342	9545.89
894.657	9519
894.973	9509.96
895.289	9477.19
895.604	9411.89
895.92	9365.33
896.235	9319.68
896.55	9362.17
896.865	9348.16
897.181	9305.22
897.496	9299.57
897.811	9165.34
898.126	9138.9
898.441	9105.45
898.756	9107.49
899.071	9035.17
899.386	9095.74
899.7	8969.86
900.015	8946.59
900.33	8912.24
900.644	8954.27
900.959	8909.3
901.273	8813.71
901.588	8822.07
901.902	8790.88
902.216	8754.73
902.531	8681.06
902.845	8709.08
903.159	8655.52
903.473	8598.8
903.787	8622.75
904.101	8533.72
904.415	8612.13
904.729	8508.18
905.042	8479.93
905.356	8435.41
905.67	8412.14
905.984	8452.59
906.297	8364
906.611	8305.7
906.924	8356.55
907.237	8284.23
907.551	8217.11
907.864	8269.99
908.177	8201.97
908.491	8169.21
908.804	8150.9
909.117	8063.45
909.43	8043.33
909.743	7979.15
910.056	8017.8
910.368	7976.44
910.681	7907.74
910.994	7896.22
911.307	7819.84
911.619	7772.38
911.932	7772.61
912.244	7745.04
912.557	7735.32
912.869	7659.84
913.181	7656.9
913.494	7614.64
913.806	7582.55
914.118	7545.95
914.43	7581.42
914.742	7469.11
915.054	7455.33
915.366	7477.92
915.678	7435.21
915.99	7325.84
916.302	7321.77
916.613	7274.09
916.925	7245.16
917.236	7225.73
917.548	7205.84
917.859	7151.61
918.171	7057.82
918.482	7136.01
918.794	7051.95
919.105	7058.27
919.416	6988.9
919.727	7030.25
920.038	6934.66
920.349	6926.98
920.66	6893.53
920.971	6868.9
921.282	6892.4
921.593	6748.9
921.903	6814.67
922.214	6764.72
922.525	6751.16
922.835	6659.64
923.146	6655.12
923.456	6622.58
923.767	6591.39
924.077	6571.96
924.387	6578.97
924.697	6510.27
925.008	6437.73
925.318	6467.56
925.628	6485.63
925.938	6375.58
926.248	6342.36
926.558	6370.16
926.867	6317.96
927.177	6299.2
927.487	6274.57
927.796	6216.26
928.106	6276.83
928.416	6207.9
928.725	6212.87
929.034	6111.41
929.344	6152.76
929.653	6091.29
929.962	6072.99
930.271	6036.38
930.581	6083.61
930.89	5971.98
931.199	5949.15
931.508	5919.77
931.817	5958.42
932.125	5917.97
932.434	5870.06
932.743	5804.52
933.051	5832.32
933.36	5800
933.669	5800.91
933.977	5789.16
934.286	5745.77
934.594	5674.13
934.902	5667.13
935.21	5642.72
935.519	5660.8
935.827	5616.73
936.135	5571.08
936.443	5525.89
936.751	5533.57
937.059	5460.58
937.367	5483.85
937.674	5502.61
937.982	5457.19
938.29	5434.81
938.597	5426
938.905	5343.74
939.213	5355.49
939.52	5339.9
939.827	5300.13
940.135	5282.28
940.442	5246.57
940.749	5198.89
941.056	5250.64
941.363	5163.64
941.67	5193.24
941.977	5147.59
942.284	5073.24
942.591	5094.03
942.898	5098.1
943.205	5090.42
943.511	5052.23
943.818	5017.2
944.125	4961.83
944.431	4963.87
944.738	4988.72
945.044	4929.07
945.35	4908.73
945.657	4899.46
945.963	4893.36
946.269	4835.06
946.575	4853.59
946.881	4767.04
947.187	4803.42
947.493	4778.79
947.799	4733.59
948.105	4717.55
948.41	4679.58
948.716	4698.79
949.022	4662.63
949.327	4662.41
949.633	4571.56
949.938	4608.4
950.244	4548.96
950.549	4622.86
950.854	4583.76
951.16	4479.36
951.465	4517.1
951.77	4481.62
952.075	4448.4
952.38	4449.53
952.685	4444.78
952.99	4380.15
953.294	4383.09
953.599	4397.1
953.904	4356.2
954.209	4302.64
954.513	4287.95
954.818	4227.39
955.122	4302.64
955.426	4221.97
955.731	4229.87
956.035	4235.07
956.339	4181.97
956.643	4143.78
956.948	4191.23
957.252	4101.97
957.556	4120.05
957.86	4094.51
958.163	4104.45
958.467	4064.68
958.771	4064.46
959.075	4044.57
959.378	3996.66
959.682	3971.12
959.985	3963.44
960.289	3960.96
960.592	3950.79
960.896	3891.58
961.199	3913.05
961.502	3913.72
961.805	3887.51
962.108	3862.65
962.411	3871.01
962.714	3813.16
963.017	3800.96
963.32	3782.88
963.623	3741.07
963.926	3774.52
964.228	3730
964.531	3707.63
964.833	3691.13
965.136	3667.18
965.438	3678.93
965.741	3613.85
966.043	3628.31
966.345	3641.87
966.648	3607.07
966.95	3593.28
967.252	3585.15
967.554	3550.8
967.856	3556.22
968.158	3501.08
968.46	3518.71
968.761	3504.47
969.063	3459.73
969.365	3475.54
969.666	3450.69
969.968	3439.16
970.269	3458.37
970.571	3427.18
970.872	3400.29
971.174	3371.82
971.475	3357.13
971.776	3356.9
972.077	3368.43
972.378	3316.68
972.679	3316.68
972.98	3309.45
973.281	3273.74
973.582	3255.44
973.883	3269.9
974.183	3243.23
974.484	3235.78
974.785	3188.77
975.085	3163.91
975.386	3197.13
975.686	3185.83
975.986	3182.67
976.287	3170.69
976.587	3112.16
976.887	3076.23
977.187	3132.73
977.487	3078.49
977.787	3097.7
978.087	3054.09
978.387	3044.14
978.687	3050.24
978.987	3035.33
979.286	3011.6
979.586	2975.22
979.885	2951.94
980.185	2954.43
980.484	2960.3
980.784	2946.29
981.083	2927.76
981.382	2888.89
981.682	2882.57
981.981	2881.21
982.28	2838.72
982.579	2830.14
982.878	2881.66
983.177	2839.4
983.475	2828.33
983.774	2799.63
984.073	2811.61
984.372	2784.49
984.67	2752.63
984.969	2736.81
985.267	2723.7
985.566	2732.96
985.864	2694.77
986.162	2697.03
986.461	2679.63
986.759	2693.19
987.057	2686.64
987.355	2660.65
987.653	2619.3
987.951	2665.85
988.249	2634.66
988.547	2631.05
988.844	2601.22
989.142	2598.96
989.44	2587.66
989.737	2600.99
990.035	2561.9
990.332	2575.68
990.63	2545.4
990.927	2528.45
991.224	2525.29
991.521	2490.71
991.819	2497.04
992.116	2497.94
992.413	2460.2
992.71	2449.36
993.006	2459.75
993.303	2424.27
993.6	2404.61
993.897	2413.65
994.193	2415.69
994.49	2383.82
994.787	2377.27
995.083	2350.83
995.379	2343.14
995.676	2318.74
995.972	2343.6
996.268	2328.91
996.565	2306.99
996.861	2299.53
997.157	2268.12
997.453	2283.49
997.749	2249.36
998.044	2243.71
998.34	2231.74
998.636	2243.49
998.932	2191.51
999.227	2217.27
999.523	2192.41
999.818	2173.43
1000.114	2165.07
1000.409	2173.66
1000.704	2154.22
1001	2136.14
1001.295	2110.61
1001.59	2122.36
1001.885	2098.18
1002.18	2105.18
1002.475	2119.42
1002.77	2068.58
1003.065	2052.08
1003.359	2028.35
1003.654	2055.02
1003.949	2024.51
1004.243	2017.73
1004.538	1978.41
1004.832	1993.1
1005.127	1974.79
1005.421	1991.29
1005.715	1952.19
1006.009	1961.23
1006.304	1916.49
1006.598	1884.17
1006.892	1927.11
1007.186	1910.39
1007.48	1893.44
1007.773	1907.22
1008.067	1868.35
1008.361	1871.29
1008.655	1850.5
1008.948	1840.33
1009.242	1819.54
1009.535	1824.97
1009.829	1798.75
1010.122	1791.29
1010.415	1792.2
1010.708	1774.8
1011.001	1787.9
1011.295	1758.98
1011.588	1749.71
1011.881	1754.01
1012.173	1758.53
1012.466	1717.17
1012.759	1698.42
1013.052	1707.91
1013.344	1688.02
1013.637	1707.46
1013.93	1665.87
1014.222	1684.63
1014.514	1648.02
1014.807	1624.97
1015.099	1654.58
1015.391	1621.36
1015.683	1594.92
1015.976	1617.51
1016.268	1614.12
1016.56	1575.93
1016.851	1584.97
1017.143	1542.26
1017.435	1569.15
1017.727	1534.8
1018.018	1541.58
1018.31	1531.41
1018.602	1489.38
1018.893	1519.21
1019.185	1495.71
1019.476	1486.22
1019.767	1492.32
1020.058	1472.66
1020.35	1443.28
1020.641	1420.01
1020.932	1469.72
1021.223	1427.24
1021.514	1434.92
1021.804	1397.63
1022.095	1392.89
1022.386	1394.92
1022.677	1369.61
1022.967	1376.84
1023.258	1350.63
1023.548	1351.98
1023.839	1368.71
1024.129	1331.65
1024.419	1339.56
1024.709	1344.07
1025	1325.54
1025.29	1311.99
1025.58	1266.11
1025.87	1276.96
1026.16	1250.52
1026.449	1289.61
1026.739	1264.75
1027.029	1269.73
1027.319	1248.71
1027.608	1234.7
1027.898	1239.44
1028.187	1198.99
1028.477	1247.58
1028.766	1203.06
1029.055	1173.46
1029.344	1187.24
1029.634	1173.01
1029.923	1163.51
1030.212	1169.39
1030.501	1165.32
1030.79	1151.09
1031.078	1117.19
1031.367	1134.36
1031.656	1148.6
1031.945	1099.56
1032.233	1122.61
1032.522	1097.98
1032.81	1104.31
1033.099	1095.27
1033.387	1098.66
1033.675	1078.77
1033.963	1102.27
1034.251	1063.63
1034.54	1079.9
1034.828	1043.07
1035.116	1048.49
1035.403	1028.6
1035.691	1010.07
1035.979	1039.9
1036.267	1028.38
1036.554	1012.78
1036.842	1003.97
1037.129	994.71
1037.417	978.43
1037.704	990.64
1037.992	987.02
1038.279	979.11
1038.566	970.98
1038.853	970.98
1039.14	970.98
