Data from hue_90_FLMS001491_32.txt Node
Date: Mon Feb 06 15:25:02 GMT 2017
User: dcchb
Spectrometer: FLMS00149
Trigger mode: 0
Integration Time (sec): 2.000000E-2
Scans to average: 10
Electric dark correction enabled: true
Nonlinearity correction enabled: false
Boxcar width: 0
XAxis mode: Wavelengths
Number of Pixels in Spectrum: 2048
>>>>>Begin Spectral Data<<<<<
341.393	8.63
341.776	8.63
342.16	8.63
342.543	-63.91
342.927	-81.99
343.31	-92.61
343.693	-64.36
344.077	-67.3
344.46	-60.3
344.843	-38.6
345.226	-44.48
345.61	-33.4
345.993	-5.83
346.376	9.99
346.759	5.01
347.142	42.08
347.525	38.69
347.908	58.12
348.291	75.75
348.674	89.08
349.057	88.18
349.44	153.48
349.823	127.5
350.206	178.34
350.588	201.39
350.971	218.57
351.354	216.99
351.737	227.83
352.119	256.76
352.502	247.95
352.884	276.87
353.267	288.85
353.65	280.94
354.032	299.47
354.414	324.33
354.797	320.26
355.179	328.62
355.562	339.47
355.944	340.15
356.326	329.75
356.709	348.28
357.091	322.07
357.473	346.47
357.855	332.69
358.238	358
358.62	367.26
359.002	334.95
359.384	345.12
359.766	333.82
360.148	342.86
360.53	325.68
360.912	326.59
361.294	341.05
361.676	370.65
362.057	331.79
362.439	331.79
362.821	319.81
363.203	336.76
363.584	300.83
363.966	351.45
364.348	325.91
364.729	325.23
365.111	330.2
365.493	329.98
365.874	332.24
366.256	312.58
366.637	313.48
367.019	311.9
367.4	338.56
367.781	328.4
368.163	337.21
368.544	295.85
368.925	324.55
369.306	303.76
369.688	317.32
370.069	322.07
370.45	308.06
370.831	313.03
371.212	322.52
371.593	318.68
371.974	315.74
372.355	308.28
372.736	335.85
373.117	317.77
373.498	314.61
373.879	332.69
374.26	322.07
374.641	314.16
375.021	318.45
375.402	318.68
375.783	330.66
376.163	329.53
376.544	364.78
376.925	317.1
377.305	337.43
377.686	339.02
378.066	331.56
378.447	342.86
378.827	317.1
379.208	339.69
379.588	355.74
379.968	344.67
380.349	336.76
380.729	365
381.109	330.88
381.489	346.02
381.87	342.63
382.25	348.96
382.63	348.73
383.01	353.93
383.39	359.13
383.77	359.58
384.15	365.46
384.53	354.16
384.91	353.48
385.29	372.01
385.67	361.39
386.049	376.08
386.429	349.41
386.809	357.55
387.189	367.72
387.568	351.67
387.948	389.41
388.328	369.3
388.707	369.98
389.087	374.5
389.466	379.02
389.846	382.63
390.225	368.17
390.605	391.9
390.984	377.89
391.363	380.6
391.743	408.39
392.122	387.38
392.501	402.52
392.881	367.49
393.26	410.2
393.639	407.04
394.018	387.38
394.397	404.55
394.776	417.21
395.155	410.65
395.534	394.38
395.913	393.7
396.292	396.19
396.671	415.62
397.05	416.53
397.429	410.43
397.808	416.53
398.186	415.85
398.565	408.62
398.944	416.98
399.323	415.62
399.701	415.62
400.08	420.6
400.458	418.11
400.837	435.51
401.215	409.75
401.594	405.68
401.972	437.54
402.351	428.05
402.729	456.3
403.107	442.29
403.486	449.97
403.864	440.48
404.242	451.56
404.62	456.08
404.999	460.14
405.377	435.96
405.755	437.32
406.133	461.5
406.511	463.98
406.889	470.54
407.267	468.28
407.645	486.58
408.023	492.46
408.401	478.22
408.779	466.7
409.156	471.89
409.534	471.89
409.912	486.58
410.29	514.61
410.667	500.59
411.045	490.88
411.422	506.92
411.8	502.4
412.178	517.99
412.555	512.8
412.933	518.22
413.31	520.48
413.687	530.42
414.065	553.47
414.442	508.05
414.819	521.61
415.197	539.01
415.574	546.02
415.951	537.43
416.328	572.46
416.705	551.44
417.082	553.7
417.46	548.5
417.837	555.96
418.214	556.41
418.591	571.55
418.967	562.06
419.344	567.94
419.721	586.69
420.098	568.61
420.475	601.61
420.852	588.05
421.228	591.67
421.605	595.05
421.982	601.16
422.358	617.43
422.735	622.62
423.111	605.9
423.488	601.16
423.864	639.57
424.241	621.95
424.617	646.81
424.994	632.34
425.37	621.04
425.746	642.29
426.123	682.96
426.499	663.53
426.875	677.09
427.251	688.61
427.627	668.27
428.003	688.16
428.379	673.7
428.756	686.8
429.132	696.97
429.507	715.96
429.883	724.32
430.259	738.55
430.635	723.19
431.011	719.57
431.387	720.7
431.763	745.79
432.138	752.79
432.514	756.41
432.89	751.21
433.265	770.19
433.641	786.46
434.016	788.72
434.392	794.6
434.767	805.9
435.143	788.72
435.518	823.3
435.894	832.79
436.269	828.27
436.644	837.53
437.02	856.97
437.395	832.79
437.77	868.49
438.145	876.4
438.52	869.62
438.895	857.42
439.271	865.33
439.646	911.88
440.021	908.04
440.395	892.9
440.77	894.03
441.145	918.44
441.52	932.22
441.895	942.62
442.27	936.51
442.645	956.4
443.019	974.48
443.394	950.98
443.769	966.12
444.143	945.78
444.518	969.28
444.892	998.66
445.267	973.35
445.641	966.34
446.016	1014.03
446.39	1000.69
446.764	1017.19
447.139	993.24
447.513	1036.17
447.887	1026.68
448.262	1019.68
448.636	1028.26
449.01	1024.87
449.384	1037.3
449.758	1059.9
450.132	1090.86
450.506	1075.27
450.88	1086.34
451.254	1100.35
451.628	1116.85
452.002	1101.71
452.376	1124.31
452.75	1115.27
453.123	1136.74
453.497	1162.05
453.871	1174.47
454.244	1190.97
454.618	1193.91
454.992	1235.49
455.365	1235.72
455.739	1219.67
456.112	1252.44
456.486	1265.32
456.859	1291.53
457.232	1293.57
457.606	1328.82
457.979	1317.97
458.352	1305.77
458.725	1352.32
459.099	1356.62
459.472	1395.26
459.845	1396.16
460.218	1421.02
460.591	1429.61
460.964	1438.87
461.337	1473.68
461.71	1495.37
462.083	1527.69
462.456	1548.93
462.829	1550.06
463.201	1577.4
463.574	1565.65
463.947	1598.64
464.32	1621.92
464.692	1620.11
465.065	1651.07
465.438	1697.62
465.81	1730.39
466.183	1746.21
466.555	1774.01
466.928	1786.21
467.3	1754.35
467.672	1814.68
468.045	1872.99
468.417	1905.3
468.789	1915.92
469.161	1931.07
469.534	1979.43
469.906	2042.7
470.278	2025.07
470.65	2093.77
471.022	2120.21
471.394	2210.61
471.766	2197.5
472.138	2258.29
472.51	2298.06
472.882	2352.75
473.253	2399.98
473.625	2421
473.997	2494.89
474.369	2533.54
474.74	2620.09
475.112	2623.93
475.484	2661.22
475.855	2794.09
476.227	2812.62
476.598	2912.96
476.97	2964.48
477.341	3024.37
477.713	3133.97
478.084	3189.79
478.455	3286.28
478.827	3328.77
479.198	3474.08
479.569	3535.99
479.94	3659.83
480.311	3734.86
480.682	3849.21
481.053	3924.68
481.424	4079.71
481.795	4171.68
482.166	4269.08
482.537	4378.91
482.908	4504.56
483.279	4640.6
483.65	4726.02
484.021	4869.52
484.391	4943.87
484.762	5091.89
485.133	5180.02
485.503	5374.14
485.874	5497.3
486.244	5610.06
486.615	5785.43
486.985	5934.8
487.356	6067.23
487.726	6255.47
488.097	6397.84
488.467	6475.8
488.837	6749.7
489.207	6855.91
489.578	7031.72
489.948	7148.1
490.318	7369.79
490.688	7436.23
491.058	7597.36
491.428	7837.58
491.798	7965.48
492.168	8242.76
492.538	8311.69
492.908	8443.44
493.278	8680.94
493.648	8808.85
494.017	8970.2
494.387	9084.32
494.757	9251.78
495.126	9453.81
495.496	9534.48
495.866	9712.33
496.235	9835.49
496.605	10012.43
496.974	10143.28
497.344	10295.59
497.713	10432.76
498.082	10562.25
498.452	10785.3
498.821	10782.58
499.19	10923.14
499.559	11073.65
499.928	11198.84
500.298	11329.46
500.667	11498.5
501.036	11485.62
501.405	11686.74
501.774	11770.13
502.143	11891.03
502.512	12019.39
502.88	12142.1
503.249	12179.16
503.618	12373.05
503.987	12412.82
504.356	12407.17
504.724	12643.1
505.093	12748.41
505.462	12862.98
505.83	12884.22
506.199	13037.89
506.567	13242.86
506.936	13256.19
507.304	13320.6
507.672	13474.04
508.041	13496.64
508.409	13619.57
508.777	13705.44
509.145	13785.67
509.514	13816.85
509.882	13983.4
510.25	13957.19
510.618	14102.72
510.986	14105.89
511.354	14301.36
511.722	14335.26
512.09	14572.77
512.458	14411.64
512.826	14520.11
513.193	14560.79
513.561	14628.58
513.929	14779.54
514.297	14854.12
514.664	14894.34
515.032	14882.36
515.4	15000.55
515.767	15040.32
516.135	15074.45
516.502	14986.09
516.869	15208.23
517.237	15268.12
517.604	15148.34
517.972	15349.24
518.339	15374.78
518.706	15386.53
519.073	15378.62
519.44	15511.72
519.808	15556.47
520.175	15524.15
520.542	15653.87
520.909	15731.61
521.276	15726.86
521.643	15779.51
522.009	15798.95
522.376	15838.27
522.743	15901.55
523.11	16016.57
523.477	16096.34
523.843	16186.74
524.21	16209.33
524.577	16304.25
524.943	16230.35
525.31	16315.77
525.676	16333.17
526.043	16434.86
526.409	16492.72
526.776	16534.75
527.142	16534.3
527.508	16674.41
527.874	16626.5
528.241	16745.36
528.607	16705.82
528.973	16801.18
529.339	16620.85
529.705	16823.1
530.071	16762.54
530.437	16836.89
530.803	16800.05
531.169	16905.13
531.535	16829.88
531.901	16889.54
532.267	16775.87
532.632	16910.33
532.998	16833.27
533.364	16854.06
533.73	16842.54
534.095	16897.9
534.461	16869.88
534.826	16851.58
535.192	16739.49
535.557	16893.16
535.923	16853.84
536.288	16804.57
536.653	16780.39
537.019	16640.28
537.384	16803.89
537.749	16840.05
538.114	16760.96
538.479	16632.83
538.845	16657.68
539.21	16623.11
539.575	16583.79
539.94	16624.69
540.305	16577.23
540.67	16523
541.034	16497.91
541.399	16550.57
541.764	16461.08
542.129	16462.89
542.494	16414.53
542.858	16388.31
543.223	16352.83
543.587	16403.45
543.952	16392.83
544.316	16335.88
544.681	16225.83
545.045	16241.65
545.41	16244.81
545.774	16197.13
546.138	16197.58
546.503	16116
546.867	16031.03
547.231	16180.41
547.595	15980.41
547.959	16139.28
548.324	16093.86
548.688	15932.5
549.052	15910.36
549.416	15836.46
549.779	15912.39
550.143	15839.85
550.507	15889.79
550.871	15842.34
551.235	15717.82
551.599	15878.72
551.962	15774.99
552.326	15789.23
552.689	15814.77
553.053	15580.88
553.417	15677.14
553.78	15716.47
554.143	15578.62
554.507	15814.77
554.87	15617.94
555.234	15663.81
555.597	15523.25
555.96	15505.85
556.323	15680.31
556.686	15484.38
557.05	15645.05
557.413	15577.71
557.776	15558.28
558.139	15681.44
558.502	15600.08
558.865	15559.86
559.228	15685.96
559.59	15595.34
559.953	15594.66
560.316	15708.1
560.679	15667.65
561.041	15721.44
561.404	15586.07
561.767	15673.53
562.129	15597.82
562.492	15713.75
562.854	15665.62
563.217	15678.95
563.579	15628.56
563.941	15770.48
564.304	15731.38
564.666	15773.19
565.028	15739.74
565.39	15767.76
565.753	15855.67
566.115	15819.51
566.477	15862.9
566.839	15822.23
567.201	15960.75
567.563	15900.87
567.925	15949
568.287	15856.8
568.648	15916.91
569.01	16072.61
569.372	16046.17
569.734	16019.06
570.095	16018.83
570.457	16046.85
570.819	16094.31
571.18	16060.86
571.542	16184.25
571.903	16178.15
572.265	16245.04
572.626	16207.07
572.987	16138.38
573.349	16234.42
573.71	16276
574.071	16258.37
574.432	16245.72
574.794	16341.76
575.155	16314.87
575.516	16214.76
575.877	16298.6
576.238	16358.93
576.599	16354.64
576.96	16448.65
577.32	16387.86
577.681	16420.85
578.042	16449.78
578.403	16458.14
578.763	16431.02
579.124	16489.55
579.485	16468.31
579.845	16530.46
580.206	16431.02
580.566	16353.74
580.927	16456.11
581.287	16482.09
581.648	16417.46
582.008	16461.3
582.368	16420.4
582.728	16374.53
583.089	16385.15
583.449	16368.65
583.809	16323.91
584.169	16393.51
584.529	16373.62
584.889	16477.8
585.249	16266.73
585.609	16320.29
585.969	16378.59
586.329	16354.19
586.688	16346.51
587.048	16386.96
587.408	16247.98
587.768	16350.35
588.127	16310.8
588.487	16206.4
588.846	16374.53
589.206	16284.36
589.565	16235.55
589.925	16246.62
590.284	16272.83
590.643	16236
591.003	16322.55
591.362	16273.29
591.721	16180.86
592.08	16187.87
592.44	16257.69
592.799	16277.81
593.158	16258.82
593.517	16276.22
593.876	16224.47
594.235	16238.94
594.593	16166.85
594.952	16136.34
595.311	16203.91
595.67	16234.87
596.029	16366.84
596.387	16195.32
596.746	16243.01
597.104	16072.16
597.463	16198.26
597.822	16236.45
598.18	16189.67
598.538	16108.09
598.897	16187.19
599.255	16069.22
599.613	16429.89
599.972	16145.61
600.33	16203.68
600.688	16169.33
601.046	16169.56
601.404	16157.36
601.762	16218.82
602.12	16159.62
602.478	16237.81
602.836	16145.61
603.194	16109.22
603.552	16140.86
603.91	16162.33
604.268	16139.73
604.625	16124.36
604.983	16219.73
605.341	16099.28
605.698	16199.16
606.056	16213.85
606.413	16206.4
606.771	16220.63
607.128	16292.27
607.485	16168.66
607.843	16132.05
608.2	16353.28
608.557	16268.77
608.914	16220.18
609.272	16272.83
609.629	16358.71
609.986	16354.41
610.343	16260.41
610.7	16420.85
611.057	16424.7
611.414	16441.42
611.771	16348.54
612.127	16437.35
612.484	16401.19
612.841	16535.2
613.198	16461.3
613.554	16401.65
613.911	16517.12
614.267	16556.9
614.624	16454.07
614.98	16533.62
615.337	16590.57
615.693	16523.9
616.05	16527.52
616.406	16596.89
616.762	16503.11
617.118	16551.02
617.475	16529.33
617.831	16575.43
618.187	16634.41
618.543	16644.35
618.899	16788.08
619.255	16695.42
619.611	16652.71
619.967	16771.58
620.323	16771.13
620.678	16667.17
621.034	16712.82
621.39	16693.39
621.746	16638.7
622.101	16798.02
622.457	16697.46
622.812	16656.55
623.168	16714.41
623.523	16710.79
623.879	16788.53
624.234	16699.72
624.589	16699.72
624.945	16792.82
625.3	16717.57
625.655	16725.03
626.01	16758.7
626.365	16735.65
626.72	16672.37
627.075	16687.06
627.43	16662.88
627.785	16673.28
628.14	16708.98
628.495	16734.07
628.85	16688.42
629.205	16607.06
629.559	16759.38
629.914	16641.19
630.269	16727.74
630.623	16638.02
630.978	16497.24
631.332	16660.17
631.687	16601.19
632.041	16484.35
632.396	16653.39
632.75	16478.93
633.104	16520.96
633.459	16389.67
633.813	16472.6
634.167	16474.19
634.521	16349.22
634.875	16435.99
635.229	16447.52
635.583	16259.05
635.937	16294.98
636.291	16368.2
636.645	16311.7
636.999	16235.32
637.352	16420.4
637.706	16200.52
638.06	16238.71
638.413	16294.08
638.767	16153.97
639.121	16274.19
639.474	16058.6
639.828	16172.95
640.181	16201.65
640.534	16067.19
640.888	16134.31
641.241	16048.66
641.594	16105.83
641.947	16039.17
642.301	16074.87
642.654	15972.96
643.007	16043.91
643.36	16036.91
643.713	15992.39
644.066	16085.72
644.419	15999.85
644.771	15836.91
645.124	15736.8
645.477	15750.14
645.83	15556.92
646.182	15541.55
646.535	15503.82
646.888	15551.5
647.24	15424.72
647.593	15558.5
647.945	15484.16
648.298	15448.68
648.65	15319.19
649.002	15358.96
649.355	15446.64
649.707	15431.73
650.059	15475.79
650.411	15630.37
650.763	15672.62
651.115	15808.89
651.467	15768.67
651.819	15748.1
652.171	15737.03
652.523	15746.07
652.875	15760.98
653.227	15651.83
653.578	15796.01
653.93	15800.76
654.282	15738.39
654.633	15662.46
654.985	15705.62
655.337	15690.93
655.688	15684.6
656.039	15768.67
656.391	15608.45
656.742	15747.42
657.094	15669.46
657.445	15743.36
657.796	15666.75
658.147	15642.34
658.498	15677.37
658.849	15668.33
659.2	15719.4
659.551	15713.98
659.902	15778.16
660.253	15713.53
660.604	15784.71
660.955	15694.32
661.306	15778.38
661.656	15623.13
662.007	15768.44
662.358	15743.13
662.708	15651.83
663.059	15664.26
663.409	15717.6
663.76	15749.91
664.11	15735.9
664.461	15701.78
664.811	15746.75
665.161	15753.98
665.511	15636.02
665.862	15732.51
666.212	15838.27
666.562	15808.67
666.912	15789.68
667.262	15744.26
667.612	15720.31
667.962	15696.8
668.312	15674.43
668.662	15884.6
669.011	15773.41
669.361	15758.95
669.711	15753.75
670.06	15700.42
670.41	15705.17
670.76	15677.14
671.109	15735.45
671.459	15789.46
671.808	15695.22
672.157	15714.43
672.507	15661.1
672.856	15614.1
673.205	15631.04
673.554	15708.33
673.904	15589.01
674.253	15751.94
674.602	15611.61
674.951	15368.23
675.3	15336.36
675.649	15538.84
675.998	15540.2
676.346	15549.24
676.695	15506.75
677.044	15436.47
677.393	15494.55
677.741	15575.9
678.09	15458.62
678.438	15348.57
678.787	15409.13
679.135	15429.02
679.484	15304.05
679.832	15377.04
680.181	15274.67
680.529	15298.85
680.877	15349.47
681.225	15258.17
681.573	15395.12
681.922	15246.87
682.27	15225.86
682.618	15174.11
682.966	15136.14
683.314	15108.35
683.661	15069.25
684.009	15032.87
684.357	14979.99
684.705	14933.21
685.053	14944.28
685.4	14915.81
685.748	14779.31
686.095	14885.53
686.443	14746.32
686.79	14775.02
687.138	14748.36
687.485	14782.03
687.832	14649.83
688.18	14745.19
688.527	14639.21
688.874	14596.95
689.221	14572.31
689.568	14562.82
689.915	14460.45
690.262	14574.12
690.609	14419.1
690.956	14406.44
691.303	14339.1
691.65	14288.25
691.997	14243.74
692.344	14156.96
692.69	14176.39
693.037	14262.27
693.383	14087.58
693.73	14069.73
694.077	13981.6
694.423	13921.71
694.769	13836.29
695.116	13859.56
695.462	13878.55
695.808	13724.43
696.155	13812.11
696.501	13669.74
696.847	13684.43
697.193	13545.45
697.539	13571.66
697.885	13484.43
698.231	13474.49
698.577	13381.61
698.923	13325.79
699.269	13310.65
699.614	13252.58
699.96	13195.18
700.306	13198.11
700.651	13128.74
700.997	13103.65
701.342	13069.53
701.688	13021.17
702.033	13047.83
702.379	12983.43
702.724	12857.56
703.069	12931
703.415	12714.06
703.76	12832.25
704.105	12716.09
704.45	12663.89
704.795	12592.71
705.14	12585.93
705.485	12553.16
705.83	12470.22
706.175	12449.66
706.52	12440.39
706.865	12351.13
707.209	12299.15
707.554	12363.11
707.899	12248.76
708.243	12267.74
708.588	12260.28
708.932	12159.5
709.277	12164.24
709.621	12160.4
709.966	12123.79
710.31	12135.32
710.654	11977.35
710.998	12006.05
711.342	12025.94
711.687	11976.9
712.031	11999.27
712.375	11841.99
712.719	11926.06
713.063	11862.78
713.407	11904.81
713.75	11859.84
714.094	11740.98
714.438	11794.31
714.782	11776.46
715.125	11705.95
715.469	11690.81
715.812	11599.96
716.156	11519.06
716.499	11590.47
716.843	11625.5
717.186	11479.97
717.53	11606.06
717.873	11619.62
718.216	11504.37
718.559	11533.07
718.902	11413.08
719.246	11462.79
719.589	11427.54
719.932	11382.79
720.275	11393.87
720.617	11361.55
720.96	11297.37
721.303	11331.5
721.646	11369.91
721.989	11313.87
722.331	11326.07
722.674	11308.9
723.016	11268.9
723.359	11229.35
723.701	11316.13
724.044	11189.35
724.386	11126.3
724.729	11229.35
725.071	11177.38
725.413	11245.4
725.755	11225.51
726.097	11184.61
726.439	11038.85
726.782	11048.79
727.124	11134.44
727.465	11084.95
727.807	11124.5
728.149	11108.9
728.491	11007.66
728.833	11049.24
729.175	11091.95
729.516	11037.72
729.858	11062.35
730.199	11081.78
730.541	11078.4
730.882	11016.25
731.224	11038.85
731.565	11061.9
731.906	10990.49
732.248	11024.84
732.589	10892.64
732.93	10972.64
733.271	10971.28
733.612	10980.54
733.953	11004.05
734.294	10938.51
734.635	10913.2
734.976	10965.63
735.317	10954.1
735.658	10979.87
735.999	10957.49
736.339	10994.33
736.68	10987.55
737.021	10942.35
737.361	10943.94
737.702	11066.19
738.042	10964.73
738.383	10983.71
738.723	11086.76
739.063	11051.28
739.404	10962.47
739.744	10960.66
740.084	10993.88
740.424	11030.94
740.764	11021.45
741.104	11070.26
741.444	11027.78
741.784	10989.81
742.124	11057.83
742.464	11025.29
742.804	11076.14
743.143	11049.92
743.483	11125.17
743.823	11125.17
744.162	11155.91
744.502	11278.16
744.841	11222.12
745.181	11294.66
745.52	11292.63
745.86	11351.16
746.199	11383.02
746.538	11345.05
746.877	11556.35
747.216	11525.16
747.556	11523.81
747.895	11621.66
748.234	11685.84
748.573	11695.1
748.911	11765.16
749.25	11869.56
749.589	11820.52
749.928	12041.53
750.267	12020.97
750.605	12130.57
750.944	12197.24
751.283	12318.59
751.621	12342.09
751.96	12443.78
752.298	12605.59
752.636	12726.94
752.975	12789.76
753.313	12806.26
753.651	13069.76
753.989	13098.46
754.327	13207.83
754.666	13307.94
755.004	13396.98
755.342	13589.06
755.679	13740.92
756.017	13778.66
756.355	14044.64
756.693	14133.68
757.031	14261.59
757.368	14457.29
757.706	14443.5
758.044	14713.33
758.381	14970.72
758.719	15075.13
759.056	15238.51
759.394	15410.48
759.731	15456.36
760.068	15713.3
760.405	15853.41
760.743	15895.67
761.08	16214.53
761.417	16377.01
761.754	16480.74
762.091	16701.07
762.428	16906.49
762.765	16991.91
763.102	17197.78
763.438	17334.5
763.775	17576.98
764.112	17705.79
764.449	17875.05
764.785	17982.39
765.122	18198.21
765.458	18369.5
765.795	18527.46
766.131	18687.69
766.467	18706.44
766.804	18857.4
767.14	18929.94
767.476	19236.37
767.812	19363.15
768.148	19569.25
768.485	19473.43
768.821	19688.79
769.157	19786.87
769.492	20011.49
769.828	20040.42
770.164	20076.35
770.5	20213.75
770.836	20341.65
771.171	20401.09
771.507	20493.97
771.842	20523.34
772.178	20669.78
772.513	20735.54
772.849	20760.17
773.184	20847.4
773.519	20946.84
773.855	21038.81
774.19	21083.78
774.525	21143.44
774.86	21225.92
775.195	21230.67
775.53	21281.97
775.865	21280.61
776.2	21259.37
776.535	21344.34
776.87	21417.56
777.205	21432.25
777.539	21417.56
777.874	21587.95
778.209	21460.04
778.543	21544.56
778.878	21509.99
779.212	21495.97
779.547	21407.62
779.881	21565.8
780.215	21543.88
780.55	21605.8
780.884	21516.99
781.218	21465.47
781.552	21614.84
781.886	21578.23
782.22	21556.09
782.554	21518.12
782.888	21331.23
783.222	21467.05
783.556	21418.01
783.889	21301.63
784.223	21241.07
784.557	21287.39
784.89	21281.74
785.224	21292.59
785.557	21187.96
785.891	21233.38
786.224	21223.21
786.558	21206.49
786.891	20984.35
787.224	20990.45
787.557	20959.04
787.891	21106.61
788.224	21069.32
788.557	20998.13
788.89	21032.71
789.223	20961.53
789.556	20941.64
789.888	20900.28
790.221	20886.05
790.554	20764.69
790.887	20798.82
791.219	20695.32
791.552	20658.48
791.884	20639.05
792.217	20653.06
792.549	20521.99
792.882	20404.93
793.214	20349.79
793.546	20452.16
793.879	20283.35
794.211	20271.15
794.543	20386.85
794.875	20217.14
795.207	20345.5
795.539	20185.5
795.871	20184.6
796.203	19973.98
796.535	19862.8
796.867	19886.07
797.198	19919.52
797.53	19856.7
797.862	19759.75
798.193	19805.4
798.525	19731.95
798.856	19807.88
799.188	19559.53
799.519	19496.7
799.85	19446.31
800.182	19522.24
800.513	19460.32
800.844	19226.43
801.175	19404.73
801.506	19220.33
801.837	19209.25
802.168	19184.85
802.499	19223.72
802.83	19009.49
803.161	18962.71
803.491	19061.69
803.822	19015.14
804.153	18907.34
804.483	18792.99
804.814	18805.65
805.145	18786.67
805.475	18757.29
805.805	18612.89
806.136	18649.72
806.466	18705.99
806.796	18577.41
807.126	18442.04
807.457	18445.43
807.787	18358.66
808.117	18245.66
808.447	18298.77
808.777	18320.01
809.107	18241.82
809.436	18221.26
809.766	18154.82
810.096	18101.26
810.426	18021.49
810.755	18041.38
811.085	17959.57
811.414	18006.12
811.744	17846.58
812.073	17864.66
812.403	17865.34
812.732	17788.05
813.061	17761.61
813.39	17647.04
813.719	17600.26
814.049	17756.64
814.378	17677.54
814.707	17598
815.036	17534.95
815.365	17474.61
815.693	17385.57
816.022	17346.25
816.351	17362.07
816.68	17255.41
817.008	17306.93
817.337	17180.16
817.665	17067.62
817.994	17200.49
818.322	17166.82
818.651	17167.05
818.979	17093.38
819.307	17188.29
819.636	17098.12
819.964	16916.43
820.292	17118.24
820.62	17029.65
820.948	17012.25
821.276	17113.72
821.604	16822.88
821.932	16946.04
822.259	16883.89
822.587	16963.21
822.915	16892.25
823.243	16946.72
823.57	16902.65
823.898	16939.26
824.225	16871.01
824.553	16896.55
824.88	16863.55
825.207	16939.94
825.535	16851.8
825.862	16908.07
826.189	16820.39
826.516	16943.55
826.843	16959.37
827.17	17022.19
827.497	17032.81
827.824	16954.85
828.151	17020.16
828.478	16890.45
828.805	16933.16
829.131	16856.32
829.458	16902.42
829.785	16820.17
830.111	16883.21
830.438	16888.19
830.764	16906.72
831.09	16862.42
831.417	16759.15
831.743	16903.33
832.069	16865.36
832.395	16730.68
832.722	16938.81
833.048	16791.24
833.374	16860.84
833.7	16775.65
834.026	16713.5
834.351	16836.44
834.677	16791.69
835.003	16758.92
835.329	16775.87
835.654	16725.03
835.98	16766.61
836.306	16714.41
836.631	16537.23
836.956	16599.83
837.282	16582.43
837.607	16534.07
837.932	16536.78
838.258	16546.5
838.583	16478.48
838.908	16454.52
839.233	16513.73
839.558	16434.41
839.883	16393.06
840.208	16377.92
840.533	16333.62
840.858	16374.3
841.182	16400.06
841.507	16379.27
841.832	16217.7
842.156	16165.72
842.481	16271.25
842.805	16120.52
843.13	16132.95
843.454	16026.74
843.778	15975.89
844.103	15978.38
844.427	15888.89
844.751	15939.96
845.075	15884.6
845.399	15866.97
845.723	15840.98
846.047	15753.3
846.371	15601.21
846.695	15681.21
847.019	15553.08
847.343	15481.44
847.666	15418.39
847.99	15426.76
848.313	15332.07
848.637	15221.34
848.96	15236.03
849.284	15174.56
849.607	15008.46
849.931	15026.09
850.254	14904.28
850.577	14850.27
850.9	14718.3
851.223	14779.77
851.546	14644.18
851.869	14592.43
852.192	14624.97
852.515	14508.81
852.838	14470.17
853.161	14457.29
853.483	14381.13
853.806	14290.97
854.129	14275.83
854.451	14213.91
854.774	14132.33
855.096	14146.34
855.419	14086.68
855.741	14018.66
856.063	13986.57
856.385	13942.05
856.708	13816.63
857.03	13821.83
857.352	13867.25
857.674	13756.52
857.996	13796.74
858.318	13572.79
858.64	13666.58
858.961	13575.96
859.283	13580.02
859.605	13519.91
859.926	13510.87
860.248	13434.72
860.57	13417.77
860.891	13386.58
861.212	13323.31
861.534	13364.21
861.855	13290.99
862.176	13333.7
862.498	13368.5
862.819	13219.81
863.14	13185.01
863.461	13155.85
863.782	13178.9
864.103	13070.66
864.424	13028.17
864.745	13121.05
865.065	13059.81
865.386	12999.7
865.707	13016.2
866.027	13023.2
866.348	12956.54
866.668	13029.53
866.989	12867.95
867.309	12852.81
867.63	12815.52
867.95	12868.86
868.27	12771.01
868.59	12719.03
868.91	12801.74
869.23	12715.19
869.55	12654.85
869.87	12741.18
870.19	12716.09
870.51	12714.06
870.83	12745.7
871.15	12621.18
871.469	12662.53
871.789	12634.74
872.109	12611.24
872.428	12538.47
872.748	12592.25
873.067	12579.15
873.386	12566.27
873.706	12567.62
874.025	12492.6
874.344	12481.75
874.663	12438.81
874.982	12489.66
875.301	12388.87
875.62	12359.72
875.939	12346.16
876.258	12316.33
876.577	12262.32
876.896	12248.31
877.214	12222.09
877.533	12227.97
877.852	12199.95
878.17	12296.67
878.489	12179.61
878.807	12145.03
879.125	12174.19
879.444	12098.48
879.762	12113.62
880.08	12122.21
880.398	12025.26
880.716	12031.59
881.034	12027.97
881.352	12025.04
881.67	11992.04
881.988	11969.67
882.306	11901.88
882.624	11859.62
882.941	11833.63
883.259	11744.59
883.577	11851.71
883.894	11705.27
884.212	11725.61
884.529	11701.43
884.846	11645.39
885.164	11634.54
885.481	11524.71
885.798	11660.98
886.115	11512.96
886.432	11519.51
886.75	11492.4
887.067	11532.85
887.383	11447.42
887.7	11397.48
888.017	11370.82
888.334	11380.31
888.651	11276.36
888.967	11253.53
889.284	11262.35
889.6	11179.86
889.917	11123.82
890.233	11121.11
890.55	11091.05
890.866	11113.87
891.182	11105.29
891.498	11046.76
891.815	11014.22
892.131	10931.05
892.447	10904.61
892.763	10907.55
893.079	10844.5
893.395	10912.07
893.71	10797.05
894.026	10725.64
894.342	10752.53
894.657	10648.8
894.973	10722.7
895.289	10675.69
895.604	10646.54
895.92	10566.32
896.235	10517.28
896.55	10536.04
896.865	10467.56
897.181	10412.65
897.496	10493.1
897.811	10397.96
898.126	10335.59
898.441	10284.52
898.756	10311.41
899.071	10183.5
899.386	10208.81
899.7	10141.7
900.015	10143.73
900.33	10042.49
900.644	10005.88
900.959	10027.35
901.273	9969.5
901.588	9967.69
901.902	9866.68
902.216	9855.15
902.531	9847.02
902.845	9785.1
903.159	9722.5
903.473	9671.43
903.787	9646.57
904.101	9629.39
904.415	9591.2
904.729	9527.02
905.042	9464.43
905.356	9484.31
905.67	9383.07
905.984	9369.97
906.297	9359.57
906.611	9306.69
906.924	9276.18
907.237	9201.16
907.551	9209.52
907.864	9210.87
908.177	9146.69
908.491	9065.34
908.804	9059.92
909.117	9004.55
909.43	8933.14
909.743	8856.53
910.056	8904.89
910.368	8842.52
910.681	8773.82
910.994	8775.86
911.307	8725.46
911.619	8706.93
911.932	8723.88
912.244	8618.8
912.557	8625.13
912.869	8510.1
913.181	8602.3
913.494	8621.74
913.806	8505.81
914.118	8438.46
914.43	8390.78
914.742	8403.66
915.054	8328.64
915.366	8298.13
915.678	8232.59
915.99	8262.65
916.302	8184.91
916.613	8148.53
916.925	8165.03
917.236	8099.94
917.548	8075.31
917.859	8006.84
918.171	8020.17
918.482	7959.16
918.794	7959.61
919.105	7965.48
919.416	7852.04
919.727	7918.03
920.038	7807.97
920.349	7826.5
920.66	7727.07
920.971	7748.31
921.282	7687.07
921.593	7629.22
921.903	7616.11
922.214	7614.76
922.525	7521.88
922.835	7546.96
923.146	7512.39
923.456	7507.64
923.767	7462.9
924.077	7441.2
924.387	7371.15
924.697	7353.52
925.008	7292.28
925.318	7239.17
925.628	7261.09
925.938	7225.16
926.248	7137.48
926.558	7148.33
926.867	7102.45
927.177	7060.42
927.487	7069.01
927.796	7032.63
928.106	7036.47
928.416	6970.93
928.725	6989.46
929.034	6940.88
929.344	6977.26
929.653	6949.92
929.962	6855.68
930.271	6746.31
930.581	6755.57
930.89	6750.37
931.199	6698.62
931.508	6673.77
931.817	6682.13
932.125	6643.03
932.434	6572.75
932.743	6570.04
933.051	6560.32
933.36	6529.81
933.669	6458.4
933.977	6462.92
934.286	6420.89
934.594	6418.18
934.902	6371.85
935.21	6361.46
935.519	6369.82
935.827	6322.36
936.135	6280.1
936.443	6245.98
936.751	6220.67
937.059	6219.09
937.367	6255.7
937.674	6171.18
937.982	6173.21
938.29	6137.28
938.597	6112.42
938.905	6027.45
939.213	6020.9
939.52	6003.95
939.827	5974.12
940.135	5967.8
940.442	5907.68
940.749	5944.97
941.056	5841.7
941.363	5839.44
941.67	5816.16
941.977	5790.85
942.284	5692.1
942.591	5717.18
942.898	5709.72
943.205	5688.93
943.511	5642.83
943.818	5614.81
944.125	5539.11
944.431	5586.56
944.738	5555.83
945.044	5558.77
945.35	5507.69
945.657	5461.37
945.963	5415.27
946.269	5448.03
946.575	5424.08
946.881	5338.89
947.187	5346.79
947.493	5324.87
947.799	5349.96
948.105	5241.49
948.41	5250.07
948.716	5296.85
949.022	5261.82
949.327	5252.79
949.633	5210.98
949.938	5170.08
950.244	5157.19
950.549	5090.98
950.854	5076.29
951.16	5080.36
951.465	5042.4
951.77	5021.15
952.075	5025.67
952.38	5005.11
952.685	4990.87
952.99	4942.74
953.294	4920.36
953.599	4937.31
953.904	4880.82
954.209	4810.99
954.513	4834.94
954.818	4838.79
955.122	4791.55
955.426	4792.01
955.731	4769.63
956.035	4743.42
956.339	4750.2
956.643	4685.12
956.948	4652.35
957.252	4642.86
957.556	4650.54
957.86	4612.8
958.163	4572.8
958.467	4561.28
958.771	4554.95
959.075	4563.31
959.378	4524.22
959.682	4535.74
959.985	4473.37
960.289	4472.02
960.592	4397.21
960.896	4380.94
961.199	4408.74
961.502	4439.7
961.805	4354.28
962.108	4309.99
962.411	4337.56
962.714	4348.63
963.017	4287.61
963.32	4286.48
963.623	4225.69
963.926	4261.4
964.228	4167.84
964.531	4169.65
964.833	4189.31
965.136	4157
965.438	4128.75
965.741	4146.83
966.043	4121.06
966.345	4055.3
966.648	4044.68
966.95	4028.19
967.252	4037.68
967.554	4019.6
967.856	3958.81
968.158	4004.46
968.46	3965.14
968.761	3921.52
969.063	3961.97
969.365	3893.05
969.666	3916.1
969.968	3880.62
970.269	3862.54
970.571	3858.02
970.872	3852.37
971.174	3813.73
971.475	3810.34
971.776	3753.16
972.077	3741.64
972.378	3733.73
972.679	3733.96
972.98	3709.55
973.281	3719.72
973.582	3700.96
973.883	3687.63
974.183	3671.13
974.484	3633.17
974.785	3600.63
975.085	3626.39
975.386	3603.79
975.686	3575.09
975.986	3528.76
976.287	3538.93
976.587	3505.49
976.887	3473.17
977.187	3502.55
977.487	3478.14
977.787	3452.61
978.087	3450.57
978.387	3414.42
978.687	3390.01
978.987	3383.23
979.286	3367.41
979.586	3369.45
979.885	3337.36
980.185	3321.99
980.484	3293.29
980.784	3297.81
981.083	3257.36
981.382	3258.49
981.682	3262.78
981.981	3218.04
982.28	3210.58
982.579	3206.74
982.878	3206.06
983.177	3196.79
983.475	3197.7
983.774	3140.07
984.073	3110.24
984.372	3110.7
984.67	3084.26
984.969	3147.98
985.267	3081.32
985.566	3080.19
985.864	3108.21
986.162	3028.89
986.461	3017.59
986.759	2990.47
987.057	2972.85
987.355	3004.03
987.653	2963.13
987.951	2949.57
988.249	2980.08
988.547	2920.19
988.844	2893.07
989.142	2902.56
989.44	2886.97
989.737	2880.64
990.035	2878.16
990.332	2859.63
990.63	2814.66
990.927	2841.32
991.224	2797.93
991.521	2775.34
991.819	2791.83
992.116	2757.48
992.413	2759.74
992.71	2748.9
993.006	2752.29
993.303	2707.99
993.6	2663.48
993.897	2712.74
994.193	2677.71
994.49	2656.92
994.787	2636.81
995.083	2656.24
995.379	2616.47
995.676	2618.5
995.972	2585.96
996.268	2587.32
996.565	2565.4
996.861	2574.66
997.157	2557.26
997.453	2545.29
997.749	2550.71
998.044	2489.47
998.34	2506.42
998.636	2474.78
998.932	2461.22
999.227	2440.66
999.523	2408.34
999.818	2431.84
1000.114	2396.82
1000.409	2428.68
1000.704	2375.12
1001	2402.47
1001.295	2359.75
1001.59	2353.2
1001.885	2331.51
1002.18	2331.51
1002.475	2325.18
1002.77	2320.66
1003.065	2284.05
1003.359	2270.27
1003.654	2249.7
1003.949	2221.23
1004.243	2244.96
1004.538	2249.02
1004.832	2211.06
1005.127	2223.26
1005.421	2137.16
1005.715	2150.72
1006.009	2184.84
1006.304	2150.04
1006.598	2149.14
1006.892	2123.38
1007.186	2105.52
1007.48	2113.66
1007.773	2045.86
1008.067	2089.7
1008.361	2070.04
1008.655	2041.8
1008.948	2028.01
1009.242	2016.71
1009.535	2013.55
1009.829	1985.3
1010.122	2007.67
1010.415	1967.9
1010.708	2001.35
1011.001	1923.38
1011.295	1945.08
1011.588	1933.1
1011.881	1929.71
1012.173	1961.8
1012.466	1916.83
1012.759	1898.07
1013.052	1895.36
1013.344	1862.59
1013.637	1851.97
1013.93	1852.42
1014.222	1827.11
1014.514	1830.95
1014.807	1819.43
1015.099	1824.63
1015.391	1805.87
1015.683	1792.09
1015.976	1768.36
1016.268	1748.92
1016.56	1753.67
1016.851	1747.34
1017.143	1757.06
1017.435	1719.55
1017.727	1687.91
1018.018	1675.93
1018.31	1683.61
1018.602	1677.29
1018.893	1677.74
1019.185	1661.47
1019.476	1657.4
1019.767	1599.1
1020.058	1639.32
1020.35	1605.88
1020.641	1563.62
1020.932	1589.38
1021.223	1600.45
1021.514	1559.1
1021.804	1546.89
1022.095	1545.54
1022.386	1563.17
1022.677	1520
1022.967	1479.33
1023.258	1515.71
1023.548	1487.01
1023.839	1484.07
1024.129	1490.4
1024.419	1450.63
1024.709	1438.87
1025	1411.76
1025.29	1436.84
1025.58	1420.57
1025.87	1389.38
1026.16	1397.97
1026.449	1403.4
1026.739	1401.14
1027.029	1394.13
1027.319	1390.51
1027.608	1347.35
1027.898	1357.75
1028.187	1338.31
1028.477	1351.19
1028.766	1314.36
1029.055	1342.15
1029.344	1308.71
1029.634	1303.51
1029.923	1302.61
1030.212	1283.4
1030.501	1258.77
1030.79	1282.49
1031.078	1278.2
1031.367	1247.02
1031.656	1256.73
1031.945	1236.39
1032.233	1215.15
1032.522	1213.57
1032.81	1190.97
1033.099	1204.98
1033.387	1185.32
1033.675	1192.1
1033.963	1166.57
1034.251	1169.05
1034.54	1164.08
1034.828	1140.58
1035.116	1155.72
1035.403	1149.62
1035.691	1122.27
1035.979	1118.66
1036.267	1104.87
1036.554	1092.44
1036.842	1099.67
1037.129	1097.19
1037.417	1063.74
1037.704	1057.64
1037.992	1060.81
1038.279	1039.34
1038.566	1061.48
1038.853	1061.48
1039.14	1061.48
