Data from hue_220_FLMS001491_00008.txt Node
Date: Tue Feb 07 16:38:28 GMT 2017
User: dcchb
Spectrometer: FLMS00149
Trigger mode: 0
Integration Time (sec): 2.000000E-2
Scans to average: 10
Electric dark correction enabled: true
Nonlinearity correction enabled: false
Boxcar width: 0
XAxis mode: Wavelengths
Number of Pixels in Spectrum: 2048
>>>>>Begin Spectral Data<<<<<
341.393	-10.17
341.776	-10.17
342.16	-10.17
342.543	-55.14
342.927	-72.31
343.31	-60.34
343.693	-73.67
344.077	-65.54
344.46	-44.74
344.843	-59.66
345.226	-42.26
345.61	-40.45
345.993	-14.46
346.376	-9.94
346.759	25.08
347.142	3.16
347.525	30.96
347.908	73.44
348.291	65.99
348.674	105.99
349.057	106.44
349.44	115.7
349.823	136.72
350.206	163.61
350.588	196.61
350.971	214.91
351.354	216.94
351.737	241.8
352.119	265.3
352.502	244.06
352.884	254.23
353.267	279.77
353.65	293.55
354.032	293.1
354.414	293.33
354.797	298.98
355.179	308.69
355.562	319.09
355.944	322.93
356.326	329.93
356.709	332.19
357.091	320.44
357.473	344.85
357.855	349.37
358.238	350.73
358.62	324.29
359.002	329.93
359.384	337.17
359.766	335.81
360.148	319.09
360.53	328.35
360.912	343.95
361.294	335.58
361.676	334.91
362.057	327
362.439	351.18
362.821	353.44
363.203	331.29
363.584	327.9
363.966	318.64
364.348	304.17
364.729	320.9
365.111	329.93
365.493	324.29
365.874	289.26
366.256	319.99
366.637	317.28
367.019	314.34
367.4	326.32
367.781	300.11
368.163	320.67
368.544	328.58
368.925	314.79
369.306	326.77
369.688	315.25
370.069	300.33
370.45	311.63
370.831	299.43
371.212	338.52
371.593	288.13
371.974	308.01
372.355	324.06
372.736	335.81
373.117	323.38
373.498	323.61
373.879	341.91
374.26	312.76
374.641	329.03
375.021	299.43
375.402	306.21
375.783	330.84
376.163	343.04
376.544	333.55
376.925	326.77
377.305	321.57
377.686	337.84
378.066	328.8
378.447	310.05
378.827	350.05
379.208	319.09
379.588	333.32
379.968	345.75
380.349	335.36
380.729	326.32
381.109	340.1
381.489	308.24
381.87	348.47
382.25	336.49
382.63	350.95
383.01	325.42
383.39	319.99
383.77	350.95
384.15	346.21
384.53	347.79
384.91	360.89
385.29	365.64
385.67	344.62
386.049	352.76
386.429	345.98
386.809	350.05
387.189	348.47
387.568	350.5
387.948	343.72
388.328	353.66
388.707	350.73
389.087	360.44
389.466	355.47
389.846	382.81
390.225	385.53
390.605	361.57
390.984	365.41
391.363	402.7
391.743	367.67
392.122	371.97
392.501	378.75
392.881	382.14
393.26	382.36
393.639	378.3
394.018	401.8
394.397	409.93
394.776	398.86
395.155	381.01
395.534	380.78
395.913	382.36
396.292	383.72
396.671	397.05
397.05	405.64
397.429	400.44
397.808	403.15
398.186	408.12
398.565	421.91
398.944	387.56
399.323	408.35
399.701	417.62
400.08	421.91
400.458	425.98
400.837	402.7
401.215	423.94
401.594	424.85
401.972	409.93
402.351	444.51
402.729	452.87
403.107	425.53
403.486	440.67
403.864	444.06
404.242	436.37
404.62	467.33
404.999	460.1
405.377	442.7
405.755	452.42
406.133	465.3
406.511	450.38
406.889	482.02
407.267	472.98
407.645	482.47
408.023	504.17
408.401	492.19
408.779	512.08
409.156	508.91
409.534	509.14
409.912	533.55
410.29	522.92
410.667	516.82
411.045	531.51
411.422	539.87
411.8	564.28
412.178	554.79
412.555	571.74
412.933	585.3
413.31	599.53
413.687	597.05
414.065	588.91
414.442	635.69
414.819	610.15
415.197	625.75
415.574	641.79
415.951	647.21
416.328	648.12
416.705	654.22
417.082	674.56
417.46	668.68
417.837	697.61
418.214	675.91
418.591	709.59
418.967	698.29
419.344	721.56
419.721	757.27
420.098	715.46
420.475	735.57
420.852	773.09
421.228	769.47
421.605	781
421.982	787.78
422.358	821.22
422.735	804.5
423.111	854.21
423.488	872.52
423.864	869.36
424.241	877.72
424.617	896.02
424.994	892.86
425.37	905.96
425.746	934.89
426.123	916.59
426.499	955.46
426.875	966.08
427.251	998.17
427.627	997.94
428.003	985.06
428.379	1031.39
428.756	1027.32
429.132	1049.46
429.507	1097.6
429.883	1065.51
430.259	1069.12
430.635	1102.12
431.011	1092.4
431.387	1113.19
431.763	1149.12
432.138	1156.35
432.514	1166.07
432.89	1195
433.265	1220.31
433.641	1238.61
434.016	1253.75
434.392	1277.48
434.767	1291.04
435.143	1294.43
435.518	1356.12
435.894	1347.31
436.269	1377.59
436.644	1401.77
437.02	1416.46
437.395	1423.01
437.77	1478.61
438.145	1482.22
438.52	1502.11
438.895	1524.93
439.271	1551.82
439.646	1587.53
440.021	1593.18
440.395	1595.21
440.77	1604.93
441.145	1637.25
441.52	1658.49
441.895	1656.68
442.27	1702.1
442.645	1698.26
443.019	1727.86
443.394	1754.08
443.769	1767.64
444.143	1786.39
444.518	1821.42
444.892	1802.89
445.267	1831.36
445.641	1821.2
446.016	1834.98
446.39	1849.67
446.764	1847.18
447.139	1893.51
447.513	1937.12
447.887	1908.2
448.262	1925.37
448.636	1931.7
449.01	1954.98
449.384	2020.06
449.758	1997.24
450.132	2018.25
450.506	2022.77
450.88	2050.57
451.254	2010.12
451.628	2071.36
452.002	2058.02
452.376	2097.35
452.75	2100.28
453.123	2145.93
453.497	2196.33
453.871	2194.52
454.244	2235.42
454.618	2245.14
454.992	2277.23
455.365	2257.79
455.739	2336.44
456.112	2350.67
456.486	2345.02
456.859	2367.85
457.232	2411.46
457.606	2413.27
457.979	2432.93
458.352	2509.76
458.725	2483.55
459.099	2516.54
459.472	2542.76
459.845	2584.56
460.218	2604.45
460.591	2594.28
460.964	2644.9
461.337	2698.01
461.71	2750.66
462.083	2771.23
462.456	2768.74
462.829	2793.6
463.201	2814.84
463.574	2857.1
463.947	2858.68
464.32	2912.24
464.692	2966.7
465.065	2976.42
465.438	2999.47
465.81	3055.29
466.183	3087.38
466.555	3093.48
466.928	3154.95
467.3	3155.17
467.672	3207.15
468.045	3300.93
468.417	3262.97
468.789	3302.06
469.161	3348.39
469.534	3384.32
469.906	3425.45
470.278	3456.41
470.65	3507.03
471.022	3574.14
471.394	3615.5
471.766	3599.23
472.138	3676.74
472.51	3709.06
472.882	3779.11
473.253	3803.52
473.625	3857.53
473.997	3905.89
474.369	3892.1
474.74	3997.64
475.112	4058.42
475.484	4063.17
475.855	4164.64
476.227	4178.42
476.598	4311.07
476.97	4375.03
477.341	4380.9
477.713	4445.31
478.084	4492.54
478.455	4600.56
478.827	4609.37
479.198	4744.73
479.569	4730.72
479.94	4839.19
480.311	4864.5
480.682	4959.42
481.053	5048.45
481.424	5143.59
481.795	5131.84
482.166	5234.44
482.537	5311.95
482.908	5398.73
483.279	5413.87
483.65	5534.54
484.021	5600.98
484.391	5627.2
484.762	5699.06
485.133	5695.44
485.503	5763.92
485.874	5862.44
486.244	5887.3
486.615	6002.55
486.985	6083
487.356	6218.14
487.726	6228.08
488.097	6335.43
488.467	6351.47
488.837	6444.58
489.207	6517.34
489.578	6607.06
489.948	6604.8
490.318	6661.29
490.688	6713.72
491.058	6831.23
491.428	6858.58
491.798	6909.42
492.168	7061.74
492.538	7044.79
492.908	7106.25
493.278	7194.84
493.648	7154.84
494.017	7319.36
494.387	7297.66
494.757	7341.28
495.126	7365.68
495.496	7438
495.866	7472.35
496.235	7522.29
496.605	7648.61
496.974	7556.41
497.344	7703.98
497.713	7735.16
498.082	7802.96
498.452	7835.95
498.821	7856.97
499.19	7783.3
499.559	7877.98
499.928	7915.72
500.298	7995.72
500.667	8099.22
501.036	8016.29
501.405	8105.32
501.774	8123.4
502.143	8135.61
502.512	8127.47
502.88	8159.56
503.249	8216.06
503.618	8202.04
503.987	8251.53
504.356	8274.36
504.724	8328.82
505.093	8266.45
505.462	8354.58
505.83	8393.23
506.199	8418.99
506.567	8489.72
506.936	8451.53
507.304	8538.76
507.672	8567.91
508.041	8533.56
508.409	8603.16
508.777	8675.7
509.145	8677.06
509.514	8602.03
509.882	8712.77
510.25	8702.6
510.618	8742.82
510.986	8728.36
511.354	8765.87
511.722	8752.76
512.09	8879.54
512.458	8753.22
512.826	8861.01
513.193	8823.27
513.561	8855.59
513.929	8932.87
514.297	8910.27
514.664	8977.39
515.032	8967.45
515.4	9013.1
515.767	9023.49
516.135	9055.81
516.502	8967.22
516.869	9130.38
517.237	8966.77
517.604	8997.96
517.972	9033.89
518.339	9097.39
518.706	9058.07
519.073	9049.93
519.44	9126.99
519.808	9167.67
520.175	9106.88
520.542	9185.3
520.909	9187.33
521.276	9184.62
521.643	9181.91
522.009	9153.21
522.376	9199.98
522.743	9209.93
523.11	9256.48
523.477	9234.33
523.843	9259.87
524.21	9355.91
524.577	9371.73
524.943	9344.16
525.31	9386.42
525.676	9420.77
526.043	9432.75
526.409	9376.02
526.776	9496.25
527.142	9425.06
527.508	9511.84
527.874	9436.81
528.241	9538.73
528.607	9504.38
528.973	9574.66
529.339	9533.31
529.705	9537.15
530.071	9532.18
530.437	9519.3
530.803	9568.56
531.169	9533.08
531.535	9488.11
531.901	9520.43
532.267	9496.25
532.632	9516.59
532.998	9539.41
533.364	9517.26
533.73	9515
534.095	9557.26
534.461	9525.63
534.826	9472.75
535.192	9498.51
535.557	9580.99
535.923	9497.83
536.288	9502.35
536.653	9438.17
537.019	9422.58
537.384	9427.55
537.749	9421.45
538.114	9371.5
538.479	9397.27
538.845	9397.94
539.21	9348.91
539.575	9347.55
539.94	9321.11
540.305	9369.47
540.67	9299.64
541.034	9319.08
541.399	9266.87
541.764	9252.86
542.129	9265.52
542.494	9269.13
542.858	9250.6
543.223	9146.43
543.587	9223.94
543.952	9176.48
544.316	9187.78
544.681	9137.39
545.045	9166.54
545.41	9184.17
545.774	9086.77
546.138	9093.55
546.503	9061.46
546.867	9041.12
547.231	9045.64
547.595	9032.53
547.959	9075.92
548.324	9024.62
548.688	8977.84
549.052	8989.82
549.416	8990.5
549.779	8962.25
550.143	8902.14
550.507	8882.48
550.871	8911.4
551.235	8808.58
551.599	8858.07
551.962	8816.94
552.326	8841.12
552.689	8809.49
553.053	8764.52
553.417	8798.41
553.78	8842.71
554.143	8796.83
554.507	8742.14
554.87	8736.49
555.234	8822.82
555.597	8717.96
555.96	8712.54
556.323	8711.86
556.686	8736.95
557.05	8720.9
557.413	8754.8
557.776	8688.36
558.139	8715.7
558.502	8752.76
558.865	8715.48
559.228	8758.64
559.59	8732.88
559.953	8679.55
560.316	8763.16
560.679	8739.88
561.041	8740.56
561.404	8775.14
561.767	8814.91
562.129	8756.61
562.492	8878.18
562.854	8750.05
563.217	8779.66
563.579	8827.56
563.941	8815.59
564.304	8826.66
564.666	8902.82
565.028	8818.98
565.39	8866.21
565.753	8900.78
566.115	8861.91
566.477	8835.25
566.839	8921.8
567.201	8979.2
567.563	8899.65
567.925	8909.37
568.287	8854.91
568.648	9001.57
569.01	9018.07
569.372	9048.58
569.734	9057.39
570.095	9036.37
570.457	9088.12
570.819	9067.56
571.18	9100.78
571.542	9166.31
571.903	9167.67
572.265	9195.24
572.626	9209.93
572.987	9212.19
573.349	9250.15
573.71	9300.77
574.071	9235.92
574.432	9318.85
574.794	9352.3
575.155	9317.95
575.516	9325.63
575.877	9311.62
576.238	9305.97
576.599	9387.1
576.96	9450.82
577.32	9400.66
577.681	9410.15
578.042	9435.01
578.403	9444.95
578.763	9517.26
579.124	9464.84
579.485	9566.3
579.845	9609.92
580.206	9569.92
580.566	9590.93
580.927	9572.86
581.287	9627.54
581.648	9602.91
582.008	9657.37
582.368	9683.81
582.728	9678.39
583.089	9652.4
583.449	9707.77
583.809	9737.15
584.169	9777.14
584.529	9751.61
584.889	9846.52
585.249	9717.03
585.609	9791.38
585.969	9839.74
586.329	9812.17
586.688	9824.37
587.048	9834.77
587.408	9874.77
587.768	9873.64
588.127	9885.16
588.487	9882
588.846	10021.88
589.206	9945.73
589.565	9944.37
589.925	10027.31
590.284	9979.17
590.643	9994.31
591.003	10069.34
591.362	10006.97
591.721	10014.65
592.08	10017.36
592.44	10071.15
592.799	10015.1
593.158	10069.79
593.517	10081.09
593.876	10162.44
594.235	10030.24
594.593	10056.23
594.952	10028.66
595.311	10045.16
595.67	10161.09
596.029	10206.06
596.387	10253.74
596.746	10153.86
597.104	10171.94
597.463	10183.69
597.822	10165.61
598.18	10234.31
598.538	10195.66
598.897	10209
599.255	10156.34
599.613	10343.23
599.972	10185.95
600.33	10266.85
600.688	10194.08
601.046	10279.5
601.404	10244.7
601.762	10266.4
602.12	10340.75
602.478	10320.63
602.836	10331.93
603.194	10270.46
603.552	10328.32
603.91	10274.76
604.268	10353.4
604.625	10298.94
604.983	10358.37
605.341	10334.19
605.698	10416.9
606.056	10350.46
606.413	10338.03
606.771	10427.75
607.128	10430.23
607.485	10380.07
607.843	10388.43
608.2	10412.16
608.557	10475.2
608.914	10371.25
609.272	10434.08
609.629	10483.79
609.986	10562.66
610.343	10465.26
610.7	10564.69
611.057	10492.61
611.414	10485.6
611.771	10512.49
612.127	10575.32
612.484	10468.88
612.841	10595.43
613.198	10528.76
613.554	10546.16
613.911	10590.23
614.267	10629.55
614.624	10591.81
614.98	10644.01
615.337	10634.3
615.693	10610.79
616.05	10596.78
616.406	10692.37
616.762	10700.28
617.118	10650.34
617.475	10637.01
617.831	10684.24
618.187	10792.94
618.543	10748.19
618.899	10691.24
619.255	10781.19
619.611	10714.52
619.967	10732.37
620.323	10827.74
620.678	10694.18
621.034	10689.44
621.39	10694.86
621.746	10677.91
622.101	10853.95
622.457	10740.96
622.812	10759.49
623.168	10785.48
623.523	10746.38
623.879	10757.91
624.234	10717.68
624.589	10762.2
624.945	10743.9
625.3	10763.33
625.655	10659.83
626.01	10695.54
626.365	10756.33
626.72	10756.1
627.075	10719.27
627.43	10792.71
627.785	10685.37
628.14	10714.75
628.495	10781.19
628.85	10734.63
629.205	10700.74
629.559	10719.72
629.914	10630.23
630.269	10623
630.623	10625.94
630.978	10633.62
631.332	10711.13
631.687	10645.82
632.041	10646.5
632.396	10650.12
632.75	10565.6
633.104	10610.79
633.459	10566.28
633.813	10550.68
634.167	10551.81
634.521	10498.71
634.875	10526.5
635.229	10587.97
635.583	10413.51
635.937	10510.46
636.291	10489.89
636.645	10517.24
636.999	10472.04
637.352	10453.06
637.706	10414.64
638.06	10439.05
638.413	10455.09
638.767	10414.87
639.121	10415.09
639.474	10270.46
639.828	10367.86
640.181	10360.41
640.534	10456.45
640.888	10305.72
641.241	10296
641.594	10411.48
641.947	10320.41
642.301	10300.07
642.654	10301.88
643.007	10303.91
643.36	10254.42
643.713	10338.49
644.066	10367.19
644.419	10221.43
644.771	10199.96
645.124	10143.69
645.477	10088.32
645.83	10063.92
646.182	9966.07
646.535	10024.37
646.888	10000.64
647.24	9928.55
647.593	10014.65
647.945	9921.1
648.298	9861.66
648.65	9902.34
649.002	9883.36
649.355	9958.38
649.707	9978.72
650.059	9954.99
650.411	10093.97
650.763	10095.33
651.115	10216.23
651.467	10168.32
651.819	10216.23
652.171	10163.8
652.523	10106.17
652.875	10103.01
653.227	10109.34
653.578	10185.49
653.93	10169.68
654.282	10083.12
654.633	10121.77
654.985	10087.42
655.337	10197.92
655.688	10072.5
656.039	10217.58
656.391	10068.66
656.742	10111.6
657.094	10152.5
657.445	10234.76
657.796	10153.18
658.147	10127.19
658.498	10150.24
658.849	10125.38
659.2	10125.61
659.551	10051.04
659.902	10160.64
660.253	10136.46
660.604	10183.91
660.955	10159.51
661.306	10154.08
661.656	10159.51
662.007	10166.06
662.358	10232.95
662.708	10170.58
663.059	10155.21
663.409	10197.7
663.76	10138.04
664.11	10185.95
664.461	10170.81
664.811	10135.33
665.161	10160.41
665.511	10205.38
665.862	10262.78
666.212	10225.27
666.562	10178.49
666.912	10243.57
667.262	10172.61
667.612	10113.63
667.962	10228.88
668.312	10157.02
668.662	10252.61
669.011	10194.99
669.361	10210.8
669.711	10211.03
670.06	10168.09
670.41	10091.71
670.76	10156.57
671.109	10190.47
671.459	10244.7
671.808	10083.8
672.157	10165.38
672.507	10116.8
672.856	9992.73
673.205	10125.16
673.554	10160.64
673.904	10093.97
674.253	10135.1
674.602	10048.32
674.951	9980.08
675.3	9882
675.649	10013.97
675.998	9975.1
676.346	10023.01
676.695	10104.59
677.044	9952.73
677.393	10007.87
677.741	9974.2
678.09	9961.09
678.438	9994.09
678.787	9939.85
679.135	9963.35
679.484	9884.94
679.832	9970.13
680.181	9879.51
680.529	9962
680.877	9892.17
681.225	9880.87
681.573	9954.99
681.922	9840.65
682.27	9792.51
682.618	9757.48
682.966	9752.06
683.314	9760.2
683.661	9752.51
684.009	9640.88
684.357	9720.2
684.705	9665.51
685.053	9647.88
685.4	9659.18
685.748	9590.93
686.095	9603.59
686.443	9550.48
686.79	9522.91
687.138	9521.33
687.485	9605.17
687.832	9555.23
688.18	9511.39
688.527	9435.91
688.874	9471.39
689.221	9421.45
689.568	9446.53
689.915	9310.26
690.262	9352.07
690.609	9323.14
690.956	9223.03
691.303	9278.4
691.65	9201.11
691.997	9195.92
692.344	9192.3
692.69	9116.37
693.037	9139.65
693.383	9054.68
693.73	9034.34
694.077	8935.13
694.423	8948.69
694.769	9004.51
695.116	8890.61
695.462	8879.99
695.808	8916.83
696.155	8865.53
696.501	8787.34
696.847	8755.02
697.193	8733.1
697.539	8737.17
697.885	8714.12
698.231	8671.86
698.577	8657.85
698.923	8609.04
699.269	8592.77
699.614	8585.99
699.96	8502.15
700.306	8510.28
700.651	8416.73
700.997	8440.23
701.342	8363.85
701.688	8400.91
702.033	8378.76
702.379	8381.25
702.724	8308.26
703.069	8341.93
703.415	8227.58
703.76	8253.12
704.105	8189.16
704.45	8176.06
704.795	8145.77
705.14	8062.16
705.485	8065.55
705.83	8042.05
706.175	8071.88
706.52	7994.59
706.865	7963.63
707.209	7949.62
707.554	7913.69
707.899	7988.72
708.243	7899.23
708.588	7836.63
708.932	7825.33
709.277	7804.09
709.621	7838.89
709.966	7728.38
710.31	7740.36
710.654	7718.44
710.998	7709.63
711.342	7650.42
711.687	7696.52
712.031	7705.56
712.375	7619.01
712.719	7653.13
713.063	7624.43
713.407	7601.83
713.75	7615.39
714.094	7548.28
714.438	7560.25
714.782	7503.31
715.125	7505.79
715.469	7477.54
715.812	7529.97
716.156	7421.05
716.499	7431.44
716.843	7463.08
717.186	7412.69
717.53	7440.93
717.873	7390.99
718.216	7374.5
718.559	7453.59
718.902	7302.41
719.246	7383.99
719.589	7367.49
719.932	7338.79
720.275	7275.74
720.617	7313.93
720.96	7292.01
721.303	7280.03
721.646	7286.36
721.989	7220.6
722.331	7251.33
722.674	7243.2
723.016	7230.09
723.359	7253.14
723.701	7278.68
724.044	7232.8
724.386	7178.57
724.729	7250.2
725.071	7198
725.413	7201.39
725.755	7211.34
726.097	7217.89
726.439	7177.21
726.782	7187.16
727.124	7207.72
727.465	7133.6
727.807	7119.59
728.149	7092.92
728.491	7104.67
728.833	7199.58
729.175	7150.09
729.516	7096.76
729.858	7187.83
730.199	7159.81
730.541	7135.18
730.882	7125.24
731.224	7164.78
731.565	7100.83
731.906	7104.45
732.248	7142.86
732.589	7122.07
732.93	7052.24
733.271	7076.42
733.612	7127.04
733.953	7148.51
734.294	7072.58
734.635	7129.98
734.976	7134.5
735.317	7106.48
735.658	7103.99
735.999	7066.93
736.339	7136.54
736.68	7148.51
737.021	7092.92
737.361	7146.48
737.702	7207.72
738.042	7162.3
738.383	7143.99
738.723	7158.23
739.063	7187.16
739.404	7170.43
739.744	7205.46
740.084	7134.28
740.424	7223.09
740.764	7173.14
741.104	7254.05
741.444	7160.94
741.784	7238.91
742.124	7244.33
742.464	7245.91
742.804	7264.89
743.143	7290.43
743.483	7384.89
743.823	7291.79
744.162	7350.54
744.502	7421.05
744.841	7361.16
745.181	7484.1
745.52	7488.84
745.86	7506.47
746.199	7542.63
746.538	7636.86
746.877	7704.88
747.216	7631.21
747.556	7725.9
747.895	7780.81
748.234	7727.48
748.573	7865.56
748.911	7930.41
749.25	7882.96
749.589	7927.25
749.928	8083.4
750.267	8136.96
750.605	8194.13
750.944	8298.76
751.283	8277.07
751.621	8451.76
751.96	8439.55
752.298	8504.86
752.636	8693.78
752.975	8803.38
753.313	8798.64
753.651	9000.67
753.989	9000.22
754.327	9164.96
754.666	9230.94
755.004	9386.87
755.342	9585.74
755.679	9607.88
756.017	9700.99
756.355	9930.59
756.693	9959.06
757.031	10156.34
757.368	10259.84
757.706	10435.43
758.044	10529.67
758.381	10781.86
758.719	10930.79
759.056	10994.97
759.394	11255.07
759.731	11372.81
760.068	11547.94
760.405	11700.03
760.743	11766.02
761.08	12039.46
761.417	12206.46
761.754	12399
762.091	12542.27
762.428	12662.94
762.765	12870.62
763.102	13128.24
763.438	13181.57
763.775	13342.93
764.112	13645.74
764.449	13843.48
764.785	13939.29
765.122	14074.21
765.458	14258.61
765.795	14436.68
766.131	14589.9
766.467	14689.56
766.804	14864.24
767.14	14995.76
767.476	15297.9
767.812	15304.68
768.148	15494.73
768.485	15704.22
768.821	15772.47
769.157	15934.27
769.492	16063.98
769.828	16228.27
770.164	16287.71
770.5	16414.71
770.836	16606.34
771.171	16715.94
771.507	16745.77
771.842	16772.67
772.178	16925.88
772.513	17066.67
772.849	17216.5
773.184	17214.24
773.519	17361.35
773.855	17342.14
774.19	17484.29
774.525	17600.44
774.86	17708.01
775.195	17805.86
775.53	17799.31
775.865	17799.31
776.2	17847.67
776.535	17881.79
776.87	18028.9
777.205	18063.93
777.539	18062.35
777.874	18199.75
778.209	18177.38
778.543	18248.79
778.878	18255.11
779.212	18333.98
779.547	18223.02
779.881	18374.66
780.215	18265.28
780.55	18504.37
780.884	18353.87
781.218	18489.46
781.552	18485.16
781.886	18540.08
782.22	18468.44
782.554	18457.59
782.888	18460.53
783.222	18353.42
783.556	18389.8
783.889	18430.48
784.223	18377.37
784.557	18393.41
784.89	18493.3
785.224	18422.57
785.557	18330.37
785.891	18411.49
786.224	18382.57
786.558	18407.88
786.891	18348.44
787.224	18293.98
787.557	18325.85
787.891	18343.25
788.224	18290.14
788.557	18410.36
788.89	18361.33
789.223	18374.66
789.556	18253.76
789.888	18233.64
790.221	18213.76
790.554	18162.01
790.887	18078.62
791.219	18024.16
791.552	18060.54
791.884	18028.9
792.217	18031.62
792.549	17994.1
792.882	17983.03
793.214	17868.46
793.546	18011.96
793.879	17875.01
794.211	17715.92
794.543	17914.56
794.875	17704.62
795.207	17935.57
795.539	17752.98
795.871	17918.17
796.203	17607.67
796.535	17599.54
796.867	17598.86
797.198	17490.84
797.53	17515.92
797.862	17482.93
798.193	17510.5
798.525	17403.61
798.856	17456.49
799.188	17170.17
799.519	17199.32
799.85	17139.89
800.182	17160.9
800.513	17227.12
800.844	16977.41
801.175	17120
801.506	17112.54
801.837	17009.95
802.168	16999.78
802.499	16959.55
802.83	16900.12
803.161	16881.14
803.491	16902.83
803.822	16870.29
804.153	16682.73
804.483	16697.64
804.814	16649.05
805.145	16571.54
805.475	16595.95
805.805	16538.1
806.136	16583.74
806.466	16543.75
806.796	16434.82
807.126	16404.77
807.457	16412
807.787	16395.28
808.117	16256.97
808.447	16261.95
808.777	16353.24
809.107	16246.35
809.436	16162.29
809.766	16172.91
810.096	16056.98
810.426	16141.72
810.755	16098.79
811.085	16132.01
811.414	16052.46
811.744	15942.18
812.073	16021.95
812.403	15910.99
812.732	15783.09
813.061	15785.12
813.39	15720.72
813.719	15795.97
814.049	15865.57
814.378	15741.06
814.707	15699.25
815.036	15791
815.365	15620.38
815.693	15519.14
816.022	15488.41
816.351	15442.53
816.68	15453.83
817.008	15486.15
817.337	15431.91
817.665	15221.07
817.994	15367.28
818.322	15316.66
818.651	15266.72
818.979	15231.01
819.307	15303.78
819.636	15308.52
819.964	15165.7
820.292	15230.33
820.62	15241.63
820.948	15146.49
821.276	15279.6
821.604	15119.6
821.932	15226.72
822.259	15234.85
822.587	15166.61
822.915	15124.35
823.243	15129.77
823.57	15178.58
823.898	15130.68
824.225	15107.4
824.553	15150.56
824.88	15096.55
825.207	15220.39
825.535	15123.22
825.862	15165.25
826.189	15120.28
826.516	15200.73
826.843	15269.43
827.17	15176.32
827.497	15227.85
827.824	15245.25
828.151	15232.37
828.478	15172.93
828.805	15289.54
829.131	15258.58
829.458	15200.96
829.785	15190.11
830.111	15215.65
830.438	15264.01
830.764	15190.79
831.09	15304
831.417	15216.1
831.743	15181.52
832.069	15218.81
832.395	15172.48
832.722	15168.64
833.048	15188.3
833.374	15071.92
833.7	15099.49
834.026	15085.03
834.351	15127.29
834.677	15125.48
835.003	15189.88
835.329	15079.38
835.654	15060.17
835.98	14947.86
836.306	14999.38
836.631	14957.35
836.956	15019.27
837.282	15008.87
837.607	14831.93
837.932	14897.46
838.258	14872.15
838.583	14899.04
838.908	14815.66
839.233	14812.49
839.558	14784.47
839.883	14732.95
840.208	14739.73
840.533	14636.23
840.858	14678.94
841.182	14721.65
841.507	14617.24
841.832	14525.49
842.156	14569.11
842.481	14664.93
842.805	14519.62
843.13	14551.26
843.454	14496.34
843.778	14484.36
844.103	14371.15
844.427	14349.91
844.751	14379.06
845.075	14262
845.399	14235.78
845.723	14160.31
846.047	14189.01
846.371	14151.04
846.695	14019.29
847.019	13973.42
847.343	13917.37
847.666	13867.66
847.99	13816.81
848.313	13745.63
848.637	13743.82
848.96	13594.44
849.284	13589.47
849.607	13485.52
849.931	13567.1
850.254	13419.99
850.577	13343.83
850.9	13294.57
851.223	13203.04
851.546	13237.17
851.869	13106.55
852.192	13093.22
852.515	13034.01
852.838	13078.07
853.161	13049.37
853.483	12926.44
853.806	12867.46
854.129	12871.07
854.451	12825.43
854.774	12770.96
855.096	12749.72
855.419	12721.93
855.741	12710.63
856.063	12617.07
856.385	12549.5
856.708	12483.06
857.03	12470.41
857.352	12509.5
857.674	12431.54
857.996	12469.28
858.318	12322.39
858.64	12326
858.961	12274.48
859.283	12302.05
859.605	12230.86
859.926	12250.07
860.248	12152.45
860.57	12125.78
860.891	12054.37
861.212	12070.87
861.534	12039.23
861.855	11978.22
862.176	12013.92
862.498	11918.33
862.819	11969.18
863.14	12022.51
863.461	11910.87
863.782	11894.6
864.103	11966.47
864.424	11790.65
864.745	11870.87
865.065	11761.27
865.386	11783.19
865.707	11635.17
866.027	11727.6
866.348	11752.46
866.668	11706.13
866.989	11624.55
867.309	11580.26
867.63	11665.46
867.95	11628.17
868.27	11502.75
868.59	11611.67
868.91	11582.75
869.23	11494.39
869.55	11455.74
869.87	11547.72
870.19	11446.03
870.51	11475.18
870.83	11462.75
871.15	11360.15
871.469	11396.76
871.789	11459.36
872.109	11437.44
872.428	11286.26
872.748	11362.19
873.067	11288.52
873.386	11322.19
873.706	11302.3
874.025	11237.22
874.344	11182.53
874.663	11285.13
874.982	11240.38
875.301	11137.56
875.62	11199.71
875.939	11110.44
876.258	11175.98
876.577	11126.49
876.896	11105.92
877.214	11070.44
877.533	11061.86
877.852	11066.38
878.17	11012.59
878.489	11030.9
878.807	11003.78
879.125	10972.37
879.444	10945.93
879.762	10905.93
880.08	10895.31
880.398	10785.03
880.716	10866.38
881.034	10922.88
881.352	10849.43
881.67	10850.34
881.988	10806.5
882.306	10772.37
882.624	10710.68
882.941	10701.41
883.259	10644.24
883.577	10697.12
883.894	10633.84
884.212	10639.49
884.529	10632.49
884.846	10591.13
885.164	10525.82
885.481	10478.59
885.798	10469.1
886.115	10438.14
886.432	10478.37
886.75	10417.13
887.067	10379.16
887.383	10374.87
887.7	10352.04
888.017	10290.35
888.334	10287.87
888.651	10302.78
888.967	10283.35
889.284	10134.65
889.6	10162.44
889.917	10102.56
890.233	10142.78
890.55	10062.11
890.866	10096.68
891.182	10027.98
891.498	9996.12
891.815	9913.19
892.131	9939.85
892.447	9868.44
892.763	9859.18
893.079	9779.63
893.395	9764.94
893.71	9780.53
894.026	9714.32
894.342	9723.13
894.657	9688.78
894.973	9659.63
895.289	9620.31
895.604	9655.79
895.92	9563.36
896.235	9461.45
896.55	9505.51
896.865	9498.06
897.181	9397.72
897.496	9545.51
897.811	9362.92
898.126	9358.85
898.441	9320.88
898.756	9226.88
899.071	9228.23
899.386	9228.01
899.7	9107.33
900.015	9152.98
900.33	9071.85
900.644	9056.03
900.959	9038.63
901.273	9052.64
901.588	9010.38
901.902	8965.64
902.216	8901.23
902.531	8867.11
902.845	8824.17
903.159	8795.47
903.473	8786.44
903.787	8684.74
904.101	8690.39
904.415	8629.15
904.729	8618.98
905.042	8616.27
905.356	8604.97
905.67	8560.68
905.984	8546.67
906.297	8507.57
906.611	8475.94
906.924	8483.17
907.237	8444.75
907.551	8366.11
907.864	8353.68
908.177	8319.56
908.491	8297.18
908.804	8222.83
909.117	8120.92
909.43	8165.66
909.743	8053.57
910.056	8089.28
910.368	8064.19
910.681	7987.81
910.994	8061.48
911.307	7977.19
911.619	7858.55
911.932	7955.05
912.244	7781.72
912.557	7856.06
912.869	7774.71
913.181	7748.72
913.494	7710.76
913.806	7647.93
914.118	7670.31
914.43	7593.92
914.742	7577.88
915.054	7523.42
915.366	7557.99
915.678	7437.32
915.99	7489.29
916.302	7377.89
916.613	7360.48
916.925	7339.02
917.236	7349.19
917.548	7265.12
917.859	7319.81
918.171	7241.17
918.482	7224.67
918.794	7153.48
919.105	7181.96
919.416	7129.53
919.727	7083.66
920.038	7139.25
920.349	7022.87
920.66	6993.94
920.971	7020.15
921.282	6965.01
921.593	6887.95
921.903	6869.42
922.214	6869.65
922.525	6855.86
922.835	6795.08
923.146	6806.37
923.456	6710.78
923.767	6719.6
924.077	6661.75
924.387	6696.77
924.697	6661.75
925.008	6659.26
925.318	6605.7
925.628	6602.76
925.938	6551.69
926.248	6524.8
926.558	6465.59
926.867	6435.76
927.177	6446.84
927.487	6400.96
927.796	6387.4
928.106	6365.93
928.416	6318.25
928.725	6331.36
929.034	6266.5
929.344	6267.86
929.653	6254.98
929.962	6218.59
930.271	6170.69
930.581	6142.66
930.89	6142.21
931.199	6140.86
931.508	6102.89
931.817	6077.81
932.125	6044.36
932.434	5995.1
932.743	5937.02
933.051	5957.36
933.36	5943.57
933.669	5916.91
933.977	5931.37
934.286	5866.06
934.594	5819.96
934.902	5814.54
935.21	5759.4
935.519	5802.33
935.827	5800.53
936.135	5748.32
936.443	5625.16
936.751	5676.23
937.059	5654.54
937.367	5588.78
937.674	5584.49
937.982	5597.14
938.29	5550.14
938.597	5502
938.905	5481.21
939.213	5477.6
939.52	5448.67
939.827	5459.97
940.135	5409.12
940.442	5374.55
940.749	5375.45
941.056	5356.02
941.363	5300.88
941.67	5252.07
941.977	5293.42
942.284	5171.84
942.591	5182.24
942.898	5160.32
943.205	5170.49
943.511	5133.42
943.818	5115.12
944.125	5104.72
944.431	5060.21
944.738	5058.85
945.044	5055.46
945.35	4992.64
945.657	4913.09
945.963	4998.06
946.269	4948.12
946.575	4928.68
946.881	4880.55
947.187	4860.44
947.493	4857.73
947.799	4861.12
948.105	4845.97
948.41	4804.85
948.716	4809.14
949.022	4766.2
949.327	4749.48
949.633	4713.32
949.938	4693.21
950.244	4745.19
950.549	4670.61
950.854	4635.58
951.16	4651.63
951.465	4618.41
951.77	4608.24
952.075	4589.48
952.38	4516.72
952.685	4507
952.99	4482.37
953.294	4512.65
953.599	4475.81
953.904	4482.59
954.209	4405.76
954.513	4431.97
954.818	4412.54
955.122	4356.5
955.426	4359.21
955.731	4344.52
956.035	4322.82
956.339	4305.42
956.643	4305.65
956.948	4259.55
957.252	4193.11
957.556	4196.73
957.86	4244.86
958.163	4164.64
958.467	4184.97
958.771	4149.27
959.075	4140.91
959.378	4102.94
959.682	4139.1
959.985	4083.96
960.289	4064.53
960.592	4049.39
960.896	4012.78
961.199	4015.71
961.502	4056.39
961.805	3993.12
962.108	3954.7
962.411	3965.32
962.714	3946.79
963.017	3930.29
963.32	3904.08
963.623	3881.03
963.926	3877.19
964.228	3871.54
964.531	3813.46
964.833	3807.81
965.136	3800.58
965.438	3772.78
965.741	3721.26
966.043	3738.88
966.345	3706.34
966.648	3715.61
966.95	3699.79
967.252	3659.34
967.554	3687.81
967.856	3663.18
968.158	3604.65
968.46	3605.55
968.761	3605.78
969.063	3590.19
969.365	3565.33
969.666	3569.17
969.968	3541.83
970.269	3543.64
970.571	3512.45
970.872	3495.05
971.174	3468.16
971.475	3449.63
971.776	3416.86
972.077	3455.28
972.378	3425.22
972.679	3427.93
972.98	3433.13
973.281	3365.56
973.582	3374.15
973.883	3359.01
974.183	3336.64
974.484	3325.56
974.785	3315.17
975.085	3308.39
975.386	3292.12
975.686	3282.63
975.986	3267.26
976.287	3251.89
976.587	3222.51
976.887	3182.29
977.187	3162.18
977.487	3205.11
977.787	3188.62
978.087	3175.96
978.387	3183.65
978.687	3118.34
978.987	3120.37
979.286	3108.39
979.586	3044.89
979.885	3055.29
980.185	3032.69
980.484	3026.36
980.784	3030.43
981.083	2983.2
981.382	2987.94
981.682	3012.12
981.981	2944.1
982.28	2955.85
982.579	2926.02
982.878	2950.88
983.177	2904.78
983.475	2890.32
983.774	2877.89
984.073	2852.58
984.372	2854.16
984.67	2862.07
984.969	2869.76
985.267	2811.9
985.566	2825.24
985.864	2808.29
986.162	2789.76
986.461	2791.34
986.759	2770.77
987.057	2696.43
987.355	2710.44
987.653	2707.5
987.951	2719.93
988.249	2692.13
988.547	2723.77
988.844	2654.39
989.142	2684
989.44	2673.38
989.737	2625.02
990.035	2599.71
990.332	2588.63
990.63	2595.41
990.927	2601.51
991.224	2576.2
991.521	2581.63
991.819	2513.15
992.116	2524.45
992.413	2526.49
992.71	2515.64
993.006	2487.17
993.303	2508.86
993.6	2498.24
993.897	2428.86
994.193	2434.74
994.49	2457.79
994.787	2475.19
995.083	2419.82
995.379	2385.02
995.676	2404
995.972	2398.36
996.268	2372.37
996.565	2368.98
996.861	2329.66
997.157	2379.82
997.453	2337.57
997.749	2323.33
998.044	2284.46
998.34	2254.18
998.636	2306.15
998.932	2248.53
999.227	2252.37
999.523	2240.62
999.818	2221.86
1000.114	2193.16
1000.409	2204.69
1000.704	2168.53
1001	2156.55
1001.295	2188.19
1001.59	2155.42
1001.885	2179.38
1002.18	2121.3
1002.475	2152.03
1002.77	2112.03
1003.065	2082.88
1003.359	2070.45
1003.654	2096.89
1003.949	2073.84
1004.243	2052.38
1004.538	2036.1
1004.832	2016.44
1005.127	2015.31
1005.421	2014.64
1005.715	1986.39
1006.009	2001.3
1006.304	1971.93
1006.598	1954.75
1006.892	1968.99
1007.186	1955.2
1007.48	1947.07
1007.773	1912.94
1008.067	1896.9
1008.361	1860.97
1008.655	1886.96
1008.948	1850.57
1009.242	1876.56
1009.535	1855.32
1009.829	1835.21
1010.122	1804.47
1010.415	1808.31
1010.708	1825.04
1011.001	1801.76
1011.295	1774.42
1011.588	1788.88
1011.881	1783.23
1012.173	1757.47
1012.466	1773.06
1012.759	1742.1
1013.052	1731.93
1013.344	1705.04
1013.637	1730.12
1013.93	1679.5
1014.222	1711.59
1014.514	1680.41
1014.807	1664.81
1015.099	1624.14
1015.391	1647.19
1015.683	1650.35
1015.976	1613.06
1016.268	1619.39
1016.56	1605.61
1016.851	1593.63
1017.143	1605.61
1017.435	1571.03
1017.727	1577.81
1018.018	1532.16
1018.31	1546.63
1018.602	1554.99
1018.893	1534.87
1019.185	1536.23
1019.476	1501.66
1019.767	1499.4
1020.058	1466.4
1020.35	1481.54
1020.641	1457.81
1020.932	1451.26
1021.223	1446.52
1021.514	1442
1021.804	1419.85
1022.095	1425.95
1022.386	1427.53
1022.677	1411.26
1022.967	1398.83
1023.258	1383.47
1023.548	1395.9
1023.839	1343.47
1024.129	1369.91
1024.419	1362.45
1024.709	1314.77
1025	1353.41
1025.29	1333.75
1025.58	1313.86
1025.87	1293.98
1026.16	1263.92
1026.449	1297.82
1026.739	1270.7
1027.029	1298.5
1027.319	1259.4
1027.608	1236.8
1027.898	1258.27
1028.187	1230.02
1028.477	1227.31
1028.766	1209.46
1029.055	1243.81
1029.344	1210.36
1029.634	1189.8
1029.923	1194.54
1030.212	1192.96
1030.501	1194.09
1030.79	1153.87
1031.078	1154.55
1031.367	1147.31
1031.656	1133.76
1031.945	1138.95
1032.233	1129.24
1032.522	1140.08
1032.81	1126.07
1033.099	1110.71
1033.387	1109.8
1033.675	1090.59
1033.963	1075.68
1034.251	1082.91
1034.54	1069.8
1034.828	1077.94
1035.116	1086.07
1035.403	1084.04
1035.691	1030.26
1035.979	1061.44
1036.267	1034.55
1036.554	1026.19
1036.842	1037.03
1037.129	993.42
1037.417	994.78
1037.704	1005.4
1037.992	996.36
1038.279	1010.82
1038.566	998.39
1038.853	998.39
1039.14	998.39
