Data from hue_90_FLMS001491_12.txt Node
Date: Mon Feb 06 15:24:44 GMT 2017
User: dcchb
Spectrometer: FLMS00149
Trigger mode: 0
Integration Time (sec): 2.000000E-2
Scans to average: 10
Electric dark correction enabled: true
Nonlinearity correction enabled: false
Boxcar width: 0
XAxis mode: Wavelengths
Number of Pixels in Spectrum: 2048
>>>>>Begin Spectral Data<<<<<
341.393	-0.45
341.776	-0.45
342.16	-0.45
342.543	-63.73
342.927	-70.51
343.31	-70.28
343.693	-69.15
344.077	-83.61
344.46	-63.73
344.843	-68.25
345.226	-63.73
345.61	-30.96
345.993	-10.85
346.376	-11.07
346.759	10.62
347.142	27.57
347.525	49.94
347.908	87.91
348.291	68.47
348.674	118.64
349.057	108.47
349.44	115.7
349.823	132.43
350.206	177.17
350.588	189.15
350.971	204.51
351.354	220.56
351.737	230.5
352.119	250.16
352.502	264.17
352.884	272.99
353.267	285.87
353.65	272.76
354.032	286.55
354.414	297.62
354.797	293.78
355.179	323.83
355.562	325.19
355.944	331.97
356.326	307.56
356.709	319.09
357.091	333.32
357.473	335.81
357.855	331.29
358.238	327.22
358.62	346.43
359.002	343.04
359.384	338.52
359.766	336.94
360.148	336.26
360.53	368.58
360.912	323.61
361.294	335.58
361.676	328.8
362.057	332.42
362.439	312.08
362.821	324.29
363.203	324.06
363.584	325.87
363.966	331.52
364.348	338.52
364.729	311.18
365.111	321.8
365.493	324.74
365.874	305.08
366.256	315.7
366.637	317.28
367.019	300.56
367.4	321.57
367.781	312.08
368.163	314.34
368.544	302.14
368.925	332.19
369.306	321.8
369.688	325.87
370.069	312.99
370.45	319.09
370.831	327.9
371.212	300.33
371.593	330.84
371.974	333.55
372.355	314.34
372.736	323.83
373.117	319.09
373.498	307.34
373.879	321.35
374.26	310.05
374.641	304.17
375.021	316.83
375.402	339.65
375.783	318.86
376.163	348.47
376.544	323.61
376.925	329.71
377.305	320.9
377.686	325.87
378.066	328.58
378.447	308.24
378.827	337.84
379.208	337.17
379.588	324.74
379.968	322.93
380.349	334.45
380.729	347.79
381.109	354.34
381.489	343.72
381.87	344.85
382.25	337.17
382.63	343.27
383.01	354.57
383.39	355.92
383.77	343.49
384.15	338.52
384.53	327.45
384.91	342.59
385.29	362.25
385.67	356.37
386.049	344.62
386.429	324.06
386.809	339.65
387.189	348.01
387.568	346.43
387.948	356.15
388.328	338.75
388.707	361.35
389.087	339.65
389.466	368.35
389.846	357.96
390.225	352.99
390.605	360.89
390.984	369.03
391.363	364.28
391.743	356.15
392.122	369.26
392.501	367.45
392.881	363.15
393.26	366.77
393.639	379.65
394.018	373.1
394.397	375.13
394.776	374.23
395.155	388.01
395.534	384.17
395.913	360.22
396.292	382.36
396.671	371.06
397.05	380.78
397.429	374.68
397.808	392.76
398.186	381.01
398.565	373.78
398.944	383.27
399.323	377.39
399.701	405.64
400.08	388.24
400.458	387.79
400.837	379.43
401.215	383.72
401.594	390.05
401.972	384.85
402.351	406.54
402.729	387.79
403.107	395.24
403.486	409.25
403.864	400.67
404.242	423.27
404.62	423.94
404.999	403.83
405.377	429.37
405.755	430.05
406.133	413.77
406.511	417.16
406.889	421.91
407.267	432.31
407.645	416.49
408.023	437.05
408.401	449.03
408.779	428.69
409.156	436.82
409.534	424.17
409.912	445.86
410.29	452.64
410.667	472.3
411.045	439.54
411.422	420.1
411.8	458.97
412.178	426.2
412.555	467.56
412.933	482.25
413.31	467.56
413.687	467.78
414.065	461.91
414.442	487.44
414.819	472.08
415.197	493.77
415.574	473.43
415.951	510.72
416.328	507.56
416.705	490.16
417.082	481.12
417.46	503.04
417.837	496.03
418.214	510.04
418.591	516.82
418.967	501.68
419.344	523.15
419.721	496.94
420.098	519.31
420.475	497.61
420.852	496.94
421.228	502.59
421.605	513.88
421.982	526.54
422.358	504.62
422.735	559.76
423.111	542.36
423.488	547.78
423.864	552.98
424.241	551.4
424.617	537.39
424.994	547.56
425.37	550.04
425.746	562.92
426.123	551.17
426.499	557.05
426.875	570.38
427.251	560.89
427.627	585.52
428.003	584.62
428.379	587.33
428.756	577.16
429.132	587.33
429.507	604.96
429.883	575.58
430.259	593.88
430.635	612.87
431.011	608.35
431.387	630.27
431.763	605.18
432.138	628.01
432.514	637.5
432.89	628.01
433.265	661
433.641	653.77
434.016	654.9
434.392	668.68
434.767	667.55
435.143	691.06
435.518	686.54
435.894	680.89
436.269	704.16
436.644	690.15
437.02	704.61
437.395	729.25
437.77	698.06
438.145	701.45
438.52	718.17
438.895	739.87
439.271	723.6
439.646	758.4
440.021	779.41
440.395	745.74
440.77	774.44
441.145	740.77
441.52	790.26
441.895	773.09
442.27	779.64
442.645	764.95
443.019	758.85
443.394	778.51
443.769	793.2
444.143	825.29
444.518	781.22
444.892	800.2
445.267	786.87
445.641	812.18
446.016	823.48
446.39	807.89
446.764	813.99
447.139	837.04
447.513	836.36
447.887	821.45
448.262	829.81
448.636	849.02
449.01	876.36
449.384	846.08
449.758	869.13
450.132	882.46
450.506	883.82
450.88	884.72
451.254	875.46
451.628	909.35
452.002	903.48
452.376	900.99
452.75	921.78
453.123	937.83
453.497	937.6
453.871	934.21
454.244	967.21
454.618	951.39
454.992	994.55
455.365	984.15
455.739	995.91
456.112	982.12
456.486	999.07
456.859	999.07
457.232	1030.48
457.606	1041.1
457.979	1031.84
458.352	1079.75
458.725	1053.98
459.099	1082.91
459.472	1110.03
459.845	1090.14
460.218	1134.43
460.591	1129.91
460.964	1137.15
461.337	1178.05
461.71	1178.05
462.083	1179.18
462.456	1190.25
462.829	1206.75
463.201	1227.99
463.574	1218.95
463.947	1263.7
464.32	1253.3
464.692	1289.23
465.065	1298.72
465.438	1332.17
465.81	1319.06
466.183	1351.83
466.555	1380.53
466.928	1377.59
467.3	1391.38
467.672	1409.91
468.045	1457.36
468.417	1465.5
468.789	1465.5
469.161	1489.45
469.534	1580.52
469.906	1567.42
470.278	1588.43
470.65	1616.91
471.022	1617.58
471.394	1677.92
471.766	1699.39
472.138	1738.49
472.51	1769.67
472.882	1759.05
473.253	1845.83
473.625	1878.37
473.997	1928.76
474.369	1927.18
474.74	1963.11
475.112	2051.92
475.484	2082.66
475.855	2124.01
476.227	2159.49
476.598	2227.06
476.97	2246.95
477.341	2314.74
477.713	2380.5
478.084	2391.8
478.455	2500.05
478.827	2553.15
479.198	2624.79
479.569	2668.63
479.94	2770.1
480.311	2821.17
480.682	2916.76
481.053	2980.49
481.424	3103.2
481.795	3190.42
482.166	3236.98
482.537	3330.76
482.908	3387.48
483.279	3449.4
483.65	3559
484.021	3697.3
484.391	3765.1
484.762	3839.9
485.133	3902.04
485.503	4027.92
485.874	4142.26
486.244	4246.22
486.615	4362.6
486.985	4448.47
487.356	4551.29
487.726	4664.06
488.097	4814.56
488.467	4916.93
488.837	5051.39
489.207	5171.84
489.578	5230.82
489.948	5353.08
490.318	5481.89
490.688	5604.37
491.058	5720.3
491.428	5911.48
491.798	5941.31
492.168	6161.19
492.538	6182.44
492.908	6350.57
493.278	6431.7
493.648	6521.86
494.017	6645.47
494.387	6771.35
494.757	6945.81
495.126	7050.21
495.496	7139.02
495.866	7206.82
496.235	7358.68
496.605	7519.12
496.974	7544.89
497.344	7670.31
497.713	7733.58
498.082	7927.02
498.452	8001.82
498.821	8071.2
499.19	8116.4
499.559	8303.96
499.928	8389.38
500.298	8507.35
500.667	8610.85
501.036	8605.42
501.405	8746.44
501.774	8755.7
502.143	8886.09
502.512	8959.76
502.88	9073.89
503.249	9141
503.618	9183.04
503.987	9206.54
504.356	9345.29
504.724	9408.79
505.093	9430.49
505.462	9582.57
505.83	9689.69
506.199	9724.49
506.567	9861.44
506.936	9873.86
507.304	9962.45
507.672	9985.73
508.041	10123.8
508.409	10164.48
508.777	10239.5
509.145	10267.98
509.514	10244.02
509.882	10482.89
510.25	10393.63
510.618	10451.48
510.986	10537.35
511.354	10626.39
511.722	10682.88
512.09	10779.83
512.458	10737.12
512.826	10819.6
513.193	10966.49
513.561	10930.56
513.929	10958.81
514.297	11072.25
514.664	11148.86
515.032	11145.47
515.4	11186.15
515.767	11190.89
516.135	11297.56
516.502	11236.99
516.869	11387.27
517.237	11383.88
517.604	11405.58
517.972	11456.87
518.339	11571
518.706	11449.42
519.073	11472.24
519.44	11567.83
519.808	11632.01
520.175	11549.07
520.542	11726.47
520.909	11714.95
521.276	11752.69
521.643	11790.65
522.009	11839.01
522.376	11835.4
522.743	11905.45
523.11	11944.32
523.477	12053.69
523.843	12039.23
524.21	12154.26
524.577	12145.22
524.943	12206.68
525.31	12143.64
525.676	12155.39
526.043	12275.61
526.409	12281.03
526.776	12382.73
527.142	12327.59
527.508	12349.73
527.874	12376.4
528.241	12409.84
528.607	12425.66
528.973	12461.59
529.339	12360.35
529.705	12479.45
530.071	12517.64
530.437	12535.04
530.803	12542.72
531.169	12591.99
531.535	12464.08
531.901	12502.5
532.267	12510.41
532.632	12598.99
532.998	12559.67
533.364	12542.04
533.73	12577.75
534.095	12566
534.461	12496.17
534.826	12567.13
535.192	12566.22
535.557	12601.93
535.923	12448.26
536.288	12562.61
536.653	12486.23
537.019	12457.53
537.384	12459.33
537.749	12468.6
538.114	12475.38
538.479	12442.16
538.845	12406.68
539.21	12355.38
539.575	12313.57
539.94	12368.26
540.305	12327.36
540.67	12273.12
541.034	12228.38
541.399	12268.38
541.764	12187.93
542.129	12264.31
542.494	12297.98
542.858	12104.54
543.223	12198.1
543.587	12150.87
543.952	12135.05
544.316	12120.59
544.681	12075.39
545.045	12032.68
545.41	12103.64
545.774	12010.31
546.138	11916.07
546.503	11936.18
546.867	11922.62
547.231	11977.09
547.595	12001.94
547.959	11879.24
548.324	11898.22
548.688	11915.62
549.052	11825.23
549.416	11790.42
549.779	11663.87
550.143	11701.39
550.507	11795.4
550.871	11708.17
551.235	11714.49
551.599	11672.46
551.962	11587.94
552.326	11681.95
552.689	11670.43
553.053	11596.53
553.417	11556.31
553.78	11718.79
554.143	11581.84
554.507	11671.11
554.87	11565.12
555.234	11650.09
555.597	11484.9
555.96	11548.4
556.323	11490.32
556.686	11458
557.05	11542.3
557.413	11473.14
557.776	11462.52
558.139	11523.09
558.502	11519.47
558.865	11520.38
559.228	11500.94
559.59	11548.4
559.953	11495.52
560.316	11581.39
560.679	11520.15
561.041	11545.23
561.404	11517.66
561.767	11582.75
562.129	11525.12
562.492	11609.41
562.854	11514.05
563.217	11493.71
563.579	11547.94
563.941	11589.53
564.304	11591.11
564.666	11672.01
565.028	11583.42
565.39	11622.52
565.753	11704.78
566.115	11674.27
566.477	11674.27
566.839	11698
567.201	11778
567.563	11699.81
567.925	11805.11
568.287	11706.58
568.648	11742.97
569.01	11799.24
569.372	11730.54
569.734	11724.89
570.095	11817.54
570.457	11810.99
570.819	11846.24
571.18	11812.57
571.542	11834.94
571.903	11877.88
572.265	11894.83
572.626	11930.99
572.987	11874.94
573.349	11900.25
573.71	11981.61
574.071	11892.79
574.432	11998.33
574.794	12080.36
575.155	11944.54
575.516	11950.87
575.877	11992.68
576.238	11988.61
576.599	12103.64
576.96	11986.8
577.32	12030.64
577.681	12041.04
578.042	12059.34
578.403	12079
578.763	11998.78
579.124	12102.05
579.485	12054.6
579.845	12095.28
580.206	12022.96
580.566	12023.19
580.927	12077.87
581.287	12088.04
581.648	12104.77
582.008	12035.39
582.368	12044.66
582.728	12050.76
583.089	12126.69
583.449	12024.32
583.809	12032.45
584.169	12082.85
584.529	12044.2
584.889	12021.15
585.249	11953.36
585.609	11964.88
585.969	12080.59
586.329	12017.99
586.688	12018.67
587.048	11994.71
587.408	11866.13
587.768	11999.23
588.127	11930.31
588.487	11959.91
588.846	12010.53
589.206	11933.47
589.565	11907.03
589.925	11865.22
590.284	11960.14
590.643	11796.75
591.003	11968.72
591.362	11980.02
591.721	11858.22
592.08	11903.64
592.44	11881.5
592.799	11945.22
593.158	11922.4
593.517	11840.59
593.876	11915.17
594.235	11825.9
594.593	11850.31
594.952	11835.85
595.311	11799.69
595.67	11862.51
596.029	11820.71
596.387	11935.51
596.746	11901.38
597.104	11817.77
597.463	11876.07
597.822	11868.16
598.18	11854.38
598.538	11782.97
598.897	11839.91
599.255	11829.97
599.613	11900.48
599.972	11843.08
600.33	11913.59
600.688	11783.64
601.046	11909.74
601.404	11944.09
601.762	11790.88
602.12	11895.73
602.478	11885.34
602.836	11830.2
603.194	11830.88
603.552	11824.1
603.91	11758.33
604.268	11855.06
604.625	11794.72
604.983	11865.9
605.341	11845.11
605.698	11929.63
606.056	11855.73
606.413	11814.15
606.771	11823.42
607.128	11833.59
607.485	11848.05
607.843	11829.52
608.2	11904.55
608.557	11944.54
608.914	11895.73
609.272	11924.21
609.629	11937.09
609.986	11999.01
610.343	11914.04
610.7	12049.63
611.057	12007.37
611.414	11963.98
611.771	11974.15
612.127	12032.23
612.484	11986.35
612.841	12135.05
613.198	11979.12
613.554	12023.64
613.911	12051.21
614.267	12070.64
614.624	12032
614.98	11989.97
615.337	12093.02
615.693	12078.78
616.05	12110.64
616.406	12082.39
616.762	12094.6
617.118	12096.41
617.475	12156.52
617.831	12123.07
618.187	12173.24
618.543	12176.63
618.899	12114.94
619.255	12165.56
619.611	12216.85
619.967	12177.08
620.323	12214.37
620.678	12197.42
621.034	12113.58
621.39	12025.45
621.746	12079.68
622.101	12270.41
622.457	12178.66
622.812	12208.49
623.168	12255.05
623.523	12229.73
623.879	12229.06
624.234	12129.4
624.589	12136.86
624.945	12202.62
625.3	12313.12
625.655	12159
626.01	12198.32
626.365	12222.96
626.72	12196.97
627.075	12203.29
627.43	12251.66
627.785	12190.41
628.14	12136.4
628.495	12158.55
628.85	12176.4
629.205	12147.7
629.559	12176.4
629.914	12049.63
630.269	12055.05
630.623	12036.97
630.978	12027.48
631.332	12126.46
631.687	12097.76
632.041	12019.8
632.396	12065.67
632.75	11977.99
633.104	12034.49
633.459	12003.53
633.813	11919.69
634.167	12005.56
634.521	11970.53
634.875	11952.91
635.229	11907.03
635.583	11818.9
635.937	11893.7
636.291	11793.81
636.645	11896.86
636.999	11878.33
637.352	11886.69
637.706	11773.25
638.06	11828.16
638.413	11850.54
638.767	11750.43
639.121	11866.58
639.474	11744.78
639.828	11788.39
640.181	11784.1
640.534	11743.65
640.888	11738
641.241	11682.86
641.594	11735.06
641.947	11748.17
642.301	11676.3
642.654	11738
643.007	11795.17
643.36	11658
643.713	11670.43
644.066	11736.19
644.419	11562.18
644.771	11502.3
645.124	11459.13
645.477	11388.63
645.83	11395.18
646.182	11288.97
646.535	11221.85
646.888	11285.8
647.24	11214.85
647.593	11317.89
647.945	11305.47
648.298	11170.78
648.65	11204.23
649.002	11110.44
649.355	11256.88
649.707	11283.32
650.059	11251.23
650.411	11428.85
650.763	11467.04
651.115	11476.76
651.467	11514.73
651.819	11526.02
652.171	11554.27
652.523	11529.87
652.875	11540.26
653.227	11432.69
653.578	11519.92
653.93	11486.25
654.282	11459.81
654.633	11391.56
654.985	11475.18
655.337	11498
655.688	11474.5
656.039	11537.78
656.391	11400.38
656.742	11469.08
657.094	11484.44
657.445	11540.71
657.796	11424.78
658.147	11490.77
658.498	11395.41
658.849	11473.82
659.2	11462.98
659.551	11441.51
659.902	11493.03
660.253	11542.75
660.604	11506.59
660.955	11488.29
661.306	11584.55
661.656	11485.35
662.007	11496.87
662.358	11449.42
662.708	11527.83
663.059	11528.74
663.409	11453.71
663.76	11463.65
664.11	11496.87
664.461	11499.13
664.811	11538.91
665.161	11575.29
665.511	11431.79
665.862	11511.79
666.212	11505.23
666.562	11500.71
666.912	11516.99
667.262	11406.93
667.612	11495.74
667.962	11478.57
668.312	11480.15
668.662	11568.96
669.011	11489.87
669.361	11454.84
669.711	11492.35
670.06	11467.5
670.41	11436.76
670.76	11436.08
671.109	11515.63
671.459	11392.92
671.808	11466.37
672.157	11502.97
672.507	11402.64
672.856	11421.62
673.205	11425.46
673.554	11441.73
673.904	11378.01
674.253	11480.38
674.602	11399.93
674.951	11281.96
675.3	11241.96
675.649	11384.33
675.998	11348.63
676.346	11384.33
676.695	11378.01
677.044	11318.35
677.393	11272.92
677.741	11335.3
678.09	11278.57
678.438	11249.42
678.787	11268.86
679.135	11257.78
679.484	11186.37
679.832	11212.13
680.181	11130.1
680.529	11232.92
680.877	11206.94
681.225	11112.48
681.573	11186.15
681.922	11115.64
682.27	11075.87
682.618	11095.75
682.966	11031.57
683.314	11061.86
683.661	10979.6
684.009	10957.23
684.357	11005.13
684.705	10887.17
685.053	10942.09
685.4	10925.81
685.748	10762.88
686.095	10825.25
686.443	10817.57
686.79	10841.97
687.138	10867.51
687.485	10766.27
687.832	10655.09
688.18	10683.33
688.527	10637.91
688.874	10710
689.221	10647.86
689.568	10579.83
689.915	10595.65
690.262	10568.99
690.609	10530.12
690.956	10474.07
691.303	10441.08
691.65	10431.82
691.997	10394.75
692.344	10275.89
692.69	10348.2
693.037	10334.64
693.383	10183.01
693.73	10276.79
694.077	10211.26
694.423	10187.53
694.769	10208.55
695.116	10119.51
695.462	10091.94
695.808	10013.75
696.155	10089.9
696.501	9989.34
696.847	9968.1
697.193	9912.96
697.539	9907.76
697.885	9842
698.231	9858.5
698.577	9794.32
698.923	9784.83
699.269	9670.71
699.614	9646.75
699.96	9654.44
700.306	9616.24
700.651	9583.7
700.997	9566.3
701.342	9507.32
701.688	9516.81
702.033	9466.64
702.379	9451.28
702.724	9376.25
703.069	9383.71
703.415	9317.5
703.76	9277.95
704.105	9280.43
704.45	9273.65
704.795	9241.34
705.14	9148.69
705.485	9148.46
705.83	9051.51
706.175	9109.14
706.52	9132.42
706.865	9023.04
707.209	9084.51
707.554	8992.31
707.899	9009.93
708.243	8889.71
708.588	8870.05
708.932	8787.79
709.277	8839.77
709.621	8912.76
709.966	8752.99
710.31	8865.08
710.654	8743.27
710.998	8731.3
711.342	8764.52
711.687	8719.32
712.031	8609.27
712.375	8625.54
712.719	8622.15
713.063	8677.51
713.407	8649.04
713.75	8644.74
714.094	8585.99
714.438	8555.03
714.782	8562.49
715.125	8543.73
715.469	8555.93
715.812	8527.46
716.156	8504.64
716.499	8492.88
716.843	8479.78
717.186	8395.26
717.53	8442.94
717.873	8470.06
718.216	8421.7
718.559	8375.6
718.902	8338.76
719.246	8387.8
719.589	8328.59
719.932	8292.21
720.275	8325.43
720.617	8306.9
720.96	8312.32
721.303	8316.39
721.646	8337.41
721.989	8196.17
722.331	8253.57
722.674	8251.08
723.016	8294.25
723.359	8231.65
723.701	8300.35
724.044	8170.18
724.386	8194.59
724.729	8206.11
725.071	8163.85
725.413	8152.1
725.755	8109.62
726.097	8164.98
726.439	8125.89
726.782	8183.06
727.124	8140.58
727.465	8079.56
727.807	8102.16
728.149	8096.28
728.491	8035.49
728.833	8083.63
729.175	8049.96
729.516	8020.81
729.858	8031.2
730.199	8075.04
730.541	8067.36
730.882	8079.79
731.224	8039.34
731.565	8030.52
731.906	8070.52
732.248	8087.02
732.589	8069.17
732.93	7987.81
733.271	7977.19
733.612	8034.14
733.953	8031.65
734.294	8053.57
734.635	8047.47
734.976	8029.62
735.317	8051.54
735.658	8027.59
735.999	8071.2
736.339	7992.33
736.68	8057.64
737.021	8068.04
737.361	8034.82
737.702	8067.58
738.042	7987.81
738.383	8044.08
738.723	8122.5
739.063	8077.53
739.404	8098.77
739.744	8119.56
740.084	8062.16
740.424	8106.68
740.764	8041.14
741.104	8174.7
741.444	8100.8
741.784	8107.58
742.124	8128.6
742.464	8208.15
742.804	8132.67
743.143	8189.84
743.483	8224.19
743.823	8156.85
744.162	8203.17
744.502	8258.54
744.841	8300.57
745.181	8310.06
745.52	8231.2
745.86	8414.24
746.199	8385.32
746.538	8430.51
746.877	8451.98
747.216	8385.32
747.556	8472.77
747.895	8523.62
748.234	8582.83
748.573	8669.83
748.911	8692.88
749.25	8687.46
749.589	8743.5
749.928	8831.86
750.267	8855.81
750.605	9009.93
750.944	8978.29
751.283	9056.49
751.621	9110.27
751.96	9164.73
752.298	9216.71
752.636	9332.64
752.975	9369.25
753.313	9475.91
753.651	9559.07
753.989	9590.93
754.327	9752.06
754.666	9759.97
755.004	9914.77
755.342	10020.53
755.679	10169.9
756.017	10233.63
756.355	10371.25
756.693	10419.61
757.031	10627.29
757.368	10722.88
757.706	10788.42
758.044	10937.11
758.381	11093.72
758.719	11164.68
759.056	11316.54
759.394	11486.25
759.731	11479.47
760.068	11662.29
760.405	11765.57
760.743	11922.85
761.08	12112.9
761.417	12182.28
761.754	12347.02
762.091	12425.44
762.428	12495.94
762.765	12615.94
763.102	12789.95
763.438	12900
763.775	13046.66
764.112	13213.21
764.449	13416.37
764.785	13452.98
765.122	13499.98
765.458	13614.11
765.795	13838.73
766.131	13894.32
766.467	13963.02
766.804	14079.18
767.14	14140.65
767.476	14298.16
767.812	14431.94
768.148	14539.5
768.485	14594.19
768.821	14683.68
769.157	14758.93
769.492	14880.96
769.828	14983.79
770.164	14988.31
770.5	15086.16
770.836	15191.69
771.171	15242.76
771.507	15298.13
771.842	15274.17
772.178	15382.42
772.513	15538.57
772.849	15569.31
773.184	15544.45
773.519	15669.19
773.855	15700.15
774.19	15744.9
774.525	15774.73
774.86	15845.01
775.195	15921.39
775.53	15933.14
775.865	15970.43
776.2	15918.9
776.535	15897.89
776.87	16070.99
777.205	16062.63
777.539	16101.72
777.874	16094.27
778.209	16079.35
778.543	16029.18
778.878	16043.65
779.212	16176.3
779.547	16076.19
779.881	16150.31
780.215	16057.2
780.55	16138.78
780.884	15996.64
781.218	16036.19
781.552	16099.46
781.886	16022.63
782.22	16069.18
782.554	16069.18
782.888	16036.64
783.222	15974.72
783.556	15980.14
783.889	16001.61
784.223	15870.77
784.557	15873.71
784.89	15974.95
785.224	15863.99
785.557	15871
785.891	15815.63
786.224	15830.77
786.558	15918.23
786.891	15835.74
787.224	15714.62
787.557	15724.78
787.891	15704.45
788.224	15694.73
788.557	15742.41
788.89	15682.98
789.223	15714.39
789.556	15683.43
789.888	15724.56
790.221	15659.02
790.554	15423.55
790.887	15456.54
791.219	15462.19
791.552	15484.56
791.884	15362.31
792.217	15321.41
792.549	15405.02
792.882	15170.9
793.214	15249.32
793.546	15231.69
793.879	15266.94
794.211	15180.62
794.543	15136.55
794.875	15125.7
795.207	15242.54
795.539	15051.13
795.871	15075.99
796.203	14949.66
796.535	14900.4
796.867	14902.21
797.198	14779.5
797.53	14810.91
797.862	14830.12
798.193	14873.51
798.525	14736.79
798.856	14771.81
799.188	14682.1
799.519	14605.72
799.85	14511.93
800.182	14556.45
800.513	14633.74
800.844	14456.57
801.175	14496.79
801.506	14470.81
801.837	14378.83
802.168	14425.38
802.499	14403.01
802.83	14233.07
803.161	14268.78
803.491	14264.26
803.822	14236.91
804.153	14205.28
804.483	14150.14
804.814	13996.24
805.145	14084.6
805.475	14039.18
805.805	14023.81
806.136	14024.72
806.466	13948.56
806.796	13946.98
807.126	13856.58
807.457	13811.84
807.787	13786.98
808.117	13784.04
808.447	13793.31
808.777	13756.93
809.107	13707.44
809.436	13711.5
809.766	13667.66
810.096	13579.3
810.426	13549.02
810.755	13531.62
811.085	13501.57
811.414	13536.82
811.744	13470.38
812.073	13414.79
812.403	13421.79
812.732	13349.25
813.061	13338.63
813.39	13286.88
813.719	13198.3
814.049	13316.03
814.378	13209.82
814.707	13270.16
815.036	13227.9
815.365	13071.29
815.693	12979.77
816.022	12989.49
816.351	13005.76
816.68	12934.12
817.008	12993.56
817.337	12909.49
817.665	12905.42
817.994	12866.33
818.322	12848.25
818.651	12784.97
818.979	12767.12
819.307	12827.46
819.636	12840.34
819.964	12709.95
820.292	12699.78
820.62	12769.38
820.948	12651.64
821.276	12722.6
821.604	12698.42
821.932	12737.07
822.259	12630.4
822.587	12669.95
822.915	12584.53
823.243	12700.68
823.57	12641.7
823.898	12620.91
824.225	12619.1
824.553	12568.48
824.88	12674.92
825.207	12672.21
825.535	12664.98
825.862	12679.89
826.189	12650.97
826.516	12695.03
826.843	12701.59
827.17	12672.21
827.497	12794.24
827.824	12733.9
828.151	12743.85
828.478	12734.58
828.805	12722.15
829.131	12689.61
829.458	12741.13
829.785	12649.38
830.111	12623.85
830.438	12698.42
830.764	12738.2
831.09	12695.71
831.417	12631.53
831.743	12754.24
832.069	12641.48
832.395	12619.33
832.722	12682.6
833.048	12639.89
833.374	12670.63
833.7	12633.34
834.026	12549.05
834.351	12671.53
834.677	12570.52
835.003	12631.08
835.329	12594.47
835.654	12514.7
835.98	12417.07
836.306	12553.12
836.631	12450.75
836.956	12442.38
837.282	12509.5
837.607	12414.14
837.932	12357.64
838.258	12404.42
838.583	12361.48
838.908	12301.6
839.233	12401.71
839.558	12319.9
839.883	12289.85
840.208	12261.37
840.533	12245.55
840.858	12249.4
841.182	12226.8
841.507	12195.16
841.832	12178.89
842.156	12155.16
842.481	12163.3
842.805	12125.78
843.13	12072.45
843.454	12054.37
843.778	12040.36
844.103	12035.16
844.427	11948.16
844.751	11885.11
845.075	11907.48
845.399	11838.78
845.723	11898.44
846.047	11881.04
846.371	11760.82
846.695	11733.25
847.019	11694.83
847.343	11651.67
847.666	11531.45
847.99	11531.9
848.313	11553.59
848.637	11451
848.96	11463.88
849.284	11362.41
849.607	11330.32
849.931	11313.6
850.254	11133.94
850.577	11175.53
850.9	11140.27
851.223	11112.02
851.546	11062.99
851.869	10930.79
852.192	10973.27
852.515	10883.1
852.838	10828.64
853.161	10829.55
853.483	10730.57
853.806	10740.96
854.129	10746.61
854.451	10703.45
854.774	10569.67
855.096	10500.97
855.419	10576.67
855.741	10537.8
856.063	10467.52
856.385	10452.83
856.708	10418.03
857.03	10369.44
857.352	10412.83
857.674	10340.52
857.996	10348.2
858.318	10231.14
858.64	10314.53
858.961	10183.69
859.283	10190.69
859.605	10127.87
859.926	10194.76
860.248	10066.4
860.57	10104.14
860.891	10131.94
861.212	10094.65
861.534	10000.42
861.855	10021.21
862.176	9958.16
862.498	9986.18
862.819	9991.6
863.14	9961.09
863.461	10008.55
863.782	9859.85
864.103	9886.52
864.424	9856.46
864.745	9854.2
865.065	9684.94
865.386	9813.3
865.707	9811.27
866.027	9757.71
866.348	9722.68
866.668	9717.48
866.989	9664.83
867.309	9625.74
867.63	9672.97
867.95	9646.53
868.27	9605.17
868.59	9639.07
868.91	9517.26
869.23	9575.12
869.55	9569.01
869.87	9574.89
870.19	9503.03
870.51	9508.9
870.83	9530.6
871.15	9422.35
871.469	9465.97
871.789	9498.96
872.109	9505.06
872.428	9409.47
872.748	9441.33
873.067	9473.88
873.386	9416.7
873.706	9411.28
874.025	9385.97
874.344	9364.73
874.663	9360.21
874.982	9290.15
875.301	9392.3
875.62	9256.03
875.939	9248.34
876.258	9263.94
876.577	9218.06
876.896	9233.66
877.214	9161.79
877.533	9242.92
877.852	9167.89
878.17	9154.56
878.489	9166.09
878.807	9232.07
879.125	9164.28
879.444	9126.31
879.762	9060.55
880.08	9130.38
880.398	9029.14
880.716	9076.37
881.034	9125.18
881.352	8975.36
881.67	9013.77
881.988	8978.07
882.306	9002.02
882.624	8962.02
882.941	8908.69
883.259	8909.37
883.577	8868.24
883.894	8836.38
884.212	8837.06
884.529	8817.17
884.846	8751.86
885.164	8800.9
885.481	8697.4
885.798	8776.04
886.115	8703.95
886.432	8686.1
886.75	8642.94
887.067	8638.64
887.383	8646.78
887.7	8639.09
888.017	8610.4
888.334	8594.8
888.651	8588.7
888.967	8513.22
889.284	8450.17
889.6	8430.96
889.917	8420.12
890.233	8464.64
890.55	8374.02
890.866	8389.16
891.182	8360.23
891.498	8338.54
891.815	8245.88
892.131	8289.73
892.447	8277.07
892.763	8250.63
893.079	8165.21
893.395	8193.46
893.71	8160.24
894.026	8130.86
894.342	8105.32
894.657	8025.55
894.973	8010.64
895.289	8052.9
895.604	8055.38
895.92	7967.02
896.235	7964.76
896.55	7950.3
896.865	7937.64
897.181	7919.11
897.496	7856.74
897.811	7849.74
898.126	7797.54
898.441	7844.31
898.756	7727.93
899.071	7680.48
899.386	7656.97
899.7	7611.1
900.015	7559.58
900.33	7581.5
900.644	7582.85
900.959	7588.73
901.273	7547.6
901.588	7474.38
901.902	7482.52
902.216	7378.56
902.531	7419.69
902.845	7391.44
903.159	7329.75
903.473	7334.95
903.787	7293.14
904.101	7261.5
904.415	7223.99
904.729	7263.54
905.042	7105.12
905.356	7117.1
905.67	7155.97
905.984	7141.73
906.297	7019.48
906.611	7084.11
906.924	7046.59
907.237	6970.44
907.551	6960.72
907.864	6913.26
908.177	6870.55
908.491	6934.73
908.804	6836.2
909.117	6836.2
909.43	6792.36
909.743	6730.22
910.056	6760.73
910.368	6739.26
910.681	6644.35
910.994	6673.5
911.307	6604.12
911.619	6600.05
911.932	6630.56
912.244	6523.22
912.557	6525.7
912.869	6508.98
913.181	6422.66
913.494	6444.8
913.806	6379.95
914.118	6364.13
914.43	6415.42
914.742	6368.42
915.054	6357.57
915.366	6306.73
915.678	6274.19
915.99	6276.22
916.302	6208.88
916.613	6219.5
916.925	6132.04
917.236	6050.01
917.548	6147.41
917.859	6130.23
918.171	6089.56
918.482	6079.61
918.794	5994.64
919.105	6005.49
919.416	5976.79
919.727	5931.82
920.038	5899.51
920.349	5909.68
920.66	5882.78
920.971	5821.77
921.282	5859.96
921.593	5786.06
921.903	5759.4
922.214	5730.47
922.525	5785.16
922.835	5731.15
923.146	5697.48
923.456	5680.08
923.767	5596.46
924.077	5688.89
924.387	5605.73
924.697	5552.62
925.008	5579.97
925.318	5567.99
925.628	5552.62
925.938	5515.11
926.248	5409.12
926.558	5389.91
926.867	5410.48
927.177	5380.2
927.487	5368.45
927.796	5356.92
928.106	5340.65
928.416	5279.18
928.725	5342.91
929.034	5267.66
929.344	5275.12
929.653	5225.17
929.962	5190.6
930.271	5184.5
930.581	5170.26
930.89	5175.68
931.199	5124.39
931.508	5088.45
931.817	5051.84
932.125	5093.2
932.434	5042.35
932.743	4992.86
933.051	5003.71
933.36	4988.57
933.669	4942.24
933.977	4931.17
934.286	4916.48
934.594	4891.17
934.902	4901.11
935.21	4832.87
935.519	4808.24
935.827	4826.54
936.135	4848.46
936.443	4766.43
936.751	4727.11
937.059	4710.84
937.367	4697.73
937.674	4724.62
937.982	4680.33
938.29	4677.62
938.597	4629.71
938.905	4591.74
939.213	4545.64
939.52	4576.15
939.827	4546.1
940.135	4571.41
940.442	4507.23
940.749	4531.86
941.056	4502.03
941.363	4462.48
941.67	4474.91
941.977	4450.73
942.284	4409.38
942.591	4389.26
942.898	4384.07
943.205	4371.86
943.511	4330.51
943.818	4331.19
944.125	4283.96
944.431	4285.99
944.738	4240.79
945.044	4204.64
945.35	4230.17
945.657	4167.8
945.963	4176.84
946.269	4113.79
946.575	4130.29
946.881	4103.17
947.187	4121.93
947.493	4102.94
947.799	4094.36
948.105	4095.03
948.41	4034.92
948.716	4061.81
949.022	4045.54
949.327	4016.62
949.633	3952.44
949.938	3924.19
950.244	3962.61
950.549	3953.12
950.854	3919.9
951.16	3878.32
951.465	3916.06
951.77	3833.12
952.075	3835.83
952.38	3774.36
952.685	3838.09
952.99	3812.78
953.294	3770.07
953.599	3741.6
953.904	3771.43
954.209	3748.15
954.513	3736.4
954.818	3695.27
955.122	3696.63
955.426	3683.74
955.731	3650.07
956.035	3632.9
956.339	3610.07
956.643	3632.9
956.948	3567.36
957.252	3621.6
957.556	3584.99
957.86	3547.93
958.163	3588.83
958.467	3521.94
958.771	3532.79
959.075	3532.11
959.378	3518.33
959.682	3507.93
959.985	3488.27
960.289	3418.67
960.592	3439.01
960.896	3444.88
961.199	3401.49
961.502	3418.67
961.805	3377.76
962.108	3343.64
962.411	3373.7
962.714	3344.77
963.017	3310.87
963.32	3330.76
963.623	3276.07
963.926	3238.33
964.228	3215.96
964.531	3245.34
964.833	3270.42
965.136	3218.9
965.438	3161.5
965.741	3200.37
966.043	3175.74
966.345	3144.1
966.648	3158.11
966.95	3137.54
967.252	3110.88
967.554	3103.87
967.856	3118.34
968.158	3061.39
968.46	3092.35
968.761	3059.13
969.063	3016.42
969.365	3054.16
969.666	3012.8
969.968	3017.1
970.269	2958.79
970.571	3017.32
970.872	2988.62
971.174	2919.47
971.475	2958.79
971.776	2931.9
972.077	2916.53
972.378	2906.82
972.679	2860.94
972.98	2874.5
973.281	2894.39
973.582	2848.29
973.883	2851.9
974.183	2792.92
974.484	2818
974.785	2807.16
975.085	2808.06
975.386	2801.51
975.686	2766.93
975.986	2778.68
976.287	2738.46
976.587	2701.85
976.887	2727.84
977.187	2673.6
977.487	2679.03
977.787	2688.52
978.087	2666.6
978.387	2640.83
978.687	2653.49
978.987	2627.95
979.286	2637.9
979.586	2564.68
979.885	2617.78
980.185	2580.05
980.484	2562.42
980.784	2580.27
981.083	2568.29
981.382	2559.71
981.682	2565.36
981.981	2501.63
982.28	2528.97
982.579	2529.43
982.878	2491.69
983.177	2456.21
983.475	2466.83
983.774	2467.73
984.073	2437
984.372	2402.42
984.67	2423.89
984.969	2440.61
985.267	2418.92
985.566	2371.01
985.864	2426.6
986.162	2381.86
986.461	2374.63
986.759	2343.67
987.057	2299.37
987.355	2345.48
987.653	2361.75
987.951	2307.96
988.249	2328.3
988.547	2313.61
988.844	2283.56
989.142	2253.5
989.44	2271.35
989.737	2236.55
990.035	2240.85
990.332	2268.64
990.63	2246.72
990.927	2198.36
991.224	2214.86
991.521	2191.81
991.819	2166.27
992.116	2168.76
992.413	2138.93
992.71	2142.09
993.006	2129.89
993.303	2131.92
993.6	2100.28
993.897	2086.27
994.193	2129.89
994.49	2092.37
994.787	2075.65
995.083	2101.64
995.379	2084.24
995.676	2066.84
995.972	2042.43
996.268	2017.35
996.565	2016.9
996.861	2015.99
997.157	1990.46
997.453	1981.64
997.749	1968.54
998.044	1956.56
998.34	1965.37
998.636	1943.68
998.932	1939.16
999.227	1929.44
999.523	1959.5
999.818	1914.07
1000.114	1904.13
1000.409	1880.18
1000.704	1894.19
1001	1884.24
1001.295	1868.88
1001.59	1837.24
1001.885	1859.16
1002.18	1838.6
1002.475	1832.95
1002.77	1814.42
1003.065	1798.82
1003.359	1816.9
1003.654	1819.61
1003.949	1809.44
1004.243	1761.54
1004.538	1750.24
1004.832	1776.9
1005.127	1753.4
1005.421	1758.6
1005.715	1744.13
1006.009	1705.94
1006.304	1719.73
1006.598	1685.61
1006.892	1659.17
1007.186	1661.65
1007.48	1649
1007.773	1661.2
1008.067	1649
1008.361	1645.61
1008.655	1619.62
1008.948	1626.17
1009.242	1616.91
1009.535	1611.03
1009.829	1623.46
1010.122	1574.65
1010.415	1590.47
1010.708	1564.7
1011.001	1561.54
1011.295	1551.82
1011.588	1562.67
1011.881	1533.97
1012.173	1526.74
1012.466	1525.61
1012.759	1504.82
1013.052	1516.34
1013.344	1501.88
1013.637	1452.17
1013.93	1474.99
1014.222	1487.42
1014.514	1456.46
1014.807	1450.81
1015.099	1437.48
1015.391	1424.14
1015.683	1411.04
1015.976	1416.69
1016.268	1410.36
1016.56	1378.49
1016.851	1395.22
1017.143	1383.69
1017.435	1376.91
1017.727	1349.12
1018.018	1359.51
1018.31	1382.34
1018.602	1345.5
1018.893	1351.15
1019.185	1336.91
1019.476	1312.73
1019.767	1350.02
1020.058	1295.33
1020.35	1298.5
1020.641	1322.68
1020.932	1263.24
1021.223	1255.56
1021.514	1273.19
1021.804	1246.52
1022.095	1253.53
1022.386	1248.1
1022.677	1236.13
1022.967	1218.27
1023.258	1195
1023.548	1215.11
1023.839	1231.61
1024.129	1218.73
1024.419	1180.08
1024.709	1198.84
1025	1186.64
1025.29	1170.14
1025.58	1176.01
1025.87	1141.21
1026.16	1154.77
1026.449	1142.34
1026.739	1123.59
1027.029	1143.47
1027.319	1112.97
1027.608	1127.43
1027.898	1116.81
1028.187	1086.3
1028.477	1100.08
1028.766	1072.51
1029.055	1069.12
1029.344	1061.89
1029.634	1025.51
1029.923	1046.75
1030.212	1059.86
1030.501	1064.38
1030.79	1013.31
1031.078	1059.86
1031.367	1028
1031.656	1018.05
1031.945	1017.83
1032.233	992.97
1032.522	1007.66
1032.81	982.57
1033.099	1007.66
1033.387	953.42
1033.675	962.46
1033.963	966.75
1034.251	979.64
1034.54	935.34
1034.828	958.17
1035.116	935.79
1035.403	955.68
1035.691	944.16
1035.979	934.89
1036.267	913.87
1036.554	927.43
1036.842	955.23
1037.129	902.35
1037.417	904.16
1037.704	882.24
1037.992	878.62
1038.279	891.5
1038.566	884.5
1038.853	884.5
1039.14	884.5
