Data from hue_270_FLMS001491_00034.txt Node
Date: Tue Feb 07 15:57:06 GMT 2017
User: dcchb
Spectrometer: FLMS00149
Trigger mode: 0
Integration Time (sec): 2.000000E-2
Scans to average: 10
Electric dark correction enabled: true
Nonlinearity correction enabled: false
Boxcar width: 0
XAxis mode: Wavelengths
Number of Pixels in Spectrum: 2048
>>>>>Begin Spectral Data<<<<<
341.393	-24.39
341.776	-24.39
342.16	-24.39
342.543	-74.79
342.927	-66.65
343.31	-77.27
343.693	-52.41
344.077	-41.79
344.46	-36.14
344.843	-65.29
345.226	-44.5
345.61	-39.76
345.993	-35.47
346.376	-10.38
346.759	37.53
347.142	18.77
347.525	35.04
347.908	42.27
348.291	75.04
348.674	88.37
349.057	106
349.44	114.36
349.823	153
350.206	182.16
350.588	190.74
350.971	195.72
351.354	219.22
351.737	220.8
352.119	247.24
352.502	257.86
352.884	275.04
353.267	259.89
353.65	275.04
354.032	271.42
354.414	296.28
354.797	287.92
355.179	311.64
355.562	316.62
355.944	293.34
356.326	329.5
356.709	315.49
357.091	309.84
357.473	328.37
357.855	309.84
358.238	331.53
358.62	325.43
359.002	340.12
359.384	324.98
359.766	349.16
360.148	336.73
360.53	345.99
360.912	304.64
361.294	312.55
361.676	309.38
362.057	311.19
362.439	316.62
362.821	319.1
363.203	312.32
363.584	319.33
363.966	318.42
364.348	289.95
364.729	315.49
365.111	318.65
365.493	310.51
365.874	325.43
366.256	312.32
366.637	319.78
367.019	309.61
367.4	308.03
367.781	296.96
368.163	297.86
368.544	322.72
368.925	313.68
369.306	292.44
369.688	312.77
370.069	298.99
370.45	282.04
370.831	301.7
371.212	295.6
371.593	334.92
371.974	308.03
372.355	290.18
372.736	310.97
373.117	306.45
373.498	306.45
373.879	315.03
374.26	322.49
374.641	305.77
375.021	300.57
375.402	318.88
375.783	277.52
376.163	314.58
376.544	310.74
376.925	320.01
377.305	313.45
377.686	323.4
378.066	314.81
378.447	313.68
378.827	303.06
379.208	317.29
379.588	327.24
379.968	322.94
380.349	319.78
380.729	316.62
381.109	330.17
381.489	310.06
381.87	311.64
382.25	330.17
382.63	335.37
383.01	334.02
383.39	327.01
383.77	345.54
384.15	332.21
384.53	334.24
384.91	328.82
385.29	318.88
385.67	329.05
386.049	346.9
386.429	332.21
386.809	343.51
387.189	337.41
387.568	338.08
387.948	321.14
388.328	332.43
388.707	344.41
389.087	357.07
389.466	364.07
389.846	353.45
390.225	360.91
390.605	360
390.984	344.19
391.363	387.35
391.743	337.41
392.122	365.65
392.501	374.02
392.881	354.58
393.26	364.07
393.639	367.46
394.018	359.33
394.397	374.02
394.776	374.24
395.155	379.44
395.534	383.51
395.913	367.69
396.292	396.39
396.671	412.43
397.05	373.11
397.429	376.95
397.808	363.62
398.186	369.95
398.565	390.96
398.944	387.12
399.323	395.03
399.701	401.81
400.08	376.28
400.458	397.29
400.837	401.36
401.215	415.6
401.594	412.66
401.972	406.78
402.351	400
402.729	403.85
403.107	407.91
403.486	413.56
403.864	400.23
404.242	417.63
404.62	403.17
404.999	425.09
405.377	430.96
405.755	418.31
406.133	431.42
406.511	440.91
406.889	440.45
407.267	457.63
407.645	458.31
408.023	462.6
408.401	468.02
408.779	456.73
409.156	488.36
409.534	467.57
409.912	479.78
410.29	493.79
410.667	501.24
411.045	519.77
411.422	512.09
411.8	512.32
412.178	510.96
412.555	534.24
412.933	528.14
413.31	537.18
413.687	552.77
414.065	563.62
414.442	557.06
414.819	552.09
415.197	581.92
415.574	565.2
415.951	588.93
416.328	591.86
416.705	601.81
417.082	590.73
417.46	601.81
417.837	616.27
418.214	601.81
418.591	639.32
418.967	643.16
419.344	653.56
419.721	634.57
420.098	662.6
420.475	644.52
420.852	649.71
421.228	695.36
421.605	677.74
421.982	702.14
422.358	675.7
422.735	720.67
423.111	696.94
423.488	728.58
423.864	734.23
424.241	749.37
424.617	766.32
424.994	762.71
425.37	769.49
425.746	783.04
426.123	787.11
426.499	790.95
426.875	798.41
427.251	819.88
427.627	831.18
428.003	829.82
428.379	852.2
428.756	845.87
429.132	890.84
429.507	867.79
429.883	885.87
430.259	879.77
430.635	891.74
431.011	919.09
431.387	946.43
431.763	948.46
432.138	942.14
432.514	956.6
432.89	985.3
433.265	981.91
433.641	1007.45
434.016	1036.6
434.392	1061.91
434.767	1083.38
435.143	1077.73
435.518	1111.85
435.894	1117.05
436.269	1133.54
436.644	1129.02
437.02	1143.94
437.395	1142.81
437.77	1170.15
438.145	1191.4
438.52	1216.71
438.895	1214.22
439.271	1215.35
439.646	1240.21
440.021	1272.75
440.395	1276.59
440.77	1254.22
441.145	1323.37
441.52	1324.5
441.895	1317.04
442.27	1317.04
442.645	1345.74
443.019	1359.3
443.394	1341.22
443.769	1376.25
444.143	1389.81
444.518	1404.72
444.892	1400.43
445.267	1408.79
445.641	1423.71
446.016	1433.42
446.39	1430.26
446.764	1460.31
447.139	1439.52
447.513	1493.99
447.887	1442.46
448.262	1487.88
448.636	1483.36
449.01	1518.39
449.384	1529.69
449.758	1499.41
450.132	1526.08
450.506	1563.59
450.88	1558.17
451.254	1564.27
451.628	1581.44
452.002	1596.36
452.376	1569.69
452.75	1583.25
453.123	1635.23
453.497	1669.8
453.871	1663.02
454.244	1653.98
454.618	1691.72
454.992	1698.27
455.365	1706.18
455.739	1758.39
456.112	1747.31
456.486	1764.26
456.859	1771.27
457.232	1817.14
457.606	1816.92
457.979	1830.93
458.352	1841.55
458.725	1911.6
459.099	1888.55
459.472	1934.88
459.845	1909.12
460.218	1944.37
460.591	1952.28
460.964	1953.18
461.337	2011.49
461.71	2046.06
462.083	2061.88
462.456	2051.49
462.829	2044.25
463.201	2062.56
463.574	2092.16
463.947	2112.5
464.32	2162.22
464.692	2182.1
465.065	2185.72
465.438	2221.42
465.81	2240.86
466.183	2253.29
466.555	2288.54
466.928	2293.29
467.3	2303.23
467.672	2362.44
468.045	2399.95
468.417	2370.57
468.789	2407.63
469.161	2426.17
469.534	2496.22
469.906	2508.87
470.278	2513.39
470.65	2546.39
471.022	2575.54
471.394	2596.56
471.766	2639.27
472.138	2673.16
472.51	2693.73
472.882	2740.96
473.253	2759.49
473.625	2785.25
473.997	2834.06
474.369	2818.02
474.74	2858.7
475.112	2927.62
475.484	2966.26
475.855	3023.66
476.227	3006.26
476.598	3065.02
476.97	3118.8
477.341	3154.06
477.713	3198.8
478.084	3228.63
478.455	3285.13
478.827	3288.74
479.198	3387.95
479.569	3366.93
479.94	3424.56
480.311	3455.52
480.682	3546.36
481.053	3565.8
481.424	3623.65
481.795	3661.39
482.166	3690.09
482.537	3751.78
482.908	3815.06
483.279	3834.26
483.65	3910.65
484.021	3981.6
484.391	3978.89
484.762	4012.11
485.133	4027.93
485.503	4072.9
485.874	4122.17
486.244	4187.7
486.615	4269.05
486.985	4285.33
487.356	4288.26
487.726	4369.84
488.097	4430.18
488.467	4428.37
488.837	4501.82
489.207	4559.89
489.578	4617.52
489.948	4624.53
490.318	4717.4
490.688	4753.79
491.058	4749.04
491.428	4784.3
491.798	4863.62
492.168	4909.26
492.538	4943.84
492.908	4919.21
493.278	5023.61
493.648	5000.33
494.017	5107.68
494.387	5085.98
494.757	5138.64
495.126	5185.19
495.496	5175.47
495.866	5251.63
496.235	5258.63
496.605	5315.35
496.974	5340.66
497.344	5365.52
497.713	5409.14
498.082	5379.76
498.452	5433.54
498.821	5457.5
499.19	5459.31
499.559	5566.65
499.928	5550.83
500.298	5603.03
500.667	5610.04
501.036	5611.84
501.405	5634.44
501.774	5586.08
502.143	5626.31
502.512	5662.92
502.88	5752.86
503.249	5702.01
503.618	5748.34
503.987	5736.59
504.356	5802.8
504.724	5796.02
505.093	5814.32
505.462	5822.23
505.83	5833.08
506.199	5907.66
506.567	5970.03
506.936	5937.26
507.304	6002.34
507.672	6012.51
508.041	5983.59
508.409	5969.35
508.777	6004.6
509.145	6093.19
509.514	6066.3
509.882	6097.25
510.25	6087.31
510.618	6115.33
510.986	6146.07
511.354	6177.03
511.722	6155.11
512.09	6175.9
512.458	6197.59
512.826	6240.75
513.193	6184.94
513.561	6233.3
513.929	6246.86
514.297	6349.23
514.664	6318.27
515.032	6341.09
515.4	6299.51
515.767	6337.25
516.135	6348.77
516.502	6341.32
516.869	6354.2
517.237	6424.25
517.604	6344.25
517.972	6379.73
518.339	6453.86
518.706	6408.43
519.073	6464.7
519.44	6430.13
519.808	6474.65
520.175	6473.29
520.542	6539.5
520.909	6535.44
521.276	6572.27
521.643	6568.2
522.009	6540.41
522.376	6605.49
522.743	6607.07
523.11	6638.48
523.477	6624.7
523.843	6682.1
524.21	6684.36
524.577	6756.45
524.943	6704.47
525.31	6752.6
525.676	6813.85
526.043	6806.16
526.409	6819.27
526.776	6872.38
527.142	6865.6
527.508	6879.38
527.874	6856.33
528.241	6879.16
528.607	6866.5
528.973	6944.92
529.339	6956.89
529.705	6942.2
530.071	6961.41
530.437	6996.44
530.803	6977.23
531.169	7045.48
531.535	7058.81
531.901	7032.82
532.267	7060.17
532.632	7057.46
532.998	7092.71
533.364	7121.86
533.73	7036.44
534.095	7095.65
534.461	7118.02
534.826	7151.01
535.192	7089.09
535.557	7153.5
535.923	7155.53
536.288	7154.85
536.653	7192.59
537.019	7112.37
537.384	7149.43
537.749	7170.45
538.114	7174.97
538.479	7185.36
538.845	7190.33
539.21	7151.24
539.575	7177.9
539.94	7191.01
540.305	7210.67
540.67	7205.93
541.034	7183.1
541.399	7257.22
541.764	7192.59
542.129	7220.62
542.494	7188.53
542.858	7230.56
543.223	7327.73
543.587	7297.45
543.952	7219.03
544.316	7268.52
544.681	7229.2
545.045	7239.6
545.41	7313.04
545.774	7259.26
546.138	7260.84
546.503	7229.2
546.867	7222.2
547.231	7352.59
547.595	7264.91
547.959	7310.1
548.324	7281.18
548.688	7289.99
549.052	7284.79
549.416	7294.96
549.779	7294.74
550.143	7248.86
550.507	7365.92
550.871	7333.38
551.235	7331.12
551.599	7355.07
551.962	7377.45
552.326	7359.59
552.689	7355.07
553.053	7319.6
553.417	7308.3
553.78	7429.88
554.143	7384.9
554.507	7405.47
554.87	7421.97
555.234	7508.74
555.597	7443.21
555.96	7395.98
556.323	7469.87
556.686	7429.42
557.05	7476.65
557.413	7477.78
557.776	7507.61
558.139	7494.51
558.502	7517.33
558.865	7559.14
559.228	7599.14
559.59	7631.23
559.953	7627.38
560.316	7671
560.679	7645.24
561.041	7643.43
561.404	7696.53
561.767	7686.59
562.129	7664.9
562.492	7723.43
562.854	7699.7
563.217	7766.82
563.579	7830.32
563.941	7795.06
564.304	7847.72
564.666	7906.25
565.028	7904.89
565.39	7950.09
565.753	7962.97
566.115	7962.74
566.477	8001.61
566.839	8026.7
567.201	8049.97
567.563	8002.29
567.925	8104.89
568.287	8127.03
568.648	8139.69
569.01	8100.59
569.372	8243.87
569.734	8182.4
570.095	8228.5
570.457	8226.24
570.819	8201.61
571.18	8253.36
571.542	8286.8
571.903	8336.29
572.265	8273.02
572.626	8372
572.987	8396.4
573.349	8424.65
573.71	8492.9
574.071	8497.19
574.432	8531.54
574.794	8570.86
575.155	8554.14
575.516	8555.72
575.877	8602.95
576.238	8628.49
576.599	8650.86
576.96	8698.54
577.32	8645.21
577.681	8820.57
578.042	8748.94
578.403	8753
578.763	8835.49
579.124	8846.11
579.485	8889.05
579.845	8960
580.206	8914.58
580.566	8995.03
580.927	8891.76
581.287	9048.82
581.648	8974.69
582.008	9081.13
582.368	9058.76
582.728	9127.46
583.089	9132.66
583.449	9170.85
583.809	9261.47
584.169	9220.56
584.529	9249.94
584.889	9293.33
585.249	9246.1
585.609	9263.5
585.969	9253.56
586.329	9323.61
586.688	9364.51
587.048	9424.17
587.408	9416.04
587.768	9457.39
588.127	9456.49
588.487	9478.63
588.846	9488.8
589.206	9482.02
589.565	9520.44
589.925	9556.15
590.284	9585.98
590.643	9577.84
591.003	9606.77
591.362	9685.41
591.721	9709.59
592.08	9634.56
592.44	9797.5
592.799	9736.71
593.158	9733.54
593.517	9755.01
593.876	9872.52
594.235	9818.96
594.593	9799.08
594.952	9898.51
595.311	9839.3
595.67	9878.62
596.029	9958.17
596.387	9917.95
596.746	9894.9
597.104	9985.29
597.463	9928.79
597.822	10048.34
598.18	9992.75
598.538	10030.26
598.897	10108
599.255	9924.95
599.613	10094.21
599.972	10085.62
600.33	10161.78
600.688	10077.26
601.046	10097.15
601.404	10155
601.762	10168.79
602.12	10228.22
602.478	10270.03
602.836	10273.19
603.194	10203.36
603.552	10230.48
603.91	10170.82
604.268	10246.75
604.625	10161.33
604.983	10230.03
605.341	10205.62
605.698	10349.57
606.056	10323.36
606.413	10314.77
606.771	10360.65
607.128	10384.15
607.485	10303.47
607.843	10342.34
608.2	10332.17
608.557	10417.82
608.914	10347.76
609.272	10502.56
609.629	10466.63
609.986	10449.68
610.343	10420.08
610.7	10550.92
611.057	10497.14
611.414	10480.19
611.771	10513.64
612.127	10567.65
612.484	10538.27
612.841	10566.29
613.198	10479.06
613.554	10561.09
613.911	10615.78
614.267	10609
614.624	10571.04
614.98	10641.54
615.337	10649.9
615.693	10627.08
616.05	10599.28
616.406	10665.72
616.762	10646.29
617.118	10660.3
617.475	10685.61
617.831	10681.32
618.187	10664.59
618.543	10680.41
618.899	10729.45
619.255	10674.31
619.611	10720.18
619.967	10752.95
620.323	10824.14
620.678	10752.27
621.034	10736.23
621.39	10741.88
621.746	10755.89
622.101	10895.55
622.457	10740.75
622.812	10775.1
623.168	10812.84
623.523	10726.74
623.879	10890.58
624.234	10726.29
624.589	10780.75
624.945	10808.09
625.3	10756.57
625.655	10787.08
626.01	10830.46
626.365	10758.15
626.72	10757.25
627.075	10728.77
627.43	10732.16
627.785	10753.86
628.14	10862.1
628.495	10785.95
628.85	10765.61
629.205	10813.06
629.559	10812.61
629.914	10712.95
630.269	10685.38
630.623	10762.67
630.978	10655.33
631.332	10690.13
631.687	10735.55
632.041	10682.67
632.396	10687.64
632.75	10704.82
633.104	10653.97
633.459	10677.47
633.813	10588.21
634.167	10594.99
634.521	10637.25
634.875	10658.04
635.229	10568.32
635.583	10538.04
635.937	10564.93
636.291	10568.55
636.645	10580.75
636.999	10468.89
637.352	10517.93
637.706	10493.75
638.06	10462.56
638.413	10434.99
638.767	10429.57
639.121	10413.75
639.474	10342.57
639.828	10380.31
640.181	10413.3
640.534	10422.11
640.888	10335.56
641.241	10300.76
641.594	10361.1
641.947	10347.76
642.301	10398.61
642.654	10371.72
643.007	10267.09
643.36	10365.84
643.713	10294.66
644.066	10364.49
644.419	10293.08
644.771	10209.92
645.124	10171.27
645.477	10137.15
645.83	10114.78
646.182	10035.46
646.535	9974.22
646.888	9993.2
647.24	9992.52
647.593	10028.9
647.945	9973.76
648.298	9926.31
648.65	9929.02
649.002	9951.16
649.355	10019.86
649.707	9950.71
650.059	10015.57
650.411	10078.85
650.763	10100.99
651.115	10243.81
651.467	10226.64
651.819	10167.43
652.171	10189.35
652.523	10143.48
652.875	10256.92
653.227	10124.27
653.578	10152.06
653.93	10209.46
654.282	10132.18
654.633	10124.72
654.985	10146.41
655.337	10154.1
655.688	10156.81
656.039	10216.24
656.391	10043.37
656.742	10153.65
657.094	10187.09
657.445	10225.06
657.796	10135.79
658.147	10236.58
658.498	10135.79
658.849	10205.62
659.2	10106.19
659.551	10204.27
659.902	10185.06
660.253	10196.58
660.604	10164.94
660.955	10174.89
661.306	10202.01
661.656	10220.99
662.007	10140.31
662.358	10171.05
662.708	10217.6
663.059	10126.3
663.409	10098.96
663.76	10157.94
664.11	10130.14
664.461	10173.53
664.811	10186.86
665.161	10154.55
665.511	10144.38
665.862	10193.19
666.212	10217.6
666.562	10252.4
666.912	10214.43
667.262	10187.32
667.612	10179.18
667.962	10197.94
668.312	10091.27
668.662	10174.66
669.011	10124.72
669.361	10164.04
669.711	10065.29
670.06	10126.75
670.41	10139.41
670.76	10059.64
671.109	10136.24
671.459	10116.58
671.808	10065.74
672.157	10196.13
672.507	10083.14
672.856	10070.48
673.205	10087.43
673.554	10152.29
673.904	10031.84
674.253	10137.37
674.602	10034.33
674.951	9931.73
675.3	9865.29
675.649	10013.31
675.998	10014.21
676.346	9975.12
676.695	9988.68
677.044	9993.65
677.393	10008.56
677.741	10036.36
678.09	9947.78
678.438	9909.36
678.787	10011.28
679.135	10000.66
679.484	9862.81
679.832	9984.38
680.181	9915.01
680.529	9887.21
680.877	9833.43
681.225	9832.3
681.573	9926.98
681.922	9798.17
682.27	9803.37
682.618	9776.48
682.966	9757.27
683.314	9774.22
683.661	9754.33
684.009	9750.49
684.357	9677.5
684.705	9632.3
685.053	9695.8
685.4	9589.82
685.748	9691.96
686.095	9621.91
686.443	9559.99
686.79	9586.43
687.138	9584.17
687.485	9520.67
687.832	9529.71
688.18	9458.52
688.527	9480.22
688.874	9427.34
689.221	9345.08
689.568	9374.46
689.915	9377.62
690.262	9268.7
690.609	9326.32
690.956	9289.26
691.303	9193.67
691.65	9201.35
691.997	9187.34
692.344	9135.82
692.69	9098.31
693.037	9190.05
693.383	9105.09
693.73	8995.48
694.077	8971.3
694.423	9005.88
694.769	8946.22
695.116	8918.88
695.462	8919.1
695.808	8859.67
696.155	8879.33
696.501	8797.07
696.847	8877.75
697.193	8822.61
697.539	8757.52
697.885	8721.82
698.231	8628.94
698.577	8600.47
698.923	8632.33
699.269	8529.51
699.614	8513.69
699.96	8575.38
700.306	8518.43
700.651	8475.05
700.997	8381.94
701.342	8406.57
701.688	8394.6
702.033	8400.7
702.379	8350.76
702.724	8276.63
703.069	8331.32
703.415	8274.15
703.76	8202.28
704.105	8287.48
704.45	8248.61
704.795	8158.9
705.14	8125.45
705.485	8183.08
705.83	8091.1
706.175	8066.24
706.52	8114.38
706.865	8080.48
707.209	8060.14
707.554	7978.34
707.899	8016.98
708.243	7939.69
708.588	7941.27
708.932	7926.13
709.277	7845.46
709.621	7859.24
709.966	7789.19
710.31	7812.46
710.654	7808.17
710.998	7745.8
711.342	7721.84
711.687	7787.61
712.031	7690.66
712.375	7729.75
712.719	7700.6
713.063	7675.52
713.407	7644.78
713.75	7699.47
714.094	7606.37
714.438	7615.63
714.782	7602.98
715.125	7588.74
715.469	7565.46
715.812	7577.67
716.156	7511.91
716.499	7532.7
716.843	7458.8
717.186	7490.44
717.53	7512.81
717.873	7494.73
718.216	7501.51
718.559	7490.66
718.902	7381.06
719.246	7377
719.589	7390.33
719.932	7363.44
720.275	7372.02
720.617	7372.93
720.96	7415.19
721.303	7422.64
721.646	7345.13
721.989	7357.56
722.331	7377
722.674	7280.05
723.016	7338.8
723.359	7283.66
723.701	7331.57
724.044	7245.93
724.386	7160.28
724.729	7291.57
725.071	7294.51
725.413	7284.34
725.755	7241.86
726.097	7182.42
726.439	7165.93
726.782	7172.25
727.124	7204.57
727.465	7217.23
727.807	7249.32
728.149	7180.84
728.491	7169.54
728.833	7181.07
729.175	7199.37
729.516	7130.22
729.858	7193.27
730.199	7232.59
730.541	7208.41
730.882	7197.11
731.224	7209.54
731.565	7127.51
731.906	7148.07
732.248	7150.56
732.589	7129.32
732.93	7116.21
733.271	7149.88
733.612	7145.36
733.953	7153.95
734.294	7117.79
734.635	7101.52
734.976	7119.37
735.317	7118.02
735.658	7110.34
735.999	7118.47
736.339	7159.37
736.68	7100.62
737.021	7113.27
737.361	7073.95
737.702	7129.77
738.042	7111.92
738.383	7146.94
738.723	7202.31
739.063	7092.48
739.404	7164.12
739.744	7132.03
740.084	7117.79
740.424	7217
740.764	7185.81
741.104	7147.4
741.444	7186.72
741.784	7168.87
742.124	7222.2
742.464	7236.43
742.804	7202.54
743.143	7249.99
743.483	7209.99
743.823	7285.7
744.162	7282.08
744.502	7336.77
744.841	7317.11
745.181	7425.81
745.52	7381.74
745.86	7448.86
746.199	7404.57
746.538	7462.64
746.877	7525.47
747.216	7543.32
747.556	7568.85
747.895	7639.81
748.234	7649.76
748.573	7765.69
748.911	7777.66
749.25	7795.97
749.589	7764.33
749.928	7885.68
750.267	7921.16
750.605	8006.13
750.944	8022.4
751.283	8128.84
751.621	8223.3
751.96	8280.93
752.298	8304.88
752.636	8409.51
752.975	8442.28
753.313	8529.06
753.651	8628.71
753.989	8687.47
754.327	8826.45
754.666	8912.55
755.004	9055.82
755.342	9103.73
755.679	9252.65
756.017	9305.08
756.355	9481.12
756.693	9585.75
757.031	9714.79
757.368	9802.92
757.706	10015.8
758.044	10070.94
758.381	10168.79
758.719	10312.51
759.056	10539.85
759.394	10627.31
759.731	10746.4
760.068	10834.31
760.405	10999.72
760.743	11079.27
761.08	11333.73
761.417	11385.93
761.754	11619.82
762.091	11643.78
762.428	11817.78
762.765	12001.05
763.102	12250.99
763.438	12348.62
763.775	12498.89
764.112	12636.29
764.449	12837.64
764.785	12887.13
765.122	12998.99
765.458	13115.38
765.795	13317.63
766.131	13497.51
766.467	13542.71
766.804	13717.17
767.14	13871.97
767.476	13957.61
767.812	14101.56
768.148	14297.04
768.485	14289.13
768.821	14452.97
769.157	14486.64
769.492	14804.82
769.828	14803.24
770.164	14839.85
770.5	15103.8
770.836	15164.81
771.171	15205.94
771.507	15297.69
771.842	15303.34
772.178	15531.58
772.513	15536.33
772.849	15747.85
773.184	15741.97
773.519	15784.23
773.855	15978.8
774.19	15977.22
774.525	15996.43
774.86	16194.62
775.195	16195.75
775.53	16257.67
775.865	16251.34
776.2	16240.94
776.535	16256.76
776.87	16318
777.205	16423.76
777.539	16451.56
777.874	16403.2
778.209	16531.78
778.543	16539.47
778.878	16574.72
779.212	16536.98
779.547	16546.47
779.881	16704.89
780.215	16630.99
780.55	16774.26
780.884	16725
781.218	16777.2
781.552	16752.57
781.886	16763.87
782.22	16734.94
782.554	16775.17
782.888	16587.83
783.222	16555.51
783.556	16617.2
783.889	16671.89
784.223	16554.61
784.557	16662.63
784.89	16736.98
785.224	16728.61
785.557	16619.46
785.891	16637.32
786.224	16636.41
786.558	16693.81
786.891	16585.79
787.224	16545.79
787.557	16532.69
787.891	16497.43
788.224	16528.39
788.557	16677.54
788.89	16572.01
789.223	16560.71
789.556	16435.29
789.888	16466.7
790.221	16394.16
790.554	16292.24
790.887	16365.23
791.219	16294.05
791.552	16287.27
791.884	16202.98
792.217	16250.66
792.549	16222.19
792.882	16118.01
793.214	16184.9
793.546	16082.98
793.879	16122.53
794.211	16091.57
794.543	16087.27
794.875	16092.25
795.207	16084.56
795.539	16023.55
795.871	16039.37
796.203	15903.55
796.535	15846.83
796.867	15834.85
797.198	15847.51
797.53	15733.39
797.862	15775.42
798.193	15738.81
798.525	15693.61
798.856	15716.89
799.188	15496.33
799.519	15520.74
799.85	15490.91
800.182	15410.46
800.513	15498.36
800.844	15327.75
801.175	15462.88
801.506	15509.66
801.837	15415.2
802.168	15302.89
802.499	15256.11
802.83	15224.7
803.161	15205.72
803.491	15261.99
803.822	15180.41
804.153	15071.26
804.483	15023.12
804.814	14920.98
805.145	14936.12
805.475	14923.01
805.805	14921.43
806.136	14925.27
806.466	14927.08
806.796	14865.16
807.126	14811.6
807.457	14698.16
807.787	14792.39
808.117	14709.91
808.447	14682.34
808.777	14726.63
809.107	14613.87
809.436	14612.74
809.766	14560.31
810.096	14525.28
810.426	14503.81
810.755	14523.25
811.085	14478.96
811.414	14450.26
811.744	14386.08
812.073	14304.5
812.403	14321.67
812.732	14227.44
813.061	14361.9
813.39	14243.03
813.719	14221.79
814.049	14288
814.378	14184.95
814.707	14086.42
815.036	14090.27
815.365	14055.92
815.693	13937.5
816.022	13991.96
816.351	13934.11
816.68	13867.45
817.008	13956.03
817.337	13826.32
817.665	13778.41
817.994	13847.11
818.322	13892.53
818.651	13761.46
818.979	13693.21
819.307	13733.66
819.636	13707.22
819.964	13579.09
820.292	13727.79
820.62	13624.29
820.948	13642.14
821.276	13695.93
821.604	13634.01
821.932	13681.01
822.259	13628.58
822.587	13656.6
822.915	13644.4
823.243	13638.98
823.57	13619.09
823.898	13692.08
824.225	13599.66
824.553	13606.44
824.88	13688.92
825.207	13690.28
825.535	13620.45
825.862	13677.39
826.189	13641.69
826.516	13733.89
826.843	13691.18
827.17	13738.86
827.497	13672.65
827.824	13689.15
828.151	13828.8
828.478	13671.07
828.805	13836.03
829.131	13672.65
829.458	13657.28
829.785	13695.7
830.111	13645.08
830.438	13777.05
830.764	13756.71
831.09	13744.74
831.417	13641.92
831.743	13702.93
832.069	13735.02
832.395	13589.71
832.722	13657.28
833.048	13539.09
833.374	13632.2
833.7	13534.35
834.026	13597.4
834.351	13530.28
834.677	13521.01
835.003	13553.1
835.329	13606.21
835.654	13509.72
835.98	13460.23
836.306	13477.17
836.631	13451.86
836.956	13466.78
837.282	13443.05
837.607	13436.72
837.932	13367.57
838.258	13361.02
838.583	13360.34
838.908	13362.15
839.233	13406.67
839.558	13296.84
839.883	13194.02
840.208	13222.72
840.533	13251.87
840.858	13210.29
841.182	13248.71
841.507	13118.77
841.832	13112.89
842.156	13134.81
842.481	13061.14
842.805	13102.27
843.13	13033.8
843.454	13083.96
843.778	12918.32
844.103	12859.79
844.427	12980.46
844.751	12873.8
845.075	12833.57
845.399	12839.9
845.723	12755.16
846.047	12813.91
846.371	12639
846.695	12686.23
847.019	12617.76
847.343	12481.72
847.666	12512.23
847.99	12432.91
848.313	12416.41
848.637	12393.81
848.96	12293.93
849.284	12288.28
849.607	12227.04
849.931	12163.76
850.254	11997.89
850.577	12005.57
850.9	11932.13
851.223	11975.52
851.546	11906.82
851.869	11749.31
852.192	11924.9
852.515	11719.71
852.838	11703.66
853.161	11695.07
853.483	11650.78
853.806	11573.5
854.129	11632.93
854.451	11455.31
854.774	11470.67
855.096	11450.79
855.419	11425.25
855.741	11388.42
856.063	11336.21
856.385	11334.41
856.708	11270.45
857.03	11218.02
857.352	11262.54
857.674	11197.23
857.996	11126.05
858.318	11061.87
858.64	11087.18
858.961	11040.63
859.283	11007.41
859.605	11039.05
859.926	11003.79
860.248	10981.42
860.57	10881.54
860.891	10884.47
861.212	10855.77
861.534	10800.63
861.855	10767.19
862.176	10826.62
862.498	10804.7
862.819	10851.48
863.14	10763.57
863.461	10737.58
863.782	10695.55
864.103	10695.78
864.424	10621.43
864.745	10667.53
865.065	10613.97
865.386	10536.91
865.707	10538.04
866.027	10499.4
866.348	10545.27
866.668	10558.38
866.989	10554.31
867.309	10438.61
867.63	10483.35
867.95	10440.64
868.27	10416.69
868.59	10481.77
868.91	10369.01
869.23	10344.15
869.55	10358.84
869.87	10375.33
870.19	10229.35
870.51	10363.13
870.83	10304.6
871.15	10198.84
871.469	10313.64
871.789	10305.05
872.109	10224.6
872.428	10145.51
872.748	10204.94
873.067	10184.61
873.386	10206.3
873.706	10144.15
874.025	10080.65
874.344	10133.76
874.663	10131.95
874.982	10147.09
875.301	10067.09
875.62	10002.46
875.939	10006.08
876.258	10006.98
876.577	9983.71
876.896	10002.24
877.214	9956.59
877.533	9962.24
877.852	9925.63
878.17	10013.31
878.489	9930.6
878.807	9933.54
879.125	9930.83
879.444	9825.07
879.762	9829.81
880.08	9834.78
880.398	9800.89
880.716	9830.26
881.034	9797.5
881.352	9773.77
881.67	9778.06
881.988	9723.83
882.306	9680.21
882.624	9611.51
882.941	9633.43
883.259	9651.06
883.577	9591.63
883.894	9606.54
884.212	9578.52
884.529	9530.61
884.846	9561.34
885.164	9555.02
885.481	9439.09
885.798	9444.74
886.115	9406.32
886.432	9357.51
886.75	9364.29
887.067	9359.77
887.383	9304.18
887.7	9333.33
888.017	9354.8
888.334	9249.26
888.651	9214.24
888.967	9236.16
889.284	9138.08
889.6	9142.37
889.917	9053.11
890.233	9095.37
890.55	9083.39
890.866	9043.39
891.182	9048.82
891.498	8983.51
891.815	8973.11
892.131	8945.99
892.447	8888.82
892.763	8908.03
893.079	8841.59
893.395	8826.9
893.71	8833.45
894.026	8798.65
894.342	8764.3
894.657	8706.68
894.973	8666.68
895.289	8731.54
895.604	8669.62
895.92	8618.09
896.235	8579.9
896.55	8535.16
896.865	8464.2
897.181	8502.84
897.496	8458.1
897.811	8418.78
898.126	8448.38
898.441	8409.06
898.756	8382.62
899.071	8272.34
899.386	8369.06
899.7	8251.32
900.015	8247.71
900.33	8141.04
900.644	8168.61
900.959	8138.78
901.273	8053.14
901.588	8112.8
901.902	8059.24
902.216	8008.39
902.531	8021.72
902.845	7950.09
903.159	7911.67
903.473	7917.55
903.787	7881.39
904.101	7819.92
904.415	7772.92
904.729	7734.5
905.042	7720.49
905.356	7709.19
905.67	7715.74
905.984	7689.76
906.297	7631
906.611	7633.26
906.924	7527.95
907.237	7541.96
907.551	7492.02
907.864	7518.23
908.177	7446.6
908.491	7367.05
908.804	7391.68
909.117	7352.36
909.43	7294.74
909.743	7310.56
910.056	7306.26
910.368	7245.93
910.681	7138.58
910.994	7170.22
911.307	7111.92
911.619	7083.9
911.932	7082.09
912.244	7045.93
912.557	7055.65
912.869	6940.17
913.181	6970
913.494	6929.55
913.806	6868.31
914.118	6871.02
914.43	6893.84
914.742	6812.04
915.054	6768.42
915.366	6798.48
915.678	6728.2
915.99	6671.48
916.302	6677.13
916.613	6605.94
916.925	6667.18
917.236	6592.61
917.548	6605.94
917.859	6586.28
918.171	6544.47
918.482	6514.87
918.794	6502.67
919.105	6461.99
919.416	6375.44
919.727	6415.89
920.038	6364.37
920.349	6340.86
920.66	6368.43
920.971	6311.03
921.282	6283.92
921.593	6233.07
921.903	6208.89
922.214	6222.45
922.525	6175.67
922.835	6161.66
923.146	6102.45
923.456	6106.52
923.767	6093.41
924.077	6052.51
924.387	6041.21
924.697	5994.66
925.008	5956.02
925.318	5902.68
925.628	5924.15
925.938	5895.45
926.248	5857.94
926.558	5859.97
926.867	5817.94
927.177	5827.66
927.487	5776.81
927.796	5712.63
928.106	5748.79
928.416	5720.54
928.725	5680.54
929.034	5675.57
929.344	5689.58
929.653	5646.42
929.962	5583.14
930.271	5560.32
930.581	5596.03
930.89	5522.13
931.199	5475.58
931.508	5479.64
931.817	5468.34
932.125	5483.71
932.434	5402.58
932.743	5409.82
933.051	5343.83
933.36	5341.57
933.669	5301.57
933.977	5268.8
934.286	5299.54
934.594	5271.06
934.902	5266.77
935.21	5250.5
935.519	5190.16
935.827	5202.82
936.135	5173.66
936.443	5105.42
936.751	5096.83
937.059	5077.17
937.367	5073.33
937.674	5028.81
937.982	5069.26
938.29	4968.02
938.597	5007.11
938.905	4987.23
939.213	4936.83
939.52	4940.9
939.827	4896.16
940.135	4888.25
940.442	4867.23
940.749	4827.68
941.056	4889.6
941.363	4789.94
941.67	4734.35
941.977	4781.36
942.284	4738.65
942.591	4732.55
942.898	4698.87
943.205	4716.73
943.511	4624.07
943.818	4688.25
944.125	4571.87
944.431	4622.27
944.738	4610.51
945.044	4579.55
945.35	4516.73
945.657	4556.28
945.963	4468.37
946.269	4456.85
946.575	4442.84
946.881	4402.61
947.187	4407.36
947.493	4362.84
947.799	4408.71
948.105	4362.61
948.41	4323.52
948.716	4347.92
949.022	4314.02
949.327	4298.88
949.633	4286.46
949.938	4284.2
950.244	4229.28
950.549	4228.6
950.854	4215.5
951.16	4193.12
951.465	4167.36
951.77	4137.98
952.075	4111.54
952.38	4099.57
952.685	4099.57
952.99	4049.17
953.294	4063.86
953.599	4032.45
953.904	4021.15
954.209	3992.9
954.513	3986.35
954.818	3966.69
955.122	3981.15
955.426	3955.16
955.731	3956.07
956.035	3885.11
956.339	3907.93
956.643	3879.01
956.948	3853.7
957.252	3856.86
957.556	3814.83
957.86	3799.46
958.163	3808.28
958.467	3773.93
958.771	3790.65
959.075	3764.66
959.378	3711.33
959.682	3718.11
959.985	3705.45
960.289	3703.87
960.592	3673.36
960.896	3701.84
961.199	3660.26
961.502	3638.79
961.805	3579.81
962.108	3600.6
962.411	3579.13
962.714	3532.58
963.017	3533.48
963.32	3503.65
963.623	3545.23
963.926	3502.52
964.228	3454.16
964.531	3485.8
964.833	3476.53
965.136	3395.18
965.438	3404.67
965.741	3402.41
966.043	3381.62
966.345	3376.2
966.648	3377.78
966.95	3316.99
967.252	3347.04
967.554	3296.88
967.856	3298.91
968.158	3284
968.46	3283.32
968.761	3268.85
969.063	3256.2
969.365	3247.39
969.666	3192.25
969.968	3212.36
970.269	3174.39
970.571	3224.79
970.872	3182.76
971.174	3130.33
971.475	3135.3
971.776	3105.47
972.077	3099.14
972.378	3083.55
972.679	3042.87
972.98	3037.45
973.281	3068.41
973.582	3015.75
973.883	3053.95
974.183	2993.61
974.484	3012.14
974.785	2986.6
975.085	2975.98
975.386	2989.31
975.686	2948.19
975.986	2939.15
976.287	2929.2
976.587	2916.77
976.887	2892.14
977.187	2894.18
977.487	2907.96
977.787	2837
978.087	2837.68
978.387	2841.75
978.687	2844.46
978.987	2792.71
979.286	2796.78
979.586	2771.01
979.885	2816.21
980.185	2784.8
980.484	2741.18
980.784	2713.16
981.083	2716.1
981.382	2707.06
981.682	2673.16
981.981	2697.8
982.28	2690.79
982.579	2641.75
982.878	2647.85
983.177	2662.99
983.475	2656.89
983.774	2615.09
984.073	2601.53
984.372	2592.26
984.67	2572.83
984.969	2568.53
985.267	2546.84
985.566	2555.43
985.864	2550.91
986.162	2544.13
986.461	2500.06
986.759	2500.74
987.057	2470.23
987.355	2495.54
987.653	2501.87
987.951	2488.99
988.249	2444.7
988.547	2413.06
988.844	2420.97
989.142	2410.8
989.44	2398.6
989.737	2432.49
990.035	2353.85
990.332	2365.15
990.63	2360.4
990.927	2340.07
991.224	2338.94
991.521	2324.7
991.819	2316.79
992.116	2326.73
992.413	2298.94
992.71	2265.04
993.006	2232.72
993.303	2228.43
993.6	2290.12
993.897	2253.74
994.193	2219.62
994.49	2213.74
994.787	2234.08
995.083	2178.94
995.379	2197.02
995.676	2192.72
995.972	2154.76
996.268	2153.18
996.565	2166.06
996.861	2135.33
997.157	2112.05
997.453	2104.82
997.749	2103.24
998.044	2086.51
998.34	2085.38
998.636	2100.07
998.932	2055.78
999.227	2050.13
999.523	2040.41
999.818	2014.65
1000.114	1989.11
1000.409	2030.7
1000.704	1992.73
1001	1983.46
1001.295	1964.26
1001.59	1937.36
1001.885	1962.22
1002.18	1925.39
1002.475	1905.05
1002.77	1941.88
1003.065	1917.93
1003.359	1911.6
1003.654	1899.4
1003.949	1872.51
1004.243	1883.13
1004.538	1827.31
1004.832	1823.02
1005.127	1852.85
1005.421	1843.36
1005.715	1815.33
1006.009	1802.23
1006.304	1803.13
1006.598	1773.3
1006.892	1755
1007.186	1773.53
1007.48	1757.71
1007.773	1731.72
1008.067	1716.13
1008.361	1706.86
1008.655	1714.09
1008.948	1707.54
1009.242	1696.47
1009.535	1720.19
1009.829	1680.87
1010.122	1664.83
1010.415	1638.84
1010.708	1664.38
1011.001	1662.8
1011.295	1627.09
1011.588	1618.73
1011.881	1635.68
1012.173	1622.34
1012.466	1592.97
1012.759	1573.98
1013.052	1592.51
1013.344	1549.8
1013.637	1580.99
1013.93	1534.44
1014.222	1546.19
1014.514	1517.49
1014.807	1529.01
1015.099	1478.62
1015.391	1498.96
1015.683	1480.43
1015.976	1529.47
1016.268	1466.42
1016.56	1471.84
1016.851	1440.65
1017.143	1452.63
1017.435	1456.25
1017.727	1419.86
1018.018	1410.82
1018.31	1446.08
1018.602	1403.82
1018.893	1408.56
1019.185	1376.7
1019.476	1359.75
1019.767	1379.41
1020.058	1379.86
1020.35	1344.16
1020.641	1351.62
1020.932	1329.24
1021.223	1323.14
1021.514	1311.17
1021.804	1283.82
1022.095	1325.63
1022.386	1331.05
1022.677	1286.08
1022.967	1281.56
1023.258	1276.36
1023.548	1275.91
1023.839	1228.46
1024.129	1238.63
1024.419	1249.7
1024.709	1232.98
1025	1217.61
1025.29	1206.08
1025.58	1205.41
1025.87	1188.68
1026.16	1181
1026.449	1202.02
1026.739	1178.29
1027.029	1166.09
1027.319	1148.23
1027.608	1169.7
1027.898	1148.91
1028.187	1142.58
1028.477	1137.16
1028.766	1108.91
1029.055	1098.97
1029.344	1114.11
1029.634	1114.79
1029.923	1089.7
1030.212	1080.21
1030.501	1073.88
1030.79	1073.21
1031.078	1080.89
1031.367	1052.64
1031.656	1069.82
1031.945	1050.61
1032.233	1042.02
1032.522	1047.67
1032.81	1035.02
1033.099	1005.41
1033.387	1054.22
1033.675	1023.04
1033.963	1001.8
1034.251	1014.45
1034.54	993.43
1034.828	976.94
1035.116	986.65
1035.403	988.46
1035.691	966.54
1035.979	961.57
1036.267	955.02
1036.554	943.04
1036.842	949.14
1037.129	936.03
1037.417	912.98
1037.704	934
1037.992	909.82
1038.279	925.41
1038.566	937.39
1038.853	937.39
1039.14	937.39
