Data from hue_330_FLMS001491_74.txt Node
Date: Mon Feb 06 15:45:52 GMT 2017
User: dcchb
Spectrometer: FLMS00149
Trigger mode: 0
Integration Time (sec): 2.000000E-2
Scans to average: 10
Electric dark correction enabled: true
Nonlinearity correction enabled: false
Boxcar width: 0
XAxis mode: Wavelengths
Number of Pixels in Spectrum: 2048
>>>>>Begin Spectral Data<<<<<
341.393	-21.68
341.776	-21.68
342.16	-21.68
342.543	-44.73
342.927	-74.11
343.31	-81.34
343.693	-78.4
344.077	-66.42
344.46	-50.83
344.843	-61.23
345.226	-49.7
345.61	-38.85
345.993	-42.47
346.376	-11.06
346.759	20.58
347.142	23.97
347.525	43.85
347.908	71.88
348.291	79.11
348.674	116.4
349.057	124.53
349.44	133.34
349.823	141.25
350.206	178.09
350.588	180.8
350.971	201.59
351.354	211.99
351.737	223.06
352.119	259.67
352.502	258.09
352.884	261.93
353.267	284.75
353.65	306.45
354.032	314.36
354.414	313.9
354.797	298.09
355.179	329.72
355.562	327.69
355.944	341.47
356.326	335.6
356.709	331.3
357.091	344.19
357.473	350.97
357.855	320.46
358.238	325.88
358.62	323.4
359.002	329.5
359.384	357.74
359.766	337.18
360.148	323.85
360.53	337.86
360.912	328.59
361.294	354.36
361.676	332.43
362.057	340.8
362.439	340.34
362.821	332.43
363.203	326.56
363.584	319.55
363.966	319.33
364.348	322.27
364.729	324.53
365.111	310.06
365.493	316.39
365.874	300.12
366.256	324.98
366.637	312.1
367.019	293.79
367.4	320.46
367.781	302.61
368.163	309.38
368.544	310.29
368.925	315.49
369.306	319.1
369.688	304.41
370.069	310.51
370.45	313.68
370.831	310.06
371.212	320.91
371.593	303.06
371.974	329.5
372.355	317.75
372.736	309.38
373.117	304.19
373.498	310.29
373.879	310.51
374.26	311.42
374.641	320.91
375.021	311.19
375.402	315.49
375.783	298.31
376.163	331.3
376.544	318.88
376.925	312.1
377.305	322.49
377.686	314.81
378.066	317.75
378.447	348.03
378.827	333.56
379.208	337.41
379.588	310.06
379.968	327.46
380.349	329.5
380.729	331.76
381.109	333.56
381.489	310.51
381.87	332.89
382.25	346.9
382.63	315.94
383.01	324.75
383.39	335.15
383.77	352.55
384.15	360.23
384.53	343.73
384.91	355.03
385.29	356.39
385.67	348.71
386.049	358.87
386.429	341.02
386.809	339.21
387.189	333.34
387.568	336.95
387.948	356.61
388.328	358.65
388.707	360
389.087	378.31
389.466	375.82
389.846	372.89
390.225	368.14
390.605	367.24
390.984	363.39
391.363	367.01
391.743	382.83
392.122	367.46
392.501	369.95
392.881	359.78
393.26	382.15
393.639	383.51
394.018	383.28
394.397	380.8
394.776	381.92
395.155	375.15
395.534	372.66
395.913	384.64
396.292	380.34
396.671	382.38
397.05	382.38
397.429	382.38
397.808	397.29
398.186	381.7
398.565	388.93
398.944	399.1
399.323	377.41
399.701	398.87
400.08	390.74
400.458	399.1
400.837	410.62
401.215	405.88
401.594	397.52
401.972	408.59
402.351	400.91
402.729	396.84
403.107	429.16
403.486	438.42
403.864	433.45
404.242	415.82
404.62	416.5
404.999	428.7
405.377	429.38
405.755	438.19
406.133	452.88
406.511	438.65
406.889	434.13
407.267	452.88
407.645	461.7
408.023	446.56
408.401	463.05
408.779	464.63
409.156	456.5
409.534	464.86
409.912	471.19
410.29	477.06
410.667	489.94
411.045	481.58
411.422	491.07
411.8	506.67
412.178	514.35
412.555	519.1
412.933	506.89
413.31	503.28
413.687	513.45
414.065	536.5
414.442	522.71
414.819	543.5
415.197	519.77
415.574	568.59
415.951	561.81
416.328	553.9
416.705	564.29
417.082	589.15
417.46	565.87
417.837	596.61
418.214	580.56
418.591	593.67
418.967	599.55
419.344	593.9
419.721	624.18
420.098	608.36
420.475	620.34
420.852	626.89
421.228	643.39
421.605	647
421.982	647
422.358	676.83
422.735	665.31
423.111	657.85
423.488	676.15
423.864	659.21
424.241	689.49
424.617	691.75
424.994	707.11
425.37	694.91
425.746	672.31
426.123	706.21
426.499	729.94
426.875	720.22
427.251	704.4
427.627	735.59
428.003	741.92
428.379	761.8
428.756	752.76
429.132	775.59
429.507	775.36
429.883	792.76
430.259	804.29
430.635	793.67
431.011	821.91
431.387	840.22
431.763	827.34
432.138	842.7
432.514	844.29
432.89	869.37
433.265	876.38
433.641	886.32
434.016	880.44
434.392	867.79
434.767	925.87
435.143	911.18
435.518	908.01
435.894	942.14
436.269	927
436.644	961.8
437.02	952.76
437.395	966.54
437.77	961.34
438.145	987.78
438.52	992.3
438.895	1009.03
439.271	970.61
439.646	979.2
440.021	1009.48
440.395	1044.96
440.77	1031.4
441.145	1025.07
441.52	1054.22
441.895	1045.41
442.27	1088.57
442.645	1053.09
443.019	1064.17
443.394	1086.99
443.769	1061.68
444.143	1078.4
444.518	1084.28
444.892	1106.88
445.267	1078.18
445.641	1088.57
446.016	1086.54
446.39	1102.13
446.764	1130.38
447.139	1129.7
447.513	1099.19
447.887	1101.45
448.262	1118.63
448.636	1117.5
449.01	1156.82
449.384	1151.85
449.758	1146.88
450.132	1191.85
450.506	1161.34
450.88	1195.69
451.254	1180.77
451.628	1181.23
452.002	1186.42
452.376	1185.75
452.75	1223.03
453.123	1203.6
453.497	1219.64
453.871	1226.42
454.244	1251.51
454.618	1261.9
454.992	1256.7
455.365	1268.91
455.739	1316.36
456.112	1312.07
456.486	1291.96
456.859	1298.74
457.232	1330.37
457.606	1341.22
457.979	1338.74
458.352	1352.07
458.725	1369.92
459.099	1409.24
459.472	1364.27
459.845	1391.16
460.218	1403.59
460.591	1427.32
460.964	1434.78
461.337	1451.28
461.71	1453.08
462.083	1463.7
462.456	1471.61
462.829	1474.1
463.201	1527.66
463.574	1512.52
463.947	1511.16
464.32	1555
464.692	1576.02
465.065	1598.16
465.438	1589.35
465.81	1614.89
466.183	1611.5
466.555	1649.24
466.928	1669.35
467.3	1626.19
467.672	1658.28
468.045	1685.39
468.417	1700.99
468.789	1727.2
469.161	1729.46
469.534	1736.24
469.906	1777.59
470.278	1769.01
470.65	1810.59
471.022	1851.49
471.394	1843.81
471.766	1865.95
472.138	1890.59
472.51	1902.11
472.882	1955.44
473.253	1943.69
473.625	1957.93
473.997	2012.16
474.369	2037.7
474.74	2042.67
475.112	2081.09
475.484	2109.56
475.855	2149.11
476.227	2113.18
476.598	2190.01
476.97	2191.37
477.341	2257.81
477.713	2246.28
478.084	2270.01
478.455	2324.7
478.827	2312.5
479.198	2392.04
479.569	2407.86
479.94	2428.2
480.311	2470.68
480.682	2514.75
481.053	2564.92
481.424	2620.28
481.795	2609.89
482.166	2623.45
482.537	2670.68
482.908	2733.73
483.279	2746.38
483.65	2783.67
484.021	2818.25
484.391	2831.13
484.762	2861.41
485.133	2913.16
485.503	2930.11
485.874	2948.41
486.244	3020.5
486.615	3059.82
486.985	3097.56
487.356	3135.75
487.726	3146.15
488.097	3238.35
488.467	3212.59
488.837	3261.62
489.207	3321.28
489.578	3345.01
489.948	3335.29
490.318	3423.88
490.688	3429.3
491.058	3473.37
491.428	3511.79
491.798	3497.78
492.168	3567.38
492.538	3581.16
492.908	3659.13
493.278	3655.96
493.648	3635.62
494.017	3676.98
494.387	3740.71
494.757	3794.26
495.126	3800.14
495.496	3850.31
495.866	3865.68
496.235	3874.94
496.605	3863.87
496.974	3907.93
497.344	3930.53
497.713	3985.9
498.082	3952.45
498.452	4036.07
498.821	4019.57
499.19	4011.89
499.559	4107.7
499.928	4116.74
500.298	4132.33
500.667	4174.59
501.036	4146.35
501.405	4161.71
501.774	4185.89
502.143	4194.48
502.512	4231.09
502.88	4248.49
503.249	4267.7
503.618	4288.94
503.987	4286.46
504.356	4340.46
504.724	4319.45
505.093	4347.24
505.462	4358.77
505.83	4429.73
506.199	4415.94
506.567	4415.94
506.936	4455.72
507.304	4536.17
507.672	4478.77
508.041	4512.44
508.409	4570.52
508.777	4555.37
509.145	4618.88
509.514	4549.5
509.882	4647.12
510.25	4636.05
510.618	4623.85
510.986	4614.81
511.354	4651.19
511.722	4671.53
512.09	4740.68
512.458	4715.37
512.826	4721.47
513.193	4726.44
513.561	4779.78
513.929	4777.29
514.297	4858.64
514.664	4844.86
515.032	4842.6
515.4	4831.98
515.767	4907.91
516.135	4874.24
516.502	4923.27
516.869	4914.91
517.237	4856.61
517.604	4924.4
517.972	4949.49
518.339	4968.02
518.706	4960.11
519.073	4974.57
519.44	5009.83
519.808	5045.08
520.175	5016.61
520.542	5099.54
520.909	5093.44
521.276	5108.81
521.643	5075.81
522.009	5169.37
522.376	5170.73
522.743	5124.4
523.11	5201.46
523.477	5236.94
523.843	5234.45
524.21	5278.07
524.577	5325.98
524.943	5314
525.31	5352.64
525.676	5367.78
526.043	5403.94
526.409	5477.16
526.776	5470.15
527.142	5454.56
527.508	5509.25
527.874	5536.14
528.241	5544.28
528.607	5599.19
528.973	5642.8
529.339	5643.71
529.705	5666.98
530.071	5718.28
530.437	5732.29
530.803	5792.63
531.169	5800.09
531.535	5819.3
531.901	5813.87
532.267	5798.96
532.632	5887.32
532.998	5857.49
533.364	5896.81
533.73	5932.74
534.095	6020.65
534.461	5982.46
534.826	6071.94
535.192	6069.01
535.557	6064.94
535.923	6124.15
536.288	6093.19
536.653	6192.39
537.019	6159.4
537.384	6192.39
537.749	6195.56
538.114	6218.16
538.479	6344.25
538.845	6292.73
539.21	6285.95
539.575	6292.96
539.94	6359.62
540.305	6409.56
540.67	6372.5
541.034	6410.47
541.399	6461.54
541.764	6452.05
542.129	6508.32
542.494	6521.2
542.858	6584.7
543.223	6543.57
543.587	6640.97
543.952	6624.7
544.316	6646.39
544.681	6692.27
545.045	6695.88
545.41	6830.34
545.774	6751.02
546.138	6812.04
546.503	6805.71
546.867	6890.23
547.231	6849.1
547.595	6941.07
547.959	6885.26
548.324	6923.9
548.688	6964.8
549.052	6979.04
549.416	6993.28
549.779	7038.93
550.143	6968.64
550.507	7083.67
550.871	7101.52
551.235	7133.84
551.599	7143.33
551.962	7164.8
552.326	7258.81
552.689	7270.11
553.053	7219.94
553.417	7212.03
553.78	7317.79
554.143	7348.52
554.507	7247.51
554.87	7371.12
555.234	7434.39
555.597	7383.1
555.96	7406.83
556.323	7396.66
556.686	7468.07
557.05	7523.21
557.413	7514.17
557.776	7558.69
558.139	7520.72
558.502	7569.53
558.865	7602.75
559.228	7606.82
559.59	7662.64
559.953	7694.73
560.316	7731.11
560.679	7699.47
561.041	7782.86
561.404	7799.81
561.767	7804.78
562.129	7794.39
562.492	7897.43
562.854	7889.07
563.217	7896.3
563.579	7914.83
563.941	7943.31
564.304	8023.53
564.666	8020.59
565.028	8008.17
565.39	8009.3
565.753	8097.2
566.115	8153.7
566.477	8114.38
566.839	8211.1
567.201	8236.86
567.563	8212.68
567.925	8280.7
568.287	8292.23
568.648	8310.53
569.01	8377.65
569.372	8412
569.734	8391.21
570.095	8485.44
570.457	8477.98
570.819	8527.47
571.18	8594.36
571.542	8665.32
571.903	8659.22
572.265	8747.58
572.626	8756.39
572.987	8778.77
573.349	8782.83
573.71	8876.84
574.071	8930.4
574.432	9000.68
574.794	8968.37
575.155	9139.21
575.516	9109.61
575.877	9185.76
576.238	9268.25
576.599	9372.2
576.96	9475.7
577.32	9436.6
577.681	9623.49
578.042	9642.02
578.403	9781.45
578.763	9812.86
579.124	9943.26
579.485	10040.2
579.845	10150.93
580.206	10210.37
580.566	10357.48
580.927	10512.96
581.287	10602.22
581.648	10729.45
582.008	10907.98
582.368	11074.53
582.728	11227.52
583.089	11311.36
583.449	11568.52
583.809	11685.58
584.169	11907.72
584.529	12033.14
584.889	12315.85
585.249	12404.43
585.609	12680.81
585.969	12900.01
586.329	13095.26
586.688	13350.17
587.048	13515.36
587.408	13767.56
587.768	14020.89
588.127	14189.47
588.487	14406.41
588.846	14725.95
589.206	14859.74
589.565	15125.49
589.925	15425.15
590.284	15606.84
590.643	15916.43
591.003	16211.34
591.362	16499.92
591.721	16786.69
592.08	17084.08
592.44	17495.6
592.799	17662.6
593.158	17840
593.517	18212.87
593.876	18503.26
594.235	18801.1
594.593	19045.84
594.952	19339.39
595.311	19528.31
595.67	19966.95
596.029	20292.14
596.387	20588.63
596.746	20930.09
597.104	21130.31
597.463	21326.46
597.822	21732.78
598.18	21944.75
598.538	22248.47
598.897	22627.44
599.255	22742.47
599.613	23277.82
599.972	23380.64
600.33	23722.33
600.688	23872.83
601.046	24235.08
601.404	24657.44
601.762	24782.19
602.12	25244.77
602.478	25372.91
602.836	25715.04
603.194	25903.97
603.552	26125.88
603.91	26251.53
604.268	26677.73
604.625	26785.75
604.983	27088.79
605.341	27208.11
605.698	27494.88
606.056	27865.5
606.413	27973.06
606.771	28313.62
607.128	28589.09
607.485	28751.57
607.843	28902.98
608.2	29272.46
608.557	29577.32
608.914	29676.3
609.272	29935.05
609.629	30108.6
609.986	30409.61
610.343	30448.48
610.7	30905.87
611.057	31143.83
611.414	31216.82
611.771	31304.95
612.127	31610.48
612.484	31888.89
612.841	32128.21
613.198	32129.11
613.554	32310.58
613.911	32723.9
614.267	32763.67
614.624	32882.99
614.98	33134.96
615.337	33384.22
615.693	33377.67
616.05	33486.59
616.406	34020.36
616.762	33930.87
617.118	33915.96
617.475	34110.98
617.831	34403.4
618.187	34430.75
618.543	34694.24
618.899	34952.54
619.255	34964.97
619.611	34889.04
619.967	35221.01
620.323	35287.22
620.678	35263.49
621.034	35340.33
621.39	35364.06
621.746	35520.44
622.101	35920.88
622.457	35830.26
622.812	35894.44
623.168	36153.64
623.523	36086.97
623.879	36465.04
624.234	36160.65
624.589	36489
624.945	36715.88
625.3	36718.37
625.655	36582.78
626.01	36912.94
626.365	36853.51
626.72	36993.84
627.075	36956.33
627.43	37053.05
627.785	37019.15
628.14	37190
628.495	37336.21
628.85	37222.09
629.205	37343.66
629.559	37408.52
629.914	37256.21
630.269	37446.49
630.623	37368.3
630.978	37296.21
631.332	37525.36
631.687	37606.03
632.041	37507.95
632.396	37597.9
632.75	37436.77
633.104	37744.56
633.459	37461.4
633.813	37497.33
634.167	37524.45
634.521	37598.35
634.875	37801.96
635.229	37700.94
635.583	37446.71
635.937	37676.76
636.291	37521.51
636.645	37737.33
636.999	37640.61
637.352	37718.34
637.706	37497.11
638.06	37697.33
638.413	37680.83
638.767	37514.73
639.121	37649.87
639.474	37432.25
639.828	37447.84
640.181	37639.02
640.534	37583.43
640.888	37551.34
641.241	37551.57
641.594	37570.1
641.947	37726.48
642.301	37485.58
642.654	37567.39
643.007	37568.07
643.36	37523.32
643.713	37497.33
644.066	37663.2
644.419	37348.18
644.771	37057.57
645.124	36893.73
645.477	36753.17
645.83	36628.43
646.182	36558.6
646.535	36470.02
646.888	36530.58
647.24	36410.81
647.593	36517.47
647.945	36496.23
648.298	36442.67
648.65	36324.48
649.002	36164.71
649.355	36458.94
649.707	36305.73
650.059	36500.3
650.411	36858.25
650.763	36986.39
651.115	37269.32
651.467	37237.91
651.819	37236.78
652.171	37149.09
652.523	37137.57
652.875	37077.23
653.227	36918.14
653.578	37182.09
653.93	37182.09
654.282	36913.62
654.633	36926.73
654.985	37021.87
655.337	36893.06
655.688	36947.29
656.039	37134.18
656.391	36740.29
656.742	36933.51
657.094	36959.04
657.445	36949.78
657.796	36849.89
658.147	36806.96
658.498	36800.85
658.849	36740.52
659.2	36763.34
659.551	36705.04
659.902	36945.03
660.253	36768.31
660.604	37015.09
660.955	36757.01
661.306	36867.97
661.656	36648.54
662.007	36769.22
662.358	36780.06
662.708	36724.25
663.059	36794.75
663.409	36616.68
663.76	36824.13
664.11	36766.05
664.461	36700.29
664.811	36825.03
665.161	36652.84
665.511	36602.44
665.862	36735.09
666.212	36795.66
666.562	36823.45
666.912	36629.79
667.262	36694.64
667.612	36683.12
667.962	36705.94
668.312	36529.68
668.662	36841.98
669.011	36673.63
669.361	36624.14
669.711	36536.91
670.06	36526.74
670.41	36433.63
670.76	36425.5
671.109	36627.53
671.459	36624.59
671.808	36463.46
672.157	36522.9
672.507	36425.72
672.856	36457.59
673.205	36427.3
673.554	36560.86
673.904	36465.04
674.253	36611.03
674.602	36533.29
674.951	35900.31
675.3	35710.49
675.649	36405.61
675.998	36363.35
676.346	36233.86
676.695	36376.23
677.044	36158.16
677.393	36324.93
677.741	36313.64
678.09	36273.18
678.438	36157.48
678.787	36164.49
679.135	36230.7
679.484	35943.48
679.832	36128.56
680.181	35971.05
680.529	36027.09
680.877	35893.99
681.225	35901.44
681.573	36154.77
681.922	35950.93
682.27	35718.85
682.618	35803.59
682.966	35647.66
683.314	35862.8
683.661	35725.4
684.009	35466.65
684.357	35399.31
684.705	35397.05
685.053	35448.35
685.4	35402.7
685.748	35197.05
686.095	35190.73
686.443	35130.84
686.79	35085.19
687.138	35106.21
687.485	35094.46
687.832	34943.5
688.18	34984.4
688.527	34935.59
688.874	34831.19
689.221	34699.89
689.568	34694.24
689.915	34583.06
690.262	34579.9
690.609	34474.59
690.956	34396.17
691.303	34454.25
691.65	34211.32
691.997	34195.5
692.344	34038.22
692.69	33939.69
693.037	33946.01
693.383	33645.46
693.73	33817.43
694.077	33627.38
694.423	33603.42
694.769	33553.48
695.116	33587.61
695.462	33509.42
695.808	33322.3
696.155	33412.24
696.501	33148.3
696.847	33166.83
697.193	32937.91
697.539	33031.91
697.885	32852.26
698.231	32664.47
698.577	32803.9
698.923	32706.5
699.269	32617.69
699.614	32351.25
699.96	32282.78
700.306	32450.69
700.651	32235.1
700.997	32198.94
701.342	32304.48
701.688	32107.19
702.033	31925.05
702.379	31953.07
702.724	31845.5
703.069	31867.2
703.415	31582.23
703.76	31506.08
704.105	31650.26
704.45	31457.27
704.795	31257.72
705.14	31244.62
705.485	31159.87
705.83	31037.39
706.175	31034.45
706.52	30954
706.865	30917.39
707.209	30842.37
707.554	30752.88
707.899	30831.07
708.243	30669.04
708.588	30620.45
708.932	30347.46
709.277	30401.93
709.621	30455.71
709.966	30175.72
710.31	30317.41
710.654	30084.65
710.998	30107.02
711.342	30106.79
711.687	29974.37
712.031	29834.48
712.375	29845.78
712.719	29842.17
713.063	29655.28
713.407	29870.64
713.75	29689.63
714.094	29661.38
714.438	29571.89
714.782	29484.89
715.125	29446.92
715.469	29436.98
715.812	29278.57
716.156	29182.98
716.499	29253.93
716.843	29215.52
717.186	29027.73
717.53	29193.37
717.873	29210.09
718.216	29006.71
718.559	28864.79
718.902	28770.33
719.246	28935.75
719.589	28714.74
719.932	28619.15
720.275	28578.02
720.617	28489.43
720.96	28583.67
721.303	28380.96
721.646	28513.39
721.989	28261.42
722.331	28365.82
722.674	28249.89
723.016	28398.59
723.359	28189.78
723.701	28199.05
724.044	27989.33
724.386	28042.89
724.729	28035.66
725.071	27870.02
725.413	27971.26
725.755	27974.65
726.097	27818.94
726.439	27734.43
726.782	27756.12
727.124	27865.5
727.465	27668.21
727.807	27646.97
728.149	27616.69
728.491	27511.83
728.833	27488.56
729.175	27373.31
729.516	27286.53
729.858	27351.39
730.199	27284.72
730.541	27362.23
730.882	27298.51
731.224	27247.43
731.565	27169.24
731.906	27122.92
732.248	27076.14
732.589	26954.79
732.93	27026.87
733.271	26827.78
733.612	26998.63
733.953	26890.61
734.294	26882.7
734.635	26777.16
734.976	26881.79
735.317	26701.01
735.658	26759.31
735.999	26649.26
736.339	26624.17
736.68	26730.84
737.021	26655.81
737.361	26509.37
737.702	26624.85
738.042	26536.49
738.383	26423.73
738.723	26443.84
739.063	26419.21
739.404	26368.36
739.744	26229.38
740.084	26271.64
740.424	26277.97
740.764	26229.15
741.104	26287.23
741.444	26038.43
741.784	25934.02
742.124	26084.3
742.464	25970.18
742.804	25880.92
743.143	25939.45
743.483	25924.98
743.823	25771.09
744.162	25795.49
744.502	25877.07
744.841	25670.75
745.181	25793.91
745.52	25737.19
745.86	25538.55
746.199	25685.44
746.538	25556.63
746.877	25510.08
747.216	25526.8
747.556	25415.17
747.895	25442.96
748.234	25346.92
748.573	25297.65
748.911	25292.46
749.25	25236.86
749.589	25147.83
749.928	25134.72
750.267	25148.96
750.605	25069.86
750.944	25041.16
751.283	24962.97
751.621	25007.94
751.96	24816.54
752.298	24826.93
752.636	24866.93
752.975	24681.17
753.313	24696.99
753.651	24790.77
753.989	24502.65
754.327	24528.63
754.666	24476.66
755.004	24382.65
755.342	24379.71
755.679	24454.06
756.017	24285.03
756.355	24350.11
756.693	24174.52
757.031	24210.23
757.368	24066.27
757.706	24230.11
758.044	23922.77
758.381	24036.9
758.719	23895.66
759.056	23758.94
759.394	23799.61
759.731	23639.62
760.068	23629.68
760.405	23612.73
760.743	23397.14
761.08	23528.66
761.417	23359.85
761.754	23368.21
762.091	23257.26
762.428	23157.6
762.765	22975.46
763.102	23080.54
763.438	22915.57
763.775	22752.64
764.112	22888.68
764.449	22830.37
764.785	22674.22
765.122	22617.72
765.458	22568.01
765.795	22514.68
766.131	22527.33
766.467	22406.43
766.804	22325.75
767.14	22104.52
767.476	22126.89
767.812	21995.14
768.148	22096.83
768.485	21906.1
768.821	21745.21
769.157	21628.37
769.492	21715.83
769.828	21696.84
770.164	21497.75
770.5	21470.64
770.836	21493.46
771.171	21269.06
771.507	21269.74
771.842	21109.29
772.178	21178.44
772.513	20980.93
772.849	20962.85
773.184	20830.65
773.519	20799.02
773.855	20740.03
774.19	20694.61
774.525	20655.97
774.86	20580.49
775.195	20628.4
775.53	20548.17
775.865	20262.76
776.2	20271.12
776.535	20153.83
776.87	20120.16
777.205	20081.75
777.539	19928.08
777.874	19893.95
778.209	19713.85
778.543	19758.59
778.878	19673.85
779.212	19668.2
779.547	19482.67
779.881	19571.48
780.215	19440.86
780.55	19408.09
780.884	19252.16
781.218	19152.05
781.552	19196.8
781.886	19177.59
782.22	19023.69
782.554	18935.34
782.888	18833.64
783.222	18784.15
783.556	18602.24
783.889	18610.37
784.223	18452.18
784.557	18475.01
784.89	18540.77
785.224	18390.72
785.557	18230.04
785.891	18272.98
786.224	18191.63
786.558	18185.3
786.891	18043.16
787.224	17918.87
787.557	17865.76
787.891	17826.89
788.224	17826.66
788.557	17761.36
788.89	17705.99
789.223	17603.62
789.556	17615.37
789.888	17456.5
790.221	17459.44
790.554	17306.23
790.887	17203.18
791.219	17280.92
791.552	17260.35
791.884	17148.72
792.217	17115.5
792.549	17012.45
792.882	16845.22
793.214	16809.74
793.546	16840.02
793.879	16704.66
794.211	16704.89
794.543	16709.86
794.875	16635.06
795.207	16602.74
795.539	16521.61
795.871	16551.9
796.203	16374.5
796.535	16360.49
796.867	16320.49
797.198	16223.77
797.53	16174.05
797.862	16136.99
798.193	16090.66
798.525	15986.49
798.856	16064
799.188	15856.55
799.519	15780.84
799.85	15736.32
800.182	15814.06
800.513	15756.66
800.844	15580.85
801.175	15645.7
801.506	15562.99
801.837	15458.14
802.168	15502.43
802.499	15446.84
802.83	15380.17
803.161	15348.76
803.491	15260.63
803.822	15283.91
804.153	15212.27
804.483	15097.7
804.814	15134.76
805.145	14989.9
805.475	15020.41
805.805	15015.21
806.136	14897.93
806.466	14978.15
806.796	14842.56
807.126	14806.86
807.457	14750.36
807.787	14724.37
808.117	14639.18
808.447	14592.85
808.777	14611.83
809.107	14599.63
809.436	14553.76
809.766	14579.07
810.096	14435.57
810.426	14332.74
810.755	14363.93
811.085	14338.17
811.414	14299.3
811.744	14187.44
812.073	14313.31
812.403	14158.29
812.732	14114.45
813.061	14158.51
813.39	13983.15
813.719	14041.45
814.049	13986.54
814.378	13976.37
814.707	13932.3
815.036	14040.55
815.365	13799.88
815.693	13699.77
816.022	13727.56
816.351	13697.96
816.68	13554.23
817.008	13665.42
817.337	13586.55
817.665	13508.36
817.994	13573.44
818.322	13485.08
818.651	13436.05
818.979	13348.59
819.307	13516.49
819.636	13452.32
819.964	13449.38
820.292	13381.13
820.62	13341.36
820.948	13320.12
821.276	13395.59
821.604	13304.52
821.932	13347.69
822.259	13314.24
822.587	13228.82
822.915	13184.98
823.243	13254.58
823.57	13227.46
823.898	13283.73
824.225	13212.55
824.553	13242.38
824.88	13191.76
825.207	13279.44
825.535	13142.95
825.862	13255.26
826.189	13145.21
826.516	13227.46
826.843	13268.37
827.17	13177.07
827.497	13285.77
827.824	13204.41
828.151	13239.44
828.478	13214.13
828.805	13280.34
829.131	13165.77
829.458	13289.61
829.785	13064.3
830.111	13144.53
830.438	13209.61
830.764	13204.19
831.09	13218.88
831.417	13155.37
831.743	13157.63
832.069	13231.08
832.395	13163.06
832.722	13196.96
833.048	13098.65
833.374	13187.01
833.7	13044.64
834.026	13096.62
834.351	13139.33
834.677	13067.24
835.003	13162.83
835.329	13028.82
835.654	13004.64
835.98	12992.21
836.306	12988.6
836.631	12893.69
836.956	12962.84
837.282	12978.66
837.607	12907.25
837.932	12899.79
838.258	12807.59
838.583	12753.13
838.908	12735.95
839.233	12765.33
839.558	12702.5
839.883	12772.11
840.208	12655.05
840.533	12666.8
840.858	12725.56
841.182	12620.47
841.507	12661.6
841.832	12601.72
842.156	12533.7
842.481	12534.6
842.805	12471.32
843.13	12497.09
843.454	12428.61
843.778	12359.24
844.103	12396.52
844.427	12359.92
844.751	12336.86
845.075	12253.48
845.399	12264.32
845.723	12179.58
846.047	12215.06
846.371	12122.41
846.695	12169.64
847.019	12000.15
847.343	11939.59
847.666	11924.22
847.99	11856.43
848.313	11847.16
848.637	11774.39
848.96	11719.03
849.284	11737.56
849.607	11662.53
849.931	11594.51
850.254	11471.8
850.577	11528.07
850.9	11336.21
851.223	11379.83
851.546	11378.7
851.869	11287.63
852.192	11350.45
852.515	11232.04
852.838	11203.34
853.161	11208.31
853.483	11096.67
853.806	11076.33
854.129	11039.5
854.451	11031.81
854.774	11006.28
855.096	10873.85
855.419	10861.88
855.741	10893.96
856.063	10826.85
856.385	10813.52
856.708	10760.18
857.03	10708.21
857.352	10734.2
857.674	10650.81
857.996	10654.88
858.318	10572.17
858.64	10612.84
858.961	10551.83
859.283	10512.28
859.605	10440.19
859.926	10451.94
860.248	10404.94
860.57	10343.47
860.891	10319.29
861.212	10329.91
861.534	10338.5
861.855	10293.08
862.176	10267.09
862.498	10269.57
862.819	10322.23
863.14	10133.98
863.461	10187.32
863.782	10133.98
864.103	10146.41
864.424	10150.93
864.745	10162.91
865.065	10084.72
865.386	10032.97
865.707	10119.07
866.027	10098.28
866.348	10036.59
866.668	10060.77
866.989	9983.48
867.309	9850.38
867.63	9879.98
867.95	9879.3
868.27	9875.01
868.59	9873.65
868.91	9926.98
869.23	9778.29
869.55	9799.3
869.87	9908.23
870.19	9910.04
870.51	9813.99
870.83	9788.01
871.15	9726.09
871.469	9819.64
871.789	9719.08
872.109	9771.73
872.428	9692.41
872.748	9726.31
873.067	9695.13
873.386	9691.51
873.706	9619.65
874.025	9510.72
874.344	9598.86
874.663	9611.51
874.982	9577.84
875.301	9552.53
875.62	9517.96
875.939	9538.97
876.258	9539.2
876.577	9478.41
876.896	9395.25
877.214	9447.22
877.533	9460.33
877.852	9435.25
878.17	9454.23
878.489	9391.63
878.807	9335.59
879.125	9395.02
879.444	9429.6
879.762	9349.37
880.08	9340.11
880.398	9277.06
880.716	9245.87
881.034	9245.87
881.352	9249.49
881.67	9243.16
881.988	9267.34
882.306	9256.95
882.624	9224.63
882.941	9187.12
883.259	9069.38
883.577	9039.55
883.894	9098.98
884.212	9045.43
884.529	9033.9
884.846	9053.11
885.164	9060.79
885.481	8942.6
885.798	8965.88
886.115	8954.35
886.432	8916.84
886.75	8891.76
887.067	8895.37
887.383	8847.92
887.7	8933.11
888.017	8810.86
888.334	8869.84
888.651	8764.98
888.967	8774.7
889.284	8699.67
889.6	8638.43
889.917	8731.31
890.233	8714.81
890.55	8646.79
890.866	8638.43
891.182	8577.42
891.498	8509.85
891.815	8543.74
892.131	8498.77
892.447	8494.71
892.763	8488.83
893.079	8412.67
893.395	8361.38
893.71	8396.63
894.026	8443.41
894.342	8344.43
894.657	8266.24
894.973	8275.95
895.289	8294.26
895.604	8200.93
895.92	8139.46
896.235	8165
896.55	8171.55
896.865	8113.25
897.181	8113.47
897.496	8082.74
897.811	8089.52
898.126	8012.91
898.441	7969.07
898.756	7953.03
899.071	7912.57
899.386	7889.75
899.7	7844.55
900.015	7819.24
900.33	7748.51
900.644	7810.43
900.959	7750.77
901.273	7784.44
901.588	7700.83
901.902	7666.03
902.216	7626.93
902.531	7573.83
902.845	7587.61
903.159	7521.17
903.473	7519.82
903.787	7509.87
904.101	7443.89
904.415	7406.15
904.729	7422.42
905.042	7350.56
905.356	7367.73
905.67	7366.15
905.984	7358.92
906.297	7334.74
906.611	7237.34
906.924	7222.65
907.237	7264.68
907.551	7168.41
907.864	7158.92
908.177	7156.66
908.491	7094.74
908.804	7032.37
909.117	7002.09
909.43	6991.47
909.743	7013.84
910.056	6942.66
910.368	6917.12
910.681	6907.86
910.994	6864.01
911.307	6874.64
911.619	6780.17
911.932	6796.45
912.244	6717.58
912.557	6711.48
912.869	6667.64
913.181	6642.55
913.494	6664.7
913.806	6568.65
914.118	6666.96
914.43	6520.29
914.742	6555.77
915.054	6573.85
915.366	6489.79
915.678	6504.25
915.99	6439.62
916.302	6385.16
916.613	6321.2
916.925	6346.74
917.236	6330.92
917.548	6233.3
917.859	6297.7
918.171	6263.8
918.482	6214.31
918.794	6213.86
919.105	6206.18
919.416	6138.16
919.727	6187.87
920.038	6093.87
920.349	6070.59
920.66	6081.66
920.971	6039.63
921.282	6013.64
921.593	5964.83
921.903	5916.69
922.214	5866.3
922.525	5907.2
922.835	5876.92
923.146	5803.03
923.456	5845.28
923.767	5808.45
924.077	5796.02
924.387	5742.01
924.697	5738.39
925.008	5751.95
925.318	5744.95
925.628	5634.44
925.938	5615.01
926.248	5578.85
926.558	5596.93
926.867	5553.54
927.177	5513.77
927.487	5512.64
927.796	5415.01
928.106	5453.43
928.416	5424.73
928.725	5447.55
929.034	5426.31
929.344	5378.63
929.653	5418.63
929.962	5308.35
930.271	5311.96
930.581	5282.36
930.89	5271.97
931.199	5239.88
931.508	5212.53
931.817	5181.12
932.125	5172.08
932.434	5182.25
932.743	5125.76
933.051	5147.22
933.36	5048.47
933.669	5069.71
933.977	5048.92
934.286	5015.7
934.594	5018.87
934.902	5009.83
935.21	4966.44
935.519	4950.84
935.827	4930.05
936.135	4927.79
936.443	4854.12
936.751	4846.89
937.059	4866.1
937.367	4822.26
937.674	4790.62
937.982	4754.47
938.29	4746.78
938.597	4743.84
938.905	4683.28
939.213	4709.95
939.52	4593.11
939.827	4646.67
940.135	4606.9
940.442	4637.63
940.749	4613
941.056	4617.07
941.363	4504.53
941.67	4541.59
941.977	4492.55
942.284	4471.53
942.591	4501.36
942.898	4448.03
943.205	4438.77
943.511	4412.1
943.818	4395.6
944.125	4379.79
944.431	4414.59
944.738	4363.29
945.044	4353.8
945.35	4312.44
945.657	4316.96
945.963	4282.61
946.269	4236.06
946.575	4250.75
946.881	4232.67
947.187	4231.54
947.493	4184.99
947.799	4205.33
948.105	4154.71
948.41	4131.43
948.716	4119.91
949.022	4062.73
949.327	4068.16
949.633	4009.17
949.938	4030.87
950.244	4063.86
950.549	3975.5
950.854	3987.48
951.16	3976.18
951.465	3982.51
951.77	3963.53
952.075	3942.51
952.38	3915.62
952.685	3908.39
952.99	3864.77
953.294	3832.91
953.599	3827.94
953.904	3823.19
954.209	3803.08
954.513	3803.53
954.818	3759.01
955.122	3768.28
955.426	3742.74
955.731	3761.95
956.035	3678.56
956.339	3690.31
956.643	3665.68
956.948	3666.58
957.252	3648.51
957.556	3670.88
957.86	3599.02
958.163	3575.29
958.467	3593.14
958.771	3580.26
959.075	3561.95
959.378	3528.51
959.682	3562.86
959.985	3490.54
960.289	3508.62
960.592	3446.7
960.896	3451.22
961.199	3458.45
961.502	3420.49
961.805	3404.67
962.108	3388.17
962.411	3413.03
962.714	3365.12
963.017	3363.99
963.32	3307.5
963.623	3338.46
963.926	3342.07
964.228	3305.92
964.531	3315.41
964.833	3248.29
965.136	3252.36
965.438	3221.4
965.741	3195.18
966.043	3194.96
966.345	3200.61
966.648	3180.04
966.95	3162.42
967.252	3142.98
967.554	3151.57
967.856	3112.7
968.158	3091.01
968.46	3096.88
968.761	3107.5
969.063	3066.83
969.365	3085.81
969.666	3084
969.968	3003.1
970.269	3038.13
970.571	3048.3
970.872	3013.04
971.174	2970.33
971.475	2972.82
971.776	2959.26
972.077	2957.22
972.378	2897.34
972.679	2917.45
972.98	2906.15
973.281	2913.16
973.582	2900.28
973.883	2844.91
974.183	2896.21
974.484	2887.17
974.785	2855.98
975.085	2810.79
975.386	2820.96
975.686	2799.71
975.986	2781.64
976.287	2788.19
976.587	2777.34
976.887	2772.6
977.187	2722.2
977.487	2778.25
977.787	2737.12
978.087	2689.66
978.387	2683.79
978.687	2684.69
978.987	2643.56
979.286	2693.95
979.586	2665.25
979.885	2630.91
980.185	2610.57
980.484	2610.79
980.784	2592.71
981.083	2586.61
981.382	2559.27
981.682	2552.26
981.981	2595.43
982.28	2588.19
982.579	2523.56
982.878	2552.94
983.177	2537.57
983.475	2543.22
983.774	2467.29
984.073	2487.18
984.372	2502.77
984.67	2483.11
984.969	2462.32
985.267	2441.08
985.566	2442.89
985.864	2418.71
986.162	2385.04
986.461	2387.3
986.759	2392.95
987.057	2392.95
987.355	2363.57
987.653	2346.62
987.951	2336.68
988.249	2349.56
988.547	2306.62
988.844	2323.12
989.142	2316.56
989.44	2281.08
989.737	2296.9
990.035	2279.05
990.332	2275.43
990.63	2278.15
990.927	2247.86
991.224	2188.88
991.521	2226.4
991.819	2232.05
992.116	2190.24
992.413	2217.13
992.71	2177.58
993.006	2164.48
993.303	2153.18
993.6	2166.06
993.897	2146.62
994.193	2124.93
994.49	2132.61
994.787	2092.16
995.083	2071.6
995.379	2104.37
995.676	2101.2
995.972	2048.1
996.268	2085.83
996.565	2075.44
996.861	2056.23
997.157	2024.59
997.453	2006.29
997.749	2015.1
998.044	2003.8
998.34	1956.12
998.636	1961.09
998.932	1970.36
999.227	1963.58
999.523	1951.15
999.818	1932.84
1000.114	1915.67
1000.409	1907.08
1000.704	1902.11
1001	1921.77
1001.295	1928.78
1001.59	1859.85
1001.885	1879.06
1002.18	1855.33
1002.475	1872.06
1002.77	1863.47
1003.065	1824.6
1003.359	1859.4
1003.654	1796.35
1003.949	1776.69
1004.243	1812.85
1004.538	1787.54
1004.832	1775.79
1005.127	1755.67
1005.421	1774.88
1005.715	1771.04
1006.009	1745.5
1006.304	1763.13
1006.598	1732.4
1006.892	1707.31
1007.186	1684.49
1007.48	1700.53
1007.773	1706.64
1008.067	1703.25
1008.361	1667.09
1008.655	1663.93
1008.948	1663.7
1009.242	1650.37
1009.535	1618.5
1009.829	1630.25
1010.122	1606.07
1010.415	1562.91
1010.708	1587.77
1011.001	1592.06
1011.295	1575.11
1011.588	1582.12
1011.881	1546.64
1012.173	1561.78
1012.466	1547.77
1012.759	1549.35
1013.052	1548.67
1013.344	1539.18
1013.637	1548.9
1013.93	1493.08
1014.222	1491.27
1014.514	1498.51
1014.807	1515.91
1015.099	1497.6
1015.391	1481.33
1015.683	1431.39
1015.976	1430.26
1016.268	1444.95
1016.56	1416.02
1016.851	1402.92
1017.143	1394.78
1017.435	1397.04
1017.727	1389.81
1018.018	1371.5
1018.31	1368.34
1018.602	1343.48
1018.893	1346.42
1019.185	1327.89
1019.476	1362.69
1019.767	1353.2
1020.058	1330.6
1020.35	1337.83
1020.641	1317.04
1020.932	1312.3
1021.223	1296.48
1021.514	1320.21
1021.804	1269.13
1022.095	1273.65
1022.386	1282.69
1022.677	1261.68
1022.967	1231.17
1023.258	1231.39
1023.548	1213.54
1023.839	1218.51
1024.129	1213.99
1024.419	1201.11
1024.709	1200.66
1025	1185.75
1025.29	1193.88
1025.58	1178.51
1025.87	1159.53
1026.16	1128.57
1026.449	1161.57
1026.739	1145.75
1027.029	1121.79
1027.319	1142.81
1027.608	1140.1
1027.898	1122.7
1028.187	1132.87
1028.477	1087.67
1028.766	1097.39
1029.055	1085.86
1029.344	1092.41
1029.634	1059.65
1029.923	1044.28
1030.212	1049.93
1030.501	1049.7
1030.79	1045.18
1031.078	1028.91
1031.367	1049.25
1031.656	1015.58
1031.945	1044.05
1032.233	1003.83
1032.522	1008.58
1032.81	1015.35
1033.099	984.62
1033.387	993.43
1033.675	984.17
1033.963	982.36
1034.251	998.41
1034.54	997.95
1034.828	964.06
1035.116	936.03
1035.403	988.01
1035.691	934
1035.979	925.87
1036.267	936.94
1036.554	907.11
1036.842	941.46
1037.129	927
1037.417	905.08
1037.704	931.97
1037.992	902.36
1038.279	880.67
1038.566	885.64
1038.853	885.64
1039.14	885.64
