Data from hue_10_FLMS001491_77.txt Node
Date: Mon Feb 06 15:32:32 GMT 2017
User: dcchb
Spectrometer: FLMS00149
Trigger mode: 0
Integration Time (sec): 2.000000E-2
Scans to average: 10
Electric dark correction enabled: true
Nonlinearity correction enabled: false
Boxcar width: 0
XAxis mode: Wavelengths
Number of Pixels in Spectrum: 2048
>>>>>Begin Spectral Data<<<<<
341.393	-13.88
341.776	-13.88
342.16	-13.88
342.543	-55.92
342.927	-73.32
343.31	-78.29
343.693	-66.54
344.077	-81.9
344.46	-57.5
344.843	-62.02
345.226	-43.04
345.61	-38.97
345.993	-14.56
346.376	3.52
346.759	16.62
347.142	40.58
347.525	55.94
347.908	55.72
348.291	87.13
348.674	74.48
349.057	108.82
349.44	104.31
349.823	134.81
350.206	166.45
350.588	196.28
350.971	201.93
351.354	216.62
351.737	236.05
352.119	264.07
352.502	263.4
352.884	283.74
353.267	276.96
353.65	278.31
354.032	312.21
354.414	314.02
354.797	328.48
355.179	337.07
355.562	338.42
355.944	328.03
356.326	313.34
356.709	315.83
357.091	344.3
357.473	354.92
357.855	314.92
358.238	345.43
358.62	328.71
359.002	313.79
359.384	358.08
359.766	337.07
360.148	326.67
360.53	346.78
360.912	335.94
361.294	334.13
361.676	352.21
362.057	336.16
362.439	326.22
362.821	328.93
363.203	328.93
363.584	308.14
363.966	319.44
364.348	319.89
364.729	318.31
365.111	319.44
365.493	331.19
365.874	309.05
366.256	329.84
366.637	303.85
367.019	313.57
367.4	321.47
367.781	302.27
368.163	321.02
368.544	324.19
368.925	306.79
369.306	305.66
369.688	288.48
370.069	316.73
370.45	317.41
370.831	302.94
371.212	328.71
371.593	303.62
371.974	293.68
372.355	308.59
372.736	317.18
373.117	298.42
373.498	318.99
373.879	325.32
374.26	316.05
374.641	315.37
375.021	317.86
375.402	305.88
375.783	310.63
376.163	310.18
376.544	303.4
376.925	325.77
377.305	337.97
377.686	330.74
378.066	324.86
378.447	316.28
378.827	332.1
379.208	316.73
379.588	331.42
379.968	325.09
380.349	320.12
380.729	322.83
381.109	325.77
381.489	324.64
381.87	333.9
382.25	340.68
382.63	322.15
383.01	351.08
383.39	334.58
383.77	344.52
384.15	352.66
384.53	330.29
384.91	338.65
385.29	331.42
385.67	332.32
386.049	342.27
386.429	336.16
386.809	342.49
387.189	322.15
387.568	343.85
387.948	349.04
388.328	342.72
388.707	353.56
389.087	353.79
389.466	346.33
389.846	367.8
390.225	354.92
390.605	354.24
390.984	361.7
391.363	347.46
391.743	370.29
392.122	336.39
392.501	349.95
392.881	372.09
393.26	370.96
393.639	345.2
394.018	364.41
394.397	370.96
394.776	363.96
395.155	358.08
395.534	376.16
395.913	334.36
396.292	356.28
396.671	368.48
397.05	365.32
397.429	363.06
397.808	357.41
398.186	352.21
398.565	366.22
398.944	349.04
399.323	382.94
399.701	371.19
400.08	354.02
400.458	383.62
400.837	376.61
401.215	381.36
401.594	371.19
401.972	364.86
402.351	383.62
402.729	380
403.107	387.46
403.486	379.1
403.864	373.45
404.242	369.38
404.62	385.88
404.999	383.62
405.377	394.69
405.755	407.12
406.133	383.85
406.511	383.62
406.889	393.56
407.267	386.11
407.645	419.33
408.023	396.27
408.401	401.7
408.779	399.21
409.156	410.29
409.534	401.47
409.912	406.9
410.29	399.44
410.667	425.65
411.045	406.9
411.422	423.84
411.8	402.6
412.178	415.94
412.555	412.09
412.933	417.97
413.31	426.78
413.687	417.97
414.065	423.84
414.442	424.97
414.819	448.02
415.197	432.43
415.574	441.02
415.951	440.12
416.328	439.66
416.705	457.97
417.082	455.26
417.46	444.64
417.837	443.05
418.214	455.03
418.591	441.92
418.967	445.31
419.344	460
419.721	449.15
420.098	455.03
420.475	445.09
420.852	459.55
421.228	469.04
421.605	455.48
421.982	481.24
422.358	472.21
422.735	463.17
423.111	452.54
423.488	471.3
423.864	480.57
424.241	479.21
424.617	502.49
424.994	493.22
425.37	484.63
425.746	507.01
426.123	515.14
426.499	496.84
426.875	516.95
427.251	513.33
427.627	498.42
428.003	500.68
428.379	502.71
428.756	506.55
429.132	515.59
429.507	531.41
429.883	512.43
430.259	544.52
430.635	537.29
431.011	549.94
431.387	519.89
431.763	565.31
432.138	544.75
432.514	537.74
432.89	551.75
433.265	563.05
433.641	547.23
434.016	552.2
434.392	560.56
434.767	569.83
435.143	583.39
435.518	548.14
435.894	564.18
436.269	605.53
436.644	594.01
437.02	587.91
437.395	581.13
437.77	590.85
438.145	610.05
438.52	594.69
438.895	611.86
439.271	617.74
439.646	608.47
440.021	624.07
440.395	617.51
440.77	603.05
441.145	620.45
441.52	648.25
441.895	645.31
442.27	637.62
442.645	610.73
443.019	652.09
443.394	639.43
443.769	642.37
444.143	638.3
444.518	625.42
444.892	636.04
445.267	662.26
445.641	642.6
446.016	653.9
446.39	661.13
446.764	665.65
447.139	650.05
447.513	674.69
447.887	669.94
448.262	687.34
448.636	676.27
449.01	690.05
449.384	695.02
449.758	696.83
450.132	684.4
450.506	696.38
450.88	689.15
451.254	699.09
451.628	699.54
452.002	716.27
452.376	711.07
452.75	708.58
453.123	737.51
453.497	754.23
453.871	718.07
454.244	730.5
454.618	750.84
454.992	751.07
455.365	755.36
455.739	733.44
456.112	768.47
456.486	768.02
456.859	757.62
457.232	768.47
457.606	776.38
457.979	769.82
458.352	779.32
458.725	794.46
459.099	796.26
459.472	839.88
459.845	850.95
460.218	840.56
460.591	841.69
460.964	862.7
461.337	874
461.71	874.23
462.083	880.78
462.456	883.72
462.829	887.34
463.201	870.84
463.574	893.44
463.947	883.27
464.32	923.49
464.692	939.09
465.065	914.91
465.438	933.21
465.81	931.18
466.183	959.42
466.555	979.31
466.928	996.94
467.3	1001.68
467.672	1015.47
468.045	1009.14
468.417	1023.6
468.789	1040.78
469.161	1024.96
469.534	1046.2
469.906	1073.32
470.278	1079.19
470.65	1088.91
471.022	1106.31
471.394	1123.49
471.766	1109.7
472.138	1121.68
472.51	1178.4
472.882	1215.24
473.253	1218.4
473.625	1211.85
473.997	1251.17
474.369	1263.82
474.74	1262.24
475.112	1277.83
475.484	1323.48
475.855	1341.33
476.227	1372.97
476.598	1365.51
476.97	1416.36
477.341	1424.95
477.713	1453.42
478.084	1464.72
478.455	1528.9
478.827	1529.13
479.198	1574.55
479.569	1582.23
479.94	1626.98
480.311	1676.24
480.682	1662.46
481.053	1726.64
481.424	1756.69
481.795	1758.5
482.166	1819.29
482.537	1797.59
482.908	1870.36
483.279	1879.17
483.65	1936.57
484.021	1985.39
484.391	2021.32
484.762	2041.88
485.133	2072.61
485.503	2093.86
485.874	2150.58
486.244	2178.83
486.615	2227.19
486.985	2240.52
487.356	2336.56
487.726	2341.53
488.097	2387.86
488.467	2425.6
488.837	2444.81
489.207	2497.24
489.578	2573.39
489.948	2561.87
490.318	2614.97
490.688	2626.5
491.058	2660.85
491.428	2725.48
491.798	2754.86
492.168	2816.78
492.538	2822.2
492.908	2843.22
493.278	2896.55
493.648	2912.59
494.017	2979.03
494.387	2995.53
494.757	3030.78
495.126	3071.46
495.496	3090.89
495.866	3161.85
496.235	3158.24
496.605	3189.87
496.974	3230.78
497.344	3268.52
497.713	3287.05
498.082	3282.98
498.452	3331.56
498.821	3346.93
499.19	3389.19
499.559	3423.31
499.928	3406.37
500.298	3473.26
500.667	3476.42
501.036	3506.48
501.405	3535.85
501.774	3533.37
502.143	3531.33
502.512	3523.88
502.88	3605.91
503.249	3589.64
503.618	3622.86
503.987	3649.07
504.356	3644.55
504.724	3669.86
505.093	3694.95
505.462	3717.77
505.83	3734.94
506.199	3800.25
506.567	3791.21
506.936	3780.37
507.304	3851.55
507.672	3846.13
508.041	3859.46
508.409	3873.25
508.777	3896.52
509.145	3968.84
509.514	3933.13
509.882	3939.68
510.25	4018.78
510.618	4031.66
510.986	3969.29
511.354	4060.81
511.722	4030.98
512.09	4065.1
512.458	4055.16
512.826	4080.25
513.193	4117.98
513.561	4040.92
513.929	4118.21
514.297	4148.04
514.664	4176.74
515.032	4172.22
515.4	4185.33
515.767	4183.52
516.135	4186.46
516.502	4180.58
516.869	4232.78
517.237	4251.99
517.604	4253.57
517.972	4209.73
518.339	4239.11
518.706	4242.5
519.073	4267.59
519.44	4280.01
519.808	4287.47
520.175	4294.03
520.542	4340.35
520.909	4322.05
521.276	4355.49
521.643	4339.45
522.009	4407.02
522.376	4404.53
522.743	4402.27
523.11	4446.11
523.477	4439.78
523.843	4458.99
524.21	4479.11
524.577	4513.91
524.943	4581.48
525.31	4562.94
525.676	4543.28
526.043	4621.25
526.409	4602.94
526.776	4665.77
527.142	4717.52
527.508	4667.12
527.874	4704.64
528.241	4725.88
528.607	4735.37
528.973	4772.43
529.339	4790.28
529.705	4816.5
530.071	4807.01
530.437	4861.02
530.803	4886.55
531.169	4875.48
531.535	4865.76
531.901	4862.37
532.267	4918.64
532.632	4921.81
532.998	4985.08
533.364	5002.93
533.73	5049.26
534.095	5033.44
534.461	5070.73
534.826	5054.68
535.192	5080.45
535.557	5162.7
535.923	5142.36
536.288	5149.82
536.653	5212.42
537.019	5117.51
537.384	5216.26
537.749	5232.98
538.114	5220.33
538.479	5212.65
538.845	5232.76
539.21	5275.47
539.575	5259.2
539.94	5303.94
540.305	5364.96
540.67	5350.72
541.034	5374.9
541.399	5376.71
541.764	5400.89
542.129	5425.75
542.494	5492.19
542.858	5497.16
543.223	5560.88
543.587	5541.22
543.952	5555.01
544.316	5588.23
544.681	5568.12
545.045	5656.25
545.41	5646.31
545.774	5697.15
546.138	5737.38
546.503	5718.62
546.867	5750.03
547.231	5799.07
547.595	5766.08
547.959	5819.64
548.324	5806.3
548.688	5853.08
549.052	5856.02
549.416	5885.85
549.779	5918.39
550.143	5947.99
550.507	5966.07
550.871	5951.38
551.235	5989.8
551.599	6037.03
551.962	6050.36
552.326	6078.61
552.689	6061.44
553.053	6063.92
553.417	6089.46
553.78	6124.26
554.143	6092.17
554.507	6210.81
554.87	6119.51
555.234	6172.17
555.597	6161.55
555.96	6212.17
556.323	6233.86
556.686	6233.64
557.05	6239.96
557.413	6267.31
557.776	6286.52
558.139	6311.37
558.502	6367.87
558.865	6314.31
559.228	6355.67
559.59	6430.92
559.953	6378.49
560.316	6454.65
560.679	6424.59
561.041	6482.89
561.404	6522.22
561.767	6519.96
562.129	6503.91
562.492	6627.3
562.854	6538.26
563.217	6562.44
563.579	6597.69
563.941	6605.83
564.304	6653.51
564.666	6722.21
565.028	6705.94
565.39	6726.05
565.753	6750.46
566.115	6816.45
566.477	6841.08
566.839	6811.7
567.201	6852.6
567.563	6841.98
567.925	6949.77
568.287	6887.4
568.648	6874.3
569.01	6969.66
569.372	6987.06
569.734	7031.13
570.095	7084.23
570.457	7117.23
570.819	7067.51
571.18	7152.93
571.542	7187.73
571.903	7220.73
572.265	7258.24
572.626	7321.06
572.987	7289.43
573.349	7366.26
573.71	7397.9
574.071	7440.84
574.432	7507.27
574.794	7631.56
575.155	7629.53
575.516	7705.01
575.877	7743.65
576.238	7917.43
576.599	7939.35
576.96	7918.79
577.32	8043.76
577.681	8123.53
578.042	8272.45
578.403	8320.13
578.763	8395.84
579.124	8450.75
579.485	8575.49
579.845	8727.36
580.206	8864.75
580.566	9003.51
580.927	9093.45
581.287	9218.19
581.648	9371.86
582.008	9571.63
582.368	9681.45
582.728	9863.14
583.089	9997.15
583.449	10161.22
583.809	10369.35
584.169	10570.47
584.529	10735.21
584.889	11045.71
585.249	11167.74
585.609	11390.11
585.969	11708.75
586.329	11893.15
586.688	12228.96
587.048	12520.93
587.408	12682.05
587.768	13012.21
588.127	13218.99
588.487	13461.69
588.846	13774.91
589.206	13955.69
589.565	14357.49
589.925	14759.74
590.284	14998.83
590.643	15419.61
591.003	15646.72
591.362	15951.35
591.721	16247.61
592.08	16652.34
592.44	17001.94
592.799	17281.03
593.158	17619.55
593.517	18057.28
593.876	18490.71
594.235	18761.89
594.593	19164.14
594.952	19561.42
595.311	19760.96
595.67	20242.08
596.029	20761.16
596.387	21122.51
596.746	21589.62
597.104	21705.55
597.463	22096.5
597.822	22656.03
598.18	22846.31
598.538	23275.67
598.897	23761.76
599.255	23936.22
599.613	24590.89
599.972	24840.38
600.33	25287.15
600.688	25496.41
601.046	25864.98
601.404	26442.6
601.762	26596.49
602.12	27183.14
602.478	27513.75
602.836	27807.08
603.194	27965.49
603.552	28469.66
603.91	28686.83
604.268	29110.77
604.625	29383.31
604.983	29703.3
605.341	30019.9
605.698	30435.49
606.056	30834.34
606.413	31157.5
606.771	31426.65
607.128	31785.96
607.485	31981.43
607.843	32259.17
608.2	32723.56
608.557	33110.67
608.914	33219.82
609.272	33602.41
609.629	33926.24
609.986	34318.77
610.343	34403.52
610.7	34885.09
611.057	35116.27
611.414	35353.1
611.771	35633.54
612.127	35990.37
612.484	36050.7
612.841	36333.41
613.198	36540.64
613.554	36694.98
613.911	37257.45
614.267	37367.96
614.624	37438.46
614.98	37722.53
615.337	38137.2
615.693	38324.32
616.05	38411.32
616.406	38760.69
616.762	38724.08
617.118	39056.28
617.475	39128.59
617.831	39317.51
618.187	39593.66
618.543	39783.94
618.899	40188.9
619.255	40352.29
619.611	40341.44
619.967	40620.3
620.323	40789.56
620.678	40884.93
621.034	40927.86
621.39	40975.77
621.746	41165.15
622.101	41633.38
622.457	41522.88
622.812	41647.62
623.168	41822.08
623.523	42063.43
623.879	42155.63
624.234	42048.74
624.589	42406.7
624.945	42369.86
625.3	42477.88
625.655	42571.44
626.01	42677.65
626.365	42822.28
626.72	42930.75
627.075	42875.84
627.43	42959.9
627.785	43125.77
628.14	43136.17
628.495	43241.93
628.85	43304.75
629.205	43333.9
629.559	43542.71
629.914	43489.38
630.269	43640.11
630.623	43559.66
630.978	43504.07
631.332	43804.85
631.687	43822.48
632.041	43738.19
632.396	43751.29
632.75	43654.35
633.104	43796.94
633.459	43665.42
633.813	43793.1
634.167	43864.96
634.521	43931.4
634.875	43784.29
635.229	43850.73
635.583	43683.05
635.937	43753.78
636.291	43839.65
636.645	44009.14
636.999	43887.79
637.352	44063.15
637.706	43820.44
638.06	44003.04
638.413	43749.94
638.767	43894.57
639.121	43853.89
639.474	43823.61
639.828	43798.52
640.181	43979.99
640.534	43890.72
640.888	43705.87
641.241	43627.68
641.594	43728.47
641.947	43950.61
642.301	43800.11
642.654	43792.87
643.007	43944.28
643.36	43829.94
643.713	43705.19
644.066	44041.45
644.419	43668.58
644.771	43453.9
645.124	43168.26
645.477	43122.16
645.83	42857.08
646.182	42848.04
646.535	42764.43
646.888	42783.41
647.24	42546.58
647.593	42780.47
647.945	42754.94
648.298	42580.25
648.65	42357.21
649.002	42385
649.355	42541.16
649.707	42472.68
650.059	42702.28
650.411	43124.42
650.763	43107.92
651.115	43492.54
651.467	43422.04
651.819	43469.04
652.171	43461.36
652.523	43417.52
652.875	43328.03
653.227	43278.31
653.578	43514.01
653.93	43408.25
654.282	43196.73
654.633	43224.53
654.985	43257.97
655.337	43276.28
655.688	43263.85
656.039	43415.93
656.391	42905.67
656.742	43104.98
657.094	43029.5
657.445	43329.16
657.796	43021.59
658.147	43139.78
658.498	43059.33
658.849	43213.45
659.2	43122.61
659.551	42961.48
659.902	43143.63
660.253	43029.73
660.604	43090.29
660.955	42840.81
661.306	43036.74
661.656	42998.32
662.007	42935.04
662.358	42964.87
662.708	42901.15
663.059	42957.42
663.409	42647.82
663.76	43029.05
664.11	42997.64
664.461	43126.68
664.811	42939.34
665.161	43003.97
665.511	42835.16
665.862	42943.4
666.212	43025.66
666.562	43128.94
666.912	42904.54
667.262	42885.78
667.612	42973.91
667.962	42881.26
668.312	42906.34
668.662	43060.01
669.011	42805.33
669.361	42788.61
669.711	42835.16
670.06	42789.28
670.41	42757.19
670.76	42569.4
671.109	42858.66
671.459	42694.82
671.808	42575.5
672.157	42815.72
672.507	42572.12
672.856	42752.22
673.205	42627.93
673.554	42815.5
673.904	42477.43
674.253	42715.16
674.602	42688.5
674.951	42054.61
675.3	41846.94
675.649	42634.03
675.998	42500.25
676.346	42546.35
676.695	42634.71
677.044	42233.59
677.393	42467.71
677.741	42529.18
678.09	42383.19
678.438	42280.37
678.787	42388.17
679.135	42242.86
679.484	42120.6
679.832	42287.15
680.181	42062.3
680.529	42098.68
680.877	41914.51
681.225	41907.73
681.573	42077.89
681.922	41884.9
682.27	41853.72
682.618	41779.82
682.966	41608.3
683.314	41715.19
683.661	41577.11
684.009	41472.48
684.357	41407.4
684.705	41214.64
685.053	41424.35
685.4	41378.93
685.748	41100.29
686.095	41218.03
686.443	41035.66
686.79	41012.83
687.138	41122.21
687.485	41007.86
687.832	41017.35
688.18	41016.45
688.527	40733.07
688.874	40540.3
689.221	40573.75
689.568	40485.39
689.915	40363.81
690.262	40271.61
690.609	40281.33
690.956	40155.46
691.303	40102.58
691.65	40004.95
691.997	39967.66
692.344	39668.46
692.69	39761.34
693.037	39742.58
693.383	39547.79
693.73	39529.48
694.077	39317.51
694.423	39388.02
694.769	39223.28
695.116	39204.97
695.462	39115.71
695.808	39020.8
696.155	39136.95
696.501	38753.91
696.847	38795.49
697.193	38456.74
697.539	38672.56
697.885	38328.61
698.231	38138.33
698.577	38296.75
698.923	38130.88
699.269	37911.9
699.614	37834.16
699.96	37840.04
700.306	37842.07
700.651	37645.92
700.997	37469.65
701.342	37424.45
701.688	37538.58
702.033	37252.03
702.379	37172.03
702.724	37125.7
703.069	37195.08
703.415	36690.46
703.76	36765.26
704.105	36871.47
704.45	36701.08
704.795	36585.61
705.14	36442.78
705.485	36407.08
705.83	36326.86
706.175	36355.78
706.52	36147.88
706.865	36002.57
707.209	36079.63
707.554	35910.14
707.899	36067.43
708.243	35913.76
708.588	35835.12
708.932	35538.4
709.277	35452.75
709.621	35668.79
709.966	35332.98
710.31	35473.09
710.654	35192.2
710.998	35194.23
711.342	35203.27
711.687	35048.47
712.031	34946.1
712.375	34853.45
712.719	34883.28
713.063	34849.83
713.407	34888.7
713.75	34622.95
714.094	34576.85
714.438	34627.47
714.782	34470.41
715.125	34294.14
715.469	34479.22
715.812	34215.05
716.156	34024.77
716.499	34032.23
716.843	34076.29
717.186	33861.61
717.53	34045.79
717.873	34159.45
718.216	34019.57
718.559	33818.22
718.902	33608.06
719.246	33803.31
719.589	33609.41
719.932	33266.82
720.275	33444.67
720.617	33450.32
720.96	33249.65
721.303	33224.34
721.646	33323.77
721.989	32981.18
722.331	33223.66
722.674	33005.36
723.016	33121.29
723.359	32983.44
723.701	33020.05
724.044	32722.2
724.386	32616.9
724.729	32780.96
725.071	32729.89
725.413	32706.84
725.755	32745.93
726.097	32477.92
726.439	32412.16
726.782	32312.5
727.124	32592.49
727.465	32307.3
727.807	32245.15
728.149	32229.56
728.491	32150.92
728.833	32190.02
729.175	32029.79
729.516	32159.96
729.858	32032.73
730.199	32079.74
730.541	31842.23
730.882	31851.04
731.224	32031.38
731.565	31640.65
731.906	31768.56
732.248	31737.82
732.589	31669.12
732.93	31380.32
733.271	31512.97
733.612	31539.64
733.953	31538.05
734.294	31453.54
734.635	31360.21
734.976	31427.78
735.317	31193.21
735.658	31162.92
735.999	31259.19
736.339	31153.88
736.68	31166.99
737.021	31072.98
737.361	30891.29
737.702	31076.37
738.042	31014.68
738.383	30935.58
738.723	30901.24
739.063	30848.36
739.404	30936.26
739.744	30772.65
740.084	30551.87
740.424	30656.72
740.764	30669.6
741.104	30672.77
741.444	30475.94
741.784	30348.26
742.124	30496.73
742.464	30417.63
742.804	30327.24
743.143	30384.41
743.483	30297.41
743.823	30124.31
744.162	30112.56
744.502	30154.59
744.841	30019.45
745.181	30074.36
745.52	29945.33
745.86	29993.69
746.199	29997.53
746.538	29864.88
746.877	29854.71
747.216	29911.66
747.556	29727.03
747.895	29717.76
748.234	29581.95
748.573	29587.6
748.911	29612.68
749.25	29583.76
749.589	29382.41
749.928	29419.69
750.267	29575.85
750.605	29341.28
750.944	29355.51
751.283	29207.27
751.621	29233.26
751.96	28973.15
752.298	29067.16
752.636	29061.51
752.975	28979.03
753.313	28821.29
753.651	28974.51
753.989	28837.56
754.327	28734.74
754.666	28571.35
755.004	28704.23
755.342	28620.62
755.679	28532.71
756.017	28302.66
756.355	28438.7
756.693	28381.98
757.031	28330
757.368	28149.22
757.706	28094.76
758.044	28059.73
758.381	28157.35
758.719	27963.69
759.056	28028.09
759.394	27859.51
759.731	27817.93
760.068	27721.66
760.405	27622.23
760.743	27661.55
761.08	27626.52
761.417	27422.91
761.754	27439.86
762.091	27322.12
762.428	27253.42
762.765	27033.09
763.102	27172.29
763.438	26845.52
763.775	26815.69
764.112	26713.55
764.449	26862.7
764.785	26711.29
765.122	26538.64
765.458	26393.78
765.795	26483.72
766.131	26314.24
766.467	26232.43
766.804	26053
767.14	26072.21
767.476	26003.74
767.812	25856.85
768.148	25890.75
768.485	25775.27
768.821	25656.63
769.157	25597.65
769.492	25503.64
769.828	25537.31
770.164	25274.26
770.5	25261.84
770.836	25264.1
771.171	25081.28
771.507	25083.54
771.842	24785.24
772.178	24852.58
772.513	24674.96
772.849	24701.4
773.184	24440.16
773.519	24598.8
773.855	24421.41
774.19	24325.59
774.525	24262.99
774.86	24284.91
775.195	24179.6
775.53	24092.15
775.865	23951.14
776.2	23799.95
776.535	23637.92
776.87	23603.8
777.205	23593.86
777.539	23394.31
777.874	23504.37
778.209	23253.3
778.543	23293.3
778.878	23131.27
779.212	23106.86
779.547	22966.98
779.881	22915.46
780.215	22762.01
780.55	22912.52
780.884	22668.91
781.218	22578.97
781.552	22720.43
781.886	22455.36
782.22	22390.72
782.554	22285.42
782.888	22107.79
783.222	22066.44
783.556	21988.93
783.889	21941.92
784.223	21842.72
784.557	21730.86
784.89	21699.67
785.224	21617.86
785.557	21464.42
785.891	21440.47
786.224	21396.63
786.558	21333.58
786.891	21216.97
787.224	21081.61
787.557	21070.99
787.891	20994.38
788.224	20945.11
788.557	21056.97
788.89	20802.52
789.223	20857.88
789.556	20629.19
789.888	20710.99
790.221	20445.92
790.554	20305.13
790.887	20492.47
791.219	20322.98
791.552	20271.91
791.884	20255.64
792.217	20167.96
792.549	20009.09
792.882	19878.93
793.214	19805.71
793.546	19869.44
793.879	19738.37
794.211	19523.68
794.543	19576.79
794.875	19603.91
795.207	19675.54
795.539	19444.81
795.871	19416.79
796.203	19365.95
796.535	19180.87
796.867	19076.69
797.198	19097.48
797.53	19083.47
797.862	18788.11
798.193	18988.55
798.525	18844.6
798.856	18841.21
799.188	18672.4
799.519	18731.61
799.85	18481.9
800.182	18468.34
800.513	18473.77
800.844	18357.84
801.175	18479.42
801.506	18403.49
801.837	18265.41
802.168	18244.62
802.499	18287.33
802.83	18076.26
803.161	18074.91
803.491	18065.41
803.822	18078.52
804.153	17864.52
804.483	17770.28
804.814	17700.45
805.145	17688.25
805.475	17689.83
805.805	17669.27
806.136	17596.05
806.466	17613.22
806.796	17458.88
807.126	17428.14
807.457	17379.11
807.787	17343.4
808.117	17220.01
808.447	17182.05
808.777	17264.31
809.107	17156.29
809.436	17055.05
809.766	17137.98
810.096	17048.27
810.426	16947.48
810.755	16925.11
811.085	16957.65
811.414	16837.2
811.744	16677.88
812.073	16733.7
812.403	16668.84
812.732	16580.71
813.061	16601.95
813.39	16385.91
813.719	16528.05
814.049	16543.42
814.378	16387.04
814.707	16373.71
815.036	16267.27
815.365	16258.23
815.693	16163.54
816.022	16138.23
816.351	16090.33
816.68	16042.42
817.008	16103.66
817.337	15879.71
817.665	15923.55
817.994	16042.42
818.322	15914.28
818.651	15819.6
818.979	15741.41
819.307	15850.56
819.636	15640.85
819.964	15737.79
820.292	15668.42
820.62	15796.1
820.948	15569.89
821.276	15683.78
821.604	15638.13
821.932	15646.72
822.259	15672.71
822.587	15597.68
822.915	15543
823.243	15625.48
823.57	15543.67
823.898	15628.87
824.225	15451.02
824.553	15516.33
824.88	15598.59
825.207	15540.96
825.535	15485.82
825.862	15565.14
826.189	15505.03
826.516	15547.06
826.843	15562.2
827.17	15586.38
827.497	15594.52
827.824	15582.99
828.151	15533.28
828.478	15570.57
828.805	15510.68
829.131	15546.16
829.458	15505.26
829.785	15413.51
830.111	15512.49
830.438	15572.15
830.764	15484.47
831.09	15538.93
831.417	15448.99
831.743	15487.63
832.069	15506.84
832.395	15397.91
832.722	15428.42
833.048	15360.4
833.374	15386.84
833.7	15336.22
834.026	15386.39
834.351	15377.58
834.677	15331.93
835.003	15333.28
835.329	15281.53
835.654	15222.55
835.98	15161.08
836.306	15234.98
836.631	15137.36
836.956	15242.44
837.282	15182.55
837.607	15078.83
837.932	15027.3
838.258	15058.26
838.583	15107.07
838.908	14958.6
839.233	14996.12
839.558	14900.3
839.883	14965.38
840.208	14840.64
840.533	14869.34
840.858	14902.56
841.182	14858.04
841.507	14803.35
841.832	14761.77
842.156	14734.65
842.481	14721.1
842.805	14659.4
843.13	14559.97
843.454	14693.3
843.778	14575.11
844.103	14520.2
844.427	14542.8
844.751	14471.16
845.075	14482.23
845.399	14394.55
845.723	14298.06
846.047	14359.3
846.371	14242.01
846.695	14140.77
847.019	14117.95
847.343	13995.92
847.666	14049.48
847.99	13885.64
848.313	13928.35
848.637	13795.7
848.96	13788.24
849.284	13745.98
849.607	13681.35
849.931	13569.49
850.254	13478.64
850.577	13463.73
850.9	13374.69
851.223	13399.32
851.546	13301.7
851.869	13237.52
852.192	13251.53
852.515	13213.11
852.838	13126.34
853.161	13090.63
853.483	13090.86
853.806	12961.37
854.129	12968.6
854.451	12857.64
854.774	12890.41
855.096	12743.52
855.419	12791.66
855.741	12809.73
856.063	12639.34
856.385	12616.29
856.708	12595.73
857.03	12563.64
857.352	12523.19
857.674	12491.1
857.996	12514.83
858.318	12438.22
858.64	12424.21
858.961	12391.67
859.283	12310.09
859.605	12191.22
859.926	12294.72
860.248	12220.14
860.57	12170.65
860.891	12228.73
861.212	12169.07
861.534	12118.9
861.855	12089.07
862.176	12060.15
862.498	12074.16
862.819	12064.89
863.14	11942.86
863.461	11949.42
863.782	11903.09
864.103	11935.63
864.424	11849.53
864.745	11874.62
865.065	11789.87
865.386	11758.24
865.707	11717.56
866.027	11704.68
866.348	11751.68
866.668	11769.31
866.989	11695.64
867.309	11623.55
867.63	11678.92
867.95	11643.89
868.27	11573.83
868.59	11601.63
868.91	11598.69
869.23	11499.71
869.55	11451.8
869.87	11560.5
870.19	11484.57
870.51	11529.54
870.83	11526.83
871.15	11408.87
871.469	11461.75
871.789	11459.03
872.109	11400.05
872.428	11365.48
872.748	11315.08
873.067	11333.61
873.386	11369.32
873.706	11326.38
874.025	11312.6
874.344	11174.07
874.663	11274.63
874.982	11140.17
875.301	11200.96
875.62	11177.91
875.939	11140.85
876.258	11119.61
876.577	11067.86
876.896	11104.47
877.214	11027.18
877.533	11022.44
877.852	11083.68
878.17	11070.12
878.489	10991.25
878.807	10966.39
879.125	10909.67
879.444	10968.2
879.762	10818.37
880.08	10916.22
880.398	10869.45
880.716	10918.48
881.034	10860.41
881.352	10789.22
881.67	10829.22
881.988	10776.34
882.306	10711.71
882.624	10697.02
882.941	10675.1
883.259	10616.12
883.577	10614.09
883.894	10593.75
884.212	10573.86
884.529	10576.12
884.846	10540.19
885.164	10558.72
885.481	10527.53
885.798	10572.05
886.115	10447.08
886.432	10395.56
886.75	10439.17
887.067	10422
887.383	10356.01
887.7	10337.93
888.017	10235.79
888.334	10335.67
888.651	10238.5
888.967	10213.87
889.284	10280.53
889.6	10143.59
889.917	10100.88
890.233	10125.06
890.55	10073.99
890.866	10057.49
891.182	10017.94
891.498	9969.36
891.815	9949.7
892.131	9958.74
892.447	9906.31
892.763	9922.13
893.079	9855.91
893.395	9782.24
893.71	9821.11
894.026	9791.51
894.342	9726.88
894.657	9687.78
894.973	9710.83
895.289	9616.37
895.604	9636.71
895.92	9536.15
896.235	9494.34
896.55	9582.47
896.865	9485.3
897.181	9444.17
897.496	9455.47
897.811	9361.01
898.126	9346.55
898.441	9357.62
898.756	9275.82
899.071	9275.59
899.386	9246.44
899.7	9165.76
900.015	9113.11
900.33	9084.63
900.644	9090.51
900.959	9059.32
901.273	9004.64
901.588	8978.65
901.902	8959.89
902.216	8919.67
902.531	8886.9
902.845	8864.07
903.159	8801.03
903.473	8780.69
903.787	8706.34
904.101	8688.94
904.415	8674.02
904.729	8654.14
905.042	8650.07
905.356	8598.77
905.67	8558.55
905.984	8597.19
906.297	8518.55
906.611	8451.43
906.924	8456.85
907.237	8405.56
907.551	8394.48
907.864	8345.44
908.177	8332.79
908.491	8274.26
908.804	8269.51
909.117	8189.06
909.43	8188.61
909.743	8117.2
910.056	8164.43
910.368	8063.87
910.681	8009.18
910.994	8026.36
911.307	7969.86
911.619	7956.98
911.932	7972.12
912.244	7871.11
912.557	7905.91
912.869	7784.1
913.181	7736.42
913.494	7822.07
913.806	7740.04
914.118	7739.81
914.43	7624.11
914.742	7646.03
915.054	7599.25
915.366	7548.63
915.678	7509.31
915.99	7509.76
916.302	7406.03
916.613	7389.99
916.925	7367.62
917.236	7442.87
917.548	7318.58
917.859	7319.26
918.171	7308.18
918.482	7191.8
918.794	7276.55
919.105	7166.04
919.416	7151.8
919.727	7122.88
920.038	7168.07
920.349	7074.74
920.66	6986.61
920.971	7011.02
921.282	6957.01
921.593	7006.72
921.903	6911.81
922.214	6944.35
922.525	6850.57
922.835	6856.22
923.146	6769.21
923.456	6778.03
923.767	6769.21
924.077	6691.48
924.387	6728.76
924.697	6636.56
925.008	6653.74
925.318	6602.44
925.628	6583
925.938	6568.99
926.248	6556.34
926.558	6434.99
926.867	6487.64
927.177	6470.47
927.487	6444.25
927.796	6376.91
928.106	6351.6
928.416	6304.59
928.725	6282
929.034	6289.91
929.344	6253.52
929.653	6197.25
929.962	6201.55
930.271	6220.53
930.581	6132.85
930.89	6113.64
931.199	6044.04
931.508	6091.72
931.817	6085.39
932.125	6014.43
932.434	5979.63
932.743	5951.61
933.051	5858.73
933.36	5912.74
933.669	5877.71
933.977	5879.97
934.286	5803.36
934.594	5767.89
934.902	5780.54
935.21	5724.5
935.519	5716.81
935.827	5722.46
936.135	5674.78
936.443	5622.13
936.751	5614.89
937.059	5585.74
937.367	5528.57
937.674	5605.4
937.982	5530.83
938.29	5457.38
938.597	5467.55
938.905	5415.58
939.213	5448.35
939.52	5394.11
939.827	5451.74
940.135	5381
940.442	5341.46
940.749	5305.52
941.056	5355.69
941.363	5285.19
941.67	5276.6
941.977	5204.96
942.284	5189.82
942.591	5181.46
942.898	5167.22
943.205	5156.15
943.511	5143.27
943.818	5160.9
944.125	5075.93
944.431	5070.05
944.738	5039.09
945.044	5000.22
945.35	4988.7
945.657	4934.91
945.963	4952.99
946.269	4930.17
946.575	4900.11
946.881	4834.58
947.187	4845.65
947.493	4870.51
947.799	4812.43
948.105	4755.71
948.41	4776.72
948.716	4774.24
949.022	4736.05
949.327	4724.07
949.633	4652.21
949.938	4645.43
950.244	4618.31
950.549	4636.62
950.854	4590.74
951.16	4575.6
951.465	4550.97
951.77	4561.82
952.075	4536.28
952.38	4504.87
952.685	4504.87
952.99	4483.63
953.294	4411.99
953.599	4391.2
953.904	4390.29
954.209	4392.78
954.513	4387.58
954.818	4366.34
955.122	4316.85
955.426	4336.74
955.731	4265.78
956.035	4296.96
956.339	4281.37
956.643	4271.65
956.948	4181.03
957.252	4222.84
957.556	4186.91
957.86	4142.84
958.163	4122.5
958.467	4131.32
958.771	4129.51
959.075	4120.02
959.378	4069.85
959.682	4088.16
959.985	4068.72
960.289	4028.04
960.592	4002.73
960.896	4037.08
961.199	3981.72
961.502	4012
961.805	3901.72
962.108	3915.05
962.411	3901.95
962.714	3876.41
963.017	3889.29
963.32	3866.92
963.623	3828.28
963.926	3813.36
964.228	3793.02
964.531	3790.31
964.833	3776.07
965.136	3738.11
965.438	3722.06
965.741	3737.43
966.043	3694.27
966.345	3676.87
966.648	3658.79
966.95	3629.86
967.252	3658.11
967.554	3630.99
967.856	3644.78
968.158	3593.7
968.46	3562.07
968.761	3574.27
969.063	3527.27
969.365	3541.05
969.666	3525.23
969.968	3458.12
970.269	3454.95
970.571	3454.73
970.872	3428.74
971.174	3448.4
971.475	3433.71
971.776	3387.16
972.077	3407.72
972.378	3407.95
972.679	3402.75
972.98	3317.78
973.281	3340.83
973.582	3341.06
973.883	3320.72
974.183	3323.88
974.484	3274.84
974.785	3278.23
975.085	3260.15
975.386	3259.48
975.686	3222.87
975.986	3174.73
976.287	3192.36
976.587	3169.54
976.887	3138.58
977.187	3162.3
977.487	3140.61
977.787	3057.67
978.087	3101.06
978.387	3053.83
978.687	3077.79
978.987	3061.97
979.286	3009.77
979.586	3027.62
979.885	2993.04
980.185	2995.75
980.484	2984
980.784	3018.35
981.083	2951.46
981.382	2946.26
981.682	2970.22
981.981	2909.2
982.28	2936.1
982.579	2932.71
982.878	2914.85
983.177	2862.2
983.475	2857.68
983.774	2841.18
984.073	2854.52
984.372	2858.58
984.67	2783.78
984.969	2840.5
985.267	2799.15
985.566	2784.69
985.864	2796.44
986.162	2758.7
986.461	2725.48
986.759	2714.41
987.057	2715.08
987.355	2677.34
987.653	2691.36
987.951	2663.56
988.249	2660.85
988.547	2662.2
988.844	2627.85
989.142	2638.48
989.44	2579.49
989.737	2598.48
990.035	2564.35
990.332	2566.16
990.63	2579.27
990.927	2544.47
991.224	2563
991.521	2515.54
991.819	2536.56
992.116	2511.93
992.413	2507.18
992.71	2442.55
993.006	2449.1
993.303	2490.91
993.6	2454.75
993.897	2442.1
994.193	2425.15
994.49	2436.9
994.787	2363.91
995.083	2395.54
995.379	2387.63
995.676	2375.21
995.972	2351.48
996.268	2365.94
996.565	2341.53
996.861	2320.97
997.157	2299.73
997.453	2283.68
997.749	2262.89
998.044	2263.34
998.34	2299.28
998.636	2227.64
998.932	2279.39
999.227	2238.03
999.523	2242.1
999.818	2242.1
1000.114	2218.6
1000.409	2201.65
1000.704	2205.27
1001	2156
1001.295	2131.82
1001.59	2134.31
1001.885	2127.3
1002.18	2126.4
1002.475	2120.75
1002.77	2050.47
1003.065	2104.03
1003.359	2050.69
1003.654	2025.38
1003.949	2026.06
1004.243	2036.23
1004.538	2019.06
1004.832	1994.65
1005.127	1999.85
1005.421	2023.12
1005.715	1984.26
1006.009	1984.48
1006.304	1959.4
1006.598	1984.93
1006.892	1954.43
1007.186	1924.14
1007.48	1934.54
1007.773	1871.72
1008.067	1903.13
1008.361	1898.83
1008.655	1856.58
1008.948	1857.48
1009.242	1828.55
1009.535	1819.29
1009.829	1852.51
1010.122	1813.41
1010.415	1794.88
1010.708	1809.57
1011.001	1807.76
1011.295	1780.87
1011.588	1772.28
1011.881	1751.72
1012.173	1731.38
1012.466	1724.6
1012.759	1720.53
1013.052	1718.5
1013.344	1716.69
1013.637	1696.58
1013.93	1691.83
1014.222	1676.69
1014.514	1669.69
1014.807	1640.54
1015.099	1656.58
1015.391	1646.86
1015.683	1653.87
1015.976	1597.83
1016.268	1585.85
1016.56	1569.35
1016.851	1577.71
1017.143	1613.42
1017.435	1566.64
1017.727	1558.28
1018.018	1567.54
1018.31	1527.09
1018.602	1498.84
1018.893	1542.69
1019.185	1521.22
1019.476	1530.48
1019.767	1547.21
1020.058	1497.71
1020.35	1490.94
1020.641	1455.91
1020.932	1469.02
1021.223	1447.77
1021.514	1454.1
1021.804	1422.01
1022.095	1429.69
1022.386	1410.49
1022.677	1401.9
1022.967	1383.37
1023.258	1394.44
1023.548	1385.18
1023.839	1367.1
1024.129	1355.8
1024.419	1335.23
1024.709	1338.85
1025	1328
1025.29	1313.31
1025.58	1332.75
1025.87	1290.26
1026.16	1290.71
1026.449	1306.08
1026.739	1262.47
1027.029	1296.59
1027.319	1271.51
1027.608	1245.74
1027.898	1268.12
1028.187	1224.28
1028.477	1263.6
1028.766	1239.42
1029.055	1201
1029.344	1211.39
1029.634	1190.6
1029.923	1201.68
1030.212	1190.83
1030.501	1188.34
1030.79	1162.13
1031.078	1180.21
1031.367	1126.43
1031.656	1122.36
1031.945	1125.97
1032.233	1154.9
1032.522	1108.57
1032.81	1132.53
1033.099	1093.88
1033.387	1115.35
1033.675	1123.71
1033.963	1120.78
1034.251	1098.18
1034.54	1064.96
1034.828	1064.05
1035.116	1036.03
1035.403	1054.56
1035.691	1028.35
1035.979	1029.93
1036.267	1037.84
1036.554	1009.37
1036.842	1029.93
1037.129	993.55
1037.417	984.96
1037.704	991.97
1037.992	1001.46
1038.279	994.68
1038.566	982.47
1038.853	982.47
1039.14	982.47
