Data from hue_00_FLMS001491_11.txt Node
Date: Mon Feb 06 15:29:19 GMT 2017
User: dcchb
Spectrometer: FLMS00149
Trigger mode: 0
Integration Time (sec): 2.000000E-2
Scans to average: 10
Electric dark correction enabled: true
Nonlinearity correction enabled: false
Boxcar width: 0
XAxis mode: Wavelengths
Number of Pixels in Spectrum: 2048
>>>>>Begin Spectral Data<<<<<
341.393	11.07
341.776	11.07
342.16	11.07
342.543	-64.86
342.927	-72.31
343.31	-65.53
343.693	-87.23
344.077	-59.66
344.46	-72.99
344.843	-52.43
345.226	-37.74
345.61	-28.02
345.993	-28.7
346.376	9.49
346.759	12.2
347.142	16.04
347.525	52.43
347.908	59.66
348.291	76.16
348.674	104.18
349.057	102.14
349.44	107.12
349.823	141.01
350.206	174.23
350.588	208.81
350.971	211.97
351.354	233.21
351.737	240.67
352.119	256.49
352.502	244.06
352.884	288.13
353.267	288.35
353.65	292.2
354.032	295.81
354.414	324.74
354.797	296.26
355.179	307.79
355.562	288.35
355.944	338.52
356.326	323.16
356.709	312.76
357.091	344.17
357.473	317.73
357.855	353.66
358.238	322.48
358.62	333.32
359.002	353.89
359.384	322.7
359.766	331.52
360.148	339.65
360.53	337.39
360.912	343.49
361.294	315.92
361.676	345.08
362.057	325.19
362.439	316.83
362.821	317.51
363.203	324.51
363.584	322.48
363.966	302.14
364.348	323.38
364.729	316.38
365.111	303.27
365.493	317.05
365.874	316.83
366.256	317.05
366.637	308.24
367.019	314.79
367.4	308.92
367.781	297.17
368.163	317.28
368.544	294
368.925	328.8
369.306	309.37
369.688	305.3
370.069	319.99
370.45	286.32
370.831	309.14
371.212	297.85
371.593	310.73
371.974	308.47
372.355	300.11
372.736	310.27
373.117	316.15
373.498	323.38
373.879	306.88
374.26	322.25
374.641	318.86
375.021	289.48
375.402	316.15
375.783	318.18
376.163	330.61
376.544	309.82
376.925	311.86
377.305	320.9
377.686	327.9
378.066	324.51
378.447	318.86
378.827	289.26
379.208	313.89
379.588	323.61
379.968	322.7
380.349	317.51
380.729	324.06
381.109	318.18
381.489	312.31
381.87	335.58
382.25	327.9
382.63	321.57
383.01	348.92
383.39	341.91
383.77	354.57
384.15	341.46
384.53	335.36
384.91	339.88
385.29	322.25
385.67	321.12
386.049	346.21
386.429	349.82
386.809	343.27
387.189	351.4
387.568	355.02
387.948	351.4
388.328	356.15
388.707	336.26
389.087	332.19
389.466	337.17
389.846	337.84
390.225	361.35
390.605	358.18
390.984	355.02
391.363	326.09
391.743	334
392.122	360.67
392.501	347.34
392.881	374.45
393.26	362.7
393.639	348.69
394.018	367.67
394.397	367
394.776	363.38
395.155	384.62
395.534	364.06
395.913	336.94
396.292	361.12
396.671	366.77
397.05	387.56
397.429	378.52
397.808	362.48
398.186	356.83
398.565	388.92
398.944	370.84
399.323	393.66
399.701	392.76
400.08	390.27
400.458	380.33
400.837	384.62
401.215	384.85
401.594	387.56
401.972	393.66
402.351	396.83
402.729	410.61
403.107	375.81
403.486	406.09
403.864	390.27
404.242	402.93
404.62	409.93
404.999	418.07
405.377	422.14
405.755	422.36
406.133	421.01
406.511	397.73
406.889	424.85
407.267	405.19
407.645	424.62
408.023	401.12
408.401	401.35
408.779	421.46
409.156	416.26
409.534	432.08
409.912	425.3
410.29	421.68
410.667	432.76
411.045	457.84
411.422	445.86
411.8	453.1
412.178	441.12
412.555	445.19
412.933	461.23
413.31	439.08
413.687	452.64
414.065	450.38
414.442	483.38
414.819	459.65
415.197	475.69
415.574	473.21
415.951	497.84
416.328	472.53
416.705	476.15
417.082	471.85
417.46	486.54
417.837	470.5
418.214	497.39
418.591	495.81
418.967	491.51
419.344	503.04
419.721	512.3
420.098	511.62
420.475	512.08
420.852	525.41
421.228	515.24
421.605	516.82
421.982	513.66
422.358	523.38
422.735	554.56
423.111	521.34
423.488	529.7
423.864	556.14
424.241	543.04
424.617	524.73
424.994	534
425.37	549.36
425.746	541.45
426.123	565.18
426.499	563.38
426.875	567.44
427.251	555.69
427.627	573.32
428.003	576.93
428.379	586.88
428.756	586.65
429.132	575.35
429.507	612.41
429.883	602.24
430.259	602.92
430.635	617.38
431.011	601.79
431.387	635.01
431.763	613.77
432.138	626.65
432.514	616.93
432.89	635.46
433.265	635.92
433.641	636.82
434.016	633.66
434.392	655.35
434.767	650.38
435.143	647.44
435.518	661.23
435.894	668.91
436.269	687.44
436.644	670.72
437.02	695.35
437.395	686.31
437.77	698.06
438.145	705.29
438.52	724.95
438.895	712.3
439.271	733.99
439.646	720.43
440.021	733.09
440.395	731.73
440.77	743.03
441.145	736.7
441.52	752.3
441.895	758.4
442.27	747.1
442.645	757.95
443.019	754.78
443.394	766.31
443.769	781
444.143	764.73
444.518	771.73
444.892	777.83
445.267	788.91
445.641	763.6
446.016	802.46
446.39	797.27
446.764	802.92
447.139	825.06
447.513	805.63
447.887	790.49
448.262	812.63
448.636	806.31
449.01	825.74
449.384	826.64
449.758	821.9
450.132	828.45
450.506	842.92
450.88	822.35
451.254	837.49
451.628	836.81
452.002	845.63
452.376	860.99
452.75	876.81
453.123	871.39
453.497	881.11
453.871	891.73
454.244	886.53
454.618	897.83
454.992	901.67
455.365	926.08
455.739	962.01
456.112	943.93
456.486	943.03
456.859	957.49
457.232	969.92
457.606	967.21
457.979	968.34
458.352	984.38
458.725	1021.44
459.099	1019.18
459.472	1033.19
459.845	1022.57
460.218	1029.8
460.591	1014.21
460.964	1047.43
461.337	1059.41
461.71	1089.91
462.083	1066.19
462.456	1084.94
462.829	1100.99
463.201	1120.87
463.574	1112.97
463.947	1125.85
464.32	1130.14
464.692	1155.9
465.065	1147.09
465.438	1178.05
465.81	1182.57
466.183	1191.38
466.555	1237.93
466.928	1215.34
467.3	1238.16
467.672	1251.94
468.045	1279.29
468.417	1279.74
468.789	1279.97
469.161	1300.3
469.534	1300.08
469.906	1345.28
470.278	1365.16
470.65	1363.81
471.022	1413.07
471.394	1395.67
471.766	1443.13
472.138	1435.44
472.51	1451.94
472.882	1498.27
473.253	1529.9
473.625	1516.8
473.997	1551.6
474.369	1568.77
474.74	1597.02
475.112	1623.69
475.484	1642.22
475.855	1682.67
476.227	1691.03
476.598	1732.38
476.97	1730.58
477.341	1763.8
477.713	1831.36
478.084	1816.22
478.455	1867.75
478.827	1856.67
479.198	1906.84
479.569	1970.34
479.94	1976.22
480.311	2012.83
480.682	2053.51
481.053	2093.5
481.424	2140.96
481.795	2154.75
482.166	2217.79
482.537	2211.92
482.908	2260.51
483.279	2293.95
483.65	2328.75
484.021	2387.96
484.391	2394.06
484.762	2456.66
485.133	2432.93
485.503	2511.57
485.874	2560.38
486.244	2584.56
486.615	2617.78
486.985	2668.4
487.356	2708.4
487.726	2743.43
488.097	2783.43
488.467	2798.8
488.837	2871.34
489.207	2886.93
489.578	2953.37
489.948	2977.55
490.318	3046.7
490.688	3099.13
491.058	3072.01
491.428	3124.66
491.798	3183.42
492.168	3213.02
492.538	3246.24
492.908	3269.97
493.278	3345.67
493.648	3344.54
494.017	3341.61
494.387	3427.93
494.757	3488.72
495.126	3511.77
495.496	3506.8
495.866	3502.73
496.235	3549.51
496.605	3619.79
496.974	3618.89
497.344	3642.84
497.713	3704.31
498.082	3673.58
498.452	3743.4
498.821	3742.95
499.19	3784.76
499.559	3791.31
499.928	3827.47
500.298	3833.57
500.667	3894.13
501.036	3869.95
501.405	3916.96
501.774	3958.99
502.143	3983.85
502.512	4005.32
502.88	4036.05
503.249	4043.51
503.618	4074.7
503.987	4080.8
504.356	4125.77
504.724	4083.51
505.093	4135.03
505.462	4109.5
505.83	4186.1
506.199	4191.98
506.567	4245.09
506.936	4250.06
507.304	4284.63
507.672	4315.82
508.041	4328.02
508.409	4359.21
508.777	4333.22
509.145	4425.65
509.514	4420.45
509.882	4441.24
510.25	4478.07
510.618	4472.88
510.986	4456.15
511.354	4522.37
511.722	4541.58
512.09	4535.47
512.458	4543.16
512.826	4589.94
513.193	4625.42
513.561	4611.4
513.929	4643.04
514.297	4662.02
514.664	4684.17
515.032	4671.74
515.4	4738.86
515.767	4759.42
516.135	4754
516.502	4724.85
516.869	4810.95
517.237	4811.62
517.604	4796.94
517.972	4847.78
518.339	4848.23
518.706	4870.38
519.073	4839.19
519.44	4913.77
519.808	4900.21
520.175	4959.19
520.542	4979.76
520.909	5015.01
521.276	5015.91
521.643	5023.14
522.009	5096.59
522.376	5085.97
522.743	5143.82
523.11	5190.15
523.477	5220.2
523.843	5191.5
524.21	5245.51
524.577	5241.9
524.943	5304.27
525.31	5320.31
525.676	5351.95
526.043	5381.78
526.409	5419.97
526.776	5452.29
527.142	5444.38
527.508	5461.1
527.874	5541.55
528.241	5579.74
528.607	5542.91
528.973	5614.32
529.339	5652.05
529.705	5628.78
530.071	5694.99
530.437	5679.85
530.803	5744.48
531.169	5784.25
531.535	5755.78
531.901	5797.59
532.267	5819.28
532.632	5823.58
532.998	5864.93
533.364	5935.89
533.73	5956.23
534.095	5916.91
534.461	5991.93
534.826	5978.15
535.192	6074.19
535.557	6109.67
535.923	6052.95
536.288	6123
536.653	6097.01
537.019	6120.52
537.384	6115.09
537.749	6159.84
538.114	6206.16
538.479	6223.79
538.845	6345.6
539.21	6245.03
539.575	6279.61
539.94	6299.27
540.305	6377.91
540.67	6348.31
541.034	6364.58
541.399	6375.88
541.764	6466.5
542.129	6505.59
542.494	6457.68
542.858	6560.51
543.223	6505.59
543.587	6579.04
543.952	6595.31
544.316	6575.65
544.681	6608.64
545.045	6628.3
545.41	6682.99
545.774	6732.93
546.138	6736.32
546.503	6743.1
546.867	6756.88
547.231	6868.97
547.595	6856.99
547.959	6852.48
548.324	6894.73
548.688	6906.03
549.052	7007.95
549.416	6929.31
549.779	6979.93
550.143	6955.75
550.507	7103.54
550.871	7071
551.235	7063.77
551.599	7047.72
551.962	7122.52
552.326	7193.48
552.689	7218.12
553.053	7162.3
553.417	7183.31
553.78	7280.71
554.143	7221.96
554.507	7349.86
554.87	7298.79
555.234	7413.36
555.597	7315.97
555.96	7375.4
556.323	7378.79
556.686	7363.2
557.05	7470.99
557.413	7468.5
557.776	7456.3
558.139	7463.53
558.502	7531.78
558.865	7541.27
559.228	7624.66
559.59	7637.54
559.953	7620.14
560.316	7721.38
560.679	7739.46
561.041	7776.97
561.404	7769.51
561.767	7812
562.129	7814.48
562.492	7848.16
562.854	7899.91
563.217	7894.26
563.579	7955.95
563.941	7971.54
564.304	8008.6
564.666	8041.14
565.028	8102.16
565.39	8062.84
565.753	8090.18
566.115	8167.69
566.477	8121.82
566.839	8156.17
567.201	8162.72
567.563	8253.79
567.925	8328.14
568.287	8338.76
568.648	8281.14
569.01	8428.7
569.372	8461.47
569.734	8447.46
570.095	8466.22
570.457	8508.25
570.819	8554.58
571.18	8571.3
571.542	8586.67
571.903	8631.41
572.265	8703.5
572.626	8710.05
572.987	8748.7
573.349	8819.66
573.71	8853.33
574.071	8918.18
574.432	8955.02
574.794	9017.62
575.155	9049.25
575.516	8990.05
575.877	9157.05
576.238	9218.06
576.599	9306.65
576.96	9377.15
577.32	9452.18
577.681	9548.22
578.042	9560.88
578.403	9669.12
578.763	9714.55
579.124	9802
579.485	9995.9
579.845	10029.11
580.206	10031.15
580.566	10230.69
580.927	10316.34
581.287	10420.97
581.648	10484.7
582.008	10646.05
582.368	10698.25
582.728	10931.01
583.089	11007.62
583.449	11098.24
583.809	11329.19
584.169	11440.83
584.529	11655.96
584.889	11838.33
585.249	11959.01
585.609	12098.44
585.969	12340.24
586.329	12403.74
586.688	12709.72
587.048	12859.1
587.408	12981.81
587.768	13212.76
588.127	13472.64
588.487	13609.81
588.846	13921.22
589.206	14007.09
589.565	14288.89
589.925	14540.86
590.284	14721.65
590.643	14943.11
591.003	15223.55
591.362	15504.68
591.721	15767.72
592.08	15993.03
592.44	16251.32
592.799	16440.47
593.158	16746
593.517	16897.63
593.876	17231.86
594.235	17531.29
594.593	17813.09
594.952	18138.73
595.311	18258.05
595.67	18560.87
596.029	18883.8
596.387	19192.04
596.746	19392.71
597.104	19625.02
597.463	19869.08
597.822	20225.91
598.18	20381.84
598.538	20625.67
598.897	21014.81
599.255	20967.36
599.613	21702.71
599.972	21742.48
600.33	22141.79
600.688	22273.09
601.046	22529.58
601.404	22887.08
601.762	23033.07
602.12	23400.74
602.478	23577.46
602.836	23915.53
603.194	24009.31
603.552	24231
603.91	24430.32
604.268	24760.7
604.625	24946.46
604.983	25318.66
605.341	25378.77
605.698	25689.95
606.056	26022.14
606.413	26267.33
606.771	26451.51
607.128	26695.12
607.485	26771.27
607.843	26943.92
608.2	27379.39
608.557	27592.49
608.914	27727.86
609.272	28051.24
609.629	28322.65
609.986	28489.87
610.343	28451.46
610.7	28797.66
611.057	28927.37
611.414	29210.08
611.771	29368.72
612.127	29682.16
612.484	29704.08
612.841	29978.19
613.198	29932.09
613.554	30114.91
613.911	30402.59
614.267	30710.15
614.624	30812.3
614.98	30932.52
615.337	31130.93
615.693	31207.09
616.05	31379.06
616.406	31678.26
616.762	31504.93
617.118	31794.19
617.475	31960.52
617.831	32208.42
618.187	32205.48
618.543	32291.13
618.899	32593.04
619.255	32773.15
619.611	32840.04
619.967	32988.06
620.323	33094.27
620.678	32991.9
621.034	33239.8
621.39	33294.04
621.746	33244.32
622.101	33767.02
622.457	33519.57
622.812	33750.3
623.168	33964.3
623.523	33949.62
623.879	34105.32
624.234	33928.15
624.589	34070.97
624.945	34275.93
625.3	34279.55
625.655	34377.63
626.01	34519.77
626.365	34552.54
626.72	34518.41
627.075	34694.23
627.43	34696.71
627.785	34645.87
628.14	34846.32
628.495	34945.07
628.85	34793.21
629.205	34841.57
629.559	35091.73
629.914	34982.81
630.269	35041.79
630.623	34974.67
630.978	34910.95
631.332	35093.54
631.687	35182.58
632.041	35110.94
632.396	35165.4
632.75	35091.28
633.104	35258.51
633.459	35060.1
633.813	35188.45
634.167	35197.27
634.521	35294.67
634.875	35288.11
635.229	35166.98
635.583	35160.66
635.937	35141.45
636.291	35173.09
636.645	35157.04
636.999	35049.7
637.352	35373.76
637.706	35040.66
638.06	35279.98
638.413	35150.71
638.767	35137.61
639.121	35202.46
639.474	35025.07
639.828	35063.26
640.181	35195.01
640.534	35219.41
640.888	35089.47
641.241	34957.72
641.594	35170.15
641.947	35189.81
642.301	35007.44
642.654	35169.02
643.007	35120.43
643.36	35056.03
643.713	35117.95
644.066	35182.58
644.419	34892.64
644.771	34824.4
645.124	34472.31
645.477	34407.46
645.83	34274.58
646.182	34132.21
646.535	34047.69
646.888	34119.55
647.24	33855.83
647.593	34163.85
647.945	34118.65
648.298	33882.95
648.65	33919.11
649.002	33758.21
649.355	33849.05
649.707	33934.93
650.059	34080.46
650.411	34516.83
650.763	34534.91
651.115	34976.03
651.467	34778.75
651.819	34559.77
652.171	34715.25
652.523	34571.97
652.875	34677.73
653.227	34480.68
653.578	34599.09
653.93	34605.42
654.282	34543.27
654.633	34397.74
654.985	34491.97
655.337	34457.4
655.688	34519.32
656.039	34656.26
656.391	34342.37
656.742	34383.5
657.094	34461.92
657.445	34483.61
657.796	34508.92
658.147	34500.11
658.498	34376.27
658.849	34486.55
659.2	34417.4
659.551	34416.72
659.902	34477.29
660.253	34288.59
660.604	34441.13
660.955	34276.16
661.306	34362.03
661.656	34328.59
662.007	34357.74
662.358	34303.05
662.708	34258.99
663.059	34402.26
663.409	34020.35
663.76	34336.95
664.11	34355.93
664.461	34384.41
664.811	34318.19
665.161	34293.11
665.511	34281.36
665.862	34328.81
666.212	34425.08
666.562	34380.34
666.912	34254.01
667.262	34303.5
667.612	34194.58
667.962	34403.62
668.312	34202.49
668.662	34328.59
669.011	34247.91
669.361	34288.36
669.711	34205.43
670.06	34118.65
670.41	34097.63
670.76	34058.99
671.109	34257.4
671.459	34117.3
671.808	34072.1
672.157	34105.09
672.507	33883.63
672.856	34090.86
673.205	34092.66
673.554	33982.61
673.904	33897.41
674.253	34075.49
674.602	33913.91
674.951	33560.7
675.3	33372.68
675.649	33965.21
675.998	33883.63
676.346	33926.57
676.695	33965.43
677.044	33637.08
677.393	33804.99
677.741	33875.72
678.09	33776.29
678.438	33658.78
678.787	33853.57
679.135	33753.91
679.484	33663.3
679.832	33732.9
680.181	33514.15
680.529	33604.77
680.877	33461.04
681.225	33570.19
681.573	33706.68
681.922	33448.61
682.27	33333.81
682.618	33353.7
682.966	33302.63
683.314	33335.85
683.661	33246.81
684.009	33006.36
684.357	33119.36
684.705	33034.84
685.053	33008.85
685.4	32901.51
685.748	32742.64
686.095	32855.86
686.443	32729.99
686.79	32646.15
687.138	32876.88
687.485	32700.16
687.832	32473.04
688.18	32666.49
688.527	32470.78
688.874	32398.7
689.221	32465.36
689.568	32299.94
689.915	32311.47
690.262	32212.49
690.609	32064.69
690.956	32105.14
691.303	31974.07
691.65	31772.95
691.997	31888.88
692.344	31748.32
692.69	31726.85
693.037	31768.66
693.383	31360.31
693.73	31433.52
694.077	31358.5
694.423	31424.03
694.769	31281.66
695.116	31256.13
695.462	31130.48
695.808	31052.06
696.155	31082.35
696.501	30934.1
696.847	30849.81
697.193	30558.29
697.539	30820.88
697.885	30523.27
698.231	30355.13
698.577	30478.52
698.923	30276.49
699.269	30119.66
699.614	30022.49
699.96	30020.68
700.306	30095.93
700.651	29856.39
700.997	29864.75
701.342	29943.17
701.688	29734.13
702.033	29663.4
702.379	29698.2
702.724	29613.91
703.069	29646
703.415	29323.07
703.76	29269.06
704.105	29314.26
704.45	29269.51
704.795	29060.7
705.14	28946.81
705.485	28900.26
705.83	28871.33
706.175	28953.59
706.52	28838.11
706.865	28718.34
707.209	28688.96
707.554	28533.94
707.899	28661.17
708.243	28403.55
708.588	28397.9
708.932	28105.48
709.277	28175.76
709.621	28164.91
709.966	27982.99
710.31	28138.92
710.654	27860.28
710.998	28006.5
711.342	27968.53
711.687	27795.43
712.031	27699.38
712.375	27526.51
712.719	27665.26
713.063	27658.03
713.407	27715.43
713.75	27455.1
714.094	27605.38
714.438	27387.98
714.782	27500.97
715.125	27270.7
715.469	27318.38
715.812	27100.98
716.156	27105.73
716.499	27106.41
716.843	27059.63
717.186	26934.66
717.53	27009.01
717.873	27015.56
718.216	26922.68
718.559	26786.19
718.902	26687.21
719.246	26700.09
719.589	26687.43
719.932	26561.56
720.275	26572.41
720.617	26493.09
720.96	26526.76
721.303	26482.47
721.646	26473.2
721.989	26284.73
722.331	26364.28
722.674	26300.55
723.016	26253.32
723.359	26180.55
723.701	26229.82
724.044	25985.31
724.386	25961.13
724.729	26066.43
725.071	25943.95
725.413	25909.15
725.755	25886.55
726.097	25708.7
726.439	25748.25
726.782	25633.9
727.124	25727.91
727.465	25554.58
727.807	25631.19
728.149	25580.34
728.491	25509.39
728.833	25611.08
729.175	25329.5
729.516	25300.8
729.858	25302.16
730.199	25409.05
730.541	25247.47
730.882	25355.49
731.224	25308.49
731.565	25189.85
731.906	25262.39
732.248	25150.3
732.589	25100.13
732.93	24972.9
733.271	25034.37
733.612	24951.43
733.953	25009.51
734.294	24949.85
734.635	24840.7
734.976	24940.14
735.317	24723.42
735.658	24826.24
735.999	24803.42
736.339	24696.07
736.68	24787.6
737.021	24725
737.361	24617.43
737.702	24655.62
738.042	24604.55
738.383	24496.53
738.723	24597.09
739.063	24536.08
739.404	24477.1
739.744	24405.23
740.084	24301.51
740.424	24332.69
740.764	24427.61
741.104	24366.36
741.444	24236.65
741.784	24218.57
742.124	24181.06
742.464	24162.75
742.804	24038.24
743.143	24060.84
743.483	24083.21
743.823	24004.57
744.162	24012.7
744.502	23944
744.841	23859.71
745.181	23902.65
745.52	23965.7
745.86	23860.39
746.199	23784.46
746.538	23836.89
746.877	23849.77
747.216	23790.33
747.556	23722.31
747.895	23730.22
748.234	23696.33
748.573	23612.26
748.911	23606.84
749.25	23534.97
749.589	23383.34
749.928	23432.83
750.267	23441.19
750.605	23374.75
750.944	23320.97
751.283	23333.4
751.621	23280.07
751.96	23261.31
752.298	23180.63
752.636	23129.11
752.975	23037.59
753.313	23007.08
753.651	23098.83
753.989	22957.59
754.327	22890.02
754.666	22748.78
755.004	22742.68
755.342	22866.07
755.679	22723.02
756.017	22682.57
756.355	22752.4
756.693	22705.84
757.031	22617.94
757.368	22517.37
757.706	22534.32
758.044	22390.82
758.381	22426.75
758.719	22410.94
759.056	22291.17
759.394	22219.08
759.731	22017.95
760.068	22123.26
760.405	22059.08
760.743	22011.62
761.08	21944.28
761.417	21861.12
761.754	21764.85
762.091	21758.75
762.428	21784.06
762.765	21519.43
763.102	21574.57
763.438	21471.98
763.775	21439.66
764.112	21436.72
764.449	21421.36
764.785	21383.39
765.122	21112.44
765.458	21028.37
765.795	21044.19
766.131	21134.36
766.467	21035.61
766.804	20877.87
767.14	20831.32
767.476	20772.11
767.812	20746.12
768.148	20791.77
768.485	20631.32
768.821	20530.99
769.157	20459.58
769.492	20336.41
769.828	20379.8
770.164	20194.72
770.5	20120.37
770.836	20206.7
771.171	20063.88
771.507	20063.2
771.842	19846.26
772.178	19818.91
772.513	19752.02
772.849	19734.85
773.184	19599.26
773.519	19766.94
773.855	19506.83
774.19	19522.65
774.525	19453.73
774.86	19411.47
775.195	19359.26
775.53	19157.69
775.865	19153.17
776.2	19034.53
776.535	18788.21
776.87	18952.95
777.205	18834.98
777.539	18710.02
777.874	18745.72
778.209	18582.56
778.543	18621.21
778.878	18477.03
779.212	18383.92
779.547	18362.91
779.881	18391.61
780.215	18153.87
780.55	18255.34
780.884	18096.25
781.218	18136.7
781.552	18070.26
781.886	17966.08
782.22	17851.73
782.554	17927.89
782.888	17804.28
783.222	17587.11
783.556	17557.73
783.889	17526.54
784.223	17416.94
784.557	17414.46
784.89	17316.61
785.224	17303.73
785.557	17238.19
785.891	17136.5
786.224	17085.88
786.558	17022.6
786.891	16923.62
787.224	16791.87
787.557	16741.71
787.891	16886.79
788.224	16796.62
788.557	16744.87
788.89	16707.13
789.223	16625.55
789.556	16525.89
789.888	16511.2
790.221	16407.25
790.554	16308.5
790.887	16311.89
791.219	16249.29
791.552	16256.52
791.884	16122.06
792.217	16089.75
792.549	15994.38
792.882	15851.79
793.214	15913.48
793.546	15963.42
793.879	15820.6
794.211	15611.34
794.543	15661.74
794.875	15588.97
795.207	15661.74
795.539	15480.04
795.871	15600.04
796.203	15360.27
796.535	15400.05
796.867	15301.97
797.198	15268.53
797.53	15335.64
797.862	15115.99
798.193	15191.92
798.525	15094.52
798.856	15085.25
799.188	14896.33
799.519	14912.15
799.85	14815.43
800.182	14859.72
800.513	14818.14
800.844	14770.91
801.175	14669.9
801.506	14717.13
801.837	14611.37
802.168	14528.21
802.499	14506.06
802.83	14467.42
803.161	14480.75
803.491	14430.81
803.822	14414.54
804.153	14259.29
804.483	14230.13
804.814	14231.26
805.145	14165.73
805.475	14111.04
805.805	14115.56
806.136	14109.91
806.466	14029.91
806.796	13994.43
807.126	13914.21
807.457	13867.66
807.787	13863.14
808.117	13862.91
808.447	13742.92
808.777	13763.93
809.107	13686.42
809.436	13701.56
809.766	13676.48
810.096	13625.18
810.426	13653.43
810.755	13537.05
811.085	13597.38
811.414	13523.26
811.744	13418.4
812.073	13386.09
812.403	13379.99
812.732	13292.08
813.061	13340.21
813.39	13200.33
813.719	13164.17
814.049	13170.73
814.378	13189.71
814.707	13159.88
815.036	13101.35
815.365	13007.79
815.693	13002.14
816.022	12883.5
816.351	12919.66
816.68	12817.06
817.008	12914.69
817.337	12704.98
817.665	12759.66
817.994	12737.52
818.322	12789.04
818.651	12660.01
818.979	12608.71
819.307	12685.99
819.636	12701.59
819.964	12614.58
820.292	12615.04
820.62	12599.67
820.948	12495.04
821.276	12538.88
821.604	12598.31
821.932	12503.4
822.259	12513.8
822.587	12457.75
822.915	12475.15
823.243	12572.78
823.57	12471.08
823.898	12469.5
824.225	12360.35
824.553	12387.92
824.88	12471.99
825.207	12521.25
825.535	12391.09
825.862	12531.42
826.189	12446.68
826.516	12559.67
826.843	12509.95
827.17	12473.34
827.497	12571.87
827.824	12493
828.151	12488.94
828.478	12484.87
828.805	12498.65
829.131	12492.1
829.458	12408.49
829.785	12391.09
830.111	12451.42
830.438	12415.72
830.764	12363.74
831.09	12473.12
831.417	12349.96
831.743	12332.33
832.069	12435.61
832.395	12285.33
832.722	12368.04
833.048	12332.11
833.374	12392.44
833.7	12260.92
834.026	12348.38
834.351	12274.03
834.677	12307.92
835.003	12256.63
835.329	12271.99
835.654	12252.56
835.98	12312.67
836.306	12247.36
836.631	12108.16
836.956	12185.44
837.282	12170.98
837.607	12074.71
837.932	12071.77
838.258	12088.27
838.583	12110.19
838.908	12031.55
839.233	12018.67
839.558	11918.33
839.883	11914.26
840.208	11955.39
840.533	11892.12
840.858	11911.55
841.182	11919.23
841.507	11847.82
841.832	11824.77
842.156	11901.61
842.481	11801.95
842.805	11786.13
843.13	11737.09
843.454	11758.56
843.778	11641.5
844.103	11615.74
844.427	11601.05
844.751	11620.03
845.075	11590.43
845.399	11527.83
845.723	11518.12
846.047	11612.35
846.371	11390.43
846.695	11384.33
847.019	11274.05
847.343	11303.66
847.666	11229.54
847.99	11147.28
848.313	11154.06
848.637	11082.65
848.96	11087.17
849.284	11056.43
849.607	11031.35
849.931	10988.86
850.254	10847.17
850.577	10816.44
850.9	10726.95
851.223	10773.28
851.546	10681.98
851.869	10672.94
852.192	10704.35
852.515	10570.12
852.838	10499.84
853.161	10477.24
853.483	10459.39
853.806	10433.62
854.129	10358.82
854.451	10385.26
854.774	10305.04
855.096	10331.25
855.419	10295.32
855.741	10288.54
856.063	10165.61
856.385	10231.14
856.708	10207.87
857.03	10087.64
857.352	10048.55
857.674	10057.36
857.996	10051.04
858.318	10037.93
858.64	9966.97
858.961	9846.75
859.283	9886.07
859.605	9834.54
859.926	9923.35
860.248	9820.08
860.57	9827.09
860.891	9844.49
861.212	9742.12
861.534	9690.14
861.855	9708.9
862.176	9676.13
862.498	9739.86
862.819	9696.69
863.14	9612.18
863.461	9536.92
863.782	9564.27
864.103	9571.95
864.424	9566.75
864.745	9545.51
865.065	9559.07
865.386	9502.8
865.707	9430.71
866.027	9502.12
866.348	9424.84
866.668	9440.66
866.989	9430.03
867.309	9353.43
867.63	9343.71
867.95	9405.18
868.27	9337.83
868.59	9359.3
868.91	9319.98
869.23	9246.76
869.55	9281.11
869.87	9287.44
870.19	9245.18
870.51	9223.26
870.83	9231.85
871.15	9217.84
871.469	9129.7
871.789	9228.46
872.109	9167.44
872.428	9121.34
872.748	9149.59
873.067	9164.96
873.386	9153.88
873.706	9088.57
874.025	9054.9
874.344	8968.35
874.663	9078.41
874.982	8985.98
875.301	9023.72
875.62	8996.6
875.939	8976.26
876.258	9038.18
876.577	8921.8
876.896	9010.38
877.214	8904.4
877.533	8891.07
877.852	8878.41
878.17	8844.29
878.489	8908.69
878.807	8864.17
879.125	8850.61
879.444	8849.71
879.762	8881.8
880.08	8771.97
880.398	8735.59
880.716	8748.7
881.034	8714.12
881.352	8729.04
881.67	8699.21
881.988	8710.96
882.306	8715.48
882.624	8634.8
882.941	8615.59
883.259	8602.71
883.577	8558.19
883.894	8574.01
884.212	8505.54
884.529	8544.41
884.846	8468.48
885.164	8456.73
885.481	8497.4
885.798	8439.33
886.115	8336.96
886.432	8388.71
886.75	8352.32
887.067	8389.38
887.383	8340.35
887.7	8311.87
888.017	8329.27
888.334	8337.18
888.651	8288.82
888.967	8274.58
889.284	8232.1
889.6	8153.68
889.917	8142.61
890.233	8150.97
890.55	8145.55
890.866	8190.97
891.182	8112.33
891.498	8133.35
891.815	8089.05
892.131	8051.77
892.447	8034.59
892.763	7923.18
893.079	7947.36
893.395	7969.73
893.71	7879.79
894.026	7997.98
894.342	7888.15
894.657	7809.74
894.973	7809.06
895.289	7793.69
895.604	7797.31
895.92	7728.16
896.235	7717.09
896.55	7683.41
896.865	7703.3
897.181	7611.78
897.496	7598.9
897.811	7613.36
898.126	7549.41
898.441	7517.99
898.756	7538.11
899.071	7476.41
899.386	7455.85
899.7	7382.4
900.015	7375.63
900.33	7287.27
900.644	7298.34
900.959	7372.91
901.273	7254.72
901.588	7334.5
901.902	7225.12
902.216	7215.63
902.531	7178.34
902.845	7158.68
903.159	7110.1
903.473	7127.95
903.787	7037.56
904.101	6994.17
904.415	7009.08
904.729	6991
905.042	6930.89
905.356	6947.61
905.67	6962.75
905.984	6931.57
906.297	6901.74
906.611	6804.11
906.924	6884.34
907.237	6805.7
907.551	6753.27
907.864	6805.7
908.177	6776.32
908.491	6743.78
908.804	6675.08
909.117	6651.8
909.43	6663.1
909.743	6606.38
910.056	6577.68
910.368	6595.31
910.681	6535.42
910.994	6521.64
911.307	6488.42
911.619	6447.29
911.932	6469.43
912.244	6400.28
912.557	6376.56
912.869	6328.65
913.181	6283
913.494	6290
913.806	6240.06
914.118	6296.11
914.43	6201.64
914.742	6177.46
915.054	6191.93
915.366	6127.75
915.678	6132.72
915.99	6076
916.302	6053.85
916.613	6022.44
916.925	5989
917.236	6017.92
917.548	5979.5
917.859	5926.62
918.171	5953.06
918.482	5897.7
918.794	5895.21
919.105	5894.08
919.416	5752.84
919.727	5778.61
920.038	5783.12
920.349	5742
920.66	5682.11
920.971	5712.84
921.282	5697.7
921.593	5635.78
921.903	5616.35
922.214	5630.36
922.525	5588.55
922.835	5578.84
923.146	5515.11
923.456	5540.19
923.767	5484.38
924.077	5472.17
924.387	5456.58
924.697	5433.98
925.008	5468.56
925.318	5413.64
925.628	5368.22
925.938	5374.55
926.248	5315.34
926.558	5330.93
926.867	5266.53
927.177	5195.8
927.487	5198.73
927.796	5139.53
928.106	5143.82
928.416	5141.79
928.725	5149.92
929.034	5126.19
929.344	5145.85
929.653	5066.53
929.962	5084.16
930.271	5014.56
930.581	5017.27
930.89	4978.85
931.199	4970.72
931.508	4911.74
931.817	4922.36
932.125	4934.11
932.434	4908.12
932.743	4834.22
933.051	4835.35
933.36	4854.79
933.669	4763.72
933.977	4718.75
934.286	4803.26
934.594	4753.77
934.902	4677.84
935.21	4683.27
935.519	4659.31
935.827	4673.78
936.135	4633.1
936.443	4602.14
936.751	4566.21
937.059	4574.12
937.367	4548.13
937.674	4590.61
937.982	4530.5
938.29	4520.33
938.597	4427.45
938.905	4466.78
939.213	4435.59
939.52	4399.43
939.827	4441.24
940.135	4365.53
940.442	4317.17
940.749	4332.54
941.056	4358.76
941.363	4313.11
941.67	4305.65
941.977	4276.72
942.284	4242.6
942.591	4262.49
942.898	4216.84
943.205	4231.53
943.511	4180.68
943.818	4148.82
944.125	4131.64
944.431	4124.19
944.738	4156.95
945.044	4119.44
945.35	4086.67
945.657	4059.55
945.963	4052.55
946.269	4011.19
946.575	4042.15
946.881	4002.15
947.187	3984.98
947.493	3924.64
947.799	4002.61
948.105	3949.73
948.41	3894.36
948.716	3883.51
949.022	3902.72
949.327	3852.78
949.633	3799
949.938	3863.18
950.244	3796.96
950.549	3808.49
950.854	3745.89
951.16	3755.38
951.465	3770.75
951.77	3726.46
952.075	3702.5
952.38	3698.66
952.685	3693.01
952.99	3692.11
953.294	3650.3
953.599	3629.51
953.904	3636.06
954.209	3580.92
954.513	3601.26
954.818	3573.69
955.122	3560.13
955.426	3567.14
955.731	3551.55
956.035	3549.74
956.339	3493.69
956.643	3464.54
956.948	3492.11
957.252	3493.24
957.556	3450.98
957.86	3415.05
958.163	3414.83
958.467	3398.33
958.771	3382.51
959.075	3394.49
959.378	3341.83
959.682	3368.95
959.985	3306.13
960.289	3320.36
960.592	3306.58
960.896	3308.61
961.199	3265.22
961.502	3292.57
961.805	3203.98
962.108	3191.1
962.411	3236.07
962.714	3201.72
963.017	3224.1
963.32	3189.75
963.623	3158.56
963.926	3155.62
964.228	3144.78
964.531	3116.08
964.833	3129.64
965.136	3101.16
965.438	3091.44
965.741	3042.63
966.043	3080.14
966.345	3071.11
966.648	3052.8
966.95	3027.49
967.252	2993.37
967.554	2979.13
967.856	2961.28
968.158	2963.54
968.46	2970.54
968.761	2957.66
969.063	2912.47
969.365	2886.25
969.666	2895.29
969.968	2887.38
970.269	2861.62
970.571	2849.42
970.872	2841.28
971.174	2834.73
971.475	2820.94
971.776	2831.79
972.077	2772.58
972.378	2797.89
972.679	2779.36
972.98	2789.98
973.281	2773.94
973.582	2741.4
973.883	2733.94
974.183	2703.66
974.484	2694.84
974.785	2724
975.085	2694.62
975.386	2695.07
975.686	2664.34
975.986	2623.89
976.287	2622.76
976.587	2605.81
976.887	2606.71
977.187	2609.42
977.487	2600.61
977.787	2547.5
978.087	2567.62
978.387	2546.37
978.687	2586.37
978.987	2532.36
979.286	2516.54
979.586	2523.1
979.885	2477.67
980.185	2455.53
980.484	2479.93
980.784	2489.2
981.083	2495.75
981.382	2456.88
981.682	2442.87
981.981	2461.63
982.28	2432.48
982.579	2422.31
982.878	2418.47
983.177	2398.36
983.475	2394.51
983.774	2372.59
984.073	2391.12
984.372	2360.62
984.67	2351.35
984.969	2347.06
985.267	2324.01
985.566	2342.09
985.864	2279.26
986.162	2279.26
986.461	2311.35
986.759	2258.92
987.057	2288.98
987.355	2227.96
987.653	2251.69
987.951	2237.68
988.249	2232.03
988.547	2198.13
988.844	2214.18
989.142	2194.07
989.44	2207.63
989.737	2164.24
990.035	2165.14
990.332	2150.68
990.63	2107.06
990.927	2127.85
991.224	2168.98
991.521	2124.46
991.819	2089.44
992.116	2081.53
992.413	2121.07
992.71	2070.45
993.006	2041.53
993.303	2029.33
993.6	2046.27
993.897	2053.51
994.193	2021.64
994.49	2052.6
994.787	2014.41
995.083	2016.9
995.379	1988.2
995.676	1998.59
995.972	1999.5
996.268	2012.83
996.565	1971.47
996.861	1938.48
997.157	1942.32
997.453	1925.15
997.749	1954.98
998.044	1922.89
998.34	1904.58
998.636	1875.88
998.932	1903
999.227	1877.92
999.523	1851.02
999.818	1843.57
1000.114	1867.3
1000.409	1851.02
1000.704	1829.1
1001	1825.04
1001.295	1812.61
1001.59	1794.53
1001.885	1823
1002.18	1772.16
1002.475	1794.08
1002.77	1796.79
1003.065	1732.84
1003.359	1754.53
1003.654	1751.82
1003.949	1699.16
1004.243	1730.8
1004.538	1681.31
1004.832	1694.19
1005.127	1697.13
1005.421	1692.16
1005.715	1675.89
1006.009	1658.71
1006.304	1654.42
1006.598	1651.71
1006.892	1648.77
1007.186	1626.62
1007.48	1627.75
1007.773	1594.99
1008.067	1612.39
1008.361	1574.87
1008.655	1587.53
1008.948	1566.51
1009.242	1578.26
1009.535	1566.06
1009.829	1568.55
1010.122	1534.65
1010.415	1551.82
1010.708	1536.91
1011.001	1514.99
1011.295	1505.95
1011.588	1481.77
1011.881	1483.35
1012.173	1495.33
1012.466	1467.08
1012.759	1501.66
1013.052	1477.7
1013.344	1454.88
1013.637	1446.06
1013.93	1450.36
1014.222	1412.84
1014.514	1402.22
1014.807	1424.6
1015.099	1406.74
1015.391	1397.25
1015.683	1386.86
1015.976	1410.81
1016.268	1347.54
1016.56	1356.57
1016.851	1343.92
1017.143	1341.43
1017.435	1331.72
1017.727	1312.73
1018.018	1317.93
1018.31	1326.52
1018.602	1321.32
1018.893	1321.77
1019.185	1312.73
1019.476	1274.09
1019.767	1278.16
1020.058	1298.04
1020.35	1257.14
1020.641	1255.56
1020.932	1236.58
1021.223	1225.28
1021.514	1208.33
1021.804	1223.02
1022.095	1229.12
1022.386	1228.44
1022.677	1204.04
1022.967	1202.68
1023.258	1162.91
1023.548	1160.87
1023.839	1164.72
1024.129	1173.3
1024.419	1179.18
1024.709	1136.02
1025	1143.02
1025.29	1141.89
1025.58	1111.16
1025.87	1108.45
1026.16	1108.9
1026.449	1112.51
1026.739	1093.98
1027.029	1079.29
1027.319	1080.65
1027.608	1067.77
1027.898	1084.94
1028.187	1067.54
1028.477	1058.28
1028.766	1039.29
1029.055	1057.6
1029.344	1029.8
1029.634	1015.57
1029.923	1040.65
1030.212	1002.46
1030.501	1013.31
1030.79	1000.43
1031.078	999.97
1031.367	1030.03
1031.656	978.28
1031.945	970.37
1032.233	974.21
1032.522	953.2
1032.81	970.82
1033.099	965.85
1033.387	994.55
1033.675	954.33
1033.963	936.47
1034.251	948.9
1034.54	936.02
1034.828	906.64
1035.116	934.21
1035.403	905.74
1035.691	894.44
1035.979	914.55
1036.267	891.5
1036.554	902.35
1036.842	889.92
1037.129	864.16
1037.417	878.39
1037.704	866.42
1037.992	838.85
1038.279	853.99
1038.566	895.12
1038.853	895.12
1039.14	895.12
