Data from hue_40_FLMS001491_96.txt Node
Date: Mon Feb 06 15:08:51 GMT 2017
User: dcchb
Spectrometer: FLMS00149
Trigger mode: 0
Integration Time (sec): 2.000000E-2
Scans to average: 10
Electric dark correction enabled: true
Nonlinearity correction enabled: false
Boxcar width: 0
XAxis mode: Wavelengths
Number of Pixels in Spectrum: 2048
>>>>>Begin Spectral Data<<<<<
341.393	-15.8
341.776	-15.8
342.16	-15.8
342.543	-58.74
342.927	-59.19
343.31	-73.43
343.693	-96.71
344.077	-62.13
344.46	-47.89
344.843	-47.44
345.226	-46.76
345.61	-11.51
345.993	-15.13
346.376	-1.79
346.759	3.4
347.142	10.18
347.525	52.89
347.908	48.15
348.291	88.37
348.674	82.05
349.057	117.75
349.44	135.38
349.823	130.41
350.206	166.11
350.588	192.55
350.971	226.67
351.354	237.97
351.737	246.11
352.119	224.87
352.502	284.75
352.884	275.71
353.267	275.04
353.65	298.54
354.032	297.41
354.414	309.61
354.797	328.59
355.179	324.3
355.562	323.4
355.944	330.63
356.326	323.4
356.709	357.29
357.091	350.29
357.473	336.05
357.855	360
358.238	366.78
358.62	348.71
359.002	358.87
359.384	341.47
359.766	349.16
360.148	346.22
360.53	327.01
360.912	334.47
361.294	348.48
361.676	332.89
362.057	343.96
362.439	328.82
362.821	317.75
363.203	341.25
363.584	352.55
363.966	339.44
364.348	338.99
364.729	316.62
365.111	312.55
365.493	340.8
365.874	341.02
366.256	316.16
366.637	324.98
367.019	328.37
367.4	322.27
367.781	317.97
368.163	315.71
368.544	325.2
368.925	328.37
369.306	301.93
369.688	315.26
370.069	321.59
370.45	319.78
370.831	323.17
371.212	313.68
371.593	320.23
371.974	320.91
372.355	313.9
372.736	319.78
373.117	312.77
373.498	320.91
373.879	313.45
374.26	325.66
374.641	340.57
375.021	307.12
375.402	335.15
375.783	332.21
376.163	343.06
376.544	328.37
376.925	334.02
377.305	337.86
377.686	331.3
378.066	337.41
378.447	341.47
378.827	331.3
379.208	337.63
379.588	322.72
379.968	333.34
380.349	341.93
380.729	338.54
381.109	345.54
381.489	357.74
381.87	343.06
382.25	347.35
382.63	341.7
383.01	368.82
383.39	350.97
383.77	345.54
384.15	355.71
384.53	359.33
384.91	355.49
385.29	352.32
385.67	345.32
386.049	348.93
386.429	356.61
386.809	341.93
387.189	353.23
387.568	358.42
387.948	380.12
388.328	370.63
388.707	380.57
389.087	360.46
389.466	378.08
389.846	366.78
390.225	374.92
390.605	378.54
390.984	381.47
391.363	364.52
391.743	370.85
392.122	350.74
392.501	378.54
392.881	362.49
393.26	386.67
393.639	379.67
394.018	367.69
394.397	390.96
394.776	372.43
395.155	384.18
395.534	383.73
395.913	381.7
396.292	390.96
396.671	383.28
397.05	387.12
397.429	412.66
397.808	390.51
398.186	404.52
398.565	408.36
398.944	400.23
399.323	406.33
399.701	414.69
400.08	425.54
400.458	416.95
400.837	421.47
401.215	426.67
401.594	408.14
401.972	413.11
402.351	416.73
402.729	406.33
403.107	437.29
403.486	428.93
403.864	442.26
404.242	416.27
404.62	442.26
404.999	453.11
405.377	423.73
405.755	419.66
406.133	451.3
406.511	445.2
406.889	451.53
407.267	449.72
407.645	434.13
408.023	450.85
408.401	462.6
408.779	480.45
409.156	455.37
409.534	461.92
409.912	472.77
410.29	467.8
410.667	459.89
411.045	466.67
411.422	481.81
411.8	489.72
412.178	483.17
412.555	486.78
412.933	480
413.31	491.53
413.687	491.75
414.065	502.37
414.442	522.26
414.819	517.51
415.197	516.16
415.574	518.87
415.951	512.99
416.328	523.39
416.705	536.05
417.082	523.39
417.46	530.85
417.837	537.4
418.214	534.01
418.591	514.35
418.967	523.39
419.344	543.73
419.721	540.79
420.098	534.92
420.475	544.18
420.852	557.97
421.228	553.67
421.605	550.96
421.982	571.52
422.358	567.23
422.735	565.65
423.111	567
423.488	586.67
423.864	569.94
424.241	611.75
424.617	592.77
424.994	609.94
425.37	580.56
425.746	587.57
426.123	595.93
426.499	576.72
426.875	616.5
427.251	616.72
427.627	610.17
428.003	620.56
428.379	636.83
428.756	649.26
429.132	647.45
429.507	655.36
429.883	654.23
430.259	658.3
430.635	661.47
431.011	681.58
431.387	668.25
431.763	683.61
432.138	683.39
432.514	689.94
432.89	698.75
433.265	698.3
433.641	717.96
434.016	726.32
434.392	727.45
434.767	751.18
435.143	722.03
435.518	742.82
435.894	749.6
436.269	747.79
436.644	759.32
437.02	743.5
437.395	749.82
437.77	783.04
438.145	770.84
438.52	785.3
438.895	801.35
439.271	786.43
439.646	801.57
440.021	788.47
440.395	802.48
440.77	840.44
441.145	823.95
441.52	826.43
441.895	826.43
442.27	829.14
442.645	823.95
443.019	864.17
443.394	842.93
443.769	848.58
444.143	848.81
444.518	871.63
444.892	875.02
445.267	865.98
445.641	879.54
446.016	871.4
446.39	909.82
446.764	923.83
447.139	905.3
447.513	912.53
447.887	902.36
448.262	917.5
448.636	898.97
449.01	880.67
449.384	939.65
449.758	921.8
450.132	957.96
450.506	962.25
450.88	946.88
451.254	964.51
451.628	955.47
452.002	974.45
452.376	983.27
452.75	983.94
453.123	992.53
453.497	1011.29
453.871	1015.13
454.244	1056.94
454.618	1063.26
454.992	1050.61
455.365	1040.66
455.739	1090.38
456.112	1075.69
456.486	1105.75
456.859	1104.39
457.232	1144.16
457.606	1119.76
457.979	1137.61
458.352	1156.82
458.725	1175.8
459.099	1174.22
459.472	1199.98
459.845	1190.72
460.218	1199.76
460.591	1217.61
460.964	1226.42
461.337	1258.96
461.71	1240.89
462.083	1292.86
462.456	1261.9
462.829	1303.71
463.201	1321.56
463.574	1342.58
463.947	1366.98
464.32	1343.26
464.692	1376.93
465.065	1380.54
465.438	1392.97
465.81	1431.16
466.183	1429.13
466.555	1477.72
466.928	1481.33
467.3	1486.3
467.672	1533.53
468.045	1570.82
468.417	1550.71
468.789	1603.36
469.161	1592.97
469.534	1622.34
469.906	1630.25
470.278	1699.18
470.65	1699.86
471.022	1742.57
471.394	1780.31
471.766	1810.14
472.138	1792.74
472.51	1837.03
472.882	1883.13
473.253	1900.3
473.625	1947.76
473.997	1970.36
474.369	1999.06
474.74	2064.59
475.112	2100.07
475.484	2112.05
475.855	2189.34
476.227	2203.12
476.598	2272.04
476.97	2319.95
477.341	2377.13
477.713	2426.17
478.084	2455.54
478.455	2566.95
478.827	2573.05
479.198	2701.41
479.569	2742.54
479.94	2806.95
480.311	2812.37
480.682	2885.81
481.053	3011.91
481.424	3110.21
481.795	3157.22
482.166	3220.95
482.537	3269.53
482.908	3369.42
483.279	3407.61
483.65	3557.21
484.021	3625.46
484.391	3688.73
484.762	3792.23
485.133	3851.89
485.503	3927.37
485.874	4073.81
486.244	4152.45
486.615	4227.47
486.985	4334.14
487.356	4508.6
487.726	4530.06
488.097	4630.4
488.467	4730.29
488.837	4908.59
489.207	4935.03
489.578	5020.22
489.948	5138.41
490.318	5301.57
490.688	5346.77
491.058	5515.8
491.428	5572.52
491.798	5691.16
492.168	5875.57
492.538	5911.95
492.908	6049.8
493.278	6141.1
493.648	6205.73
494.017	6337.7
494.387	6446.62
494.757	6589.45
495.126	6702.44
495.496	6769.78
495.866	6857.23
496.235	6953.96
496.605	7038.02
496.974	7132.03
497.344	7240.73
497.713	7373.83
498.082	7373.38
498.452	7534.96
498.821	7691.11
499.19	7704.44
499.559	7811.33
499.928	7931.33
500.298	8052.91
500.667	8147.37
501.036	8196.41
501.405	8299.91
501.774	8342.62
502.143	8462.39
502.512	8498.55
502.88	8677.07
503.249	8668.03
503.618	8804.98
503.987	8870.74
504.356	8905.99
504.724	9059.21
505.093	9112.32
505.462	9166.78
505.83	9234.8
506.199	9383.04
506.567	9524.06
506.936	9506.88
507.304	9611.06
507.672	9656.26
508.041	9753.43
508.409	9761.79
508.777	9948.68
509.145	10038.17
509.514	10061.22
509.882	10190.25
510.25	10224.38
510.618	10268.67
510.986	10393.64
511.354	10458.27
511.722	10592.05
512.09	10615.33
512.458	10637.02
512.826	10742.78
513.193	10775.32
513.561	10899.39
513.929	10969.22
514.297	11046.28
514.664	11107.07
515.032	11204.92
515.4	11333.5
515.767	11303.22
516.135	11406.27
516.502	11325.82
516.869	11571.01
517.237	11571.01
517.604	11637.67
517.972	11832.92
518.339	11762.64
518.706	11847.16
519.073	11889.19
519.44	11948.17
519.808	12032.69
520.175	12088.74
520.542	12263.65
520.909	12306.58
521.276	12358.79
521.643	12493.7
522.009	12588.84
522.376	12555.62
522.743	12683.07
523.11	12774.82
523.477	12880.58
523.843	12988.37
524.21	13093.46
524.577	13204.86
524.943	13293.68
525.31	13386.78
525.676	13423.62
526.043	13510.62
526.409	13514.46
526.776	13735.25
527.142	13806.66
527.508	13836.03
527.874	13860.44
528.241	14013.66
528.607	14070.83
528.973	14172.52
529.339	14168.23
529.705	14370.03
530.071	14341.78
530.437	14505.85
530.803	14579.74
531.169	14672.17
531.535	14678.27
531.901	14608.9
532.267	14809.79
532.632	14843.01
532.998	15012.05
533.364	15123.01
533.73	15120.29
534.095	15239.61
534.461	15238.03
534.826	15260.63
535.192	15359.38
535.557	15454.07
535.923	15510.79
536.288	15593.95
536.653	15643.44
537.019	15662.43
537.384	15775.64
537.749	15842.08
538.114	15941.29
538.479	15837.11
538.845	15970.44
539.21	15999.37
539.575	16097.22
539.94	16122.53
540.305	16287.04
540.67	16242.75
541.034	16369.08
541.399	16430.09
541.764	16401.39
542.129	16485
542.494	16570.43
542.858	16611.1
543.223	16599.58
543.587	16743.3
543.952	16749.86
544.316	16870.31
544.681	16904.2
545.045	17039.57
545.41	17145.1
545.774	17059.45
546.138	17164.99
546.503	17205.21
546.867	17226.45
547.231	17336.96
547.595	17451.76
547.959	17596.84
548.324	17457.63
548.688	17600.23
549.052	17691.3
549.416	17672.77
549.779	17735.82
550.143	17843.16
550.507	17937.62
550.871	17916.61
551.235	17943.95
551.599	18036.6
551.962	18084.74
552.326	18216.71
552.689	18366.31
553.053	18262.81
553.417	18333.32
553.78	18518.85
554.143	18520.21
554.507	18568.34
554.87	18583.48
555.234	18854.21
555.597	18727.21
555.96	18783.25
556.323	18870.7
556.686	18791.38
557.05	19018.5
557.413	19089.46
557.776	19074.54
558.139	19231.82
558.502	19225.95
558.865	19278.83
559.228	19387.75
559.59	19534.19
559.953	19571.25
560.316	19702.55
560.679	19647.41
561.041	19772.83
561.404	19910.68
561.767	20024.35
562.129	19987.74
562.492	20218.01
562.854	20133.95
563.217	20246.04
563.579	20347.5
563.941	20444.9
564.304	20504.33
564.666	20618.91
565.028	20652.58
565.39	20727.38
565.753	20779.13
566.115	20946.58
566.477	20992.23
566.839	21061.38
567.201	21104.32
567.563	21137.31
567.925	21295.5
568.287	21264.09
568.648	21349.06
569.01	21447.36
569.372	21572.78
569.734	21618.65
570.095	21766.67
570.457	21902.04
570.819	22012.54
571.18	21991.75
571.542	22036.5
571.903	22152.88
572.265	22295.02
572.626	22362.82
572.987	22445.53
573.349	22541.79
573.71	22520.1
574.071	22667.44
574.432	22733.2
574.794	23005.06
575.155	23031.05
575.516	23033.31
575.877	23154.43
576.238	23285.73
576.599	23482.33
576.96	23411.15
577.32	23651.14
577.681	23828.54
578.042	23885.04
578.403	24032.38
578.763	24018.37
579.124	24322.31
579.485	24570.22
579.845	24645.69
580.206	24635.98
580.566	24836.65
580.927	24986.02
581.287	25222.18
581.648	25260.14
582.008	25473.92
582.368	25638.21
582.728	25831.43
583.089	25982.61
583.449	26091.76
583.809	26327.01
584.169	26635.7
584.529	26520.45
584.889	26997.5
585.249	27016.7
585.609	27193.65
585.969	27491.27
586.329	27672.96
586.688	27909.56
587.048	27897.59
587.408	28188.43
587.768	28356.56
588.127	28523.78
588.487	28703.44
588.846	29138.46
589.206	29077.44
589.565	29420.94
589.925	29615.51
590.284	29786.35
590.643	30002.16
591.003	30206.23
591.362	30600.34
591.721	30704.74
592.08	30916.49
592.44	31130.04
592.799	31288.68
593.158	31432.63
593.517	31746.98
593.876	31935.9
594.235	32096.57
594.593	32356
594.952	32529.1
595.311	32640.96
595.67	32920.96
596.029	33326.14
596.387	33487.5
596.746	33563.65
597.104	33650.43
597.463	33793.02
597.822	34187.14
598.18	34086.35
598.538	34372.67
598.897	34670.06
599.255	34665.09
599.613	35197.73
599.972	35200.44
600.33	35412.19
600.688	35344.85
601.046	35779.19
601.404	36023.7
601.762	36082.91
602.12	36397.02
602.478	36420.3
602.836	36652.61
603.194	36590.24
603.552	36787.97
603.91	36802.66
604.268	37192.48
604.625	37241.75
604.983	37417.79
605.341	37343.89
605.698	37835.86
606.056	37918.11
606.413	37974.61
606.771	38120.59
607.128	38381.38
607.485	38276.52
607.843	38353.36
608.2	38820.01
608.557	38775.49
608.914	38902.04
609.272	39262.94
609.629	39285.53
609.986	39479.43
610.343	39412.76
610.7	39792.87
611.057	39811.85
611.414	39861.11
611.771	39967.55
612.127	40177.49
612.484	40235.57
612.841	40476.46
613.198	40301.55
613.554	40564.37
613.911	40762.11
614.267	40738.38
614.624	40871.03
614.98	41072.15
615.337	41205.48
615.693	41252.94
616.05	41275.31
616.406	41699.48
616.762	41325.26
617.118	41486.15
617.475	41652.25
617.831	41718.24
618.187	41822.19
618.543	42026.93
618.899	42228.96
619.255	42090.43
619.611	42234.38
619.967	42379.24
620.323	42473.47
620.678	42316.87
621.034	42325.23
621.39	42376.75
621.746	42433.02
622.101	42874.82
622.457	42586.46
622.812	42687.93
623.168	42792.11
623.523	42783.3
623.879	42980.13
624.234	42818.55
624.589	42947.81
624.945	43039.79
625.3	43193
625.655	43071.88
626.01	43361.59
626.365	43259.67
626.72	43120.01
627.075	43248.14
627.43	43318.88
627.785	43168.6
628.14	43351.19
628.495	43301.93
628.85	43303.73
629.205	43148.03
629.559	43538.08
629.914	43434.58
630.269	43497.4
630.623	43358.65
630.978	43164.75
631.332	43505.76
631.687	43410.85
632.041	43428.02
632.396	43553.9
632.75	43305.77
633.104	43468.25
633.459	43286.11
633.813	43253.34
634.167	43311.42
634.521	43254.02
634.875	43434.13
635.229	43304.86
635.583	43097.19
635.937	43304.41
636.291	43040.69
636.645	43266.45
636.999	43075.49
637.352	43372.88
637.706	43007.7
638.06	43243.4
638.413	43027.36
638.767	43076.17
639.121	43022.16
639.474	42958.43
639.828	42842.28
640.181	43070.07
640.534	43028.04
640.888	42907.59
641.241	42735.16
641.594	42862.39
641.947	42883.18
642.301	42790.98
642.654	42781.04
643.007	42803.86
643.36	42617.88
643.713	42616.07
644.066	42904.65
644.419	42565.67
644.771	42374.95
645.124	41924.56
645.477	41852.47
645.83	41759.82
646.182	41464.23
646.535	41450.22
646.888	41523.89
647.24	41341.3
647.593	41584.01
647.945	41341.53
648.298	41296.33
648.65	41351.24
649.002	41120.51
649.355	41340.85
649.707	41255.2
650.059	41518.92
650.411	41929.99
650.763	41946.93
651.115	42350.31
651.467	42186.25
651.819	42176.76
652.171	42135.4
652.523	42003.88
652.875	41966.37
653.227	41890.21
653.578	42172.69
653.93	42010.21
654.282	41896.99
654.633	41833.72
654.985	41871.68
655.337	41831.91
655.688	41922.53
656.039	41966.82
656.391	41609.54
656.742	41734.74
657.094	41706.94
657.445	41868.29
657.796	41759.82
658.147	41703.78
658.498	41725.02
658.849	41910.32
659.2	41727.96
659.551	41616.55
659.902	41756.66
660.253	41729.54
660.604	41721.85
660.955	41501.3
661.306	41678.01
661.656	41611.8
662.007	41483.44
662.358	41617.68
662.708	41560.5
663.059	41611.8
663.409	41421.75
663.76	41539.71
664.11	41522.76
664.461	41678.01
664.811	41544.91
665.161	41571.8
665.511	41486.83
665.862	41391.24
666.212	41661.07
666.562	41594.63
666.912	41637.34
667.262	41423.78
667.612	41549.43
667.962	41560.96
668.312	41469.88
668.662	41633.04
669.011	41506.04
669.361	41421.75
669.711	41330
670.06	41370.68
670.41	41218.37
670.76	41197.35
671.109	41494.97
671.459	41281.41
671.808	41245.71
672.157	41253.39
672.507	41076.45
672.856	41143.79
673.205	41198.7
673.554	41167.52
673.904	41113.96
674.253	41250.45
674.602	41206.61
674.951	40580.42
675.3	40468.78
675.649	41003
675.998	40947.41
676.346	41030.57
676.695	41067.41
677.044	40875.32
677.393	40938.6
677.741	40914.19
678.09	40986.28
678.438	40884.81
678.787	40903.12
679.135	40789.45
679.484	40488.67
679.832	40690.02
680.181	40543.13
680.529	40688.66
680.877	40516.69
681.225	40403.02
681.573	40678.04
681.922	40456.35
682.27	40164.83
682.618	40266.98
682.966	40120.99
683.314	40216.36
683.661	40059.75
684.009	40028.57
684.357	39996.25
684.705	39845.29
685.053	40031.96
685.4	39893.43
685.748	39603.94
686.095	39687.78
686.443	39534.34
686.79	39447.11
687.138	39627.45
687.485	39484.63
687.832	39338.41
688.18	39475.59
688.527	39282.6
688.874	39232.2
689.221	39135.26
689.568	38986.56
689.915	38961.93
690.262	38894.36
690.609	38763.97
690.956	38683.06
691.303	38648.94
691.65	38427.03
691.997	38430.87
692.344	38278.78
692.69	38238.56
693.037	38309.52
693.383	37996.53
693.73	38020.71
694.077	37843.99
694.423	37785.46
694.769	37875.63
695.116	37586.14
695.462	37488.29
695.808	37507.95
696.155	37629.08
696.501	37199.26
696.847	37144.12
697.193	37052.37
697.539	37153.61
697.885	36862.55
698.231	36829.78
698.577	36797.92
698.923	36588.2
699.269	36519.73
699.614	36348.21
699.96	36237.93
700.306	36201.77
700.651	36182.57
700.997	36053.76
701.342	36020.99
701.688	36016.92
702.033	35951.84
702.379	35888.11
702.724	35814.67
703.069	35801.11
703.415	35286.32
703.76	35252.65
704.105	35411.96
704.45	35300.55
704.795	35077.74
705.14	35111.63
705.485	35081.8
705.83	34937.85
706.175	34769.5
706.52	34717.97
706.865	34715.71
707.209	34644.3
707.554	34482.5
707.899	34660.8
708.243	34383.74
708.588	34399.56
708.932	34132.22
709.277	34089.97
709.621	34183.97
709.966	33934.26
710.31	34007.71
710.654	33747.38
710.998	33794.38
711.342	33721.61
711.687	33664.89
712.031	33687.26
712.375	33475.97
712.719	33431.45
713.063	33439.36
713.407	33588.28
713.75	33232.36
714.094	33386.48
714.438	33147.17
714.782	33086.83
715.125	32956.21
715.469	33095.64
715.812	32766.16
716.156	32682.54
716.499	32687.52
716.843	32603.22
717.186	32386.73
717.53	32804.8
717.873	32626.27
718.216	32477.58
718.559	32376.11
718.902	32286.85
719.246	32334.08
719.589	32088.44
719.932	32095.89
720.275	32157.81
720.617	31937.71
720.96	31925.95
721.303	31906.52
721.646	32005.73
721.989	31749.01
722.331	31810.03
722.674	31559.64
723.016	31686.19
723.359	31718.05
723.701	31767.31
724.044	31408.23
724.386	31318.51
724.729	31433.76
725.071	31384.95
725.413	31354.9
725.755	31319.19
726.097	31201.45
726.439	31136.14
726.782	31020.67
727.124	31190.61
727.465	30932.99
727.807	30930.95
728.149	30801.92
728.491	30766.44
728.833	30962.59
729.175	30639.21
729.516	30653.67
729.858	30551.53
730.199	30700
730.541	30680.11
730.882	30625.2
731.224	30633.33
731.565	30347.46
731.906	30450.96
732.248	30493.45
732.589	30300.23
732.93	30314.7
733.271	30181.37
733.612	30242.61
733.953	30186.57
734.294	30061.6
734.635	29977.31
734.976	30260.46
735.317	29850.08
735.658	29938.44
735.999	29816.18
736.339	29886.91
736.68	29910.41
737.021	29801.72
737.361	29696.41
737.702	29844.2
738.042	29668.84
738.383	29633.36
738.723	29614.15
739.063	29523.53
739.404	29691.44
739.744	29528.73
740.084	29364.21
740.424	29436.98
740.764	29350.65
741.104	29380.94
741.444	29194.73
741.784	29175.07
742.124	29146.59
742.464	29063.2
742.804	29128.97
743.143	28959.93
743.483	29002.42
743.823	28893.72
744.162	28821.63
744.502	28992.02
744.841	28806.49
745.181	28778.92
745.52	28744.34
745.86	28770.33
746.199	28635.42
746.538	28727.85
746.877	28677.68
747.216	28593.39
747.556	28627.96
747.895	28518.81
748.234	28396.33
748.573	28370.57
748.911	28358.36
749.25	28387.06
749.589	28163.79
749.928	28179.39
750.267	28296.45
750.605	28130.57
750.944	28120.86
751.283	27921.99
751.621	27955.21
751.96	27927.19
752.298	27850.36
752.636	27855.55
752.975	27778.49
753.313	27582.34
753.651	27755.67
753.989	27547.31
754.327	27576.46
754.666	27437.71
755.004	27506.41
755.342	27446.07
755.679	27510.48
756.017	27152.75
756.355	27384.83
756.693	27133.76
757.031	27166.31
757.368	26950.94
757.706	27016.25
758.044	26776.26
758.381	26878.86
758.719	26829.14
759.056	26864.17
759.394	26762.25
759.731	26646.55
760.068	26407
760.405	26457.4
760.743	26396.83
761.08	26291.53
761.417	26226.22
761.754	26123.4
762.091	26226.22
762.428	26023.74
762.765	25893.57
763.102	26048.82
763.438	25859.22
763.775	25660.36
764.112	25638.66
764.449	25595.95
764.785	25567.03
765.122	25412.45
765.458	25247.49
765.795	25301.5
766.131	25273.25
766.467	25113.48
766.804	25109.18
767.14	24830.32
767.476	24946.7
767.812	24734.73
768.148	24759.14
768.485	24611.34
768.821	24483.44
769.157	24530.22
769.492	24454.51
769.828	24394.17
770.164	24248.87
770.5	24208.64
770.836	24077.8
771.171	23924.13
771.507	23927.07
771.842	23814.53
772.178	23787.86
772.513	23774.76
772.849	23724.81
773.184	23551.94
773.519	23510.58
773.855	23400.98
774.19	23309.23
774.525	23223.13
774.86	23206.41
775.195	23126.19
775.53	23074.66
775.865	22826.31
776.2	22729.13
776.535	22644.39
776.87	22665.41
777.205	22492.53
777.539	22405.75
777.874	22499.54
778.209	22244.63
778.543	22201.01
778.878	22112.2
779.212	22014.8
779.547	21929.38
779.881	22041.69
780.215	21831.76
780.55	21827.46
780.884	21619.33
781.218	21634.7
781.552	21592.89
781.886	21375.95
782.22	21360.81
782.554	21400.36
782.888	21064.77
783.222	21045.56
783.556	21047.6
783.889	20848.51
784.223	20705.68
784.557	20725.34
784.89	20831.78
785.224	20572.35
785.557	20637.21
785.891	20651
786.224	20419.59
786.558	20417.56
786.891	20155.64
787.224	20327.39
787.557	20123.55
787.891	20071.35
788.224	19963.33
788.557	20015.08
788.89	19988.42
789.223	19956.1
789.556	19765.14
789.888	19644.92
790.221	19605.37
790.554	19423.68
790.887	19504.13
791.219	19426.4
791.552	19379.17
791.884	19211.03
792.217	19207.87
792.549	19137.36
792.882	19011.27
793.214	18946.63
793.546	18891.49
793.879	18856.69
794.211	18688.11
794.543	18712.97
794.875	18683.36
795.207	18802.68
795.539	18620.99
795.871	18505.06
796.203	18487.66
796.535	18453.09
796.867	18290.38
797.198	18202.7
797.53	18220.78
797.862	18184.85
798.193	18159.99
798.525	18006.55
798.856	18092.19
799.188	17913.22
799.519	17879.77
799.85	17643.17
800.182	17693.33
800.513	17673
800.844	17540.12
801.175	17668.93
801.506	17575.82
801.837	17487.24
802.168	17436.84
802.499	17408.37
802.83	17302.16
803.161	17295.38
803.491	17272.1
803.822	17183.29
804.153	17106.23
804.483	16953.69
804.814	16911.89
805.145	16889.97
805.475	16961.38
805.805	16936.29
806.136	16828.72
806.466	16849.97
806.796	16750.31
807.126	16685.68
807.457	16596.19
807.787	16600.26
808.117	16428.28
808.447	16473.48
808.777	16506.47
809.107	16341.96
809.436	16423.54
809.766	16313.71
810.096	16258.12
810.426	16178.35
810.755	16218.8
811.085	16152.13
811.414	16127.95
811.744	15966.15
812.073	15952.59
812.403	16008.63
812.732	15865.13
813.061	15816.77
813.39	15741.97
813.719	15705.82
814.049	15765.48
814.378	15797.11
814.707	15642.09
815.036	15645.48
815.365	15588.76
815.693	15454.97
816.022	15478.93
816.351	15426.73
816.68	15281.42
817.008	15435.99
817.337	15190.58
817.665	15170.69
817.994	15356.22
818.322	15166.17
818.651	15141.31
818.979	15139.73
819.307	15073.06
819.636	15042.56
819.964	14989
820.292	15064.93
820.62	15028.55
820.948	14893.63
821.276	15025.16
821.604	14834.2
821.932	14932.28
822.259	14817.7
822.587	14842.79
822.915	14845.05
823.243	14918.94
823.57	14866.97
823.898	14879.4
824.225	14751.94
824.553	14772.06
824.88	14853.18
825.207	14904.48
825.535	14797.59
825.862	14810.25
826.189	14880.75
826.516	14827.87
826.843	14903.13
827.17	14878.27
827.497	14871.26
827.824	14845.5
828.151	14850.92
828.478	14833.3
828.805	14875.78
829.131	14874.65
829.458	14809.79
829.785	14716.69
830.111	14779.06
830.438	14852.28
830.764	14801.88
831.09	14772.73
831.417	14752.62
831.743	14793.07
832.069	14764.15
832.395	14702.45
832.722	14713.3
833.048	14689.12
833.374	14630.14
833.7	14623.13
834.026	14688.44
834.351	14678.05
834.677	14705.39
835.003	14665.84
835.329	14638.27
835.654	14651.15
835.98	14549.91
836.306	14537.48
836.631	14587.43
836.956	14560.31
837.282	14491.84
837.607	14413.87
837.932	14415.45
838.258	14417.49
838.583	14341.33
838.908	14278.96
839.233	14459.07
839.558	14282.8
839.883	14275.8
840.208	14198.28
840.533	14215.91
840.858	14272.63
841.182	14208.91
841.507	14214.56
841.832	14139.98
842.156	14088.01
842.481	14030.15
842.805	14046.42
843.13	14026.76
843.454	13918.52
843.778	13927.56
844.103	13861.57
844.427	13894.11
844.751	13837.16
845.075	13805.3
845.399	13779.99
845.723	13709.48
846.047	13739.99
846.371	13573.22
846.695	13600.11
847.019	13542.03
847.343	13459.32
847.666	13365.76
847.99	13391.53
848.313	13256.16
848.637	13166.45
848.96	13176.16
849.284	13173.45
849.607	13094.59
849.931	13121.7
850.254	12919.9
850.577	12943.63
850.9	12826.12
851.223	12811.43
851.546	12684.2
851.869	12605.56
852.192	12712
852.515	12629.29
852.838	12527.14
853.161	12550.19
853.483	12468.84
853.806	12403.53
854.129	12408.5
854.451	12262.52
854.774	12304.32
855.096	12222.74
855.419	12202.63
855.741	12278.34
856.063	12098.68
856.385	12071.79
856.708	11984.11
857.03	11990.21
857.352	12047.83
857.674	12002.18
857.996	11898.68
858.318	11864.33
858.64	11867.95
858.961	11840.38
859.283	11707.95
859.605	11718.12
859.926	11715.41
860.248	11747.28
860.57	11637
860.891	11625.02
861.212	11586.6
861.534	11542.76
861.855	11468.19
862.176	11606.71
862.498	11528.3
862.819	11593.38
863.14	11429.32
863.461	11483.1
863.782	11343.22
864.103	11346.38
864.424	11345.93
864.745	11437.23
865.065	11354.29
865.386	11281.75
865.707	11301.64
866.027	11241.98
866.348	11200.85
866.668	11257.57
866.989	11164.47
867.309	11051.25
867.63	11096.22
867.95	11147.97
868.27	11036.56
868.59	11043.79
868.91	11073.4
869.23	11044.24
869.55	10993.85
869.87	11058.93
870.19	11055.54
870.51	11047.18
870.83	10961.53
871.15	10891.48
871.469	10952.04
871.789	10947.75
872.109	10954.3
872.428	10835.21
872.748	10938.71
873.067	10856.68
873.386	10909.78
873.706	10857.58
874.025	10758.6
874.344	10818.03
874.663	10816.68
874.982	10761.77
875.301	10736
875.62	10681.99
875.939	10637.7
876.258	10669.79
876.577	10600.41
876.896	10612.84
877.214	10550.02
877.533	10604.71
877.852	10634.76
878.17	10507.99
878.489	10514.54
878.807	10467.54
879.125	10475.44
879.444	10491.04
879.762	10426.63
880.08	10433.41
880.398	10405.39
880.716	10380.76
881.034	10350.25
881.352	10345.73
881.67	10397.03
881.988	10373.3
882.306	10312.96
882.624	10333.98
882.941	10252.85
883.259	10209.92
883.577	10223.47
883.894	10164.49
884.212	10146.87
884.529	10171.5
884.846	10073.87
885.164	10101.67
885.481	9994.33
885.798	10037.49
886.115	9989.58
886.432	10000.88
886.75	10027.32
887.067	9872.07
887.383	9971.73
887.7	9924.27
888.017	9929.02
888.334	9846.76
888.651	9797.95
888.967	9814.22
889.284	9757.95
889.6	9745.75
889.917	9686.09
890.233	9679.99
890.55	9654.45
890.866	9646.77
891.182	9611.96
891.498	9606.32
891.815	9538.75
892.131	9525.87
892.447	9450.39
892.763	9478.63
893.079	9367.23
893.395	9388.69
893.71	9319.09
894.026	9335.59
894.342	9289.26
894.657	9283.61
894.973	9300.33
895.289	9251.3
895.604	9298.3
895.92	9201.81
896.235	9142.82
896.55	9098.53
896.865	9085.88
897.181	9052.43
897.496	9016.95
897.811	8996.16
898.126	9010.4
898.441	8894.24
898.756	8913
899.071	8836.84
899.386	8840.69
899.7	8734.93
900.015	8772.44
900.33	8716.17
900.644	8740.35
900.959	8704.64
901.273	8648.6
901.588	8609.51
901.902	8568.6
902.216	8495.38
902.531	8550.3
902.845	8478.21
903.159	8439.79
903.473	8418.1
903.787	8396.18
904.101	8404.54
904.415	8372.68
904.729	8307.14
905.042	8332.68
905.356	8276.41
905.67	8272.11
905.984	8230.53
906.297	8216.3
906.611	8113.93
906.924	8156.18
907.237	8096.52
907.551	8062.4
907.864	7991.44
908.177	8046.36
908.491	7988.96
908.804	7923.2
909.117	7915.51
909.43	7880.26
909.743	7825.12
910.056	7772.69
910.368	7750.32
910.681	7730.88
910.994	7692.69
911.307	7651.79
911.619	7558.46
911.932	7615.41
912.244	7539.02
912.557	7540.61
912.869	7507.39
913.181	7469.42
913.494	7430.55
913.806	7357.56
914.118	7327.51
914.43	7374.96
914.742	7326.83
915.054	7287.28
915.366	7288.86
915.678	7254.29
915.99	7198.92
916.302	7140.17
916.613	7156.66
916.925	7072.6
917.236	7077.34
917.548	7027.17
917.859	7020.62
918.171	7010.23
918.482	6939.94
918.794	6895.88
919.105	6969.77
919.416	6871.7
919.727	6877.35
920.038	6827.63
920.349	6786.28
920.66	6694.08
920.971	6743.57
921.282	6698.37
921.593	6653.62
921.903	6626.05
922.214	6601.42
922.525	6544.93
922.835	6577.92
923.146	6538.37
923.456	6495.89
923.767	6532.72
924.077	6474.19
924.387	6458.15
924.697	6392.84
925.008	6408.89
925.318	6361.65
925.628	6321.88
925.938	6360.52
926.248	6292.5
926.558	6174.09
926.867	6218.61
927.177	6202.11
927.487	6114.2
927.796	6099.97
928.106	6127.31
928.416	6120.53
928.725	6072.4
929.034	6002.57
929.344	5990.82
929.653	6016.58
929.962	5959.18
930.271	5896.36
930.581	5884.38
930.89	5827.43
931.199	5871.05
931.508	5804.61
931.817	5835.34
932.125	5787.43
932.434	5746.53
932.743	5722.12
933.051	5657.94
933.36	5707.66
933.669	5638.96
933.977	5657.49
934.286	5551.05
934.594	5612.07
934.902	5544.73
935.21	5510.6
935.519	5535.91
935.827	5472.64
936.135	5473.54
936.443	5401.91
936.751	5346.99
937.059	5416.14
937.367	5357.16
937.674	5336.37
937.982	5347.44
938.29	5267.67
938.597	5308.35
938.905	5257.5
939.213	5210.27
939.52	5201.23
939.827	5231.97
940.135	5118.3
940.442	5151.29
940.749	5112.87
941.056	5138.86
941.363	5051.18
941.67	5056.6
941.977	5008.7
942.284	4985.65
942.591	4999.66
942.898	5010.73
943.205	4973.44
943.511	4915.37
943.818	4878.76
944.125	4866.1
944.431	4878.08
944.738	4806.44
945.044	4834.01
945.35	4820.9
945.657	4773.9
945.963	4760.34
946.269	4742.71
946.575	4723.05
946.881	4703.62
947.187	4662.49
947.493	4635.82
947.799	4612.32
948.105	4642.15
948.41	4556.73
948.716	4598.99
949.022	4550.63
949.327	4498.2
949.633	4522.83
949.938	4528.03
950.244	4480.8
950.549	4448.94
950.854	4430.63
951.16	4417.07
951.465	4407.81
951.77	4377.98
952.075	4353.8
952.38	4342.72
952.685	4325.1
952.99	4322.39
953.294	4269.73
953.599	4254.82
953.904	4281.48
954.209	4225.21
954.513	4242.39
954.818	4178.21
955.122	4175.05
955.426	4209.62
955.731	4107.02
956.035	4089.4
956.339	4103.41
956.643	4113.13
956.948	4065.9
957.252	4040.59
957.556	4026.12
957.86	4014.15
958.163	4014.6
958.467	4012.56
958.771	3971.21
959.075	3988.84
959.378	3921.04
959.682	3885.11
959.985	3904.09
960.289	3885.56
960.592	3842.17
960.896	3842.62
961.199	3815.96
961.502	3859.35
961.805	3770.99
962.108	3753.14
962.411	3771.67
962.714	3722.85
963.017	3751.55
963.32	3748.16
963.623	3708.62
963.926	3699.13
964.228	3645.57
964.531	3635.17
964.833	3626.13
965.136	3590.2
965.438	3588.39
965.741	3589.3
966.043	3575.51
966.345	3570.09
966.648	3549.75
966.95	3498.23
967.252	3502.97
967.554	3505.68
967.856	3510.66
968.158	3415.74
968.46	3467.04
968.761	3459.58
969.063	3436.53
969.365	3375.29
969.666	3391.11
969.968	3356.99
970.269	3364.45
970.571	3328.51
970.872	3340.27
971.174	3319.25
971.475	3299.36
971.776	3308.4
972.077	3343.2
972.378	3288.97
972.679	3219.82
972.98	3220.72
973.281	3238.8
973.582	3221.85
973.883	3178.24
974.183	3155.19
974.484	3158.35
974.785	3131.46
975.085	3177.78
975.386	3147.28
975.686	3129.65
975.986	3069.99
976.287	3089.65
976.587	3039.71
976.887	3035.19
977.187	3067.5
977.487	3011.23
977.787	2991.35
978.087	3008.75
978.387	2961.74
978.687	2982.76
978.987	2930.33
979.286	2909.54
979.586	2940.28
979.885	2911.35
980.185	2894.4
980.484	2928.52
980.784	2927.17
981.083	2865.93
981.382	2855.53
981.682	2835.42
981.981	2818.02
982.28	2852.14
982.579	2796.78
982.878	2795.42
983.177	2797.45
983.475	2780.28
983.774	2757.23
984.073	2765.37
984.372	2744.57
984.67	2717.91
984.969	2682.43
985.267	2710.68
985.566	2678.36
985.864	2663.45
986.162	2665.93
986.461	2639.27
986.759	2651.24
987.057	2644.69
987.355	2612.6
987.653	2584.58
987.951	2587.97
988.249	2583.22
988.547	2542.55
988.844	2530.57
989.142	2549.1
989.44	2490.12
989.737	2514.98
990.035	2469.1
990.332	2478.14
990.63	2481.98
990.927	2488.76
991.224	2450.35
991.521	2440.63
991.819	2421.87
992.116	2453.73
992.413	2401.08
992.71	2373.96
993.006	2370.57
993.303	2392.95
993.6	2383.91
993.897	2367.18
994.193	2355.21
994.49	2293.29
994.787	2312.04
995.083	2298.03
995.379	2278.6
995.676	2276.56
995.972	2303.46
996.268	2308.65
996.565	2252.84
996.861	2271.14
997.157	2246.51
997.453	2224.59
997.749	2211.03
998.044	2192.05
998.34	2167.87
998.636	2164.48
998.932	2185.27
999.227	2127.64
999.523	2133.52
999.818	2145.72
1000.114	2114.08
1000.409	2091.26
1000.704	2076.8
1001	2094.87
1001.295	2091.03
1001.59	2082.67
1001.885	2054.65
1002.18	2044.71
1002.475	2027.31
1002.77	2033.41
1003.065	1995.44
1003.359	2024.37
1003.654	2036.12
1003.949	1964.71
1004.243	1935.56
1004.538	1943.47
1004.832	1963.8
1005.127	1940.08
1005.421	1932.84
1005.715	1937.82
1006.009	1920.42
1006.304	1894.2
1006.598	1895.33
1006.892	1905.5
1007.186	1876.12
1007.48	1862.56
1007.773	1832.28
1008.067	1825.28
1008.361	1848.33
1008.655	1813.3
1008.948	1817.37
1009.242	1791.83
1009.535	1800.87
1009.829	1790.25
1010.122	1750.7
1010.415	1765.17
1010.708	1753.64
1011.001	1719.97
1011.295	1712.29
1011.588	1741.66
1011.881	1720.19
1012.173	1661.89
1012.466	1677.26
1012.759	1649.69
1013.052	1637.71
1013.344	1678.39
1013.637	1674.32
1013.93	1638.84
1014.222	1616.02
1014.514	1634.32
1014.807	1601.78
1015.099	1601.55
1015.391	1595
1015.683	1587.54
1015.976	1576.02
1016.268	1555.91
1016.56	1573.08
1016.851	1566.75
1017.143	1555
1017.435	1517.94
1017.727	1566.75
1018.018	1528.11
1018.31	1486.98
1018.602	1495.12
1018.893	1474.33
1019.185	1470.03
1019.476	1488.79
1019.767	1454.89
1020.058	1459.41
1020.35	1440.43
1020.641	1423.03
1020.932	1385.29
1021.223	1403.14
1021.514	1387.32
1021.804	1372.41
1022.095	1394.33
1022.386	1364.95
1022.677	1366.31
1022.967	1330.83
1023.258	1347.78
1023.548	1343.93
1023.839	1328.11
1024.129	1338.06
1024.419	1310.26
1024.709	1306.65
1025	1264.16
1025.29	1283.82
1025.58	1294.44
1025.87	1256.7
1026.16	1265.74
1026.449	1255.12
1026.739	1254.44
1027.029	1232.07
1027.319	1224.61
1027.608	1234.33
1027.898	1206.54
1028.187	1198.17
1028.477	1168.8
1028.766	1184.16
1029.055	1174.67
1029.344	1164.73
1029.634	1180.77
1029.923	1157.95
1030.212	1131.96
1030.501	1134
1030.79	1119.98
1031.078	1122.24
1031.367	1112.75
1031.656	1081.57
1031.945	1080.44
1032.233	1109.59
1032.522	1067.33
1032.81	1064.17
1033.099	1051.51
1033.387	1060.33
1033.675	1054.9
1033.963	1048.12
1034.251	1051.74
1034.54	1049.48
1034.828	1053.77
1035.116	1041.34
1035.403	1014.9
1035.691	1040.21
1035.979	1017.39
1036.267	1002.25
1036.554	1014.22
1036.842	975.36
1037.129	980.55
1037.417	1003.38
1037.704	976.94
1037.992	960.21
1038.279	944.17
1038.566	963.83
1038.853	963.83
1039.14	963.83
