Data from hue_30_FLMS001491_89.txt Node
Date: Mon Feb 06 15:06:13 GMT 2017
User: dcchb
Spectrometer: FLMS00149
Trigger mode: 0
Integration Time (sec): 2.000000E-2
Scans to average: 10
Electric dark correction enabled: true
Nonlinearity correction enabled: false
Boxcar width: 0
XAxis mode: Wavelengths
Number of Pixels in Spectrum: 2048
>>>>>Begin Spectral Data<<<<<
341.393	-20.24
341.776	-20.24
342.16	-20.24
342.543	-58.43
342.927	-68.15
343.31	-63.18
343.693	-77.41
344.077	-66.79
344.46	-69.05
344.843	-51.43
345.226	-47.36
345.61	-26.57
345.993	-5.55
346.376	-18.88
346.759	10.04
347.142	22.02
347.525	60.44
347.908	58.4
348.291	61.11
348.674	85.52
349.057	128.68
349.44	114.9
349.823	142.24
350.206	174.56
350.588	204.39
350.971	219.3
351.354	228.57
351.737	223.14
352.119	252.97
352.502	258.85
352.884	268.34
353.267	287.1
353.65	268.79
354.032	309.47
354.414	302.92
354.797	302.24
355.179	328.45
355.562	324.84
355.944	331.84
356.326	325.74
356.709	328.68
357.091	333.65
357.473	338.62
357.855	328.45
358.238	360.32
358.62	354.89
359.002	324.38
359.384	343.14
359.766	361.67
360.148	346.3
360.53	349.92
360.912	343.82
361.294	344.27
361.676	335.46
362.057	326.64
362.439	318.51
362.821	346.08
363.203	344.27
363.584	343.37
363.966	340.88
364.348	339.52
364.729	315.8
365.111	314.21
365.493	333.88
365.874	303.82
366.256	311.05
366.637	320.32
367.019	317.6
367.4	318.06
367.781	321.67
368.163	313.99
368.544	325.06
368.925	323.48
369.306	315.57
369.688	337.27
370.069	342.91
370.45	317.6
370.831	314.89
371.212	330.03
371.593	324.38
371.974	318.51
372.355	333.2
372.736	333.65
373.117	310.83
373.498	313.08
373.879	330.49
374.26	314.67
374.641	323.93
375.021	316.7
375.402	339.98
375.783	345.85
376.163	346.98
376.544	340.65
376.925	332.29
377.305	344.27
377.686	319.64
378.066	328.9
378.447	317.15
378.827	333.2
379.208	336.36
379.588	356.25
379.968	349.24
380.349	340.65
380.729	330.71
381.109	339.07
381.489	334.33
381.87	320.54
382.25	350.15
382.63	357.15
383.01	363.25
383.39	332.29
383.77	330.26
384.15	355.34
384.53	347.89
384.91	354.89
385.29	344.27
385.67	375.91
386.049	366.19
386.429	359.41
386.809	343.37
387.189	360.09
387.568	373.42
387.948	357.15
388.328	372.07
388.707	379.3
389.087	374.78
389.466	379.75
389.846	408.9
390.225	389.69
390.605	357.6
390.984	360.77
391.363	382.91
391.743	386.98
392.122	380.65
392.501	390.6
392.881	399.18
393.26	379.3
393.639	383.82
394.018	368.68
394.397	390.37
394.776	422.69
395.155	374.1
395.534	390.15
395.913	399.86
396.292	381.56
396.671	393.76
397.05	417.49
397.429	406.64
397.808	404.38
398.186	386.08
398.565	396.25
398.944	396.25
399.323	401.9
399.701	396.7
400.08	417.49
400.458	416.59
400.837	411.61
401.215	434.21
401.594	427.43
401.972	402.57
402.351	433.08
402.729	422.23
403.107	422.91
403.486	439.18
403.864	429.01
404.242	457.94
404.62	427.66
404.999	440.99
405.377	440.54
405.755	467.43
406.133	458.39
406.511	436.7
406.889	448.22
407.267	446.41
407.645	485.28
408.023	468.56
408.401	446.41
408.779	467.88
409.156	475.79
409.534	475.34
409.912	489.35
410.29	481.67
410.667	490.93
411.045	488.22
411.422	496.58
411.8	489.58
412.178	492.97
412.555	495
412.933	494.55
413.31	527.09
413.687	495.91
414.065	510.59
414.442	502.23
414.819	517.6
415.197	515.34
415.574	523.93
415.951	518.05
416.328	527.77
416.705	541.78
417.082	541.1
417.46	536.81
417.837	549.46
418.214	543.81
418.591	552.17
418.967	557.37
419.344	570.48
419.721	577.48
420.098	555.34
420.475	587.2
420.852	561.44
421.228	579.29
421.605	603.47
421.982	572.51
422.358	584.04
422.735	607.31
423.111	592.85
423.488	602.57
423.864	607.31
424.241	601.44
424.617	603.02
424.994	630.14
425.37	630.36
425.746	628.1
426.123	629.46
426.499	616.81
426.875	620.42
427.251	668.1
427.627	639.4
428.003	649.35
428.379	655.45
428.756	663.36
429.132	679.4
429.507	675.11
429.883	677.37
430.259	684.37
430.635	680.31
431.011	713.75
431.387	717.59
431.763	728.44
432.138	716.69
432.514	751.49
432.89	723.47
433.265	710.14
433.641	712.62
434.016	741.32
434.392	739.51
434.767	757.82
435.143	773.64
435.518	771.15
435.894	771.83
436.269	780.42
436.644	798.5
437.02	800.3
437.395	801.43
437.77	818.61
438.145	830.59
438.52	812.05
438.895	838.95
439.271	832.17
439.646	838.95
440.021	850.25
440.395	837.59
440.77	836.91
441.145	867.19
441.52	872.39
441.895	869.91
442.27	874.65
442.645	869.91
443.019	892.96
443.394	877.82
443.769	906.97
444.143	878.95
444.518	932.28
444.892	931.6
445.267	919.62
445.641	915.33
446.016	939.28
446.39	936.35
446.764	939.28
447.139	953.97
447.513	959.62
447.887	956.01
448.262	936.8
448.636	949
449.01	968.21
449.384	971.37
449.758	991.03
450.132	989.68
450.506	1003.46
450.88	986.29
451.254	997.36
451.628	1009.56
452.002	1038.04
452.376	1032.16
452.75	1052.73
453.123	1050.92
453.497	1043.46
453.871	1068.55
454.244	1087.75
454.618	1086.4
454.992	1099.96
455.365	1094.31
455.739	1125.94
456.112	1123.91
456.486	1118.94
456.859	1143.57
457.232	1173.18
457.606	1173.4
457.979	1221.54
458.352	1201.42
458.725	1188.54
459.099	1210.46
459.472	1272.16
459.845	1292.72
460.218	1256.56
460.591	1287.52
460.964	1290.46
461.337	1305.38
461.71	1308.31
462.083	1348.54
462.456	1344.24
462.829	1373.85
463.201	1382.21
463.574	1390.34
463.947	1409.33
464.32	1448.87
464.692	1438.25
465.065	1461.98
465.438	1465.6
465.81	1506.95
466.183	1524.13
466.555	1529.55
466.928	1537.23
467.3	1580.62
467.672	1597.8
468.045	1620.4
468.417	1623.33
468.789	1646.84
469.161	1665.82
469.534	1695.2
469.906	1692.48
470.278	1727.06
470.65	1750.79
471.022	1789.66
471.394	1811.58
471.766	1852.48
472.138	1881.63
472.51	1893.83
472.882	1949.65
473.253	1947.62
473.625	1974.51
473.997	2027.39
474.369	2037.11
474.74	2064.23
475.112	2113.26
475.484	2146.71
475.855	2222.64
476.227	2227.16
476.598	2318.68
476.97	2306.03
477.341	2358.91
477.713	2410.66
478.084	2423.31
478.455	2518
478.827	2525.46
479.198	2634.38
479.569	2615.85
479.94	2670.54
480.311	2749.86
480.682	2813.36
481.053	2846.8
481.424	2919.57
481.795	2991.66
482.166	3028.04
482.537	3078.21
482.908	3147.13
483.279	3235.04
483.65	3300.8
484.021	3368.6
484.391	3428.03
484.762	3449.05
485.133	3473.91
485.503	3567.01
485.874	3635.26
486.244	3730.17
486.615	3785.08
486.985	3883.16
487.356	3938.75
487.726	4008.13
488.097	4101.91
488.467	4103.95
488.837	4232.98
489.207	4269.14
489.578	4356.59
489.948	4428.91
490.318	4499.64
490.688	4546.19
491.058	4632.07
491.428	4720.2
491.798	4729.47
492.168	4874.77
492.538	4933.53
492.908	5025.73
493.278	5086.74
493.648	5147.08
494.017	5202
494.387	5246.29
494.757	5384.82
495.126	5410.58
495.496	5401.54
495.866	5437.24
496.235	5558.6
496.605	5656
496.974	5675.88
497.344	5746.61
497.713	5810.34
498.082	5839.95
498.452	5935.99
498.821	5952.48
499.19	5970.56
499.559	6093.27
499.928	6122.42
500.298	6196.77
500.667	6220.27
501.036	6233.61
501.405	6355.86
501.774	6363.77
502.143	6402.87
502.512	6472.02
502.88	6504.11
503.249	6535.97
503.618	6582.52
503.987	6611.22
504.356	6701.84
504.724	6758.11
505.093	6779.36
505.462	6779.81
505.83	6840.6
506.199	6928.96
506.567	7020.71
506.936	7015.06
507.304	7111.1
507.672	7147.26
508.041	7184.32
508.409	7287.59
508.777	7232.23
509.145	7339.34
509.514	7348.83
509.882	7414.59
510.25	7391.99
510.618	7469.06
510.986	7525.78
511.354	7519
511.722	7619.79
512.09	7672.89
512.458	7658.88
512.826	7702.95
513.193	7804.41
513.561	7759.44
513.929	7867.01
514.297	7944.97
514.664	7905.65
515.032	7977.97
515.4	8043.05
515.767	8059.77
516.135	8125.53
516.502	8096.61
516.869	8232.42
517.237	8249.6
517.604	8182.03
517.972	8317.17
518.339	8329.37
518.706	8358.98
519.073	8438.97
519.44	8419.09
519.808	8572.08
520.175	8525.52
520.542	8684.62
520.909	8687.1
521.276	8684.84
521.643	8776.82
522.009	8772.98
522.376	8869.7
522.743	8894.33
523.11	8992.4
523.477	9071.72
523.843	9063.59
524.21	9156.92
524.577	9196.69
524.943	9275.56
525.31	9291.61
525.676	9386.29
526.043	9448.89
526.409	9490.02
526.776	9558.27
527.142	9560.98
527.508	9605.27
527.874	9695.21
528.241	9728.2
528.607	9745.83
528.973	9810.01
529.339	9855.21
529.705	9978.37
530.071	10003.23
530.437	10095.88
530.803	10099.95
531.169	10152.6
531.535	10108.53
531.901	10242.54
532.267	10285.25
532.632	10316.66
532.998	10345.36
533.364	10449.77
533.73	10495.19
534.095	10497
534.461	10511.23
534.826	10647.5
535.192	10654.96
535.557	10732.25
535.923	10776.09
536.288	10791.45
536.653	10857.89
537.019	10857.89
537.384	10975.4
537.749	10958.45
538.114	11005.91
538.479	11022.63
538.845	11101.95
539.21	11040.26
539.575	11139.47
539.94	11199.8
540.305	11345.34
540.67	11296.07
541.034	11254.04
541.399	11411.1
541.764	11410.65
542.129	11494.03
542.494	11534.94
542.858	11556.18
543.223	11582.17
543.587	11639.79
543.952	11701.49
544.316	11690.86
544.681	11721.6
545.045	11816.96
545.41	11848.15
545.774	11883.18
546.138	11858.32
546.503	11963.63
546.867	11981.7
547.231	12115.71
547.595	12162.94
547.959	12164.3
548.324	12188.93
548.688	12201.81
549.052	12283.84
549.416	12330.17
549.779	12349.6
550.143	12399.55
550.507	12459.66
550.871	12536.94
551.235	12525.65
551.599	12654.46
551.962	12614.46
552.326	12705.75
552.689	12858.74
553.053	12698.07
553.417	12817.16
553.78	12920.44
554.143	12898.29
554.507	12922.7
554.87	13011.51
555.234	13084.5
555.597	13023.71
555.96	12985.29
556.323	13133.99
556.686	13128.12
557.05	13249.02
557.413	13261.22
557.776	13345.96
558.139	13425.06
558.502	13380.54
558.865	13442.91
559.228	13520.42
559.59	13632.96
559.953	13622.79
560.316	13728.1
560.679	13742.79
561.041	13858.94
561.404	13836.12
561.767	13875.44
562.129	13853.97
562.492	14018.71
562.854	13983.46
563.217	14020.3
563.579	14090.12
563.941	14138.26
564.304	14225.26
564.666	14301.42
565.028	14267.75
565.39	14355.43
565.753	14489.89
566.115	14468.42
566.477	14574.4
566.839	14582.77
567.201	14653.95
567.563	14644.23
567.925	14738.92
568.287	14805.13
568.648	14790.44
569.01	14865.24
569.372	15029.08
569.734	14925.81
570.095	15028.63
570.457	15150.66
570.819	15194.05
571.18	15277.66
571.542	15385.23
571.903	15439.24
572.265	15496.19
572.626	15526.47
572.987	15573.93
573.349	15631.1
573.71	15759.91
574.071	15809.63
574.432	15841.94
574.794	16040.36
575.155	16067.47
575.516	16019.11
575.877	16166.45
576.238	16315.15
576.599	16415.03
576.96	16493.68
577.32	16571.87
577.681	16796.49
578.042	16773.44
578.403	16827.9
578.763	17053.66
579.124	17185.86
579.485	17265.41
579.845	17474.89
580.206	17527.77
580.566	17604.16
580.927	17805.51
581.287	17994.2
581.648	18119.85
582.008	18351.71
582.368	18535.66
582.728	18606.16
583.089	18698.36
583.449	18976.1
583.809	19219.25
584.169	19415.41
584.529	19504.44
584.889	19889.07
585.249	19983.53
585.609	20221.71
585.969	20520.92
586.329	20677.07
586.688	20877.97
587.048	21134.01
587.408	21403.6
587.768	21584.84
588.127	21792.52
588.487	21970.14
588.846	22484.48
589.206	22486.51
589.565	22886.05
589.925	23120.39
590.284	23357
590.643	23575.75
591.003	23988.85
591.362	24262.96
591.721	24513.35
592.08	24846.9
592.44	25014.81
592.799	25330.73
593.158	25590.16
593.517	25905.18
593.876	26285.28
594.235	26546.75
594.593	26823.12
594.952	27146.5
595.311	27385.14
595.67	27688.18
596.029	28052.02
596.387	28374.95
596.746	28707.59
597.104	28856.74
597.463	29133.8
597.822	29470.74
598.18	29621.24
598.538	30094
598.897	30501.44
599.255	30441.33
599.613	31130.13
599.972	31226.4
600.33	31611.92
600.688	31504.81
601.046	32106.37
601.404	32415.29
601.762	32522.86
602.12	33033.35
602.478	33156.52
602.836	33395.83
603.194	33547.01
603.552	33944.74
603.91	33963.5
604.268	34394
604.625	34581.79
604.983	34780.65
605.341	34861.33
605.698	35249.79
606.056	35509.67
606.413	35717.13
606.771	36064.24
607.128	36283.44
607.485	36414.96
607.843	36595.52
608.2	36969.3
608.557	37364.77
608.914	37454.71
609.272	37790.74
609.629	37897.86
609.986	38228.47
610.343	38207.23
610.7	38681.57
611.057	38700.1
611.414	38849.92
611.771	39155.91
612.127	39247.65
612.484	39423.7
612.841	39714.53
613.198	39738.94
613.554	39757.92
613.911	40290.34
614.267	40268.42
614.624	40318.81
614.98	40437.23
615.337	40871.57
615.693	40969.42
616.05	41004.22
616.406	41344.55
616.762	41320.37
617.118	41434.49
617.475	41609.4
617.831	41738.89
618.187	41951.54
618.543	42226.11
618.899	42385.43
619.255	42345.88
619.611	42621.35
619.967	42688.24
620.323	42756.94
620.678	42797.84
621.034	42776.15
621.39	42963.04
621.746	42932.53
622.101	43398.73
622.457	43147.66
622.812	43358.28
623.168	43508.11
623.523	43486.41
623.879	43746.29
624.234	43419.97
624.589	43687.54
624.945	43822.45
625.3	43924.59
625.655	43974.76
626.01	43970.69
626.365	44145.83
626.72	44088.43
627.075	44128.66
627.43	44214.53
627.785	44110.8
628.14	44342.89
628.495	44307.63
628.85	44333.85
629.205	44278.48
629.559	44647.29
629.914	44375.43
630.269	44672.82
630.623	44521.19
630.978	44315.09
631.332	44691.81
631.687	44688.19
632.041	44532.49
632.396	44592.15
632.75	44540.4
633.104	44591.02
633.459	44584.24
633.813	44652.71
634.167	44534.07
634.521	44555.31
634.875	44568.87
635.229	44669.88
635.583	44445.94
635.937	44562.77
636.291	44460.17
636.645	44434.64
636.999	44480.29
637.352	44480.74
637.706	44376.11
638.06	44676.44
638.413	44559.61
638.767	44527.29
639.121	44576.33
639.474	44230.8
639.828	44411.36
640.181	44402.1
640.534	44454.3
640.888	44420.63
641.241	44189.22
641.594	44309.89
641.947	44366.16
642.301	44336.33
642.654	44311.25
643.007	44224.02
643.36	44239.16
643.713	44160.29
644.066	44269.9
644.419	44103.12
644.771	43817.25
645.124	43521.67
645.477	43529.35
645.83	43237.15
646.182	42952.19
646.535	42950.38
646.888	42906.54
647.24	42967.1
647.593	42938.63
647.945	42911.51
648.298	42887.56
648.65	42733.44
649.002	42534.35
649.355	42877.62
649.707	42747.9
650.059	42986.99
650.411	43336.59
650.763	43419.52
651.115	43892.96
651.467	43736.12
651.819	43755.78
652.171	43633.08
652.523	43653.87
652.875	43595.79
653.227	43448.45
653.578	43704.71
653.93	43546.75
654.282	43553.53
654.633	43395.12
654.985	43534.55
655.337	43476.24
655.688	43498.39
656.039	43558.05
656.391	43310.82
656.742	43323.71
657.094	43324.38
657.445	43510.59
657.796	43484.61
658.147	43400.09
658.498	43277.38
658.849	43401.9
659.2	43317.6
659.551	43139.98
659.902	43486.19
660.253	43172.52
660.604	43302.24
660.955	43100.43
661.306	43291.16
661.656	43131.62
662.007	43324.16
662.358	43270.15
662.708	43213.65
663.059	43221.34
663.409	43113.09
663.76	43246.19
664.11	43307.21
664.461	43169.13
664.811	43192.41
665.161	43158.96
665.511	43074.45
665.862	43179.08
666.212	43231.73
666.562	43306.3
666.912	43066.54
667.262	43173.43
667.612	43018.18
667.962	43170.26
668.312	43048.68
668.662	43253.65
669.011	43074.67
669.361	42949.03
669.711	42912.19
670.06	42883.49
670.41	42750.61
670.76	42784.51
671.109	42932.3
671.459	42847.11
671.808	42855.24
672.157	42955.13
672.507	42485.08
672.856	42768.01
673.205	42694.12
673.554	42794.45
673.904	42627.45
674.253	42949.25
674.602	42861.12
674.951	42130.74
675.3	42120.57
675.649	42733.89
675.998	42749.94
676.346	42622.03
676.695	42750.16
677.044	42497.06
677.393	42673.78
677.741	42614.8
678.09	42484.18
678.438	42441.47
678.787	42537.06
679.135	42516.04
679.484	42201.93
679.832	42400.79
680.181	42201.25
680.529	42241.93
680.877	42080.8
681.225	42207.35
681.573	42380.68
681.922	41900.47
682.27	41950.18
682.618	41993.8
682.966	41867.02
683.314	41934.82
683.661	41831.09
684.009	41507.71
684.357	41560.36
684.705	41558.78
685.053	41532.11
685.4	41532.57
685.748	41353.14
686.095	41406.69
686.443	41120.15
686.79	41173.25
687.138	41303.65
687.485	41099.58
687.832	40978
688.18	40914.73
688.527	40896.88
688.874	40860.49
689.221	40646.49
689.568	40683.55
689.915	40597.22
690.262	40525.81
690.609	40514.06
690.956	40433.16
691.303	40314.29
691.65	40119.04
691.997	40183
692.344	39967.41
692.69	39870.91
693.037	39946.17
693.383	39493.07
693.73	39663.24
694.077	39573.3
694.423	39508.89
694.769	39323.58
695.116	39171.95
695.462	39270.7
695.808	39176.02
696.155	39225.73
696.501	38826.87
696.847	38906.19
697.193	38530.84
697.539	38759.31
697.885	38421.91
698.231	38403.38
698.577	38328.36
698.923	38331.97
699.269	38100.11
699.614	37959.78
699.96	37897.41
700.306	38074.8
700.651	37804.08
700.997	37741.48
701.342	37574.25
701.688	37508.49
702.033	37529.73
702.379	37565.21
702.724	37121.16
703.069	37277.08
703.415	36922.07
703.76	36917.32
704.105	36965.23
704.45	36941.73
704.795	36688.4
705.14	36607.95
705.485	36571.79
705.83	36479.37
706.175	36415.86
706.52	36365.47
706.865	36241.63
707.209	36222.42
707.554	36030.79
707.899	36222.2
708.243	35840.06
708.588	35857.46
708.932	35671.93
709.277	35680.74
709.621	35588.32
709.966	35522.55
710.31	35523.46
710.654	35180.87
710.998	35409.56
711.342	35325.95
711.687	35165.95
712.031	35091.61
712.375	34873.31
712.719	34880.99
713.063	34824.04
713.407	34909.01
713.75	34764.16
714.094	34769.81
714.438	34623.6
714.782	34640.32
715.125	34492.3
715.469	34597.83
715.812	34284.62
716.156	34024.51
716.499	34206.66
716.843	34216.6
717.186	34032.2
717.53	34076.94
717.873	34164.4
718.216	33966.66
718.559	33777.06
718.902	33660.91
719.246	33754.92
719.589	33587.01
719.932	33456.39
720.275	33472.67
720.617	33509.95
720.96	33433.12
721.303	33405.77
721.646	33461.14
721.989	33125.56
722.331	33275.83
722.674	33176.4
723.016	33200.81
723.359	33240.13
723.701	33147.48
724.044	32933.92
724.386	32723.31
724.729	32863.64
725.071	32726.7
725.413	32637.43
725.755	32778.22
726.097	32621.16
726.439	32436.08
726.782	32504.1
727.124	32463.88
727.465	32329.64
727.807	32400.15
728.149	32292.58
728.491	32217.56
728.833	32255.3
729.175	32116.99
729.516	32082.42
729.858	32005.59
730.199	32079.93
730.541	32086.94
730.882	32029.77
731.224	32009.43
731.565	31822.09
731.906	31836.1
732.248	31823.67
732.589	31653.5
732.93	31606.27
733.271	31647.4
733.612	31615.54
733.953	31655.76
734.294	31510.68
734.635	31286.73
734.976	31452.83
735.317	31322.44
735.658	31331.03
735.999	31346.39
736.339	31198.37
736.68	31288.77
737.021	31112.28
737.361	30949.79
737.702	31195.89
738.042	31157.47
738.383	30914.99
738.723	31047.19
739.063	30897.59
739.404	30921.77
739.744	30917.03
740.084	30738.95
740.424	30769.46
740.764	30680.2
741.104	30702.79
741.444	30538.5
741.784	30472.07
742.124	30557.04
742.464	30330.83
742.804	30406.08
743.143	30374.22
743.483	30416.02
743.823	30152.53
744.162	30237.95
744.502	30371.96
744.841	30095.35
745.181	30121.79
745.52	30108.46
745.86	30117.05
746.199	29923.61
746.538	29903.27
746.877	30021.68
747.216	29985.53
747.556	29854.46
747.895	29872.99
748.234	29872.99
748.573	29727.9
748.911	29647.91
749.25	29666.66
749.589	29476.39
749.928	29478.65
750.267	29561.13
750.605	29421.7
750.944	29431.64
751.283	29458.08
751.621	29362.49
751.96	29207.92
752.298	29177.18
752.636	29257.41
752.975	29151.65
753.313	28921.15
753.651	29080.92
753.989	28864.2
754.327	28823.97
754.666	28739.91
755.004	28821.26
755.342	28651.77
755.679	28734.48
756.017	28554.6
756.355	28695.62
756.693	28551.21
757.031	28616.3
757.368	28366.36
757.706	28383.99
758.044	28220.15
758.381	28235.06
758.719	28068.74
759.056	28340.37
759.394	28024.9
759.731	27787.84
760.068	27876.88
760.405	27805.92
760.743	27721.86
761.08	27689.77
761.417	27572.48
761.754	27434.63
762.091	27507.62
762.428	27310.34
762.765	27067.64
763.102	27210
763.438	27003
763.775	26977.69
764.112	26930.92
764.449	27031.7
764.785	26838.72
765.122	26757.59
765.458	26628.1
765.795	26558.5
766.131	26409.35
766.467	26394.21
766.804	26249.58
767.14	26257.49
767.476	26096.14
767.812	26083.93
768.148	26092.75
768.485	25806.2
768.821	25813.66
769.157	25684.85
769.492	25641.23
769.828	25680.1
770.164	25337.96
770.5	25277.17
770.836	25363.73
771.171	25172.54
771.507	25038.54
771.842	24895.72
772.178	24958.09
772.513	24914.7
772.849	24800.58
773.184	24680.35
773.519	24555.39
773.855	24494.82
774.19	24514.71
774.525	24438.55
774.86	24332.57
775.195	24425.67
775.53	24137.77
775.865	23993.14
776.2	23972.58
776.535	23646.93
776.87	23771
777.205	23700.27
777.539	23658.69
777.874	23694.39
778.209	23412.14
778.543	23358.81
778.878	23223.67
779.212	23258.24
779.547	23124.91
779.881	23196.55
780.215	23012.83
780.55	22962.66
780.884	22842.21
781.218	22770.12
781.552	22784.58
781.886	22663.46
782.22	22458.04
782.554	22428.21
782.888	22356.12
783.222	22220.76
783.556	22045.62
783.889	22096.02
784.223	21855.34
784.557	21839.52
784.89	21875.91
785.224	21761.33
785.557	21595.01
785.891	21499.19
786.224	21475.69
786.558	21517.27
786.891	21242.93
787.224	21245.42
787.557	21033.44
787.891	21144.18
788.224	21145.53
788.557	21007.68
788.89	20959.77
789.223	20908.48
789.556	20826.67
789.888	20740.8
790.221	20640.23
790.554	20441.82
790.887	20493.57
791.219	20326.8
791.552	20383.74
791.884	20262.84
792.217	20182.85
792.549	20036.41
792.882	19894.04
793.214	19822.85
793.546	19900.82
793.879	19791.44
794.211	19740.37
794.543	19784.89
794.875	19688.17
795.207	19682.75
795.539	19549.64
795.871	19545.57
796.203	19329.99
796.535	19270.1
796.867	19271
797.198	19191.01
797.53	19215.41
797.862	19001.63
798.193	19108.97
798.525	18999.83
798.856	19050.45
799.188	18873.73
799.519	18682.09
799.85	18725.48
800.182	18702.66
800.513	18651.36
800.844	18471.7
801.175	18557.13
801.506	18516.22
801.837	18518.48
802.168	18317.81
802.499	18334.08
802.83	18190.81
803.161	18210.69
803.491	18190.81
803.822	18170.92
804.153	17991.94
804.483	17949.46
804.814	17902.68
805.145	17834.43
805.475	17744.27
805.805	17684.38
806.136	17683.48
806.466	17603.25
806.796	17679.41
807.126	17391.96
807.457	17449.13
807.787	17506.31
808.117	17304.5
808.447	17282.13
808.777	17364.84
809.107	17268.8
809.436	17172.98
809.766	17207.1
810.096	17163.72
810.426	17023.15
810.755	17062.93
811.085	17077.84
811.414	16892.99
811.744	16840.11
812.073	16805.53
812.403	16808.7
812.732	16700.9
813.061	16626.78
813.39	16542.71
813.719	16529.16
814.049	16695.93
814.378	16487.12
814.707	16568.02
815.036	16436.5
815.365	16352.66
815.693	16254.13
816.022	16198.77
816.351	16168.04
816.68	16044.87
817.008	16173.01
817.337	15954.48
817.665	15888.95
817.994	16032.9
818.322	15957.42
818.651	15854.82
818.979	15772.57
819.307	15954.93
819.636	15916.52
819.964	15785.67
820.292	15799.91
820.62	15731.66
820.948	15730.53
821.276	15760.81
821.604	15716.97
821.932	15739.57
822.259	15756.75
822.587	15726.24
822.915	15592.46
823.243	15680.36
823.57	15749.29
823.898	15691.66
824.225	15604.89
824.553	15625
824.88	15537.09
825.207	15703.41
825.535	15613.7
825.862	15621.84
826.189	15568.28
826.516	15643.53
826.843	15622.74
827.17	15639.24
827.497	15655.05
827.824	15670.87
828.151	15686.24
828.478	15607.82
828.805	15679.69
829.131	15623.87
829.458	15584.1
829.785	15450.09
830.111	15516.08
830.438	15638.33
830.764	15609.86
831.09	15600.59
831.417	15517.66
831.743	15533.93
832.069	15588.16
832.395	15498.22
832.722	15599.46
833.048	15530.09
833.374	15520.82
833.7	15469.75
834.026	15424.1
834.351	15464.33
834.677	15401.28
835.003	15487.15
835.329	15399.24
835.654	15332.58
835.98	15351.11
836.306	15361.73
836.631	15299.13
836.956	15350.88
837.282	15269.75
837.607	15137.1
837.932	15227.72
838.258	15103.66
838.583	15200.83
838.908	15057.56
839.233	15108.4
839.558	15120.38
839.883	15015.07
840.208	14989.08
840.533	15015.07
840.858	15010.1
841.182	14954.28
841.507	14945.47
841.832	14882.87
842.156	14823.21
842.481	14839.71
842.805	14770.56
843.13	14712.71
843.454	14779.15
843.778	14663.89
844.103	14678.13
844.427	14587.74
844.751	14520.4
845.075	14590.9
845.399	14494.18
845.723	14375.99
846.047	14429.1
846.371	14374.41
846.695	14303.23
847.019	14263
847.343	14099.39
847.666	14085.38
847.99	14006.28
848.313	13999.96
848.637	13799.74
848.96	13829.34
849.284	13771.71
849.607	13683.13
849.931	13685.61
850.254	13686.97
850.577	13513.64
850.9	13482
851.223	13415.34
851.546	13374.66
851.869	13317.26
852.192	13378.05
852.515	13181
852.838	13154.56
853.161	13139.41
853.483	13109.58
853.806	13060.77
854.129	13017.61
854.451	13022.13
854.774	12940.1
855.096	12920.66
855.419	12830.27
855.741	12858.74
856.063	12828.69
856.385	12759.31
856.708	12680.67
857.03	12636.83
857.352	12642.93
857.674	12560.45
857.996	12580.56
858.318	12501.24
858.64	12512.31
858.961	12532.65
859.283	12474.8
859.605	12434.57
859.926	12382.82
860.248	12357.06
860.57	12271.19
860.891	12261.47
861.212	12255.14
861.534	12151.19
861.855	12148.71
862.176	12207.24
862.498	12157.97
862.819	12098.09
863.14	12015.15
863.461	12036.62
863.782	11909.62
864.103	11958.65
864.424	11989.39
864.745	11924.53
865.065	11856.96
865.386	11881.82
865.707	11840.24
866.027	11786.23
866.348	11812.67
866.668	11811.54
866.989	11846.12
867.309	11651.77
867.63	11699.68
867.95	11655.39
868.27	11657.19
868.59	11622.39
868.91	11643.18
869.23	11640.7
869.55	11544.43
869.87	11656.97
870.19	11566.12
870.51	11503.53
870.83	11601.83
871.15	11548.95
871.469	11578.1
871.789	11563.41
872.109	11480.7
872.428	11440.48
872.748	11457.88
873.067	11380.59
873.386	11405.22
873.706	11382.4
874.025	11315.51
874.344	11253.81
874.663	11392.34
874.982	11242.52
875.301	11257.43
875.62	11253.36
875.939	11247.03
876.258	11214.27
876.577	11215.17
876.896	11118
877.214	11201.84
877.533	11099.92
877.852	11161.16
878.17	11123.65
878.489	11147.15
878.807	11126.36
879.125	11069.41
879.444	11134.72
879.762	10987.83
880.08	10971.11
880.398	10915.74
880.716	11004.78
881.034	10901.73
881.352	10905.35
881.67	10889.53
881.988	10854.5
882.306	10841.17
882.624	10798.46
882.941	10753.04
883.259	10697.67
883.577	10705.35
883.894	10682.3
884.212	10672.81
884.529	10690.21
884.846	10616.77
885.164	10622.87
885.481	10532.7
885.798	10517.56
886.115	10509.88
886.432	10558.47
886.75	10465.36
887.067	10468.98
887.383	10437.79
887.7	10435.08
888.017	10384.46
888.334	10351.24
888.651	10368.41
888.967	10335.19
889.284	10251.81
889.6	10172.49
889.917	10172.49
890.233	10214.52
890.55	10157.8
890.866	10167.97
891.182	10093.62
891.498	10102.43
891.815	10052.94
892.131	10000.74
892.447	9974.98
892.763	9959.61
893.079	9939.5
893.395	9856.79
893.71	9860.63
894.026	9871.03
894.342	9856.34
894.657	9784.93
894.973	9722.56
895.289	9781.54
895.604	9701.54
895.92	9673.29
896.235	9618.6
896.55	9619.28
896.865	9599.62
897.181	9571.37
897.496	9525.72
897.811	9501.09
898.126	9457.93
898.441	9366.18
898.756	9362.11
899.071	9286.63
899.386	9301.78
899.7	9210.25
900.015	9176.81
900.33	9146.53
900.644	9190.59
900.959	9179.52
901.273	9099.75
901.588	9121.67
901.902	9062.01
902.216	8993.76
902.531	8939.07
902.845	8915.8
903.159	8867.66
903.473	8876.02
903.787	8873.76
904.101	8775.46
904.415	8800.55
904.729	8697.95
905.042	8739.98
905.356	8679.42
905.67	8645.75
905.984	8634.67
906.297	8525.52
906.611	8508.58
906.924	8498.63
907.237	8548.57
907.551	8427.45
907.864	8429.03
908.177	8409.82
908.491	8389.48
908.804	8316.04
909.117	8259.32
909.43	8246.89
909.743	8192.88
910.056	8172.77
910.368	8137.74
910.681	8186.32
910.994	8082.37
911.307	8061.13
911.619	7962.6
911.932	7984.97
912.244	7954.01
912.557	7914.02
912.869	7887.12
913.181	7856.62
913.494	7829.5
913.806	7800.8
914.118	7761.93
914.43	7784.3
914.742	7757.41
915.054	7681.93
915.366	7656.17
915.678	7576.62
915.99	7625.89
916.302	7427.25
916.613	7530.3
916.925	7482.39
917.236	7448.04
917.548	7451.65
917.859	7429.73
918.171	7365.78
918.482	7332.56
918.794	7290.3
919.105	7306.35
919.416	7199.01
919.727	7274.94
920.038	7167.37
920.349	7140.93
920.66	7041.04
920.971	7076.52
921.282	7060.03
921.593	7012.57
921.903	6981.84
922.214	6976.64
922.525	6952.91
922.835	6932.57
923.146	6876.75
923.456	6841.5
923.767	6813.03
924.077	6811.45
924.387	6778
924.697	6714.05
925.008	6731
925.318	6656.2
925.628	6655.74
925.938	6675.18
926.248	6605.57
926.558	6613.94
926.867	6513.83
927.177	6509.76
927.487	6429.76
927.796	6379.37
928.106	6408.74
928.416	6395.64
928.725	6416.65
929.034	6358.35
929.344	6373.49
929.653	6264.11
929.962	6201.29
930.271	6259.82
930.581	6216.43
930.89	6144.57
931.199	6134.17
931.508	6133.04
931.817	6132.14
932.125	6048.3
932.434	6018.25
932.743	6035.19
933.051	5974.86
933.36	5940.73
933.669	5855.09
933.977	5878.59
934.286	5876.55
934.594	5856.22
934.902	5775.77
935.21	5783
935.519	5796.1
935.827	5808.31
936.135	5721.3
936.443	5694.86
936.751	5662.77
937.059	5695.32
937.367	5651.48
937.674	5641.08
937.982	5540.07
938.29	5556.11
938.597	5509.56
938.905	5471.37
939.213	5479.5
939.52	5432.72
939.827	5481.54
940.135	5427.75
940.442	5387.98
940.749	5363.8
941.056	5364.7
941.363	5289
941.67	5313.41
941.977	5252.62
942.284	5235.44
942.591	5222.79
942.898	5202.22
943.205	5161.77
943.511	5160.42
943.818	5154.77
944.125	5100.76
944.431	5060.08
944.738	5088.33
945.044	5050.59
945.35	5013.98
945.657	4959.74
945.963	5006.97
946.269	4987.76
946.575	4957.26
946.881	4903.47
947.187	4924.49
947.493	4869.58
947.799	4875
948.105	4900.53
948.41	4809.92
948.716	4819.63
949.022	4809.46
949.327	4809.92
949.633	4713.2
949.938	4737.83
950.244	4706.64
950.549	4675.46
950.854	4640.2
951.16	4631.62
951.465	4642.01
951.77	4587.77
952.075	4596.36
952.38	4530.6
952.685	4547.78
952.99	4511.39
953.294	4512.52
953.599	4488.34
953.904	4462.13
954.209	4416.93
954.513	4422.36
954.818	4416.93
955.122	4423.26
955.426	4343.49
955.731	4334.9
956.035	4352.3
956.339	4333.54
956.643	4330.38
956.948	4270.27
957.252	4260.33
957.556	4232.08
957.86	4208.58
958.163	4197.73
958.467	4201.34
958.771	4217.62
959.075	4150.5
959.378	4120.67
959.682	4131.29
959.985	4071.63
960.289	4070.95
960.592	4085.19
960.896	4061.91
961.199	3969.03
961.502	4010.16
961.805	4000.67
962.108	3995.02
962.411	3955.25
962.714	3903.95
963.017	3953.67
963.32	3869.15
963.623	3888.81
963.926	3875.03
964.228	3838.64
964.531	3802.48
964.833	3837.29
965.136	3814.46
965.438	3776.04
965.741	3783.95
966.043	3744.18
966.345	3733.11
966.648	3728.36
966.95	3687.46
967.252	3662.15
967.554	3699.44
967.856	3617.63
968.158	3590.74
968.46	3630.74
968.761	3607.24
969.063	3583.73
969.365	3560.91
969.666	3580.57
969.968	3535.83
970.269	3543.96
970.571	3533.34
970.872	3483.4
971.174	3434.81
971.475	3460.8
971.776	3421.48
972.077	3440.01
972.378	3423.06
972.679	3362.72
972.98	3366.11
973.281	3387.35
973.582	3385.32
973.883	3364.3
974.183	3325.44
974.484	3300.35
974.785	3301.48
975.085	3268.04
975.386	3296.96
975.686	3257.87
975.986	3259.22
976.287	3211.54
976.587	3180.35
976.887	3157.98
977.187	3180.58
977.487	3175.83
977.787	3133.12
978.087	3153.46
978.387	3131.54
978.687	3126.34
978.987	3068.04
979.286	3109.85
979.586	3066.23
979.885	3042.5
980.185	3041.15
980.484	3023.97
980.784	3026.69
981.083	3000.02
981.382	2989.62
981.682	2983.3
981.981	2979
982.28	2994.37
982.579	2924.77
982.878	2948.5
983.177	2866.01
983.475	2875.73
983.774	2895.39
984.073	2892.9
984.372	2843.19
984.67	2853.13
984.969	2855.39
985.267	2793.47
985.566	2823.3
985.864	2789.86
986.162	2745.11
986.461	2773.36
986.759	2745.56
987.057	2745.34
987.355	2754.6
987.653	2706.69
987.951	2716.64
988.249	2694.94
988.547	2671.67
988.844	2695.62
989.142	2705.56
989.44	2659.46
989.737	2663.76
990.035	2613.36
990.332	2617.88
990.63	2614.27
990.927	2586.47
991.224	2563.65
991.521	2594.15
991.819	2584.66
992.116	2532.24
992.413	2533.59
992.71	2506.47
993.006	2520.71
993.303	2490.65
993.6	2503.08
993.897	2449.3
994.193	2450.88
994.49	2447.04
994.787	2427.38
995.083	2413.59
995.379	2389.19
995.676	2391
995.972	2373.14
996.268	2347.16
996.565	2370.43
996.861	2364.56
997.157	2357.55
997.453	2339.02
997.749	2311.22
998.044	2301.51
998.34	2292.69
998.636	2273.49
998.932	2244.33
999.227	2232.58
999.523	2254.05
999.818	2232.58
1000.114	2220.15
1000.409	2201.4
1000.704	2210.44
1001	2189.65
1001.295	2160.49
1001.59	2204.79
1001.885	2178.8
1002.18	2136.09
1002.475	2118.01
1002.77	2122.75
1003.065	2095.86
1003.359	2087.05
1003.654	2116.88
1003.949	2066.49
1004.243	2072.13
1004.538	2034.17
1004.832	2007.73
1005.127	2039.37
1005.421	2009.54
1005.715	2005.24
1006.009	1979.93
1006.304	1978.58
1006.598	1930.44
1006.892	1955.3
1007.186	1923.44
1007.48	1938.58
1007.773	1924.12
1008.067	1943.55
1008.361	1892.7
1008.655	1892.25
1008.948	1884.12
1009.242	1875.08
1009.535	1891.35
1009.829	1831.01
1010.122	1824.01
1010.415	1842.99
1010.708	1824.91
1011.001	1785.59
1011.295	1814.97
1011.588	1784.01
1011.881	1798.92
1012.173	1785.36
1012.466	1762.31
1012.759	1746.04
1013.052	1728.42
1013.344	1743.78
1013.637	1745.82
1013.93	1712.37
1014.222	1715.08
1014.514	1716.66
1014.807	1652.94
1015.099	1656.55
1015.391	1660.62
1015.683	1642.32
1015.976	1658.13
1016.268	1624.46
1016.56	1617.91
1016.851	1574.07
1017.143	1598.25
1017.435	1591.24
1017.727	1575.88
1018.018	1566.61
1018.31	1584.24
1018.602	1548.08
1018.893	1547.4
1019.185	1518.03
1019.476	1527.06
1019.767	1525.26
1020.058	1515.99
1020.35	1497.46
1020.641	1489.78
1020.932	1492.94
1021.223	1455.43
1021.514	1442.32
1021.804	1447.07
1022.095	1447.29
1022.386	1421.08
1022.677	1412.27
1022.967	1419.95
1023.258	1386.96
1023.548	1382.89
1023.839	1384.7
1024.129	1379.72
1024.419	1360.74
1024.709	1337.01
1025	1341.53
1025.29	1342.44
1025.58	1311.7
1025.87	1312.15
1026.16	1334.08
1026.449	1292.27
1026.739	1302.21
1027.029	1312.61
1027.319	1294.75
1027.608	1297.47
1027.898	1273.51
1028.187	1250.24
1028.477	1237.35
1028.766	1234.64
1029.055	1217.47
1029.344	1223.12
1029.634	1215.43
1029.923	1217.02
1030.212	1194.42
1030.501	1177.7
1030.79	1196.23
1031.078	1170.24
1031.367	1159.84
1031.656	1171.59
1031.945	1152.38
1032.233	1156.45
1032.522	1143.12
1032.81	1157.36
1033.099	1132.05
1033.387	1120.52
1033.675	1096.57
1033.963	1090.24
1034.251	1078.94
1034.54	1080.3
1034.828	1063.35
1035.116	1061.99
1035.403	1064.93
1035.691	1045.04
1035.979	1048.21
1036.267	1039.85
1036.554	1044.59
1036.842	1017.02
1037.129	1026.74
1037.417	1002.11
1037.704	1010.24
1037.992	984.48
1038.279	993.97
1038.566	998.94
1038.853	998.94
1039.14	998.94
