Data from hue_60_FLMS001491_38.txt Node
Date: Mon Feb 06 15:17:18 GMT 2017
User: dcchb
Spectrometer: FLMS00149
Trigger mode: 0
Integration Time (sec): 2.000000E-2
Scans to average: 10
Electric dark correction enabled: true
Nonlinearity correction enabled: false
Boxcar width: 0
XAxis mode: Wavelengths
Number of Pixels in Spectrum: 2048
>>>>>Begin Spectral Data<<<<<
341.393	-31.79
341.776	-31.79
342.16	-31.79
342.543	-63.2
342.927	-83.54
343.31	-75.63
343.693	-59.14
344.077	-69.76
344.46	-63.43
344.843	-58.23
345.226	-47.39
345.61	-14.84
345.993	-15.3
346.376	-0.83
346.759	18.83
347.142	32.39
347.525	42.1
347.908	59.73
348.291	75.55
348.674	72.61
349.057	103.34
349.44	132.95
349.823	147.19
350.206	157.13
350.588	181.53
350.971	215.66
351.354	215.88
351.737	218.37
352.119	242.1
352.502	267.18
352.884	293.17
353.267	266.5
353.65	283
354.032	298.82
354.414	307.18
354.797	279.16
355.179	325.94
355.562	312.38
355.944	329.33
356.326	316.45
356.709	328.65
357.091	305.6
357.473	323.68
357.855	312.6
358.238	332.94
358.62	336.56
359.002	355.77
359.384	322.32
359.766	319.84
360.148	325.03
360.53	340.4
360.912	322.77
361.294	336.33
361.676	322.55
362.057	306.73
362.439	311.93
362.821	310.8
363.203	322.32
363.584	322.55
363.966	339.95
364.348	317.12
364.729	313.51
365.111	313.06
365.493	311.02
365.874	327.52
366.256	326.84
366.637	297.01
367.019	301.98
367.4	331.81
367.781	314.19
368.163	294.07
368.544	307.18
368.925	312.6
369.306	304.24
369.688	280.97
370.069	296.56
370.45	305.6
370.831	303.57
371.212	302.66
371.593	297.46
371.974	305.6
372.355	320.06
372.736	304.7
373.117	305.83
373.498	313.28
373.879	336.33
374.26	296.79
374.641	309.22
375.021	293.17
375.402	314.19
375.783	317.58
376.163	303.11
376.544	304.7
376.925	314.64
377.305	328.2
377.686	321.42
378.066	313.06
378.447	319.16
378.827	326.16
379.208	337.01
379.588	339.04
379.968	322.1
380.349	319.16
380.729	338.14
381.109	315.77
381.489	328.65
381.87	317.12
382.25	327.52
382.63	342.43
383.01	347.86
383.39	328.65
383.77	334.98
384.15	350.8
384.53	331.14
384.91	324.81
385.29	306.96
385.67	338.14
386.049	336.56
386.429	347.18
386.809	363.22
387.189	349.89
387.568	327.52
387.948	341.98
388.328	357.35
388.707	358.93
389.087	363.22
389.466	332.94
389.846	367.74
390.225	341.76
390.605	362.32
390.984	368.42
391.363	358.25
391.743	359.38
392.122	367.97
392.501	337.24
392.881	355.32
393.26	363.45
393.639	375.88
394.018	352.15
394.397	371.81
394.776	355.54
395.155	351.25
395.534	371.13
395.913	363.45
396.292	362.32
396.671	372.94
397.05	382.43
397.429	358.25
397.808	382.66
398.186	374.75
398.565	388.31
398.944	362.77
399.323	371.13
399.701	375.65
400.08	375.2
400.458	371.36
400.837	372.49
401.215	374.52
401.594	366.39
401.972	372.94
402.351	393.96
402.729	397.8
403.107	367.74
403.486	399.83
403.864	379.27
404.242	366.61
404.62	387.41
404.999	386.28
405.377	383.11
405.755	380.85
406.133	412.26
406.511	404.35
406.889	406.84
407.267	387.63
407.645	397.57
408.023	403.45
408.401	397.35
408.779	419.49
409.156	403.9
409.534	419.49
409.912	398.03
410.29	433.28
410.667	426.05
411.045	420.4
411.422	429.89
411.8	445.03
412.178	427.86
412.555	427.18
412.933	455.65
413.31	446.16
413.687	443.9
414.065	444.8
414.442	443.9
414.819	430.57
415.197	469.21
415.574	448.42
415.951	434.18
416.328	450.23
416.705	449.32
417.082	454.3
417.46	473.05
417.837	463.56
418.214	465.6
418.591	483.45
418.967	489.55
419.344	486.39
419.721	475.54
420.098	493.84
420.475	487.29
420.852	472.6
421.228	492.26
421.605	484.58
421.982	485.26
422.358	490.68
422.735	510.11
423.111	506.27
423.488	499.27
423.864	521.86
424.241	525.03
424.617	537.23
424.994	514.18
425.37	507.18
425.746	499.94
426.123	537.91
426.499	547.63
426.875	560.73
427.251	559.6
427.627	543.11
428.003	555.54
428.379	570.9
428.756	556.21
429.132	554.63
429.507	578.13
429.883	573.84
430.259	566.61
430.635	570.9
431.011	569.1
431.387	567.29
431.763	567.06
432.138	587.85
432.514	594.86
432.89	598.7
433.265	614.07
433.641	595.31
434.016	604.8
434.392	643.67
434.767	620.17
435.143	616.55
435.518	638.02
435.894	631.69
436.269	607.51
436.644	618.13
437.02	640.73
437.395	657.45
437.77	659.26
438.145	645.25
438.52	681.63
438.895	671.92
439.271	674.86
439.646	658.58
440.021	683.44
440.395	692.03
440.77	703.1
441.145	691.35
441.52	701.3
441.895	712.59
442.27	678.47
442.645	694.29
443.019	699.94
443.394	687.74
443.769	711.92
444.143	710.11
444.518	719.37
444.892	722.54
445.267	732.48
445.641	733.61
446.016	734.74
446.39	732.93
446.764	731.35
447.139	747.85
447.513	757.11
447.887	753.27
448.262	764.8
448.636	752.37
449.01	778.36
449.384	754.85
449.758	787.39
450.132	785.81
450.506	790.11
450.88	796.43
451.254	802.08
451.628	801.41
452.002	821.07
452.376	807.73
452.75	821.07
453.123	810.44
453.497	836.21
453.871	852.93
454.244	838.69
454.618	862.65
454.992	861.74
455.365	861.74
455.739	874.17
456.112	887.28
456.486	897.22
456.859	904.91
457.232	919.82
457.606	884.79
457.979	912.59
458.352	961.85
458.725	941.74
459.099	949.42
459.472	965.24
459.845	978.8
460.218	982.64
460.591	997.56
460.964	997.56
461.337	1012.02
461.71	1042.08
462.083	1045.47
462.456	1044.56
462.829	1066.71
463.201	1076.2
463.574	1068.74
463.947	1107.84
464.32	1118.23
464.692	1134.96
465.065	1137.44
465.438	1165.46
465.81	1173.37
466.183	1190.77
466.555	1209.76
466.928	1248.63
467.3	1248.85
467.672	1241.17
468.045	1292.01
468.417	1308.96
468.789	1314.39
469.161	1344.67
469.534	1389.64
469.906	1384.44
470.278	1401.39
470.65	1414.95
471.022	1473.48
471.394	1480.94
471.766	1495.17
472.138	1530.2
472.51	1566.36
472.882	1584.66
473.253	1654.72
473.625	1681.83
473.997	1711.89
474.369	1742.17
474.74	1802.28
475.112	1816.07
475.484	1829.63
475.855	1910.08
476.227	1958.21
476.598	2020.13
476.97	2033.24
477.341	2107.59
477.713	2202.95
478.084	2230.29
478.455	2281.14
478.827	2345.09
479.198	2434.58
479.569	2458.54
479.94	2536.05
480.311	2621.92
480.682	2698.98
481.053	2773.11
481.424	2906.66
481.795	2896.72
482.166	3016.49
482.537	3111.85
482.908	3236.6
483.279	3291.28
483.65	3337.84
484.021	3482.92
484.391	3613.08
484.762	3668.67
485.133	3764.94
485.503	3880.19
485.874	4047.87
486.244	4156.12
486.615	4276.79
486.985	4348.88
487.356	4463.46
487.726	4570.35
488.097	4789.55
488.467	4846.5
488.837	4985.02
489.207	5089.2
489.578	5246.26
489.948	5368.07
490.318	5514.05
490.688	5619.58
491.058	5759.24
491.428	5934.6
491.798	6076.97
492.168	6246.01
492.538	6436.29
492.908	6504.08
493.278	6691.19
493.648	6743.17
494.017	6909.04
494.387	7084.63
494.757	7216.15
495.126	7341.57
495.496	7516.48
495.866	7670.83
496.235	7847.77
496.605	7947.88
496.974	8122.34
497.344	8301.1
497.713	8442.79
498.082	8553.07
498.452	8690.69
498.821	8828.99
499.19	8949.89
499.559	9087.29
499.928	9246.61
500.298	9368.64
500.667	9588.29
501.036	9637.11
501.405	9809.76
501.774	9914.16
502.143	10101.27
502.512	10232.12
502.88	10438.21
503.249	10486.35
503.618	10518.66
503.987	10709.17
504.356	10913.46
504.724	11019.44
505.093	11126.33
505.462	11244.29
505.83	11400.67
506.199	11518.64
506.567	11771.74
506.936	11814
507.304	12023.94
507.672	12053.99
508.041	12231.84
508.409	12359.97
508.777	12504.6
509.145	12649
509.514	12757.48
509.882	12902.56
510.25	13079.27
510.618	13105.71
510.986	13209.21
511.354	13383.9
511.722	13612.59
512.09	13733.49
512.458	13762.65
512.826	13896.43
513.193	14009.87
513.561	14157.66
513.929	14259.58
514.297	14479.01
514.664	14603.3
515.032	14643.3
515.4	14831.09
515.767	15004.42
516.135	15074.48
516.502	15054.59
516.869	15325.09
517.237	15407.8
517.604	15448.25
517.972	15668.36
518.339	15749.49
518.706	15897.05
519.073	15966.66
519.44	16097.5
519.808	16318.29
520.175	16355.57
520.542	16557.15
520.909	16694.55
521.276	16761.66
521.643	16954.88
522.009	17113.74
522.376	17284.36
522.743	17342.21
523.11	17529.33
523.477	17756.21
523.843	17867.17
524.21	18034.17
524.577	18214.73
524.943	18273.49
525.31	18261.74
525.676	18602.29
526.043	18638.22
526.409	18795.28
526.776	19016.29
527.142	19094.03
527.508	19180.36
527.874	19441.59
528.241	19431.88
528.607	19511.2
528.973	19722.04
529.339	19776.73
529.705	20073.44
530.071	20195.7
530.437	20264.85
530.803	20407.44
531.169	20423.04
531.535	20469.81
531.901	20554.11
532.267	20723.37
532.632	20900.31
532.998	20856.7
533.364	21067.54
533.73	21053.08
534.095	21347.08
534.461	21418.26
534.826	21555.89
535.192	21550.69
535.557	21821.19
535.923	21734.87
536.288	21798.82
536.653	22011.92
537.019	22074.52
537.384	22030.9
537.749	22228.41
538.114	22247.4
538.479	22351.35
538.845	22413.72
539.21	22439.48
539.575	22437.9
539.94	22709.08
540.305	22833.82
540.67	22774.16
541.034	22838.79
541.399	22966.7
541.764	23078.11
542.129	23023.87
542.494	23245.34
542.858	23321.94
543.223	23230.65
543.587	23459.34
543.952	23462.28
544.316	23597.87
544.681	23588.83
545.045	23788.82
545.41	23922.61
545.774	23899.33
546.138	23916.73
546.503	24026.33
546.867	23991.98
547.231	24166.44
547.595	24149.04
547.959	24269.26
548.324	24267.46
548.688	24379.77
549.052	24512.65
549.416	24530.27
549.779	24561.23
550.143	24722.13
550.507	24981.56
550.871	24956.25
551.235	24987.44
551.599	25102.69
551.962	25191.72
552.326	25332.29
552.689	25471.49
553.053	25356.24
553.417	25323.7
553.78	25790.8
554.143	25588.32
554.507	25868.77
554.87	25856.79
555.234	26110.57
555.597	25966.39
555.96	26158.48
556.323	26283.22
556.686	26361.41
557.05	26459.49
557.413	26615.87
557.776	26627.62
558.139	26767.28
558.502	26867.61
558.865	26925.24
559.228	27111
559.59	27261.95
559.953	27294.49
560.316	27609.97
560.679	27496.52
561.041	27730.64
561.404	27855.38
561.767	28091.54
562.129	27896.74
562.492	28334.47
562.854	28151.42
563.217	28279.55
563.579	28456.5
563.941	28639.32
564.304	28625.08
564.666	28802.25
565.028	28984.39
565.39	29025.07
565.753	29270.49
566.115	29319.75
566.477	29420.54
566.839	29551.38
567.201	29828.44
567.563	29815.78
567.925	29966.97
568.287	30079.51
568.648	30093.97
569.01	30215.1
569.372	30346.62
569.734	30291.25
570.095	30495.54
570.457	30706.83
570.819	30712.94
571.18	30705.03
571.542	30978.01
571.903	30961.52
572.265	31133.26
572.626	31125.35
572.987	31249.87
573.349	31298.46
573.71	31433.59
574.071	31606.25
574.432	31729.18
574.794	31990.19
575.155	31882.17
575.516	31773.25
575.877	32095.5
576.238	32046.23
576.599	32201.71
576.96	32186.12
577.32	32221.37
577.681	32346.79
578.042	32477.86
578.403	32544.53
578.763	32538.2
579.124	32604.86
579.485	32764.18
579.845	32825.65
580.206	32771.19
580.566	32696.84
580.927	32817.96
581.287	32961.46
581.648	32808.93
582.008	32996.72
582.368	32986.1
582.728	33010.73
583.089	32999.43
583.449	32998.98
583.809	32974.8
584.169	33118.07
584.529	32925.08
584.889	33185.64
585.249	33078.97
585.609	33131.18
585.969	33169.82
586.329	33096.38
586.688	33311.74
587.048	33234.23
587.408	33278.07
587.768	33214.79
588.127	33256.37
588.487	33196.71
588.846	33507.21
589.206	33226.99
589.565	33278.97
589.925	33343.37
590.284	33309.93
590.643	33409.36
591.003	33417.27
591.362	33498.4
591.721	33420.21
592.08	33531.84
592.44	33566.65
592.799	33558.96
593.158	33474.9
593.517	33502.24
593.876	33645.51
594.235	33537.72
594.593	33606.87
594.952	33676.47
595.311	33617.04
595.67	33729.35
596.029	33900.87
596.387	33832.18
596.746	33984.94
597.104	33789.24
597.463	33805.96
597.822	33972.96
598.18	33884.83
598.538	33892.06
598.897	34125.28
599.255	33866.98
599.613	34286.85
599.972	34101.32
600.33	34252.5
600.688	34100.64
601.046	34268.32
601.404	34378.83
601.762	34229.68
602.12	34577.47
602.478	34497.24
602.836	34406.85
603.194	34334.54
603.552	34439.62
603.91	34405.04
604.268	34628.09
604.625	34490.92
604.983	34559.39
605.341	34403.91
605.698	34825.37
606.056	34684.81
606.413	34722.32
606.771	34910.57
607.128	34814.97
607.485	34751.7
607.843	34972.94
608.2	34993.73
608.557	35166.38
608.914	35058.13
609.272	35346.94
609.629	35412.47
609.986	35436.2
610.343	35382.87
610.7	35720.04
611.057	35502.87
611.414	35665.12
611.771	35564.56
612.127	35691.34
612.484	35834.16
612.841	35982.4
613.198	35765.23
613.554	35814.5
613.911	36087.71
614.267	36042.06
614.624	36135.17
614.98	36076.64
615.337	36309.85
615.693	36120.93
616.05	36306.01
616.406	36395.5
616.762	36323.64
617.118	36324.09
617.475	36384.2
617.831	36528.38
618.187	36571.76
618.543	36492.22
618.899	36792.78
619.255	36691.99
619.611	36671.87
619.967	36787.58
620.323	36906.9
620.678	36793.23
621.034	36828.93
621.39	36771.53
621.746	36813.34
622.101	37111.41
622.457	36823.51
622.812	37077.06
623.168	37160.68
623.523	37091.07
623.879	37295.36
624.234	36939.66
624.589	37144.4
624.945	37250.39
625.3	37363.38
625.655	37301.01
626.01	37385.98
626.365	37352.08
626.72	37330.84
627.075	37261.24
627.43	37336.49
627.785	37332.42
628.14	37348.24
628.495	37350.95
628.85	37342.37
629.205	37279.09
629.559	37614
629.914	37386.88
630.269	37376.49
630.623	37307.56
630.978	37200.22
631.332	37384.62
631.687	37511.63
632.041	37256.72
632.396	37270.28
632.75	37134.01
633.104	37280.45
633.459	37159.32
633.813	37077.29
634.167	37155.48
634.521	37099.89
634.875	37104.86
635.229	37101.02
635.583	36934.69
635.937	36971.3
636.291	36981.92
636.645	36923.62
636.999	36879.33
637.352	36943.96
637.706	36753.45
638.06	36932.43
638.413	36864.41
638.767	36804.75
639.121	36830.06
639.474	36582.61
639.828	36804.3
640.181	36727.92
640.534	36914.35
640.888	36581.71
641.241	36574.02
641.594	36577.19
641.947	36685.66
642.301	36541.48
642.654	36697.64
643.007	36695.6
643.36	36523.4
643.713	36425.33
644.066	36632.33
644.419	36378.78
644.771	36184.88
645.124	35897.66
645.477	35718.91
645.83	35681.84
646.182	35457.9
646.535	35361.85
646.888	35273.72
647.24	35219.94
647.593	35410.44
647.945	35268.97
648.298	35251.35
648.65	35166.6
649.002	35026.95
649.355	35236.43
649.707	35115.76
650.059	35234.17
650.411	35613.15
650.763	35779.69
651.115	36127.26
651.467	35943.53
651.819	35945.57
652.171	35898.56
652.523	35820.82
652.875	35751.45
653.227	35644.56
653.578	35962.29
653.93	35695.63
654.282	35701.05
654.633	35616.54
654.985	35678.23
655.337	35663.77
655.688	35730.66
656.039	35787.6
656.391	35390.78
656.742	35497.89
657.094	35557.78
657.445	35731.56
657.796	35556.2
658.147	35484.34
658.498	35561.85
658.849	35636.87
659.2	35496.76
659.551	35328.18
659.902	35678
660.253	35620.38
660.604	35511.91
660.955	35415.86
661.306	35443.43
661.656	35451.34
662.007	35392.36
662.358	35370.67
662.708	35365.92
663.059	35371.8
663.409	35264.68
663.76	35372.02
664.11	35207.96
664.461	35362.53
664.811	35342.42
665.161	35347.62
665.511	35184.46
665.862	35275.98
666.212	35340.16
666.562	35345.13
666.912	35269.65
667.262	35262.19
667.612	35261.29
667.962	35353.27
668.312	35238.47
668.662	35465.58
669.011	35346.03
669.361	35161.86
669.711	35165.02
670.06	35099.49
670.41	35002.31
670.76	35091.58
671.109	35152.59
671.459	35186.94
671.808	35041.41
672.157	35249.31
672.507	34951.92
672.856	34802.55
673.205	34969.77
673.554	35125.7
673.904	34917.57
674.253	35068.53
674.602	35035.31
674.951	34531.14
675.3	34326.85
675.649	34755.99
675.998	34857.01
676.346	34845.93
676.695	34854.07
677.044	34614.75
677.393	34817.01
677.741	34895.88
678.09	34683.23
678.438	34788.76
678.787	34801.87
679.135	34690.68
679.484	34549.44
679.832	34666.5
680.181	34470.35
680.529	34626.96
680.877	34447.98
681.225	34515.32
681.573	34585.38
681.922	34364.36
682.27	34198.27
682.618	34110.59
682.966	34158.49
683.314	34231.26
683.661	34090.7
684.009	33939.07
684.357	33848.9
684.705	33929.8
685.053	33872.4
685.4	33850.93
685.748	33693.65
686.095	33635.34
686.443	33471.05
686.79	33393.54
687.138	33692.74
687.485	33542.24
687.832	33408.46
688.18	33410.27
688.527	33258.41
688.874	33392.64
689.221	33216.15
689.568	33048.92
689.915	33124.62
690.262	32997.62
690.609	32895.02
690.956	32827.46
691.303	32871.3
691.65	32669.95
691.997	32759.66
692.344	32391.76
692.69	32548.37
693.037	32393.34
693.383	32111.77
693.73	32358.99
694.077	32112.67
694.423	32152.22
694.769	31975.95
695.116	31894.37
695.462	31796.52
695.808	31750.42
696.155	31919.91
696.501	31610.76
696.847	31568.05
697.193	31381.39
697.539	31571.9
697.885	31265.69
698.231	31167.61
698.577	31123.32
698.923	31170.78
699.269	30983.44
699.614	30734.4
699.96	30782.76
700.306	30875.42
700.651	30704.8
700.997	30564.69
701.342	30578.02
701.688	30468.65
702.033	30491.02
702.379	30374.87
702.724	30181.65
703.069	30347.97
703.415	30010.81
703.76	30122.22
704.105	30071.82
704.45	30027.3
704.795	29879.06
705.14	29767.2
705.485	29832.73
705.83	29512.74
706.175	29586.64
706.52	29526.75
706.865	29362.01
707.209	29268.45
707.554	29205.63
707.899	29354.55
708.243	29100.77
708.588	29045.63
708.932	28844.28
709.277	28859.42
709.621	28831.18
709.966	28804.74
710.31	28851.52
710.654	28530.85
710.998	28644.74
711.342	28557.06
711.687	28463.28
712.031	28423.73
712.375	28340.34
712.719	28359.78
713.063	28269.16
713.407	28360
713.75	28185.54
714.094	28167.69
714.438	28224.87
714.782	28079.11
715.125	27940.58
715.469	28003.85
715.812	27772.22
716.156	27716.63
716.499	27873.46
716.843	27719.79
717.186	27528.39
717.53	27825.78
717.873	27637.76
718.216	27574.03
718.559	27490.2
718.902	27260.82
719.246	27392.8
719.589	27226.25
719.932	27094.5
720.275	27287.26
720.617	27092.92
720.96	26993.71
721.303	26989.64
721.646	26901.51
721.989	27004.78
722.331	27003.2
722.674	26944.45
723.016	26815.86
723.359	26770.67
723.701	26927.27
724.044	26687.73
724.386	26593.04
724.729	26655.19
725.071	26642.99
725.413	26588.3
725.755	26591.24
726.097	26541.29
726.439	26345.37
726.782	26313.73
727.124	26442.54
727.465	26209.78
727.807	26488.87
728.149	26253.62
728.491	26218.82
728.833	26228.08
729.175	26045.04
729.516	25953.29
729.858	25950.8
730.199	26010.91
730.541	25820.63
730.882	25853.85
731.224	25916.9
731.565	25868.77
731.906	25856.79
732.248	25788.09
732.589	25710.81
732.93	25535.67
733.271	25623.35
733.612	25614.54
733.953	25513.98
734.294	25536.8
734.635	25475.11
734.976	25498.38
735.317	25329.12
735.658	25313.08
735.999	25326.64
736.339	25227.2
736.68	25298.84
737.021	25152.4
737.361	25110.82
737.702	25244.15
738.042	25244.15
738.383	25029.47
738.723	25116.47
739.063	25002.8
739.404	25040.32
739.744	24948.79
740.084	24870.83
740.424	24973.43
740.764	24869.02
741.104	24847.1
741.444	24745.86
741.784	24673.77
742.124	24717.16
742.464	24743.83
742.804	24645.3
743.143	24607.33
743.483	24572.31
743.823	24516.04
744.162	24400.33
744.502	24528.69
744.841	24393.55
745.181	24373.44
745.52	24279.88
745.86	24306.1
746.199	24254.35
746.538	24196.27
746.877	24291.64
747.216	24204.86
747.556	24181.81
747.895	24119.89
748.234	23955.15
748.573	23936.16
748.911	23926.67
749.25	23920.12
749.589	23861.14
749.928	23842.16
750.267	23863.62
750.605	23721.71
750.944	23705.21
751.283	23613.69
751.621	23664.76
751.96	23545.67
752.298	23573.46
752.636	23664.99
752.975	23429.06
753.313	23318.33
753.651	23468.83
753.989	23290.08
754.327	23281.94
754.666	23167.82
755.004	23179.8
755.342	23220.93
755.679	23208.05
756.017	22952.69
756.355	23029.07
756.693	22937.77
757.031	22929.86
757.368	22779.81
757.706	22749.08
758.044	22634.5
758.381	22644.22
758.719	22578.23
759.056	22590.89
759.394	22547.95
759.731	22381.18
760.068	22305.47
760.405	22175.98
760.743	22184.35
761.08	22221.18
761.417	21998.59
761.754	22082.2
762.091	21992.03
762.428	21953.62
762.765	21782.77
763.102	21762.44
763.438	21637.47
763.775	21649.22
764.112	21658.48
764.449	21648.31
764.785	21507.75
765.122	21296.69
765.458	21332.39
765.795	21350.7
766.131	21188.44
766.467	21238.83
766.804	21068.67
767.14	21016.69
767.476	20960.42
767.812	20870.71
768.148	20871.84
768.485	20698.28
768.821	20797.72
769.157	20643.82
769.492	20578.74
769.828	20587.1
770.164	20352.98
770.5	20381.23
770.836	20322.25
771.171	20168.13
771.507	20163.83
771.842	19974.46
772.178	20050.84
772.513	20052.42
772.849	19847.01
773.184	19821.47
773.519	19768.59
773.855	19615.6
774.19	19627.35
774.525	19603.4
774.86	19495.83
775.195	19474.13
775.53	19341.93
775.865	19246.34
776.2	19161.15
776.535	19090.64
776.87	19060.36
777.205	18874.83
777.539	18946.92
777.874	18929.52
778.209	18684.1
778.543	18690.88
778.878	18609.52
779.212	18633.7
779.547	18431.22
779.881	18530.2
780.215	18376.76
780.55	18415.86
780.884	18276.88
781.218	18102.87
781.552	18112.14
781.886	18094.06
782.22	18038.24
782.554	17926.15
782.888	17848.64
783.222	17767.97
783.556	17678.25
783.889	17624.69
784.223	17454.53
784.557	17450.91
784.89	17468.76
785.224	17396.22
785.557	17229.67
785.891	17232.16
786.224	17174.53
786.558	17201.88
786.891	16999.4
787.224	16947.42
787.557	16910.36
787.891	16913.75
788.224	16870.59
788.557	16840.98
788.89	16856.35
789.223	16763.92
789.556	16534.55
789.888	16544.72
790.221	16379.07
790.554	16377.72
790.887	16401.9
791.219	16344.95
791.552	16307.44
791.884	16219.08
792.217	16051.85
792.549	16111.96
792.882	16005.98
793.214	15957.62
793.546	15994.23
793.879	15879.43
794.211	15765.76
794.543	15866.77
794.875	15699.77
795.207	15815.7
795.539	15648.25
795.871	15618.19
796.203	15544.29
796.535	15420
796.867	15399.67
797.198	15334.81
797.53	15254.36
797.862	15231.99
798.193	15235.6
798.525	15207.81
798.856	15180.69
799.188	15050.52
799.519	14970.98
799.85	14902.73
800.182	14872
800.513	14863.41
800.844	14752.23
801.175	14852.34
801.506	14774.37
801.837	14692.79
802.168	14701.6
802.499	14587.71
802.83	14552.91
803.161	14476.98
803.491	14522.17
803.822	14457.32
804.153	14427.26
804.483	14303.88
804.814	14240.6
805.145	14289.64
805.475	14275.85
805.805	14153.6
806.136	14161.96
806.466	14171.45
806.796	14115.63
807.126	13969.65
807.457	13971
807.787	13958.35
808.117	13918.12
808.447	13818.46
808.777	13866.6
809.107	13809.43
809.436	13790.89
809.766	13806.49
810.096	13726.72
810.426	13669.99
810.755	13613.95
811.085	13621.86
811.414	13558.36
811.744	13460.28
812.073	13450.11
812.403	13420.28
812.732	13358.59
813.061	13316.78
813.39	13274.75
813.719	13262.32
814.049	13281.3
814.378	13239.5
814.707	13189.33
815.036	13162.44
815.365	13055.77
815.693	12957.92
816.022	12954.08
816.351	12953.4
816.68	12923.35
817.008	12926.51
817.337	12868.66
817.665	12793.86
817.994	12823.91
818.322	12800.41
818.651	12709.57
818.979	12676.57
819.307	12692.84
819.636	12754.54
819.964	12588.44
820.292	12650.81
820.62	12647.65
820.948	12614.65
821.276	12600.87
821.604	12512.06
821.932	12526.75
822.259	12566.29
822.587	12550.25
822.915	12528.78
823.243	12596.12
823.57	12485.17
823.898	12512.28
824.225	12491.72
824.553	12496.01
824.88	12506.86
825.207	12480.87
825.535	12499.85
825.862	12511.83
826.189	12460.53
826.516	12540.08
826.843	12603.58
827.17	12597.03
827.497	12525.62
827.824	12439.52
828.151	12517.93
828.478	12524.94
828.805	12553.64
829.131	12387.09
829.458	12438.61
829.785	12374.89
830.111	12412.85
830.438	12499.85
830.764	12444.26
831.09	12415.11
831.417	12377.37
831.743	12449.69
832.069	12381.89
832.395	12392.29
832.722	12373.53
833.048	12345.28
833.374	12443.36
833.7	12291.95
834.026	12351.16
834.351	12321.78
834.677	12395.9
835.003	12322.23
835.329	12284.27
835.654	12328.33
835.98	12285.4
836.306	12275.91
836.631	12163.59
836.956	12265.51
837.282	12205.17
837.607	12167.43
837.932	12101
838.258	12150.03
838.583	12144.61
838.908	12132.86
839.233	12093.31
839.558	12058.28
839.883	11978.06
840.208	11948.91
840.533	11969.7
840.858	11936.93
841.182	12032.52
841.507	11952.52
841.832	11929.02
842.156	11826.43
842.481	11811.06
842.805	11773.32
843.13	11780.55
843.454	11748.01
843.778	11713.21
844.103	11713.89
844.427	11689.25
844.751	11652.19
845.075	11602.7
845.399	11589.6
845.723	11524.29
846.047	11564.96
846.371	11394.12
846.695	11471.63
847.019	11316.84
847.343	11333.56
847.666	11228.93
847.99	11190.06
848.313	11187.8
848.637	11104.19
848.96	11147.35
849.284	11016.5
849.607	10948.26
849.931	10972.89
850.254	10918.2
850.577	10825.55
850.9	10791.88
851.223	10740.58
851.546	10716.4
851.869	10666.23
852.192	10722.73
852.515	10576.97
852.838	10499
853.161	10520.47
853.483	10510.08
853.806	10423.3
854.129	10398.22
854.451	10366.13
854.774	10395.5
855.096	10193.7
855.419	10278.67
855.741	10271.66
856.063	10229.41
856.385	10202.97
856.708	10126.13
857.03	10118
857.352	10109.64
857.674	10053.14
857.996	10014.27
858.318	9959.81
858.64	10001.62
858.961	9929.53
859.283	9988.51
859.605	9800.94
859.926	9890.66
860.248	9851.11
860.57	9826.48
860.891	9816.31
861.212	9759.81
861.534	9789.64
861.855	9768.85
862.176	9711
862.498	9728.63
862.819	9681.4
863.14	9676.43
863.461	9596.2
863.782	9536.77
864.103	9611.57
864.424	9567.28
864.745	9598.01
865.065	9485.02
865.386	9492.7
865.707	9529.09
866.027	9495.87
866.348	9450.67
866.668	9495.19
866.989	9454.06
867.309	9436.43
867.63	9339.49
867.95	9438.47
868.27	9340.62
868.59	9387.39
868.91	9339.71
869.23	9329.32
869.55	9244.8
869.87	9342.65
870.19	9280.28
870.51	9258.81
870.83	9285.48
871.15	9196.21
871.469	9188.76
871.789	9265.82
872.109	9209.09
872.428	9140.85
872.748	9197.57
873.067	9149.43
873.386	9149.43
873.706	9113.28
874.025	9066.05
874.344	9094.07
874.663	9113.05
874.982	9041.64
875.301	9095.2
875.62	8954.19
875.939	9031.7
876.258	8956.45
876.577	8914.64
876.896	8937.69
877.214	8910.57
877.533	9001.64
877.852	8897.01
878.17	8928.42
878.489	8916.67
878.807	8818.82
879.125	8900.63
879.444	8790.12
879.762	8805.04
880.08	8845.71
880.398	8775.21
880.716	8850.01
881.034	8762.33
881.352	8728.43
881.67	8719.84
881.988	8733.63
882.306	8642.1
882.624	8654.76
882.941	8580.86
883.259	8575.89
883.577	8570.24
883.894	8598.49
884.212	8535.89
884.529	8505.61
884.846	8545.16
885.164	8503.8
885.481	8456.12
885.798	8466.97
886.115	8377.7
886.432	8443.92
886.75	8345.61
887.067	8419.28
887.383	8367.99
887.7	8345.16
888.017	8367.31
888.334	8336.12
888.651	8300.64
888.967	8344.71
889.284	8198.95
889.6	8230.14
889.917	8180.87
890.233	8083.47
890.55	8112.63
890.866	8111.27
891.182	8157.14
891.498	8039.86
891.815	8041.22
892.131	8067.88
892.447	7990.37
892.763	8024.49
893.079	7942.69
893.395	7903.82
893.71	7945.17
894.026	7892.97
894.342	7850.49
894.657	7781.79
894.973	7795.8
895.289	7773.43
895.604	7820.88
895.92	7714.9
896.235	7665.41
896.55	7737.49
896.865	7631.51
897.181	7617.95
897.496	7633.54
897.811	7624.95
898.126	7605.97
898.441	7540.89
898.756	7546.76
899.071	7479.2
899.386	7495.92
899.7	7448.69
900.015	7440.55
900.33	7333.21
900.644	7329.6
900.959	7295.47
901.273	7308.58
901.588	7275.81
901.902	7215.02
902.216	7204.4
902.531	7235.13
902.845	7164.85
903.159	7093.9
903.473	7129.83
903.787	7044.86
904.101	7027.46
904.415	7053.22
904.729	6996.95
905.042	7001.47
905.356	6946.1
905.67	6984.52
905.984	6935.93
906.297	6892.09
906.611	6837.18
906.924	6832.89
907.237	6831.3
907.551	6759.67
907.864	6721.48
908.177	6753.79
908.491	6758.99
908.804	6697.07
909.117	6618.65
909.43	6658.65
909.743	6619.78
910.056	6545.44
910.368	6592.21
910.681	6512.89
910.994	6489.62
911.307	6462.27
911.619	6389.73
911.932	6477.19
912.244	6384.76
912.557	6357.87
912.869	6309.28
913.181	6276.97
913.494	6277.19
913.806	6217.53
914.118	6199.23
914.43	6226.8
914.742	6237.65
915.054	6153.13
915.366	6126.01
915.678	6097.76
915.99	6096.86
916.302	6048.05
916.613	6021.38
916.925	6010.08
917.236	5997.88
917.548	5936.64
917.859	5953.36
918.171	5900.03
918.482	5872.46
918.794	5863.42
919.105	5881.5
919.416	5799.69
919.727	5782.52
920.038	5737.77
920.349	5758.56
920.66	5695.06
920.971	5703.2
921.282	5706.59
921.593	5653.71
921.903	5627.72
922.214	5672.46
922.525	5575.97
922.835	5591.34
923.146	5542.98
923.456	5518.34
923.767	5460.49
924.077	5491.23
924.387	5467.5
924.697	5460.27
925.008	5425.46
925.318	5420.27
925.628	5359.7
925.938	5376.43
926.248	5290.1
926.558	5246.26
926.867	5255.75
927.177	5258.46
927.487	5179.6
927.796	5163.32
928.106	5213.27
928.416	5144.79
928.725	5143.66
929.034	5108.64
929.344	5107.05
929.653	5036.77
929.962	5056.21
930.271	5045.36
930.581	5007.4
930.89	4941.86
931.199	4960.84
931.508	4940.05
931.817	4927.4
932.125	4906.61
932.434	4870.45
932.743	4807.63
933.051	4858.47
933.36	4849.43
933.669	4783
933.977	4774.41
934.286	4748.42
934.594	4763.79
934.902	4691.25
935.21	4659.61
935.519	4678.82
935.827	4699.16
936.135	4639.95
936.443	4620.97
936.751	4634.3
937.059	4526.05
937.367	4589.1
937.674	4550.23
937.982	4512.72
938.29	4467.07
938.597	4511.36
938.905	4409.22
939.213	4413.29
939.52	4394.31
939.827	4432.95
940.135	4409.45
940.442	4354.31
940.749	4338.26
941.056	4390.46
941.363	4307.75
941.67	4337.81
941.977	4295.1
942.284	4261.43
942.591	4277.92
942.898	4213.75
943.205	4250.13
943.511	4148.21
943.818	4154.31
944.125	4140.07
944.431	4088.32
944.738	4094.88
945.044	4115.89
945.35	4073.41
945.657	4058.95
945.963	4028.67
946.269	4013.75
946.575	4002.68
946.881	3944.83
947.187	3963.36
947.493	3997.25
947.799	3944.15
948.105	3958.61
948.41	3910.25
948.716	3862.79
949.022	3858.5
949.327	3905.5
949.633	3800.87
949.938	3819.86
950.244	3839.29
950.549	3816.92
950.854	3786.64
951.16	3743.7
951.465	3753.19
951.77	3724.72
952.075	3723.59
952.38	3731.95
952.685	3713.19
952.99	3649.47
953.294	3628.45
953.599	3635.23
953.904	3638.39
954.209	3571.28
954.513	3611.28
954.818	3561.56
955.122	3550.26
955.426	3557.27
955.731	3536.25
956.035	3471.17
956.339	3518.85
956.643	3456.7
956.948	3487.44
957.252	3458.06
957.556	3470.71
957.86	3421
958.163	3384.16
958.467	3373.77
958.771	3412.86
959.075	3385.52
959.378	3344.16
959.682	3354.78
959.985	3320.89
960.289	3305.75
960.592	3297.16
960.896	3251.96
961.199	3245.86
961.502	3279.76
961.805	3222.58
962.108	3233.88
962.411	3181.68
962.714	3187.56
963.017	3199.76
963.32	3155.92
963.623	3130.16
963.926	3115.02
964.228	3108.92
964.531	3109.37
964.833	3086.09
965.136	3072.98
965.438	3064.17
965.741	3082.25
966.043	3055.81
966.345	3055.36
966.648	3017.17
966.95	3025.75
967.252	3007.45
967.554	2945.08
967.856	2995.25
968.158	2969.48
968.46	2952.99
968.761	2953.21
969.063	2922.71
969.365	2903.95
969.666	2866.89
969.968	2912.76
970.269	2905.53
970.571	2885.87
970.872	2830.05
971.174	2837.74
971.475	2842.71
971.776	2825.76
972.077	2810.62
972.378	2803.61
972.679	2821.92
972.98	2792.77
973.281	2724.29
973.582	2708.7
973.883	2727.91
974.183	2733.11
974.484	2736.72
974.785	2735.59
975.085	2701.92
975.386	2683.16
975.686	2656.27
975.986	2634.58
976.287	2647.01
976.587	2617.63
976.887	2612.88
977.187	2591.87
977.487	2596.84
977.787	2613.56
978.087	2552.32
978.387	2530.63
978.687	2549.38
978.987	2526.11
979.286	2533.34
979.586	2507.12
979.885	2511.19
980.185	2474.13
980.484	2518.87
980.784	2479.55
981.083	2437.29
981.382	2469.84
981.682	2446.79
981.981	2427.13
982.28	2421.25
982.579	2402.04
982.878	2413.79
983.177	2385.09
983.475	2406.11
983.774	2364.53
984.073	2401.59
984.372	2336.73
984.67	2340.8
984.969	2318.65
985.267	2311.2
985.566	2312.1
985.864	2304.87
986.162	2256.28
986.461	2257.41
986.759	2242.95
987.057	2230.29
987.355	2252.89
987.653	2255.83
987.951	2209.73
988.249	2225.55
988.547	2181.71
988.844	2185.32
989.142	2218.54
989.44	2168.15
989.737	2151.65
990.035	2154.36
990.332	2116.85
990.63	2150.07
990.927	2109.85
991.224	2135.61
991.521	2144.2
991.819	2085.44
992.116	2068.26
992.413	2060.58
992.71	2085.89
993.006	2050.41
993.303	2047.25
993.6	2035.27
993.897	2045.44
994.193	2047.93
994.49	2005.44
994.787	2017.19
995.083	1977.19
995.379	1974.93
995.676	1975.16
995.972	1952.34
996.268	1955.27
996.565	1948.27
996.861	1943.97
997.157	1929.06
997.453	1922.73
997.749	1949.85
998.044	1923.86
998.34	1889.96
998.636	1901.72
998.932	1895.84
999.227	1856.07
999.523	1830.08
999.818	1877.54
1000.114	1845.67
1000.409	1831.21
1000.704	1806.12
1001	1819.01
1001.295	1788.05
1001.59	1813.81
1001.885	1808.84
1002.18	1779.23
1002.475	1782.4
1002.77	1753.7
1003.065	1750.53
1003.359	1741.49
1003.654	1752.11
1003.949	1716.64
1004.243	1710.08
1004.538	1695.85
1004.832	1680.03
1005.127	1708.5
1005.421	1677.99
1005.715	1627.37
1006.009	1665.11
1006.304	1652.46
1006.598	1640.03
1006.892	1597.32
1007.186	1620.59
1007.48	1644.55
1007.773	1595.51
1008.067	1593.02
1008.361	1572.46
1008.655	1582.85
1008.948	1572.46
1009.242	1563.19
1009.535	1553.48
1009.829	1548.96
1010.122	1526.81
1010.415	1533.36
1010.708	1539.92
1011.001	1518.22
1011.295	1489.07
1011.588	1528.62
1011.881	1493.82
1012.173	1447.26
1012.466	1474.16
1012.759	1510.54
1013.052	1436.64
1013.344	1433.48
1013.637	1444.1
1013.93	1429.41
1014.222	1435.74
1014.514	1410.43
1014.807	1406.59
1015.099	1388.73
1015.391	1381.28
1015.683	1368.17
1015.976	1372.01
1016.268	1369.3
1016.56	1360.03
1016.851	1347.38
1017.143	1326.36
1017.435	1324.56
1017.727	1318.23
1018.018	1282.52
1018.31	1317.32
1018.602	1297.21
1018.893	1298.57
1019.185	1289.75
1019.476	1281.84
1019.767	1287.04
1020.058	1281.62
1020.35	1237.78
1020.641	1243.65
1020.932	1247.95
1021.223	1246.14
1021.514	1215.18
1021.804	1222.19
1022.095	1202.98
1022.386	1207.5
1022.677	1190.55
1022.967	1184.9
1023.258	1174.73
1023.548	1183.54
1023.839	1151.68
1024.129	1169.31
1024.419	1136.09
1024.709	1144.22
1025	1128.18
1025.29	1130.89
1025.58	1125.69
1025.87	1085.92
1026.16	1075.3
1026.449	1105.35
1026.739	1083.88
1027.029	1109.42
1027.319	1085.69
1027.608	1059.03
1027.898	1074.17
1028.187	1072.81
1028.477	1052.25
1028.766	1049.76
1029.055	1045.69
1029.344	1017.67
1029.634	1024.68
1029.923	1033.72
1030.212	1028.74
1030.501	1031.23
1030.79	998.69
1031.078	1006.6
1031.367	1000.5
1031.656	1001.63
1031.945	980.61
1032.233	990.78
1032.522	970.67
1032.81	956.66
1033.099	934.74
1033.387	945.58
1033.675	937.9
1033.963	936.77
1034.251	947.62
1034.54	922.98
1034.828	897
1035.116	915.98
1035.403	898.8
1035.691	907.62
1035.979	893.15
1036.267	893.15
1036.554	885.02
1036.842	901.29
1037.129	872.82
1037.417	868.07
1037.704	863.55
1037.992	861.97
1038.279	860.16
1038.566	841.18
1038.853	841.18
1039.14	841.18
