Data from hue_22_FLMS001491_00069.txt Node
Date: Tue Feb 07 17:10:30 GMT 2017
User: dcchb
Spectrometer: FLMS00149
Trigger mode: 0
Integration Time (sec): 2.000000E-2
Scans to average: 10
Electric dark correction enabled: true
Nonlinearity correction enabled: false
Boxcar width: 0
XAxis mode: Wavelengths
Number of Pixels in Spectrum: 2048
>>>>>Begin Spectral Data<<<<<
341.393	-25.35
341.776	-25.35
342.16	-25.35
342.543	-85.69
342.927	-83.66
343.31	-89.76
343.693	-39.14
344.077	-81.85
344.46	-56.09
344.843	-52.02
345.226	-44.56
345.61	-29.87
345.993	-18.12
346.376	-6.82
346.759	6.29
347.142	28.66
347.525	34.98
347.908	48.77
348.291	67.07
348.674	119.05
349.057	113.4
349.44	135.55
349.823	151.37
350.206	171.48
350.588	198.37
350.971	237.47
351.354	236.79
351.737	240.4
352.119	261.65
352.502	273.4
352.884	253.28
353.267	274.98
353.65	289.89
354.032	289.22
354.414	318.14
354.797	298.48
355.179	324.47
355.562	347.75
355.944	330.57
356.326	328.99
356.709	359.72
357.091	331.7
357.473	357.91
357.855	339.61
358.238	355.88
358.62	348.2
359.002	353.85
359.384	360.85
359.766	343.68
360.148	343.9
360.53	365.82
360.912	351.59
361.294	322.89
361.676	344.58
362.057	337.35
362.439	335.09
362.821	342.32
363.203	333.06
363.584	330.34
363.966	344.13
364.348	334.41
364.729	344.36
365.111	314.75
365.493	320.63
365.874	326.73
366.256	344.58
366.637	336.45
367.019	328.76
367.4	320.18
367.781	308.2
368.163	312.27
368.544	324.92
368.925	310.91
369.306	331.02
369.688	316.11
370.069	309.55
370.45	331.93
370.831	311.36
371.212	294.19
371.593	330.57
371.974	326.5
372.355	328.99
372.736	335.77
373.117	314.07
373.498	315.43
373.879	306.16
374.26	304.13
374.641	317.69
375.021	335.32
375.402	334.19
375.783	350.23
376.163	337.35
376.544	325.6
376.925	353.62
377.305	338.48
377.686	337.35
378.066	334.64
378.447	328.99
378.827	366.5
379.208	341.87
379.588	339.84
379.968	358.82
380.349	348.2
380.729	334.86
381.109	365.82
381.489	343.68
381.87	346.62
382.25	346.84
382.63	344.36
383.01	342.55
383.39	346.84
383.77	337.35
384.15	366.95
384.53	360.4
384.91	367.86
385.29	351.36
385.67	364.02
386.049	344.36
386.429	376.44
386.809	356.11
387.189	347.75
387.568	366.5
387.948	356.56
388.328	366.95
388.707	361.08
389.087	359.72
389.466	376.67
389.846	380.06
390.225	385.03
390.605	380.96
390.984	374.41
391.363	370.12
391.743	407.63
392.122	383.45
392.501	404.01
392.881	375.99
393.26	366.28
393.639	390.68
394.018	383.22
394.397	399.5
394.776	380.74
395.155	415.99
395.534	418.7
395.913	402.21
396.292	404.47
396.671	415.09
397.05	387.29
397.429	412.6
397.808	421.87
398.186	424.81
398.565	390.46
398.944	414.64
399.323	412.38
399.701	410.79
400.08	418.48
400.458	427.07
400.837	404.47
401.215	433.39
401.594	410.79
401.972	421.42
402.351	420.29
402.729	433.17
403.107	428.42
403.486	451.7
403.864	439.49
404.242	432.26
404.62	428.19
404.999	446.05
405.377	439.27
405.755	457.35
406.133	454.63
406.511	420.74
406.889	460.96
407.267	459.61
407.645	452.15
408.023	468.65
408.401	466.16
408.779	460.28
409.156	471.81
409.534	448.31
409.912	479.49
410.29	497.35
410.667	470
411.045	492.37
411.422	475.65
411.8	490.57
412.178	496.22
412.555	495.54
412.933	503.9
413.31	502.77
413.687	518.14
414.065	488.76
414.442	516.55
414.819	514.29
415.197	511.58
415.574	531.02
415.951	530.34
416.328	538.7
416.705	523.11
417.082	549.1
417.46	540.96
417.837	533.95
418.214	542.54
418.591	563.33
418.967	538.7
419.344	533.95
419.721	536.89
420.098	567.4
420.475	564.24
420.852	574.86
421.228	581.41
421.605	585.03
421.982	578.93
422.358	599.04
422.735	599.49
423.111	580.51
423.488	612.6
423.864	584.35
424.241	594.52
424.617	611.47
424.994	608.08
425.37	599.94
425.746	610.56
426.123	618.25
426.499	604.01
426.875	611.69
427.251	611.24
427.627	650.34
428.003	637.45
428.379	644.23
428.756	651.69
429.132	644.01
429.507	652.14
429.883	647.17
430.259	659.83
430.635	680.62
431.011	686.49
431.387	709.32
431.763	695.08
432.138	709.77
432.514	714.06
432.89	711.58
433.265	707.96
433.641	734.4
434.016	727.17
434.392	747.28
434.767	759.71
435.143	776.66
435.518	763.1
435.894	754.06
436.269	764.23
436.644	786.38
437.02	797.68
437.395	794.29
437.77	789.32
438.145	802.65
438.52	799.94
438.895	826.6
439.271	825.7
439.646	830.44
440.021	842.87
440.395	852.59
440.77	840.84
441.145	849.88
441.52	841.07
441.895	858.69
442.27	862.53
442.645	862.76
443.019	856.88
443.394	873.83
443.769	889.43
444.143	854.85
444.518	895.08
444.892	895.53
445.267	893.27
445.641	886.04
446.016	901.4
446.39	908.86
446.764	892.82
447.139	916.32
447.513	915.64
447.887	938.01
448.262	920.16
448.636	928.52
449.01	964
449.384	930.33
449.758	960.61
450.132	997.22
450.506	989.76
450.88	989.76
451.254	968.97
451.628	993.38
452.002	968.97
452.376	1005.81
452.75	1008.74
453.123	1047.39
453.497	1059.36
453.871	1045.35
454.244	1058.46
454.618	1078.57
454.992	1095.52
455.365	1071.57
455.739	1109.08
456.112	1136.65
456.486	1113.83
456.859	1138.68
457.232	1138.68
457.606	1130.1
457.979	1153.37
458.352	1179.36
458.725	1216.87
459.099	1184.33
459.472	1238.57
459.845	1212.58
460.218	1267.72
460.591	1268.85
460.964	1246.03
461.337	1295.97
461.71	1306.36
462.083	1289.87
462.456	1320.37
462.829	1322.18
463.201	1334.16
463.574	1342.75
463.947	1387.27
464.32	1410.54
464.692	1410.32
465.065	1409.41
465.438	1405.34
465.81	1450.31
466.183	1465.91
466.555	1498.68
466.928	1482.4
467.3	1532.8
467.672	1523.08
468.045	1564.44
468.417	1568.5
468.789	1583.19
469.161	1597.2
469.534	1644.43
469.906	1690.31
470.278	1675.39
470.65	1706.58
471.022	1751.78
471.394	1762.62
471.766	1760.14
472.138	1795.62
472.51	1826.35
472.882	1871.77
473.253	1878.78
473.625	1907.48
473.997	1946.8
474.369	1981.37
474.74	1988.38
475.112	2022.5
475.484	2063.63
475.855	2066.34
476.227	2121.71
476.598	2201.03
476.97	2219.11
477.341	2238.32
477.713	2295.49
478.084	2295.04
478.455	2374.58
478.827	2385.21
479.198	2491.19
479.569	2452.32
479.94	2533.45
480.311	2564.41
480.682	2643.05
481.053	2728.93
481.424	2748.81
481.795	2767.57
482.166	2821.58
482.537	2873.1
482.908	2962.59
483.279	2967.79
483.65	3015.92
484.021	3077.62
484.391	3104.28
484.762	3163.72
485.133	3205.75
485.503	3252.3
485.874	3358.51
486.244	3339.98
486.615	3435.57
486.985	3498.4
487.356	3606.19
487.726	3619.75
488.097	3684.83
488.467	3701.56
488.837	3767.99
489.207	3850.48
489.578	3916.24
489.948	3927.31
490.318	4015.22
490.688	4042.79
491.058	4073.75
491.428	4132.96
491.798	4198.27
492.168	4275.33
492.538	4289.11
492.908	4365.94
493.278	4457.92
493.648	4445.72
494.017	4543.12
494.387	4567.52
494.757	4587.63
495.126	4671.25
495.496	4704.92
495.866	4700.17
496.235	4787.85
496.605	4803
496.974	4822.88
497.344	4866.04
497.713	4922.77
498.082	4957.79
498.452	5016.55
498.821	5027.62
499.19	5085.93
499.559	5186.94
499.928	5156.88
500.298	5199.37
500.667	5240.72
501.036	5259.93
501.405	5258.58
501.774	5325.69
502.143	5365.24
502.512	5394.39
502.88	5423.09
503.249	5456.31
503.618	5485.46
503.987	5463.32
504.356	5515.29
504.724	5592.58
505.093	5605.46
505.462	5604.33
505.83	5649.98
506.199	5711.67
506.567	5819.01
506.936	5741.73
507.304	5814.72
507.672	5864.66
508.041	5878.67
508.409	5904.44
508.777	5975.39
509.145	6018.78
509.514	5959.57
509.882	6021.49
510.25	6064.88
510.618	6079.12
510.986	6078.22
511.354	6177.2
511.722	6212
512.09	6277.76
512.458	6237.31
512.826	6336.06
513.193	6328.15
513.561	6328.38
513.929	6355.04
514.297	6399.34
514.664	6446.79
515.032	6433.23
515.4	6467.58
515.767	6501.93
516.135	6548.94
516.502	6507.13
516.869	6656.96
517.237	6664.64
517.604	6666.9
517.972	6685.43
518.339	6685.43
518.706	6678.88
519.073	6771.53
519.44	6848.82
519.808	6810.17
520.175	6850.62
520.542	6920
520.909	6932.88
521.276	6911.64
521.643	7036.83
522.009	6993.67
522.376	7089.71
522.743	7076.83
523.11	7186.66
523.477	7196.6
523.843	7291.97
524.21	7365.64
524.577	7372.19
524.943	7392.31
525.31	7404.51
525.676	7522.7
526.043	7506.2
526.409	7510.27
526.776	7622.58
527.142	7649.25
527.508	7652.41
527.874	7757.72
528.241	7742.13
528.607	7741
528.973	7883.82
529.339	7845.63
529.705	7928.56
530.071	7909.58
530.437	8029.13
530.803	8069.12
531.169	8115.9
531.535	8110.7
531.901	8184.15
532.267	8163.81
532.632	8211.95
532.998	8248.78
533.364	8353.18
533.73	8343.24
534.095	8396.12
534.461	8473.86
534.826	8461.66
535.192	8530.58
535.557	8599.73
535.923	8526.74
536.288	8604.7
536.653	8647.87
537.019	8653.74
537.384	8694.87
537.749	8744.13
538.114	8788.88
538.479	8738.26
538.845	8803.34
539.21	8894.41
539.575	8882.66
539.94	8880.4
540.305	8959.27
540.67	8926.73
541.034	9026.61
541.399	9052.37
541.764	9022.32
542.129	9140.51
542.494	9112.49
542.858	9193.39
543.223	9220.73
543.587	9253.27
543.952	9245.82
544.316	9342.99
544.681	9398.35
545.045	9446.49
545.41	9462.08
545.774	9459.14
546.138	9467.28
546.503	9548.18
546.867	9561.29
547.231	9605.35
547.595	9622.53
547.959	9655.07
548.324	9699.82
548.688	9644.22
549.052	9714.73
549.416	9754.73
549.779	9824.56
550.143	9804.45
550.507	9880.38
550.871	9846.25
551.235	9919.02
551.599	9990.88
551.962	9991.11
552.326	10045.12
552.689	10105.45
553.053	10105.91
553.417	10065
553.78	10212.8
554.143	10178.22
554.507	10216.41
554.87	10251.44
555.234	10325.34
555.597	10285.56
555.96	10330.76
556.323	10376.63
556.686	10363.53
557.05	10544.77
557.413	10518.33
557.776	10476.97
558.139	10633.12
558.502	10600.81
558.865	10580.02
559.228	10679.22
559.59	10719.9
559.953	10668.83
560.316	10831.76
560.679	10872.21
561.041	10901.82
561.404	10956.51
561.767	11017.3
562.129	11002.61
562.492	11084.41
562.854	11106.78
563.217	11104.52
563.579	11128.7
563.941	11228.36
564.304	11225.2
564.666	11238.31
565.028	11335.03
565.39	11363.95
565.753	11443.27
566.115	11409.15
566.477	11511.29
566.839	11547.68
567.201	11665.19
567.563	11655.02
567.925	11705.64
568.287	11646.88
568.648	11684.17
569.01	11803.72
569.372	11936.37
569.734	11897.5
570.095	12019.08
570.457	11974.78
570.819	11965.29
571.18	12017.95
571.542	12142.46
571.903	12193.99
572.265	12208.45
572.626	12242.57
572.987	12271.27
573.349	12369.8
573.71	12471.27
574.071	12518.95
574.432	12622.9
574.794	12660.87
575.155	12704.03
575.516	12706.06
575.877	12836.46
576.238	12790.36
576.599	12962.55
576.96	13076.22
577.32	13113.51
577.681	13261.53
578.042	13310.57
578.403	13377.68
578.763	13471.24
579.124	13572.71
579.485	13682.76
579.845	13798.46
580.206	13946.03
580.566	14034.62
580.927	14124.78
581.287	14277.1
581.648	14430.31
582.008	14635.05
582.368	14733.58
582.728	14885.22
583.089	15080.92
583.449	15210.41
583.809	15387.8
584.169	15655.14
584.529	15749.83
584.889	15990.27
585.249	16044.73
585.609	16245.63
585.969	16576.47
586.329	16762.68
586.688	17053.07
587.048	17263.23
587.408	17418.71
587.768	17629.32
588.127	17915.87
588.487	18092.82
588.846	18496.19
589.206	18609.41
589.565	18928.05
589.925	19280.81
590.284	19389.28
590.643	19716.73
591.003	20108.13
591.362	20392.19
591.721	20645.29
592.08	20939.75
592.44	21320.75
592.799	21639.61
593.158	21893.62
593.517	22258.81
593.876	22544
594.235	22793.26
594.593	23178.33
594.952	23500.58
595.311	23724.31
595.67	24078.42
596.029	24588.24
596.387	24864.61
596.746	25270.71
597.104	25467.54
597.463	25803.57
597.822	26328.76
598.18	26432.48
598.538	26733.72
598.897	27144.33
599.255	27382.74
599.613	27935.72
599.972	28097.75
600.33	28441.02
600.688	28739.54
601.046	29099.08
601.404	29589.46
601.762	29777.71
602.12	30118.71
602.478	30475.31
602.836	30775.87
603.194	30847.51
603.552	31316.87
603.91	31449.75
604.268	32009.06
604.625	32075.5
604.983	32593.22
605.341	32656.5
605.698	33040.9
606.056	33460.77
606.413	33537.15
606.771	34031.38
607.128	34331.48
607.485	34427.3
607.843	34828.19
608.2	35045.59
608.557	35404
608.914	35608.74
609.272	36051.44
609.629	36206.01
609.986	36543.63
610.343	36649.39
610.7	36989.49
611.057	37191.97
611.414	37292.54
611.771	37531.63
612.127	37798.29
612.484	37949.02
612.841	38411.15
613.198	38456.12
613.554	38704.02
613.911	39033.28
614.267	39186.05
614.624	39346.49
614.98	39584.23
615.337	39933.6
615.693	40098.79
616.05	39943.31
616.406	40428.27
616.762	40520.02
617.118	40621.04
617.475	40866
617.831	41132.21
618.187	41197.52
618.543	41551.63
618.899	41772.19
619.255	41731.29
619.611	41950.72
619.967	42245.4
620.323	42387.32
620.678	42543.47
621.034	42430.25
621.39	42487.2
621.746	42603.81
622.101	43230.46
622.457	42900.3
622.812	43116.56
623.168	43331.25
623.523	43318.37
623.879	43618.47
624.234	43522.66
624.589	43651.69
624.945	43808.75
625.3	43966.94
625.655	43950.21
626.01	44008.52
626.365	44024.56
626.72	44140.72
627.075	44132.58
627.43	44202.19
627.785	44265.91
628.14	44270.21
628.495	44431.11
628.85	44418.68
629.205	44555.17
629.559	44768.72
629.914	44634.94
630.269	44808.72
630.623	44727.14
630.978	44665.9
631.332	44901.38
631.687	44930.08
632.041	44897.53
632.396	44934.14
632.75	44861.15
633.104	44979.11
633.459	44858.21
633.813	44942.5
634.167	44863.18
634.521	45022.28
634.875	45063.86
635.229	45078.55
635.583	45001.26
635.937	44959
636.291	45076.96
636.645	44982.73
636.999	44914.71
637.352	45158.54
637.706	44836.07
638.06	44990.87
638.413	44970.07
638.767	44878.1
639.121	45022.95
639.474	44786.12
639.828	44922.84
640.181	44926.91
640.534	44970.3
640.888	44836.52
641.241	44857.99
641.594	44879.23
641.947	44925.56
642.301	44748.16
642.654	44827.48
643.007	44794.03
643.36	45015.95
643.713	44838.1
644.066	44947.7
644.419	44794.26
644.771	44577.77
645.124	44171.23
645.477	44073.6
645.83	43840.39
646.182	43839.71
646.535	43816.21
646.888	43831.57
647.24	43603.78
647.593	43679.26
647.945	43784.8
648.298	43604.46
648.65	43517.91
649.002	43547.06
649.355	43642.88
649.707	43573.95
650.059	43742.08
650.411	44344.33
650.763	44291.67
651.115	44723.98
651.467	44527.83
651.819	44472.91
652.171	44417.09
652.523	44432.24
652.875	44331.9
653.227	44373.71
653.578	44611.44
653.93	44422.07
654.282	44182.52
654.633	44166.71
654.985	44247.83
655.337	44345.01
655.688	44328.06
656.039	44537.32
656.391	44076.99
656.742	44262.3
657.094	44161.06
657.445	44336.87
657.796	44169.87
658.147	44224.33
658.498	44219.81
658.849	44244.9
659.2	44289.87
659.551	44156.08
659.902	44250.09
660.253	44167.16
660.604	44199.47
660.955	44002.87
661.306	44158.12
661.656	44135.07
662.007	44036.31
662.358	44186.37
662.708	44168.97
663.059	44165.8
663.409	43840.16
663.76	44242.64
664.11	44100.94
664.461	44143.66
664.811	44252.13
665.161	44165.12
665.511	43971.46
665.862	44007.84
666.212	44187.27
666.562	44087.84
666.912	44061.17
667.262	43971.23
667.612	44168.97
667.962	44009.87
668.312	44108.63
668.662	44097.78
669.011	43989.76
669.361	43879.71
669.711	43783.67
670.06	43914.06
670.41	43861.4
670.76	43835.87
671.109	43968.52
671.459	43872.25
671.808	43865.24
672.157	43979.59
672.507	43620.96
672.856	43711.35
673.205	43885.81
673.554	43840.39
673.904	43818.47
674.253	43955.19
674.602	43767.85
674.951	43366.05
675.3	43069.33
675.649	43725.14
675.998	43646.72
676.346	43673.16
676.695	43701.63
677.044	43436.78
677.393	43539.15
677.741	43440.85
678.09	43370.34
678.438	43430.45
678.787	43459.83
679.135	43417.57
679.484	43282.44
679.832	43542.99
680.181	43150.91
680.529	43169.67
680.877	43065.72
681.225	43141.2
681.573	43385.48
681.922	43156.56
682.27	42927.87
682.618	42988.66
682.966	42867.53
683.314	42835.67
683.661	42808.32
684.009	42587.76
684.357	42519.97
684.705	42580.76
685.053	42569.01
685.4	42584.6
685.748	42334.66
686.095	42356.58
686.443	42063.03
686.79	42117.95
687.138	42238.62
687.485	42219.41
687.832	42081.11
688.18	42204.27
688.527	41863.26
688.874	41919.53
689.221	41785.75
689.568	41689.26
689.915	41617.39
690.262	41654.46
690.609	41603.16
690.956	41307.35
691.303	41408.13
691.65	41259.89
691.997	41261.92
692.344	40850.18
692.69	40864.19
693.037	40955.26
693.383	40593.01
693.73	40705.78
694.077	40576.52
694.423	40551.43
694.769	40323.42
695.116	40379.01
695.462	40265.34
695.808	40180.6
696.155	40308.05
696.501	39859.02
696.847	39925.69
697.193	39658.12
697.539	39888.4
697.885	39655.64
698.231	39410.22
698.577	39470.11
698.923	39394.18
699.269	39323.44
699.614	39099.27
699.96	38979.05
700.306	39007.52
700.651	38750.35
700.997	38643.46
701.342	38673.07
701.688	38506.06
702.033	38384.94
702.379	38368.21
702.724	38189.69
703.069	38370.02
703.415	37931.16
703.76	38006.19
704.105	38032.4
704.45	37869.7
704.795	37886.42
705.14	37613.43
705.485	37587.44
705.83	37474.9
706.175	37430.16
706.52	37425.64
706.865	37231.07
707.209	37222.71
707.554	37084.86
707.899	37187.68
708.243	37006.44
708.588	36902.26
708.932	36580.69
709.277	36747.69
709.621	36600.13
709.966	36385.67
710.31	36542.73
710.654	36282.85
710.998	36389.96
711.342	36332.11
711.687	36116.97
712.031	36037.88
712.375	35994.94
712.719	35990.42
713.063	35851.9
713.407	35996.53
713.75	35674.27
714.094	35738.23
714.438	35490.32
714.782	35596.31
715.125	35504.11
715.469	35594.5
715.812	35352.47
716.156	35237
716.499	35229.31
716.843	35197.45
717.186	34979.6
717.53	35110.22
717.873	35261.63
718.216	35032.26
718.559	34863.45
718.902	34573.06
719.246	34721.76
719.589	34594.75
719.932	34432.95
720.275	34543.68
720.617	34523.12
720.96	34432.27
721.303	34397.02
721.646	34374.87
721.989	34137.82
722.331	34356.79
722.674	34094.88
723.016	34188.21
723.359	34009.68
723.701	34060.08
724.044	33793.87
724.386	33885.17
724.729	33872.74
725.071	33736.25
725.413	33749.58
725.755	33772.85
726.097	33517.72
726.439	33344.84
726.782	33370.38
727.124	33656.25
727.465	33302.13
727.807	33341.45
728.149	33421.23
728.491	33202.93
728.833	33236.37
729.175	33091.52
729.516	33159.54
729.858	33035.93
730.199	33124.28
730.541	33010.39
730.882	33009.26
731.224	33032.76
731.565	32689.95
731.906	32769.49
732.248	32859.88
732.589	32577.86
732.93	32509.84
733.271	32525.2
733.612	32566.56
733.953	32523.17
734.294	32413.34
734.635	32243.86
734.976	32541.7
735.317	32181.71
735.658	32255.83
735.999	32279.56
736.339	32215.83
736.68	32267.36
737.021	32093.58
737.361	32082.05
737.702	32336.06
738.042	32085.44
738.383	31934.49
738.723	32116.4
739.063	32023.52
739.404	32000.7
739.744	31938.33
740.084	31762.29
740.424	31823.53
740.764	31807.71
741.104	31798.44
741.444	31520.26
741.784	31495.85
742.124	31589.18
742.464	31448.17
742.804	31516.19
743.143	31333.15
743.483	31372.69
743.823	31101.29
744.162	31225.58
744.502	31144.22
744.841	31206.82
745.181	31194.17
745.52	31033.27
745.86	31069.2
746.199	31061.29
746.538	31002.53
746.877	31091.34
747.216	31116.88
747.556	30928.86
747.895	30944.68
748.234	30785.59
748.573	30776.1
748.911	30582.66
749.25	30683.44
749.589	30558.25
749.928	30608.64
750.267	30604.35
750.605	30435.54
750.944	30527.97
751.283	30425.37
751.621	30514.86
751.96	30226.73
752.298	30260.18
752.636	30285.94
752.975	29993.52
753.313	29990.81
753.651	30116.68
753.989	29941.77
754.327	29837.37
754.666	29777.71
755.004	29798.95
755.342	29739.51
755.679	29718.05
756.017	29528.22
756.355	29736.12
756.693	29563.02
757.031	29515.11
757.368	29458.84
757.706	29204.16
758.044	29193.09
758.381	29391.5
758.719	29191.51
759.056	29039.87
759.394	29080.55
759.731	28897.5
760.068	28902.02
760.405	28821.8
760.743	28722.82
761.08	28724.85
761.417	28532.31
761.754	28488.02
762.091	28396.05
762.428	28386.56
762.765	28196.5
763.102	28245.99
763.438	28118.09
763.775	28043.29
764.112	28221.14
764.449	27997.87
764.785	27865.21
765.122	27671.55
765.458	27579.12
765.795	27608.27
766.131	27475.39
766.467	27493.47
766.804	27292.35
767.14	27201.28
767.476	27186.59
767.812	27153.37
768.148	27188.62
768.485	26872.02
768.821	26803.55
769.157	26718.13
769.492	26693.27
769.828	26727.16
770.164	26402.43
770.5	26479.71
770.836	26232.49
771.171	26236.56
771.507	26147.97
771.842	25945.94
772.178	25953.63
772.513	25899.39
772.849	25814.65
773.184	25692.16
773.519	25755.66
773.855	25571.94
774.19	25484.49
774.525	25280.42
774.86	25384.15
775.195	25347.77
775.53	25153.65
775.865	25043.82
776.2	24819.19
776.535	24644.73
776.87	24689.7
777.205	24637.95
777.539	24466.88
777.874	24628.69
778.209	24456.04
778.543	24349.6
778.878	24129.94
779.212	24201.36
779.547	24049.95
779.881	23941.02
780.215	23817.41
780.55	23890.18
780.884	23745.77
781.218	23573.12
781.552	23698.09
781.886	23458.55
782.22	23406.57
782.554	23317.54
782.888	23157.09
783.222	23039.35
783.556	22981.73
783.889	22927.72
784.223	22770.66
784.557	22706.25
784.89	22706.48
785.224	22638.91
785.557	22510.78
785.891	22420.39
786.224	22412.25
786.558	22377
786.891	22169.77
787.224	22085.7
787.557	21942.21
787.891	21917.8
788.224	21941.08
788.557	21934.52
788.89	21820.85
789.223	21777.69
789.556	21553.97
789.888	21560.07
790.221	21416.34
790.554	21350.58
790.887	21214.32
791.219	21199.17
791.552	21172.96
791.884	21149.46
792.217	21001.21
792.549	20946.07
792.882	20861.56
793.214	20733.42
793.546	20774.78
793.879	20592.41
794.211	20506.76
794.543	20494.11
794.875	20529.14
795.207	20538.4
795.539	20266.09
795.871	20339.31
796.203	20159.2
796.535	20110.39
796.867	20127.79
797.198	20012.99
797.53	20007.34
797.862	19888.25
798.193	19917.17
798.525	19653.9
798.856	19754.01
799.188	19586.11
799.519	19452.1
799.85	19384.31
800.182	19479.67
800.513	19403.06
800.844	19295.27
801.175	19307.7
801.506	19261.6
801.837	19134.37
802.168	19186.8
802.499	19042.17
802.83	18866.13
803.161	18907.94
803.491	18963.98
803.822	18930.31
804.153	18840.59
804.483	18597.66
804.814	18582.52
805.145	18596.53
805.475	18521.5
805.805	18421.17
806.136	18473.6
806.466	18363.99
806.796	18370.32
807.126	18205.13
807.457	18137.56
807.787	18253.71
808.117	18163.55
808.447	18063.89
808.777	18056.88
809.107	17899.6
809.436	17887.62
809.766	17851.01
810.096	17836.55
810.426	17804.69
810.755	17797
811.085	17715.65
811.414	17588.65
811.744	17519.27
812.073	17535.09
812.403	17529.89
812.732	17360.63
813.061	17377.13
813.39	17371.7
813.719	17176.23
814.049	17286.06
814.378	17247.87
814.707	17103.24
815.036	17114.08
815.365	17031.83
815.693	16903.02
816.022	16891.94
816.351	16882.23
816.68	16810.82
817.008	16836.35
817.337	16688.56
817.665	16728.78
817.994	16750.03
818.322	16571.5
818.651	16625.96
818.979	16465.29
819.307	16575.12
819.636	16548.22
819.964	16501.22
820.292	16488.79
820.62	16482.24
820.948	16428.45
821.276	16412.41
821.604	16421.22
821.932	16486.53
822.259	16440.43
822.587	16365.63
822.915	16358.4
823.243	16327.44
823.57	16373.76
823.898	16214.67
824.225	16223.26
824.553	16210.83
824.88	16303.03
825.207	16331.73
825.535	16315.46
825.862	16256.48
826.189	16219.64
826.516	16297.83
826.843	16409.47
827.17	16280.43
827.497	16329.92
827.824	16276.59
828.151	16299.19
828.478	16304.16
828.805	16351.17
829.131	16302.58
829.458	16149.59
829.785	16196.14
830.111	16202.24
830.438	16283.37
830.764	16317.72
831.09	16297.83
831.417	16127.22
831.743	16274.56
832.069	16295.35
832.395	16105.75
832.722	16140.32
833.048	16207.89
833.374	16188.01
833.7	16030.27
834.026	16086.54
834.351	16068.01
834.677	16114.79
835.003	16030.27
835.329	16085.18
835.654	16035.24
835.98	15875.7
836.306	16045.41
836.631	15836.38
836.956	15934
837.282	15960.22
837.607	15928.13
837.932	15779.43
838.258	15923.38
838.583	15879.09
838.908	15760.22
839.233	15819.43
839.558	15705.99
839.883	15595.03
840.208	15716.38
840.533	15661.92
840.858	15547.35
841.182	15714.12
841.507	15595.25
841.832	15527.23
842.156	15489.04
842.481	15454.47
842.805	15371.76
843.13	15455.82
843.454	15336.96
843.778	15303.51
844.103	15341.48
844.427	15209.73
844.751	15204.08
845.075	15171.08
845.399	15146
845.723	14981.94
846.047	15048.83
846.371	14922.5
846.695	14941.94
847.019	14753.24
847.343	14755.73
847.666	14669.63
847.99	14590.99
848.313	14555.96
848.637	14471.22
848.96	14449.97
849.284	14438
849.607	14345.12
849.931	14259.02
850.254	14230.77
850.577	14164.56
850.9	14033.03
851.223	14033.03
851.546	13951.46
851.869	13939.03
852.192	14001.85
852.515	13834.17
852.838	13780.61
853.161	13778.35
853.483	13692.03
853.806	13632.37
854.129	13673.72
854.451	13443.67
854.774	13530.68
855.096	13456.78
855.419	13415.2
855.741	13364.58
856.063	13307.18
856.385	13291.81
856.708	13230.34
857.03	13201.19
857.352	13193.06
857.674	13104.92
857.996	13106.96
858.318	13000.07
858.64	12954.87
858.961	12974.08
859.283	12906.74
859.605	12886.17
859.926	12869.45
860.248	12886.62
860.57	12812.95
860.891	12767.98
861.212	12766.85
861.534	12694.54
861.855	12654.54
862.176	12643.69
862.498	12639.63
862.819	12623.58
863.14	12540.19
863.461	12519.85
863.782	12517.59
864.103	12525.5
864.424	12469.01
864.745	12541.77
865.065	12361.89
865.386	12377.94
865.707	12369.35
866.027	12484.6
866.348	12369.12
866.668	12282.12
866.989	12189.69
867.309	12184.27
867.63	12239.18
867.95	12267.88
868.27	12177.72
868.59	12170.49
868.91	12168.23
869.23	12162.12
869.55	12083.03
869.87	12153.08
870.19	12125.74
870.51	12024.95
870.83	12055.91
871.15	11993.99
871.469	12013.88
871.789	12001.22
872.109	11952.19
872.428	11872.41
872.748	11959.19
873.067	11949.7
873.386	11910.83
873.706	11831.51
874.025	11836.71
874.344	11857.27
874.663	11772.3
874.982	11814.79
875.301	11788.8
875.62	11641.23
875.939	11733.21
876.258	11693.89
876.577	11649.59
876.896	11654.57
877.214	11628.35
877.533	11626.09
877.852	11596.04
878.17	11605.75
878.489	11552.87
878.807	11601.01
879.125	11485.53
879.444	11588.81
879.762	11479.43
880.08	11529.37
880.398	11379.55
880.716	11437.62
881.034	11395.36
881.352	11383.39
881.67	11337.06
881.988	11387.91
882.306	11261.36
882.624	11243.96
882.941	11216.61
883.259	11180.68
883.577	11224.75
883.894	11141.36
884.212	11193.79
884.529	11135.03
884.846	11062.94
885.164	11056.84
885.481	11121.47
885.798	11041.48
886.115	10937.52
886.432	10937.3
886.75	10910.41
887.067	10980.46
887.383	10856.62
887.7	10958.54
888.017	10874.47
888.334	10848.71
888.651	10770.97
888.967	10785.89
889.284	10638.77
889.6	10669.06
889.917	10588.15
890.233	10642.62
890.55	10585.67
890.866	10563.07
891.182	10519.91
891.498	10546.35
891.815	10372.79
892.131	10452.11
892.447	10363.98
892.763	10360.59
893.079	10321.49
893.395	10296.41
893.71	10372.11
894.026	10318.78
894.342	10235.39
894.657	10192.01
894.973	10211.44
895.289	10198.33
895.604	10131.67
895.92	9985.23
896.235	10010.77
896.55	9950.2
896.865	10019.81
897.181	9997.66
897.496	9950.2
897.811	9858
898.126	9879.7
898.441	9802.19
898.756	9808.06
899.071	9718.57
899.386	9731.91
899.7	9601.51
900.015	9668.4
900.33	9501.85
900.644	9572.81
900.959	9578.91
901.273	9513.38
901.588	9402.87
901.902	9356.77
902.216	9413.04
902.531	9377.56
902.845	9323.33
903.159	9282.43
903.473	9266.83
903.787	9175.99
904.101	9205.14
904.415	9253.95
904.729	9125.14
905.042	9105.71
905.356	9069.78
905.67	9046.73
905.984	8979.38
906.297	8980.74
906.611	8961.53
906.924	8965.6
907.237	8869.78
907.551	8834.3
907.864	8807.86
908.177	8832.04
908.491	8761.76
908.804	8728.54
909.117	8699.84
909.43	8613.06
909.743	8611.71
910.056	8552.5
910.368	8494.65
910.681	8470.7
910.994	8486.97
911.307	8444.71
911.619	8417.59
911.932	8345.95
912.244	8293.75
912.557	8263.02
912.869	8232.28
913.181	8227.99
913.494	8194.32
913.806	8154.09
914.118	8066.86
914.43	8059.63
914.742	8049.92
915.054	8019.41
915.366	7980.54
915.678	7971.5
915.99	7872.52
916.302	7807.66
916.613	7839.98
916.925	7890.37
917.236	7861.45
917.548	7730.38
917.859	7787.32
918.171	7707.55
918.482	7698.51
918.794	7642.24
919.105	7604.28
919.416	7466.43
919.727	7529.93
920.038	7535.8
920.349	7427.11
920.66	7404.06
920.971	7422.36
921.282	7392.76
921.593	7325.64
921.903	7273.89
922.214	7328.13
922.525	7223.95
922.835	7205.19
923.146	7161.58
923.456	7153.67
923.767	7113.67
924.077	7062.82
924.387	7048.13
924.697	6981.92
925.008	7050.39
925.318	6970.4
925.628	6955.71
925.938	6896.73
926.248	6808.59
926.558	6793.23
926.867	6772.89
927.177	6774.02
927.487	6754.36
927.796	6665.55
928.106	6677.75
928.416	6677.07
928.725	6661.25
929.034	6596.85
929.344	6618.09
929.653	6595.49
929.962	6515.72
930.271	6499
930.581	6483.18
930.89	6418.55
931.199	6449.28
931.508	6379.68
931.817	6369.28
932.125	6342.84
932.434	6372.22
932.743	6256.52
933.051	6258.78
933.36	6227.36
933.669	6172.9
933.977	6123.86
934.286	6148.5
934.594	6185.33
934.902	6119.12
935.21	6044.54
935.519	6055.62
935.827	6086.13
936.135	5967.03
936.443	5918.67
936.751	5917.77
937.059	5909.18
937.367	5874.38
937.674	5848.84
937.982	5843.87
938.29	5840.26
938.597	5794.16
938.905	5761.84
939.213	5718.45
939.52	5711.67
939.827	5682.07
940.135	5639.81
940.442	5624.22
940.749	5650.2
941.056	5587.83
941.363	5533.15
941.67	5526.82
941.977	5477.33
942.284	5478.68
942.591	5446.14
942.898	5435.97
943.205	5410.89
943.511	5401.17
943.818	5395.52
944.125	5318.69
944.431	5317.56
944.738	5341.06
945.044	5306.71
945.35	5264
945.657	5224.9
945.963	5219.48
946.269	5203.66
946.575	5181.97
946.881	5187.62
947.187	5107.39
947.493	5090.67
947.799	5088.19
948.105	5039.15
948.41	5010.9
948.716	5046.38
949.022	4974.52
949.327	5014.74
949.633	4929.32
949.938	4917.34
950.244	4937.45
950.549	4860.17
950.854	4878.93
951.16	4859.94
951.465	4817.23
951.77	4794.18
952.075	4794.63
952.38	4784.92
952.685	4763.67
952.99	4715.99
953.294	4666.95
953.599	4705.14
953.904	4618.59
954.209	4597.35
954.513	4581.98
954.818	4544.47
955.122	4563.68
955.426	4537.47
955.731	4553.06
956.035	4451.59
956.339	4466.28
956.643	4473.74
956.948	4414.3
957.252	4422.44
957.556	4395.77
957.86	4363.91
958.163	4357.81
958.467	4358.94
958.771	4319.62
959.075	4334.98
959.378	4295.66
959.682	4325.27
959.985	4224.48
960.289	4193.97
960.592	4221.99
960.896	4168.44
961.199	4141.09
961.502	4189.68
961.805	4138.38
962.108	4148.32
962.411	4142.67
962.714	4080.3
963.017	4084.6
963.32	4088.66
963.623	4045.27
963.926	4035.56
964.228	4021.32
964.531	3995.56
964.833	3951.04
965.136	3974.77
965.438	3910.36
965.741	3909.69
966.043	3915.79
966.345	3886.64
966.648	3850.48
966.95	3836.24
967.252	3794.43
967.554	3813.64
967.856	3817.71
968.158	3766.41
968.46	3781.33
968.761	3703.82
969.063	3739.52
969.365	3706.75
969.666	3693.87
969.968	3674.66
970.269	3631.73
970.571	3659.3
970.872	3634.21
971.174	3601.67
971.475	3606.64
971.776	3610.26
972.077	3555.34
972.378	3545.4
972.679	3533.2
972.98	3531.39
973.281	3527.55
973.582	3510.37
973.883	3477.83
974.183	3456.82
974.484	3435.8
974.785	3400.55
975.085	3453.2
975.386	3438.96
975.686	3410.72
975.986	3364.84
976.287	3334.11
976.587	3318.06
976.887	3325.97
977.187	3333.43
977.487	3328.91
977.787	3316.25
978.087	3242.13
978.387	3262.7
978.687	3265.63
978.987	3215.92
979.286	3180.66
979.586	3207.56
979.885	3192.87
980.185	3166.2
980.484	3197.39
980.784	3157.16
981.083	3126.66
981.382	3157.84
981.682	3089.14
981.981	3085.07
982.28	3082.59
982.579	3083.49
982.878	3070.16
983.177	3042.59
983.475	3027.67
983.774	2971.86
984.073	3012.31
984.372	2992.65
984.67	3001.91
984.969	2960.56
985.267	2954.46
985.566	2940.9
985.864	2888.7
986.162	2910.84
986.461	2894.8
986.759	2883.95
987.057	2869.71
987.355	2789.94
987.653	2827.23
987.951	2803.27
988.249	2822.71
988.547	2796.72
988.844	2765.76
989.142	2768.92
989.44	2731.64
989.737	2733.22
990.035	2748.13
990.332	2722.82
990.63	2712.2
990.927	2679.89
991.224	2672.66
991.521	2680.79
991.819	2665.88
992.116	2640.34
992.413	2654.8
992.71	2613.45
993.006	2609.61
993.303	2610.28
993.6	2582.94
993.897	2545.43
994.193	2556.05
994.49	2558.53
994.787	2529.38
995.083	2533
995.379	2522.38
995.676	2507.46
995.972	2481.25
996.268	2495.26
996.565	2440.57
996.861	2421.36
997.157	2424.53
997.453	2407.58
997.749	2380.46
998.044	2392.89
998.34	2370.06
998.636	2386.56
998.932	2342.72
999.227	2358.77
999.523	2318.99
999.818	2325.09
1000.114	2341.82
1000.409	2289.16
1000.704	2290.07
1001	2284.64
1001.295	2225.66
1001.59	2234.48
1001.885	2267.02
1002.18	2176.85
1002.475	2222.95
1002.77	2217.75
1003.065	2190.18
1003.359	2182.27
1003.654	2161.93
1003.949	2144.08
1004.243	2154.7
1004.538	2192.44
1004.832	2080.81
1005.127	2130.75
1005.421	2083.07
1005.715	2081.71
1006.009	2107.7
1006.304	2077.64
1006.598	2082.84
1006.892	2053.24
1007.186	2029.51
1007.48	2021.37
1007.773	2018.21
1008.067	1991.32
1008.361	1987.25
1008.655	1947.03
1008.948	1956.74
1009.242	1962.84
1009.535	1946.35
1009.829	1923.97
1010.122	1928.72
1010.415	1911.77
1010.708	1901.83
1011.001	1882.17
1011.295	1868.84
1011.588	1847.14
1011.881	1832.68
1012.173	1840.36
1012.466	1806.01
1012.759	1844.43
1013.052	1809.4
1013.344	1814.83
1013.637	1821.6
1013.93	1740.48
1014.222	1783.19
1014.514	1753.81
1014.807	1739.35
1015.099	1739.35
1015.391	1745.22
1015.683	1726.01
1015.976	1719.01
1016.268	1698.22
1016.56	1663.42
1016.851	1680.14
1017.143	1687.14
1017.435	1635.62
1017.727	1619.35
1018.018	1611.67
1018.31	1610.54
1018.602	1577.32
1018.893	1622.97
1019.185	1569.63
1019.476	1563.98
1019.767	1582.06
1020.058	1565.79
1020.35	1547.71
1020.641	1529.41
1020.932	1528.51
1021.223	1506.13
1021.514	1498.22
1021.804	1506.81
1022.095	1473.59
1022.386	1455.29
1022.677	1484.21
1022.967	1460.48
1023.258	1456.64
1023.548	1436.53
1023.839	1420.26
1024.129	1432.46
1024.419	1384.33
1024.709	1394.5
1025	1375.29
1025.29	1393.82
1025.58	1373.71
1025.87	1377.77
1026.16	1361.96
1026.449	1350.66
1026.739	1347.72
1027.029	1331.22
1027.319	1305.91
1027.608	1303.43
1027.898	1282.64
1028.187	1302.97
1028.477	1283.09
1028.766	1291.68
1029.055	1272.69
1029.344	1297.55
1029.634	1247.83
1029.923	1250.77
1030.212	1213.94
1030.501	1233.15
1030.79	1210.55
1031.078	1210.32
1031.367	1191.56
1031.656	1207.16
1031.945	1179.14
1032.233	1178.91
1032.522	1187.95
1032.81	1176.42
1033.099	1144.56
1033.387	1155.18
1033.675	1142.98
1033.963	1138.01
1034.251	1140.49
1034.54	1132.81
1034.828	1116.31
1035.116	1112.24
1035.403	1099.14
1035.691	1104.11
1035.979	1091
1036.267	1046.94
1036.554	1075.18
1036.842	1041.51
1037.129	1058.46
1037.417	1034.05
1037.704	1063.88
1037.992	1058.23
1038.279	1030.44
1038.566	1035.86
1038.853	1035.86
1039.14	1035.86
