Data from hue_260_FLMS001491_00059.txt Node
Date: Tue Feb 07 15:59:13 GMT 2017
User: dcchb
Spectrometer: FLMS00149
Trigger mode: 0
Integration Time (sec): 2.000000E-2
Scans to average: 10
Electric dark correction enabled: true
Nonlinearity correction enabled: false
Boxcar width: 0
XAxis mode: Wavelengths
Number of Pixels in Spectrum: 2048
>>>>>Begin Spectral Data<<<<<
341.393	-17.39
341.776	-17.39
342.16	-17.39
342.543	-60.78
342.927	-74.79
343.31	-62.81
343.693	-66.2
344.077	-36.37
344.46	-53.77
344.843	-51.51
345.226	-39.31
345.61	-30.72
345.993	-6.31
346.376	-23.71
346.759	15.83
347.142	30.3
347.525	38.21
347.908	59.45
348.291	68.49
348.674	83.63
349.057	74.81
349.44	125.43
349.823	145.55
350.206	138.32
350.588	196.39
350.971	209.95
351.354	223.74
351.737	213.79
352.119	236.17
352.502	256.5
352.884	256.96
353.267	296.5
353.65	273
354.032	289.95
354.414	293.57
354.797	303.73
355.179	290.4
355.562	317.97
355.944	324.3
356.326	307.8
356.709	325.88
357.091	319.55
357.473	330.17
357.855	328.37
358.238	327.46
358.62	329.05
359.002	335.6
359.384	316.84
359.766	316.62
360.148	330.4
360.53	330.63
360.912	335.37
361.294	308.25
361.676	325.88
362.057	342.6
362.439	344.64
362.821	316.39
363.203	334.69
363.584	311.64
363.966	316.62
364.348	310.06
364.729	311.87
365.111	306.9
365.493	310.97
365.874	324.98
366.256	313.68
366.637	311.42
367.019	292.89
367.4	304.86
367.781	295.15
368.163	297.86
368.544	296.5
368.925	310.51
369.306	326.79
369.688	321.59
370.069	302.83
370.45	316.16
370.831	292.44
371.212	306.22
371.593	322.27
371.974	312.1
372.355	315.49
372.736	303.73
373.117	305.99
373.498	302.38
373.879	305.77
374.26	322.94
374.641	312.55
375.021	298.54
375.402	322.04
375.783	300.12
376.163	292.21
376.544	315.26
376.925	306.45
377.305	324.75
377.686	314.81
378.066	319.1
378.447	318.88
378.827	326.79
379.208	321.81
379.588	317.75
379.968	325.88
380.349	330.4
380.729	320.91
381.109	323.85
381.489	333.11
381.87	325.2
382.25	343.06
382.63	319.1
383.01	333.56
383.39	329.27
383.77	342.83
384.15	347.12
384.53	311.19
384.91	346.45
385.29	354.58
385.67	342.38
386.049	341.02
386.429	333.79
386.809	333.34
387.189	344.41
387.568	346.45
387.948	352.1
388.328	372.66
388.707	345.99
389.087	350.06
389.466	360.23
389.846	358.2
390.225	361.59
390.605	368.37
390.984	359.55
391.363	365.65
391.743	356.16
392.122	379.67
392.501	370.85
392.881	378.99
393.26	391.19
393.639	380.12
394.018	381.7
394.397	367.24
394.776	364.07
395.155	394.35
395.534	395.03
395.913	397.52
396.292	384.64
396.671	393.22
397.05	400.23
397.429	379.67
397.808	392.32
398.186	401.59
398.565	388.25
398.944	397.97
399.323	396.16
399.701	407.91
400.08	400.68
400.458	408.14
400.837	420.79
401.215	409.95
401.594	405.88
401.972	433
402.351	415.6
402.729	407.01
403.107	424.86
403.486	416.5
403.864	434.35
404.242	431.42
404.62	451.98
404.999	440.45
405.377	448.14
405.755	468.02
406.133	446.33
406.511	454.01
406.889	469.38
407.267	453.34
407.645	464.41
408.023	474.58
408.401	475.26
408.779	463.73
409.156	486.78
409.534	497.63
409.912	491.53
410.29	501.47
410.667	500.34
411.045	508.48
411.422	526.33
411.8	523.62
412.178	521.13
412.555	552.32
412.933	553.22
413.31	564.07
413.687	584.18
414.065	563.16
414.442	581.02
414.819	572.88
415.197	596.38
415.574	593.9
415.951	581.47
416.328	594.8
416.705	601.58
417.082	620.11
417.46	637.06
417.837	643.16
418.214	653.56
418.591	644.97
418.967	640.22
419.344	652.2
419.721	670.96
420.098	664.86
420.475	673.22
420.852	694.69
421.228	693.33
421.605	695.36
421.982	705.98
422.358	743.72
422.735	729.94
423.111	746.89
423.488	744.4
423.864	769.26
424.241	780.33
424.617	785.53
424.994	792.08
425.37	818.07
425.746	811.74
426.123	825.53
426.499	834.57
426.875	856.04
427.251	862.82
427.627	904.17
428.003	909.37
428.379	887.22
428.756	879.99
429.132	908.01
429.507	937.62
429.883	927.22
430.259	943.49
430.635	954.11
431.011	941.01
431.387	986.65
431.763	986.2
432.138	976.94
432.514	1014.9
432.89	1018.07
433.265	1030.95
433.641	1038.18
434.016	1075.01
434.392	1076.37
434.767	1098.29
435.143	1110.27
435.518	1144.84
435.894	1144.62
436.269	1178.51
436.644	1206.99
437.02	1209.47
437.395	1230.04
437.77	1213.09
438.145	1247.89
438.52	1270.49
438.895	1278.62
439.271	1307.55
439.646	1340.54
440.021	1325.85
440.395	1335.12
440.77	1331.5
441.145	1388.9
441.52	1397.04
441.895	1397.04
442.27	1400.43
442.645	1380.77
443.019	1425.74
443.394	1426.64
443.769	1433.2
444.143	1454.44
444.518	1485.85
444.892	1472.97
445.267	1521.33
445.641	1497.6
446.016	1538.96
446.39	1548.22
446.764	1544.83
447.139	1540.54
447.513	1580.76
447.887	1563.59
448.262	1563.81
448.636	1569.46
449.01	1602.01
449.384	1614.89
449.758	1630.93
450.132	1659.86
450.506	1637.49
450.88	1688.33
451.254	1682.23
451.628	1698.73
452.002	1698.27
452.376	1743.7
452.75	1731.27
453.123	1743.92
453.497	1768.33
453.871	1786.86
454.244	1806.29
454.618	1833.64
454.992	1870.7
455.365	1834.09
455.739	1904.82
456.112	1905.05
456.486	1901.43
456.859	1968.55
457.232	1946.4
457.606	1936.01
457.979	1982.11
458.352	2035.89
458.725	2033.63
459.099	2036.8
459.472	2093.52
459.845	2119.73
460.218	2129
460.591	2146.62
460.964	2114.53
461.337	2163.35
461.71	2244.02
462.083	2250.58
462.456	2265.04
462.829	2256.23
463.201	2292.38
463.574	2283.8
463.947	2315.89
464.32	2377.13
464.692	2387.52
465.065	2401.98
465.438	2408.99
465.81	2451.02
466.183	2473.85
466.555	2515.88
466.928	2541.19
467.3	2500.06
467.672	2562.21
468.045	2626.39
468.417	2654.63
468.789	2664.8
469.161	2693.28
469.534	2754.52
469.906	2775.08
470.278	2803.33
470.65	2801.07
471.022	2879.71
471.394	2901.18
471.766	2912.48
472.138	2995.87
472.51	3008.3
472.882	3056.2
473.253	3080.61
473.625	3105.47
473.997	3199.03
474.369	3191.57
474.74	3218.46
475.112	3254.62
475.484	3285.58
475.855	3373.48
476.227	3380.72
476.598	3459.58
476.97	3475.4
477.341	3555.85
477.713	3592.91
478.084	3632.69
478.455	3667.26
478.827	3702.74
479.198	3815.51
479.569	3848.05
479.94	3934.83
480.311	3897.54
480.682	4039
481.053	4101.38
481.424	4114.26
481.795	4128.95
482.166	4189.51
482.537	4263.4
482.908	4361.26
483.279	4413.68
483.65	4461.14
484.021	4490.97
484.391	4534.81
484.762	4538.43
485.133	4601.48
485.503	4638.08
485.874	4742.26
486.244	4768.02
486.615	4876.72
486.985	4949.71
487.356	4993.33
487.726	5020.22
488.097	5060.22
488.467	5170.05
488.837	5230.16
489.207	5270.84
489.578	5298.86
489.948	5331.17
490.318	5420.66
490.688	5407.1
491.058	5524.16
491.428	5529.59
491.798	5561.45
492.168	5722.12
492.538	5692.75
492.908	5754.21
493.278	5837.15
493.648	5805.96
494.017	5904.27
494.387	5913.53
494.757	5982.46
495.126	6009.12
495.496	6079.4
495.866	6037.82
496.235	6148.1
496.605	6130.7
496.974	6176.12
497.344	6265.39
497.713	6201.21
498.082	6299.96
498.452	6338.83
498.821	6374.54
499.19	6287.98
499.559	6409.11
499.928	6378.15
500.298	6472.84
500.667	6469.22
501.036	6528.2
501.405	6530.46
501.774	6518.71
502.143	6612.04
502.512	6603
502.88	6645.72
503.249	6654.08
503.618	6634.64
503.987	6693.17
504.356	6742.44
504.724	6770.01
505.093	6795.54
505.462	6782.21
505.83	6847.07
506.199	6877.35
506.567	6905.6
506.936	6939.94
507.304	6974.29
507.672	6931.36
508.041	6994.41
508.409	7022.88
508.777	7079.83
509.145	7030.56
509.514	7049.77
509.882	7121.18
510.25	7142.43
510.618	7156.89
510.986	7169.77
511.354	7226.72
511.722	7192.37
512.09	7243.89
512.458	7250.9
512.826	7335.87
513.193	7280.27
513.561	7305.81
513.929	7328.63
514.297	7416.99
514.664	7443.66
515.032	7385.13
515.4	7406.37
515.767	7454.96
516.135	7485.92
516.502	7461.51
516.869	7512.13
517.237	7520.95
517.604	7489.08
517.972	7563.21
518.339	7484.56
518.706	7601.4
519.073	7587.61
519.44	7545.58
519.808	7674.84
520.175	7640.72
520.542	7648.63
520.909	7630.1
521.276	7622.86
521.643	7735.86
522.009	7735.18
522.376	7758.45
522.743	7718.46
523.11	7814.27
523.477	7883.65
523.843	7865.34
524.21	7914.61
524.577	7925
524.943	7945.57
525.31	7887.26
525.676	7953.93
526.043	8021.27
526.409	8063.98
526.776	8049.52
527.142	7987.83
527.508	8012.68
527.874	8056.75
528.241	8108.28
528.607	8064.66
528.973	8146.47
529.339	8079.35
529.705	8163.64
530.071	8142.62
530.437	8161.83
530.803	8158.9
531.169	8175.39
531.535	8198.89
531.901	8173.13
532.267	8244.54
532.632	8238.44
532.998	8247.03
533.364	8249.29
533.73	8290.19
534.095	8243.41
534.461	8323.64
534.826	8253.36
535.192	8294.26
535.557	8312.11
535.923	8239.57
536.288	8270.53
536.653	8277.99
537.019	8171.1
537.384	8306.91
537.749	8240.48
538.114	8236.18
538.479	8215.84
538.845	8226.69
539.21	8189.18
539.575	8235.5
539.94	8235.28
540.305	8263.07
540.67	8206.35
541.034	8183.3
541.399	8257.42
541.764	8291.77
542.129	8276.63
542.494	8218.56
542.858	8205.9
543.223	8202.28
543.587	8181.95
543.952	8203.19
544.316	8177.43
544.681	8218.56
545.045	8228.05
545.41	8218.56
545.774	8188.95
546.138	8143.75
546.503	8239.8
546.867	8187.37
547.231	8206.58
547.595	8180.59
547.959	8227.82
548.324	8134.04
548.688	8176.52
549.052	8109.86
549.416	8138.56
549.779	8154.15
550.143	8172.91
550.507	8176.3
550.871	8153.25
551.235	8111.89
551.599	8091.33
551.962	8155.96
552.326	8165.45
552.689	8101.72
553.053	8067.37
553.417	8094.94
553.78	8132.23
554.143	8161.16
554.507	8067.37
554.87	8174.71
555.234	8171.32
555.597	8163.19
555.96	8151.21
556.323	8170.65
556.686	8158.67
557.05	8232.34
557.413	8117.54
557.776	8130.42
558.139	8210.42
558.502	8190.53
558.865	8198.44
559.228	8273.02
559.59	8200.7
559.953	8258.55
560.316	8308.95
560.679	8217.43
561.041	8231.44
561.404	8363.41
561.767	8335.16
562.129	8331.55
562.492	8423.97
562.854	8382.84
563.217	8339.23
563.579	8361.15
563.941	8410.41
564.304	8402.05
564.666	8447.93
565.028	8510.98
565.39	8491.09
565.753	8547.13
566.115	8514.14
566.477	8577.42
566.839	8523.63
567.201	8567.02
567.563	8563.4
567.925	8622.84
568.287	8649.73
568.648	8700.12
569.01	8679.79
569.372	8684.08
569.734	8737.86
570.095	8764.08
570.457	8793.23
570.819	8833.23
571.18	8819.9
571.542	8837.07
571.903	8783.74
572.265	8863.74
572.626	8901.25
572.987	8851.76
573.349	8896.73
573.71	8943.96
574.071	8935.6
574.432	9006.11
574.794	9026.44
575.155	8941.93
575.516	9009.72
575.877	9101.24
576.238	9082.49
576.599	9191.64
576.96	9204.97
577.32	9150.28
577.681	9147.34
578.042	9132.43
578.403	9253.56
578.763	9237.51
579.124	9260.34
579.485	9288.58
579.845	9292.43
580.206	9284.06
580.566	9399.77
580.927	9273.44
581.287	9317.51
581.648	9343.05
582.008	9382.37
582.368	9392.08
582.728	9497.17
583.089	9411.97
583.449	9405.64
583.809	9462.82
584.169	9421.01
584.529	9464.17
584.889	9545.53
585.249	9541.23
585.609	9500.56
585.969	9625.07
586.329	9538.29
586.688	9585.3
587.048	9515.92
587.408	9541.91
587.768	9579.42
588.127	9604.73
588.487	9550.27
588.846	9686.77
589.206	9604.06
589.565	9608.35
589.925	9664.17
590.284	9668.23
590.643	9706.2
591.003	9702.36
591.362	9776.71
591.721	9754.56
592.08	9731.06
592.44	9737.61
592.799	9841.34
593.158	9807.89
593.517	9824.39
593.876	9841.34
594.235	9862.35
594.593	9835.69
594.952	9819.87
595.311	9848.57
595.67	9866.65
596.029	9934.22
596.387	9927.44
596.746	9888.57
597.104	9868.68
597.463	9860.09
597.822	10001.79
598.18	9823.26
598.538	9906.65
598.897	9970.37
599.255	9835.01
599.613	9969.7
599.972	9927.89
600.33	9965.85
600.688	10001.79
601.046	9953.88
601.404	10013.54
601.762	10047.43
602.12	10034.55
602.478	10097.6
602.836	10024.61
603.194	10003.37
603.552	10064.38
603.91	10018.96
604.268	9992.97
604.625	9988
604.983	10055.57
605.341	10009.92
605.698	10039.52
606.056	10169.24
606.413	10058.28
606.771	10082.01
607.128	10117.04
607.485	10040.43
607.843	10108
608.2	10173.76
608.557	10203.81
608.914	10172.4
609.272	10150.26
609.629	10178.5
609.986	10231.16
610.343	10208.79
610.7	10213.53
611.057	10232.29
611.414	10292.62
611.771	10245.62
612.127	10312.74
612.484	10312.74
612.841	10295.11
613.198	10300.31
613.554	10278.84
613.911	10362.23
614.267	10322.23
614.624	10306.86
614.98	10306.64
615.337	10396.58
615.693	10360.42
616.05	10328.33
616.406	10373.07
616.762	10404.71
617.118	10362
617.475	10378.27
617.831	10407.2
618.187	10389.8
618.543	10407.42
618.899	10456.69
619.255	10460.3
619.611	10548.21
619.967	10439.29
620.323	10452.62
620.678	10444.94
621.034	10387.54
621.39	10409.91
621.746	10383.92
622.101	10567.87
622.457	10489.91
622.812	10423.92
623.168	10427.76
623.523	10458.95
623.879	10498.04
624.234	10418.95
624.589	10460.53
624.945	10476.12
625.3	10461.66
625.655	10476.57
626.01	10448.55
626.365	10430.02
626.72	10506.4
627.075	10438.84
627.43	10460.76
627.785	10425.5
628.14	10461.89
628.495	10436.8
628.85	10453.07
629.205	10439.51
629.559	10459.63
629.914	10373.3
630.269	10450.13
630.623	10345.5
630.978	10330.82
631.332	10329.69
631.687	10372.85
632.041	10355.9
632.396	10339.18
632.75	10373.07
633.104	10292.62
633.459	10259.63
633.813	10304.6
634.167	10296.01
634.521	10250.37
634.875	10286.75
635.229	10225.96
635.583	10164.94
635.937	10216.47
636.291	10212.85
636.645	10164.49
636.999	10167.43
637.352	10226.19
637.706	10123.14
638.06	10181.44
638.413	10129.47
638.767	10141.44
639.121	10120.88
639.474	9965.85
639.828	10077.49
640.181	10047.43
640.534	10120.43
640.888	10040.2
641.241	10015.8
641.594	9998.4
641.947	10083.36
642.301	10007.43
642.654	10056.25
643.007	10010.82
643.36	9998.62
643.713	9972.18
644.066	9957.94
644.419	9917.27
644.771	9891.73
645.124	9787.33
645.477	9840.21
645.83	9763.6
646.182	9633.89
646.535	9658.52
646.888	9724.73
647.24	9651.06
647.593	9721.34
647.945	9627.33
648.298	9610.83
648.65	9550.95
649.002	9523.15
649.355	9649.25
649.707	9603.38
650.059	9659.42
650.411	9746.88
650.763	9732.19
651.115	9865.52
651.467	9799.76
651.819	9816.93
652.171	9846.76
652.523	9823.71
652.875	9851.51
653.227	9809.02
653.578	9841.56
653.93	9859.19
654.282	9761.34
654.633	9792.98
654.985	9791.62
655.337	9769.47
655.688	9830.72
656.039	9816.93
656.391	9762.24
656.742	9729.93
657.094	9794.33
657.445	9741.9
657.796	9709.59
658.147	9757.27
658.498	9792.07
658.849	9806.99
659.2	9802.92
659.551	9735.8
659.902	9739.87
660.253	9805.63
660.604	9763.83
660.955	9727.67
661.306	9771.06
661.656	9733.77
662.007	9822.13
662.358	9757.5
662.708	9776.03
663.059	9834.11
663.409	9747.1
663.76	9775.8
664.11	9815.12
664.461	9769.93
664.811	9812.86
665.161	9830.49
665.511	9737.39
665.862	9731.51
666.212	9848.57
666.562	9808.12
666.912	9820.09
667.262	9753.88
667.612	9802.69
667.962	9801.56
668.312	9758.18
668.662	9749.59
669.011	9848.79
669.361	9779.64
669.711	9740.1
670.06	9765.41
670.41	9768.34
670.76	9696.93
671.109	9855.35
671.459	9691.51
671.808	9708.01
672.157	9738.97
672.507	9725.18
672.856	9708.46
673.205	9691.28
673.554	9683.6
673.904	9612.19
674.253	9720.89
674.602	9728.8
674.951	9572.19
675.3	9521.8
675.649	9699.42
675.998	9663.49
676.346	9661.68
676.695	9631.4
677.044	9580.78
677.393	9592.76
677.741	9586.2
678.09	9592.76
678.438	9573.55
678.787	9578.75
679.135	9558.86
679.484	9487.67
679.832	9509.82
680.181	9481.35
680.529	9577.84
680.877	9419.88
681.225	9530.84
681.573	9546.2
681.922	9420.78
682.27	9384.85
682.618	9457.39
682.966	9352.99
683.314	9415.59
683.661	9341.46
684.009	9274.35
684.357	9418.07
684.705	9346.44
685.053	9299.2
685.4	9271.86
685.748	9282.48
686.095	9188.02
686.443	9162.26
686.79	9157.06
687.138	9169.26
687.485	9188.02
687.832	9095.82
688.18	9076.39
688.527	9061.24
688.874	9011.75
689.221	9046.78
689.568	9035.93
689.915	8942.38
690.262	8945.32
690.609	8885.88
690.956	8834.81
691.303	8910.97
691.65	8817.18
691.997	8761.37
692.344	8756.17
692.69	8701.93
693.037	8735.15
693.383	8692.67
693.73	8656.28
694.077	8658.32
694.423	8589.17
694.769	8603.63
695.116	8616.51
695.462	8551.65
695.808	8505.55
696.155	8534.48
696.501	8448.38
696.847	8417.42
697.193	8433.01
697.539	8466.68
697.885	8346.01
698.231	8334.94
698.577	8292.9
698.923	8239.12
699.269	8248.16
699.614	8168.39
699.96	8154.38
700.306	8180.36
700.651	8100.37
700.997	8126.81
701.342	8106.24
701.688	8073.7
702.033	7972.01
702.379	8037.77
702.724	7963.19
703.069	7984.21
703.415	7894.27
703.76	7906.7
704.105	7892.24
704.45	7831.45
704.795	7810.88
705.14	7772.92
705.485	7791.22
705.83	7748.74
706.175	7830.32
706.52	7740.38
706.865	7680.94
707.209	7702.41
707.554	7706.93
707.899	7654.28
708.243	7609.31
708.588	7628.06
708.932	7591.9
709.277	7573.83
709.621	7492.25
709.966	7469.65
710.31	7530.21
710.654	7444.56
710.998	7430.78
711.342	7426.03
711.687	7424.45
712.031	7412.02
712.375	7337.45
712.719	7319.82
713.063	7327.05
713.407	7393.27
713.75	7336.54
714.094	7316.43
714.438	7275.53
714.782	7241.63
715.125	7217.23
715.469	7251.57
715.812	7210.45
716.156	7210.67
716.499	7215.42
716.843	7245.02
717.186	7154.63
717.53	7163.67
717.873	7173.16
718.216	7127.51
718.559	7116.89
718.902	7070.11
719.246	7024.01
719.589	7068.3
719.932	7095.65
720.275	7008.64
720.617	7045.93
720.96	7029.43
721.303	7020.17
721.646	7000.06
721.989	6980.17
722.331	7042.31
722.674	6972.49
723.016	7032.82
723.359	7021.98
723.701	7057.46
724.044	6952.37
724.386	6900.62
724.729	7002.54
725.071	6981.07
725.413	6960.06
725.755	6895.43
726.097	6887.97
726.439	6838.48
726.782	6866.05
727.124	6972.94
727.465	6844.13
727.807	6892.71
728.149	6892.94
728.491	6813.39
728.833	6892.49
729.175	6888.87
729.516	6889.1
729.858	6837.57
730.199	6881.42
730.541	6900.17
730.882	6837.12
731.224	6847.07
731.565	6853.85
731.906	6845.94
732.248	6814.75
732.589	6837.35
732.93	6767.75
733.271	6775.2
733.612	6841.64
733.953	6831.25
734.294	6801.42
734.635	6788.76
734.976	6806.61
735.317	6800.97
735.658	6786.95
735.999	6769.78
736.339	6798.93
736.68	6797.8
737.021	6773.62
737.361	6792.15
737.702	6829.21
738.042	6763.68
738.383	6811.36
738.723	6828.99
739.063	6803.9
739.404	6843.68
739.744	6818.37
740.084	6855.43
740.424	6920.74
740.764	6764.58
741.104	6850.91
741.444	6869.89
741.784	6853.85
742.124	6869.66
742.464	6882.55
742.804	6938.81
743.143	6923.9
743.483	6948.53
743.823	6899.27
744.162	6912.15
744.502	6986.5
744.841	6941.07
745.181	7043.44
745.52	6996.21
745.86	7119.37
746.199	7123.89
746.538	7154.85
746.877	7183.1
747.216	7192.14
747.556	7147.17
747.895	7227.85
748.234	7277.34
748.573	7230.33
748.911	7287.96
749.25	7352.59
749.589	7391.01
749.928	7446.82
750.267	7478.91
750.605	7551.68
750.944	7646.59
751.283	7675.29
751.621	7674.16
751.96	7807.49
752.298	7848.4
752.636	7932.91
752.975	7995.74
753.313	7994.38
753.651	8099.91
753.989	8193.92
754.327	8235.05
754.666	8255.39
755.004	8417.19
755.342	8513.46
755.679	8571.09
756.017	8652.67
756.355	8818.54
756.693	8890.18
757.031	9016.27
757.368	9097.18
757.706	9226.89
758.044	9287.45
758.381	9412.42
758.719	9536.03
759.056	9668.69
759.394	9762.7
759.731	9842.69
760.068	9970.83
760.405	10077.94
760.743	10131.5
761.08	10357.26
761.417	10435.45
761.754	10577.82
762.091	10696
762.428	10816.68
762.765	10864.59
763.102	11077.24
763.438	11183.22
763.775	11211.7
764.112	11466.15
764.449	11507.51
764.785	11590.67
765.122	11683.1
765.458	11834.05
765.795	11978
766.131	12124.22
766.467	12168.73
766.804	12311.33
767.14	12336.41
767.476	12462.06
767.812	12543.41
768.148	12724.43
768.485	12746.12
768.821	12877.19
769.157	12956.06
769.492	13041.93
769.828	13141.82
770.164	13172.1
770.5	13258.42
770.836	13277.18
771.171	13356.27
771.507	13428.81
771.842	13485.31
772.178	13580.67
772.513	13705.19
772.849	13773.66
773.184	13698.41
773.519	13782.02
773.855	13834.23
774.19	13961.68
774.525	13930.5
774.86	14079.87
775.195	13975.69
775.53	14055.69
775.865	14047.1
776.2	14129.36
776.535	14131.17
776.87	14172.3
777.205	14173.65
777.539	14163.03
777.874	14315.34
778.209	14228.34
778.543	14263.14
778.878	14227.66
779.212	14348.56
779.547	14283.48
779.881	14306.08
780.215	14251.62
780.55	14339.07
780.884	14298.62
781.218	14359.18
781.552	14309.69
781.886	14316.93
782.22	14263.14
782.554	14252.07
782.888	14153.99
783.222	14135.69
783.556	14157.61
783.889	14248.45
784.223	14196.03
784.557	14185.63
784.89	14201.67
785.224	14109.93
785.557	14164.84
785.891	14101.79
786.224	14083.03
786.558	14153.09
786.891	14062.24
787.224	14037.61
787.557	13981.12
787.891	14064.05
788.224	14076.03
788.557	14013.43
788.89	14022.02
789.223	14005.52
789.556	13908.8
789.888	13911.51
790.221	13898.86
790.554	13860.21
790.887	13892.3
791.219	13762.59
791.552	13799.88
791.884	13747.22
792.217	13715.36
792.549	13830.16
792.882	13708.81
793.214	13577.74
793.546	13630.39
793.879	13689.82
794.211	13474.91
794.543	13558.98
794.875	13607.79
795.207	13559.21
795.539	13433.11
795.871	13579.77
796.203	13514.91
796.535	13342.71
796.867	13314.92
797.198	13280.12
797.53	13323.73
797.862	13228.14
798.193	13258.87
798.525	13191.53
798.856	13255.26
799.188	13107.24
799.519	13126
799.85	13026.79
800.182	12984.76
800.513	13014.81
800.844	12969.84
801.175	13006.45
801.506	12942.95
801.837	12942.72
802.168	12883.29
802.499	12890.07
802.83	12764.42
803.161	12762.84
803.491	12773.69
803.822	12783.18
804.153	12670.64
804.483	12616.18
804.814	12653.47
805.145	12545
805.475	12591.1
805.805	12585.45
806.136	12523.75
806.466	12470.65
806.796	12500.25
807.126	12403.3
807.457	12410.76
807.787	12457.31
808.117	12377.77
808.447	12305.91
808.777	12388.16
809.107	12252.12
809.436	12257.77
809.766	12283.31
810.096	12222.97
810.426	12184.1
810.755	12206.7
811.085	12100.49
811.414	12092.13
811.744	12055.74
812.073	12079.92
812.403	12013.48
812.732	11949.53
813.061	11949.98
813.39	11859.82
813.719	11912.02
814.049	11949.08
814.378	11884
814.707	11856.88
815.036	11838.12
815.365	11707.73
815.693	11728.75
816.022	11685.36
816.351	11667.28
816.68	11702.31
817.008	11667.73
817.337	11565.81
817.665	11574.17
817.994	11476.77
818.322	11514.97
818.651	11513.38
818.979	11477
819.307	11534.17
819.636	11500.5
819.964	11447.62
820.292	11432.93
820.62	11485.59
820.948	11412.82
821.276	11484.23
821.604	11422.09
821.932	11432.26
822.259	11415.76
822.587	11384.35
822.915	11357.46
823.243	11428.19
823.57	11388.19
823.898	11413.95
824.225	11387.96
824.553	11379.15
824.88	11374.63
825.207	11456.44
825.535	11367.4
825.862	11479.94
826.189	11369.66
826.516	11457.79
826.843	11499.37
827.17	11445.81
827.497	11401.07
827.824	11438.13
828.151	11479.71
828.478	11444.68
828.805	11544.57
829.131	11412.37
829.458	11492.59
829.785	11367.85
830.111	11379.6
830.438	11508.86
830.764	11401.3
831.09	11445.81
831.417	11436.32
831.743	11453.95
832.069	11391.58
832.395	11422.54
832.722	11413.73
833.048	11385.7
833.374	11420.05
833.7	11348.64
834.026	11359.94
834.351	11345.7
834.677	11388.64
835.003	11416.66
835.329	11341.41
835.654	11359.26
835.98	11270.68
836.306	11226.61
836.631	11161.08
836.956	11283.11
837.282	11328.08
837.607	11124.02
837.932	11194.52
838.258	11166.73
838.583	11169.44
838.908	11091.7
839.233	11165.14
839.558	11061.42
839.883	11059.84
840.208	11048.09
840.533	11049.67
840.858	11096.9
841.182	11038.59
841.507	10981.42
841.832	10921.31
842.156	10925.38
842.481	10944.81
842.805	10913.85
843.13	10926.05
843.454	10893.06
843.778	10834.53
844.103	10861.65
844.427	10823.23
844.751	10756.12
845.075	10787.3
845.399	10753.4
845.723	10662.78
846.047	10686.74
846.371	10553.41
846.695	10580.3
847.019	10532.17
847.343	10462.34
847.666	10453.3
847.99	10379.18
848.313	10406.29
848.637	10261.21
848.96	10275
849.284	10271.38
849.607	10167.2
849.931	10112.74
850.254	10106.87
850.577	10023.25
850.9	10044.04
851.223	10007.43
851.546	9898.96
851.869	9903.03
852.192	9904.84
852.515	9833.43
852.838	9795.46
853.161	9743.94
853.483	9768.34
853.806	9652.64
854.129	9671.85
854.451	9664.84
854.774	9673.66
855.096	9604.28
855.419	9574.23
855.741	9518.63
856.063	9461.91
856.385	9458.75
856.708	9436.38
857.03	9407
857.352	9424.17
857.674	9384.17
857.996	9305.31
858.318	9276.83
858.64	9238.87
858.961	9203.61
859.283	9229.83
859.605	9190.51
859.926	9185.54
860.248	9225.76
860.57	9141.24
860.891	9099.21
861.212	9120.68
861.534	9060.79
861.855	8989.61
862.176	9096.27
862.498	9028.03
862.819	9041.36
863.14	8987.57
863.461	8988.25
863.782	8934.69
864.103	8970.17
864.424	8835.04
864.745	8915.03
865.065	8873.23
865.386	8833
865.707	8823.28
866.027	8814.02
866.348	8889.05
866.668	8838.43
866.989	8783.29
867.309	8661.26
867.63	8751.65
867.95	8793.68
868.27	8705.32
868.59	8723.63
868.91	8714.36
869.23	8628.71
869.55	8604.53
869.87	8683.18
870.19	8653.8
870.51	8674.81
870.83	8686.57
871.15	8609.05
871.469	8555.04
871.789	8564.31
872.109	8528.6
872.428	8488.38
872.748	8575.83
873.067	8531.54
873.386	8516.63
873.706	8552.56
874.025	8434.82
874.344	8535.16
874.663	8473.69
874.982	8448.83
875.301	8468.04
875.62	8462.84
875.939	8412.45
876.258	8390.3
876.577	8393.47
876.896	8344.88
877.214	8339.23
877.533	8393.92
877.852	8308.04
878.17	8403.63
878.489	8334.48
878.807	8314.37
879.125	8262.17
879.444	8313.92
879.762	8203.19
880.08	8213.58
880.398	8223.53
880.716	8245.22
881.034	8095.85
881.352	8220.59
881.67	8181.04
881.988	8136.07
882.306	8083.87
882.624	8123.87
882.941	8024.66
883.259	8023.08
883.577	8032.8
883.894	8026.92
884.212	7990.54
884.529	7947.15
884.846	7942.4
885.164	7946.92
885.481	7919.35
885.798	7898.34
886.115	7823.31
886.432	7861.95
886.75	7850.43
887.067	7836.19
887.383	7862.63
887.7	7785.8
888.017	7803.65
888.334	7774.27
888.651	7718.91
888.967	7675.07
889.284	7695.63
889.6	7663.09
889.917	7623.32
890.233	7602.98
890.55	7605.69
890.866	7562.53
891.182	7584.67
891.498	7520.27
891.815	7519.59
892.131	7470.1
892.447	7509.87
892.763	7474.17
893.079	7475.07
893.395	7407.05
893.71	7363.66
894.026	7389.65
894.342	7348.07
894.657	7268.3
894.973	7328.86
895.289	7237.34
895.604	7261.52
895.92	7229.2
896.235	7171.58
896.55	7156.89
896.865	7161.86
897.181	7174.74
897.496	7104.69
897.811	7081.41
898.126	7037.57
898.441	7045.48
898.756	7006.16
899.071	7020.39
899.386	6992.6
899.7	6890.23
900.015	6863.79
900.33	6848.65
900.644	6872.15
900.959	6864.69
901.273	6807.07
901.588	6798.71
901.902	6761.42
902.216	6711.93
902.531	6725.04
902.845	6696.79
903.159	6668.77
903.473	6588.77
903.787	6533.4
904.101	6570.01
904.415	6515.55
904.729	6579.5
905.042	6515.1
905.356	6512.16
905.67	6486.62
905.984	6479.17
906.297	6489.56
906.611	6435.1
906.924	6433.74
907.237	6333.41
907.551	6340.41
907.864	6339.96
908.177	6274.88
908.491	6246.18
908.804	6254.31
909.117	6169.34
909.43	6178.16
909.743	6155.11
910.056	6142.68
910.368	6091.61
910.681	6103.81
910.994	6083.47
911.307	6062
911.619	5965.28
911.932	6005.73
912.244	5954.21
912.557	5916.69
912.869	5912.18
913.181	5859.52
913.494	5895.23
913.806	5828.56
914.118	5806.42
914.43	5795.57
914.742	5777.49
915.054	5736.81
915.366	5732.74
915.678	5707.43
915.99	5720.99
916.302	5626.98
916.613	5610.26
916.925	5563.94
917.236	5616.59
917.548	5584.95
917.859	5587.44
918.171	5507.67
918.482	5492.75
918.794	5456.37
919.105	5437.61
919.416	5365.75
919.727	5452.3
920.038	5392.87
920.349	5366.2
920.66	5381.34
920.971	5377.05
921.282	5316.03
921.593	5295.02
921.903	5205.53
922.214	5248.92
922.525	5258.86
922.835	5220.44
923.146	5167.56
923.456	5195.58
923.767	5102.7
924.077	5103.38
924.387	5087.11
924.697	5061.8
925.008	5086.21
925.318	5067.68
925.628	5055.93
925.938	5008.92
926.248	4944.29
926.558	4938.87
926.867	4950.17
927.177	4933.9
927.487	4937.51
927.796	4834.92
928.106	4851.19
928.416	4825.88
928.725	4827.91
929.034	4773.22
929.344	4784.75
929.653	4800.11
929.962	4711.53
930.271	4721.02
930.581	4667.01
930.89	4643.28
931.199	4671.3
931.508	4622.72
931.817	4645.09
932.125	4662.26
932.434	4604.41
932.743	4555.15
933.051	4509.5
933.36	4552.44
933.669	4514.47
933.977	4498.2
934.286	4465.66
934.594	4487.35
934.902	4466.11
935.21	4404.19
935.519	4370.07
935.827	4389.05
936.135	4383.4
936.443	4312.67
936.751	4330.75
937.059	4294.36
937.367	4318.54
937.674	4239.22
937.982	4284.87
938.29	4259.11
938.597	4253.24
938.905	4195.38
939.213	4234.48
939.52	4137.53
939.827	4126.23
940.135	4122.17
940.442	4100.47
940.749	4075.61
941.056	4113.58
941.363	4057.08
941.67	4055.27
941.977	4028.61
942.284	4045.56
942.591	4015.73
942.898	3950.42
943.205	3970.76
943.511	3959.91
943.818	3927.37
944.125	3913.81
944.431	3958.78
944.738	3878.1
945.044	3830.87
945.35	3890.31
945.657	3818.44
945.963	3802.4
946.269	3787.71
946.575	3797.2
946.881	3782.06
947.187	3760.14
947.493	3739.35
947.799	3789.97
948.105	3745.23
948.41	3702.74
948.716	3669.75
949.022	3658.67
949.327	3673.59
949.633	3597.43
949.938	3637.43
950.244	3655.06
950.549	3613.7
950.854	3610.54
951.16	3563.76
951.465	3557.66
951.77	3501.39
952.075	3481.05
952.38	3512.92
952.685	3519.7
952.99	3467.72
953.294	3434.27
953.599	3445.57
953.904	3401.73
954.209	3399.02
954.513	3404.67
954.818	3375.52
955.122	3369.64
955.426	3393.6
955.731	3342.75
956.035	3359.47
956.339	3315.41
956.643	3341.62
956.948	3279.7
957.252	3292.36
957.556	3247.84
957.86	3267.5
958.163	3227.73
958.467	3211.68
958.771	3215.97
959.075	3228.63
959.378	3186.37
959.682	3171.46
959.985	3168.97
960.289	3140.5
960.592	3093.94
960.896	3101.63
961.199	3062.53
961.502	3102.08
961.805	3089.42
962.108	3086.94
962.411	3042.65
962.714	3038.13
963.017	3037
963.32	3049.43
963.623	3020.05
963.926	2997.68
964.228	2987.05
964.531	2950.22
964.833	2975.98
965.136	2914.51
965.438	2935.76
965.741	2900.5
966.043	2914.97
966.345	2877.68
966.648	2877.9
966.95	2857.34
967.252	2843.33
967.554	2838.58
967.856	2857.79
968.158	2775.31
968.46	2811.47
968.761	2774.86
969.063	2782.77
969.365	2761.52
969.666	2765.59
969.968	2735.54
970.269	2751.81
970.571	2707.06
970.872	2708.87
971.174	2691.92
971.475	2683.11
971.776	2674.75
972.077	2666.38
972.378	2657.8
972.679	2647.85
972.98	2628.65
973.281	2624.8
973.582	2638.59
973.883	2597.69
974.183	2596.33
974.484	2575.09
974.785	2576.22
975.085	2545.26
975.386	2595.65
975.686	2542.77
975.986	2521.98
976.287	2505.71
976.587	2486.73
976.887	2484.92
977.187	2448.76
977.487	2449.44
977.787	2463.68
978.087	2424.58
978.387	2427.52
978.687	2439.27
978.987	2424.58
979.286	2399.5
979.586	2408.54
979.885	2411.02
980.185	2396.34
980.484	2356.11
980.784	2359.05
981.083	2341.2
981.382	2329.9
981.682	2321.08
981.981	2331.25
982.28	2319.73
982.579	2306.39
982.878	2301.65
983.177	2311.59
983.475	2271.82
983.774	2245.6
984.073	2270.24
984.372	2209.45
984.67	2209.22
984.969	2248.99
985.267	2226.17
985.566	2203.57
985.864	2207.19
986.162	2182.33
986.461	2149.79
986.759	2152.05
987.057	2147.08
987.355	2132.61
987.653	2124.48
987.951	2105.95
988.249	2115.89
988.547	2108.21
988.844	2084.03
989.142	2083.58
989.44	2042.9
989.737	2019.62
990.035	2055.1
990.332	2037.7
990.63	2075.89
990.927	2006.06
991.224	2026.18
991.521	2031.37
991.819	1997.48
992.116	1987.31
992.413	1978.72
992.71	1945.5
993.006	1998.38
993.303	1956.8
993.6	1944.14
993.897	1948.21
994.193	1926.52
994.49	1927.42
994.787	1894.88
995.083	1898.95
995.379	1891.94
995.676	1892.39
995.972	1879.29
996.268	1853.98
996.565	1871.83
996.861	1853.07
997.157	1846.75
997.453	1851.26
997.749	1835.9
998.044	1808.33
998.34	1805.39
998.636	1801.32
998.932	1786.63
999.227	1783.24
999.523	1787.54
999.818	1803.36
1000.114	1729.91
1000.409	1742.57
1000.704	1705.96
1001	1737.14
1001.295	1709.57
1001.59	1706.41
1001.885	1667.77
1002.18	1704.38
1002.475	1686.3
1002.77	1687.43
1003.065	1650.59
1003.359	1644.04
1003.654	1652.63
1003.949	1651.5
1004.243	1618.73
1004.538	1614.66
1004.832	1597.71
1005.127	1625.28
1005.421	1593.87
1005.715	1590.25
1006.009	1583.25
1006.304	1586.19
1006.598	1541.89
1006.892	1548.9
1007.186	1524.49
1007.48	1559.97
1007.773	1532.86
1008.067	1536.92
1008.361	1510.93
1008.655	1503.25
1008.948	1499.64
1009.242	1493.31
1009.535	1491.27
1009.829	1448.11
1010.122	1471.39
1010.415	1477.26
1010.708	1450.15
1011.001	1440.65
1011.295	1417.6
1011.588	1420.99
1011.881	1393.2
1012.173	1385.74
1012.466	1401.79
1012.759	1414.89
1013.052	1403.59
1013.344	1359.75
1013.637	1350.49
1013.93	1351.62
1014.222	1339.19
1014.514	1345.06
1014.807	1345.97
1015.099	1323.82
1015.391	1339.64
1015.683	1288.79
1015.976	1322.47
1016.268	1300.54
1016.56	1298.06
1016.851	1295.57
1017.143	1270.94
1017.435	1248.12
1017.727	1280.66
1018.018	1268.23
1018.31	1248.57
1018.602	1262.81
1018.893	1243.37
1019.185	1252.18
1019.476	1206.76
1019.767	1220.55
1020.058	1233.43
1020.35	1192.07
1020.641	1201.79
1020.932	1209.7
1021.223	1181
1021.514	1164.96
1021.804	1174.9
1022.095	1143.49
1022.386	1152.75
1022.677	1142.13
1022.967	1124.5
1023.258	1118.63
1023.548	1118.18
1023.839	1109.14
1024.129	1130.61
1024.419	1101.23
1024.709	1091.28
1025	1101.91
1025.29	1073.21
1025.58	1082.25
1025.87	1069.59
1026.16	1058.97
1026.449	1038.63
1026.739	1075.69
1027.029	1044.05
1027.319	1017.39
1027.608	1031.85
1027.898	1014.68
1028.187	981.91
1028.477	995.92
1028.766	999.54
1029.055	976.26
1029.344	1009.03
1029.634	969.48
1029.923	955.24
1030.212	964.73
1030.501	959.08
1030.79	949.59
1031.078	945.07
1031.367	936.94
1031.656	946.66
1031.945	955.7
1032.233	943.27
1032.522	941.01
1032.81	929.26
1033.099	906.2
1033.387	887
1033.675	913.66
1033.963	906.88
1034.251	880.22
1034.54	898.07
1034.828	858.3
1035.116	919.76
1035.403	869.14
1035.691	868.01
1035.979	872.76
1036.267	844.29
1036.554	849.03
1036.842	848.13
1037.129	849.71
1037.417	850.16
1037.704	829.6
1037.992	837.05
1038.279	818.07
1038.566	822.82
1038.853	822.82
1039.14	822.82
