Data from hue_120_FLMS001491_00025.txt Node
Date: Tue Feb 07 16:59:08 GMT 2017
User: dcchb
Spectrometer: FLMS00149
Trigger mode: 0
Integration Time (sec): 2.000000E-2
Scans to average: 10
Electric dark correction enabled: true
Nonlinearity correction enabled: false
Boxcar width: 0
XAxis mode: Wavelengths
Number of Pixels in Spectrum: 2048
>>>>>Begin Spectral Data<<<<<
341.393	-5.58
341.776	-5.58
342.16	-5.58
342.543	-72.47
342.927	-54.62
343.31	-51.91
343.693	-69.98
344.077	-44.67
344.46	-64.33
344.843	-44.22
345.226	-64.56
345.61	-26.37
345.993	-43.77
346.376	-3.09
346.759	-5.35
347.142	44.82
347.525	43.91
347.908	66.96
348.291	65.38
348.674	94.76
349.057	102.44
349.44	120.07
349.823	141.31
350.206	169.78
350.588	216.34
350.971	191.93
351.354	226.28
351.737	214.75
352.119	251.36
352.502	250.23
352.884	273.96
353.267	272.83
353.65	294.98
354.032	304.47
354.414	300.85
354.797	309.44
355.179	307.86
355.562	305.37
355.944	313.96
356.326	316.22
356.709	334.53
357.091	323.68
357.473	347.18
357.855	359.16
358.238	341.08
358.62	329.33
359.002	341.53
359.384	364.13
359.766	337.01
360.148	346.28
360.53	351.25
360.912	332.04
361.294	346.5
361.676	315.99
362.057	320.74
362.439	318.25
362.821	312.6
363.203	319.84
363.584	311.47
363.966	337.01
364.348	338.37
364.729	339.04
365.111	319.16
365.493	304.7
365.874	308.76
366.256	303.79
366.637	322.77
367.019	324.13
367.4	297.24
367.781	324.81
368.163	332.94
368.544	305.6
368.925	303.34
369.306	325.26
369.688	318.71
370.069	312.6
370.45	293.62
370.831	304.24
371.212	315.54
371.593	320.29
371.974	313.06
372.355	312.15
372.736	316.67
373.117	312.6
373.498	314.64
373.879	323.68
374.26	330.68
374.641	324.81
375.021	305.83
375.402	318.03
375.783	320.51
376.163	312.38
376.544	331.36
376.925	343.11
377.305	329.55
377.686	334.75
378.066	312.15
378.447	344.92
378.827	338.37
379.208	330.23
379.588	341.3
379.968	327.97
380.349	328.65
380.729	334.98
381.109	319.84
381.489	326.62
381.87	321.87
382.25	340.4
382.63	335.66
383.01	343.56
383.39	327.29
383.77	340.63
384.15	333.62
384.53	347.63
384.91	360.74
385.29	356.9
385.67	365.03
386.049	340.4
386.429	358.93
386.809	344.24
387.189	362.77
387.568	360.51
387.948	367.74
388.328	365.48
388.707	370.23
389.087	371.36
389.466	362.77
389.846	351.7
390.225	371.36
390.605	363
390.984	351.47
391.363	379.5
391.743	359.16
392.122	358.71
392.501	383.11
392.881	378.59
393.26	363.45
393.639	387.41
394.018	380.17
394.397	391.7
394.776	377.01
395.155	397.57
395.534	374.3
395.913	383.34
396.292	386.73
396.671	412.94
397.05	403.22
397.429	396.67
397.808	397.12
398.186	404.81
398.565	383.11
398.944	391.02
399.323	395.09
399.701	418.36
400.08	400.51
400.458	419.72
400.837	410.68
401.215	426.5
401.594	391.92
401.972	408.2
402.351	431.7
402.729	419.95
403.107	425.6
403.486	407.29
403.864	427.63
404.242	422.88
404.62	422.88
404.999	439.38
405.377	433.28
405.755	456.78
406.133	410.68
406.511	441.64
406.889	435.54
407.267	456.1
407.645	442.09
408.023	450.91
408.401	456.78
408.779	457.91
409.156	465.82
409.534	440.74
409.912	467.4
410.29	460.62
410.667	473.28
411.045	462.66
411.422	460.62
411.8	468.98
412.178	492.94
412.555	454.07
412.933	483.22
413.31	479.83
413.687	476.22
414.065	504.24
414.442	503.56
414.819	501.3
415.197	500.62
415.574	490.91
415.951	511.47
416.328	511.92
416.705	533.39
417.082	535.42
417.46	510.57
417.837	512.15
418.214	536.78
418.591	517.57
418.967	516.89
419.344	538.36
419.721	562.09
420.098	550.11
420.475	545.82
420.852	553.73
421.228	547.4
421.605	538.59
421.982	553.5
422.358	549.21
422.735	547.85
423.111	565.93
423.488	574.74
423.864	583.78
424.241	578.59
424.617	583.78
424.994	622.2
425.37	595.54
425.746	601.86
426.123	600.51
426.499	582.88
426.875	599.83
427.251	603.9
427.627	610.68
428.003	648.64
428.379	628.3
428.756	643.67
429.132	654.06
429.507	625.36
429.883	654.74
430.259	669.88
430.635	674.63
431.011	663.1
431.387	656.78
431.763	697.45
432.138	659.94
432.514	680.96
432.89	699.94
433.265	682.76
433.641	710.56
434.016	736.55
434.392	704.91
434.767	729.32
435.143	736.32
435.518	712.37
435.894	734.51
436.269	778.58
436.644	760.5
437.02	746.49
437.395	746.04
437.77	771.58
438.145	776.55
438.52	792.59
438.895	787.17
439.271	792.82
439.646	812.03
440.021	804.57
440.395	802.99
440.77	817.22
441.145	813.16
441.52	826.26
441.895	833.5
442.27	841.4
442.645	818.35
443.019	846.15
443.394	856.09
443.769	863.32
444.143	858.81
444.518	872.36
444.892	872.82
445.267	898.13
445.641	882.08
446.016	876.88
446.39	918.46
446.764	895.64
447.139	920.72
447.513	904.68
447.887	911.46
448.262	916.66
448.636	928.86
449.01	934.28
449.384	922.76
449.758	946.49
450.132	954.4
450.506	943.77
450.88	972.25
451.254	981.06
451.628	979.03
452.002	979.03
452.376	1003.21
452.75	1011.8
453.123	1041.17
453.497	1045.69
453.871	1025.13
454.244	1069.2
454.618	1062.87
454.992	1085.01
455.365	1076.88
455.739	1112.36
456.112	1115.3
456.486	1119.36
456.859	1143.54
457.232	1130.44
457.606	1179.7
457.979	1174.5
458.352	1165.69
458.725	1191.9
459.099	1205.69
459.472	1244.11
459.845	1231.9
460.218	1266.25
460.591	1278
460.964	1279.58
461.337	1313.93
461.71	1327.27
462.083	1352.35
462.456	1372.92
462.829	1375.18
463.201	1376.31
463.574	1394.61
463.947	1397.1
464.32	1425.8
464.692	1457.43
465.065	1477.32
465.438	1501.95
465.81	1525.91
466.183	1558.9
466.555	1568.16
466.928	1584.89
467.3	1582.18
467.672	1623.98
468.045	1677.31
468.417	1671.21
468.789	1695.17
469.161	1732.45
469.534	1761.83
469.906	1800.93
470.278	1823.98
470.65	1853.13
471.022	1860.59
471.394	1934.71
471.766	1943.75
472.138	1980.13
472.51	2031.2
472.882	2076.63
473.253	2108.49
473.625	2169.51
473.997	2186.23
474.369	2253.12
474.74	2277.07
475.112	2336.28
475.484	2378.31
475.855	2446.11
476.227	2484.53
476.598	2587.35
476.97	2644.07
477.341	2675.93
477.713	2762.94
478.084	2832.31
478.455	2930.16
478.827	2965.19
479.198	3055.13
479.569	3110.72
479.94	3217.16
480.311	3284.96
480.682	3385.29
481.053	3527.89
481.424	3576.25
481.795	3691.5
482.166	3802
482.537	3860.08
482.908	3966.29
483.279	4116.8
483.65	4204.93
484.021	4349.11
484.391	4427.75
484.762	4536
485.133	4594.07
485.503	4780.51
485.874	4931.47
486.244	4985.25
486.615	5142.99
486.985	5293.04
487.356	5404
487.726	5540.72
488.097	5746.81
488.467	5801.5
488.837	5948.84
489.207	6103.86
489.578	6265.22
489.948	6405.78
490.318	6507.47
490.688	6685.32
491.058	6755.83
491.428	6946.33
491.798	7140
492.168	7355.13
492.538	7433.32
492.908	7545.63
493.278	7694.56
493.648	7822.69
494.017	7979.75
494.387	8114.66
494.757	8304.71
495.126	8454.76
495.496	8520.98
495.866	8687.98
496.235	8774.76
496.605	8937.24
496.974	9101.98
497.344	9158.93
497.713	9346.94
498.082	9420.16
498.452	9563.43
498.821	9700.15
499.19	9781.96
499.559	9935.4
499.928	9984.21
500.298	10177.66
500.667	10261.04
501.036	10367.26
501.405	10536.97
501.774	10566.12
502.143	10705.33
502.512	10735.16
502.88	10909.16
503.249	10923.85
503.618	11013.79
503.987	11109.61
504.356	11270.51
504.724	11304.86
505.093	11349.6
505.462	11396.16
505.83	11475.93
506.199	11704.4
506.567	11851.28
506.936	11809.03
507.304	11956.37
507.672	12081.33
508.041	12138.06
508.409	12200.88
508.777	12339.18
509.145	12362.68
509.514	12313.19
509.882	12484.49
510.25	12571.27
510.618	12590.93
510.986	12729.45
511.354	12739.62
511.722	12846.74
512.09	12941.2
512.458	12949.11
512.826	12983.46
513.193	12994.76
513.561	13174.19
513.929	13164.47
514.297	13229.33
514.664	13340.06
515.032	13408.31
515.4	13479.04
515.767	13413.28
516.135	13555.19
516.502	13408.76
516.869	13668.86
517.237	13678.58
517.604	13662.08
517.972	13704.12
518.339	13737.56
518.706	13772.36
519.073	13781.63
519.44	13915.18
519.808	13954.73
520.175	13896.65
520.542	14070.66
520.909	14042.19
521.276	14105.46
521.643	14169.87
522.009	14226.14
522.376	14109.3
522.743	14320.37
523.11	14299.36
523.477	14442.63
523.843	14494.38
524.21	14502.06
524.577	14528.95
524.943	14590.42
525.31	14551.33
525.676	14625.22
526.043	14733.47
526.409	14683.98
526.776	14784.54
527.142	14759
527.508	14798.1
527.874	14912.67
528.241	14888.27
528.607	14841.49
528.973	14989.06
529.339	14933.69
529.705	14975.95
530.071	15069.28
530.437	14966.46
530.803	15060.69
531.169	15008.72
531.535	14958.32
531.901	14968.04
532.267	14980.02
532.632	15003.29
532.998	15034.25
533.364	15011.43
533.73	14982.95
534.095	15072.22
534.461	14973.69
534.826	15021.14
535.192	14947.93
535.557	15028.38
535.923	15010.75
536.288	14971.65
536.653	14961.71
537.019	14924.2
537.384	14887.36
537.749	14907.25
538.114	14915.38
538.479	14768.04
538.845	14816.4
539.21	14823.41
539.575	14746.58
539.94	14780.47
540.305	14806.46
540.67	14683.98
541.034	14640.14
541.399	14620.7
541.764	14641.27
542.129	14567.15
542.494	14532.57
542.858	14575.51
543.223	14531.44
543.587	14499.35
543.952	14441.95
544.316	14399.69
544.681	14344.55
545.045	14361.27
545.41	14344.1
545.774	14254.61
546.138	14260.03
546.503	14231.33
546.867	14157.21
547.231	14210.77
547.595	14243.31
547.959	14129.42
548.324	14077.44
548.688	13983.88
549.052	14068.4
549.416	14046.93
549.779	13988.86
550.143	13891.23
550.507	14004.45
550.871	13878.58
551.235	13856.66
551.599	13908.41
551.962	13825.7
552.326	13828.41
552.689	13740.27
553.053	13727.17
553.417	13707.51
553.78	13775.3
554.143	13727.85
554.507	13742.08
554.87	13672.93
555.234	13786.15
555.597	13539.6
555.96	13673.84
556.323	13650.56
556.686	13570.56
557.05	13647.4
557.413	13651.69
557.776	13557.91
558.139	13649.2
558.502	13524.91
558.865	13539.38
559.228	13563.56
559.59	13541.86
559.953	13523.56
560.316	13712.7
560.679	13658.69
561.041	13609.88
561.404	13683.33
561.767	13689.65
562.129	13564.01
562.492	13698.69
562.854	13646.72
563.217	13629.77
563.579	13609.43
563.941	13599.49
564.304	13698.92
564.666	13750.67
565.028	13628.19
565.39	13741.18
565.753	13766.26
566.115	13813.27
566.477	13752.93
566.839	13705.7
567.201	13835.19
567.563	13757.9
567.925	13909.99
568.287	13812.36
568.648	13862.76
569.01	13896.88
569.372	13933.94
569.734	13865.92
570.095	13929.2
570.457	13988.18
570.819	13873.83
571.18	13851.01
571.542	14032.24
571.903	13951.34
572.265	13905.02
572.626	14112.69
572.987	14013.26
573.349	14032.7
573.71	13982.53
574.071	14037.22
574.432	14017.56
574.794	14088.06
575.155	14044.9
575.516	14033.37
575.877	14117.89
576.238	14109.08
576.599	14128.74
576.96	14258
577.32	14131.9
577.681	14128.29
578.042	14189.08
578.403	14169.87
578.763	14116.31
579.124	14129.64
579.485	14228.4
579.845	14138
580.206	14164.67
580.566	14185.69
580.927	14184.78
581.287	14169.64
581.648	14235.85
582.008	14262.07
582.368	14175.52
582.728	14207.15
583.089	14168.51
583.449	14181.17
583.809	14114.28
584.169	14171.68
584.529	14071.34
584.889	14177.1
585.249	14058.01
585.609	14060.49
585.969	14064.33
586.329	14065.46
586.688	14033.15
587.048	14072.92
587.408	14048.06
587.768	14000.38
588.127	14017.78
588.487	14005.13
588.846	14104.11
589.206	13983.66
589.565	13981.85
589.925	14028.85
590.284	14016.65
590.643	14038.57
591.003	13992.7
591.362	14060.27
591.721	13981.62
592.08	13961.96
592.44	13955.64
592.799	13940.27
593.158	13903.43
593.517	13818.69
593.876	13891.68
594.235	13913.83
594.593	13893.49
594.952	13935.75
595.311	13817.56
595.67	13831.57
596.029	13928.97
596.387	13881.97
596.746	13851.01
597.104	13822.08
597.463	13793.61
597.822	13862.3
598.18	13849.88
598.538	13865.02
598.897	13924.9
599.255	13775.08
599.613	13973.71
599.972	13882.87
600.33	13934.62
600.688	13888.52
601.046	13880.84
601.404	13878.8
601.762	13892.59
602.12	13961.96
602.478	13931.91
602.836	13929.2
603.194	13904.56
603.552	13786.15
603.91	13770.33
604.268	13805.36
604.625	13845.81
604.983	13852.36
605.341	13869.54
605.698	13859.37
606.056	13885.81
606.413	13822.31
606.771	13909.31
607.128	13953.15
607.485	13876.77
607.843	13850.33
608.2	13973.71
608.557	14001.96
608.914	13994.73
609.272	14011.91
609.629	13929.42
609.986	13977.1
610.343	14002.87
610.7	14045.58
611.057	13985.01
611.414	14009.19
611.771	13983.88
612.127	14084.67
612.484	14072.24
612.841	14045.8
613.198	14044.22
613.554	14040.15
613.911	14163.99
614.267	14040.38
614.624	14156.99
614.98	14086.25
615.337	14169.64
615.693	14140.26
616.05	14139.81
616.406	14228.17
616.762	14114.05
617.118	14167.83
617.475	14172.35
617.831	14272.01
618.187	14240.37
618.543	14241.28
618.899	14289.86
619.255	14277.89
619.611	14231.11
619.967	14267.27
620.323	14386.58
620.678	14214.16
621.034	14245.12
621.39	14276.53
621.746	14224.78
622.101	14340.94
622.457	14201.28
622.812	14384.1
623.168	14298.68
623.523	14286.93
623.879	14308.85
624.234	14203.99
624.589	14276.53
624.945	14418
625.3	14308.85
625.655	14260.94
626.01	14307.94
626.365	14277.21
626.72	14309.75
627.075	14381.84
627.43	14279.47
627.785	14274.72
628.14	14283.99
628.495	14250.54
628.85	14271.56
629.205	14188.62
629.559	14273.59
629.914	14243.99
630.269	14136.65
630.623	14124.9
630.978	14074.73
631.332	14173.71
631.687	14236.08
632.041	14161.96
632.396	14173.03
632.75	14122.64
633.104	14069.98
633.459	14053.94
633.813	14037.22
634.167	13979.14
634.521	14073.15
634.875	14052.58
635.229	14008.97
635.583	13937.33
635.937	13975.3
636.291	13957.44
636.645	13931.68
636.999	13866.15
637.352	14019.81
637.706	13814.17
638.06	13922.19
638.413	13865.24
638.767	13881.74
639.121	13835.87
639.474	13838.12
639.828	13779.82
640.181	13818.46
640.534	13816.43
640.888	13757
641.241	13716.32
641.594	13787.5
641.947	13774.85
642.301	13664.34
642.654	13725.59
643.007	13702.54
643.36	13710.9
643.713	13743.66
644.066	13718.35
644.419	13608.75
644.771	13597.45
645.124	13439.94
645.477	13404.24
645.83	13316.56
646.182	13278.59
646.535	13275.65
646.888	13252.83
647.24	13173.28
647.593	13262.09
647.945	13207.41
648.298	13143.45
648.65	13103
649.002	13069.33
649.355	13243.79
649.707	13212.38
650.059	13263.22
650.411	13371.7
650.763	13391.58
651.115	13565.59
651.467	13505.03
651.819	13594.52
652.171	13561.97
652.523	13414.86
652.875	13484.24
653.227	13405.82
653.578	13475.87
653.93	13483.33
654.282	13463.67
654.633	13376.22
654.985	13448.08
655.337	13407.85
655.688	13548.64
656.039	13424.12
656.391	13439.49
656.742	13456.44
657.094	13379.83
657.445	13444.01
657.796	13464.8
658.147	13524.46
658.498	13380.51
658.849	13486.04
659.2	13481.07
659.551	13431.36
659.902	13495.53
660.253	13450.56
660.604	13491.47
660.955	13454.18
661.306	13516.33
661.656	13481.52
662.007	13524.01
662.358	13517.91
662.708	13602.2
663.059	13515.2
663.409	13465.03
663.76	13543.9
664.11	13524.46
664.461	13574.18
664.811	13606.27
665.161	13570.56
665.511	13594.29
665.862	13559.71
666.212	13577.11
666.562	13637.45
666.912	13627.51
667.262	13457.34
667.612	13603.1
667.962	13535.53
668.312	13567.85
668.662	13556.32
669.011	13512.48
669.361	13491.47
669.711	13555.42
670.06	13518.36
670.41	13530.79
670.76	13487.63
671.109	13510
671.459	13471.58
671.808	13442.88
672.157	13512.48
672.507	13384.35
672.856	13419.6
673.205	13437.46
673.554	13406.95
673.904	13372.37
674.253	13531.47
674.602	13467.51
674.951	13228.88
675.3	13192.72
675.649	13358.82
675.998	13465.93
676.346	13397.68
676.695	13387.97
677.044	13248.31
677.393	13362.66
677.741	13367.18
678.09	13260.96
678.438	13327.86
678.787	13338.93
679.135	13255.54
679.484	13194.53
679.832	13195.2
680.181	13012.38
680.529	13174.41
680.877	13178.71
681.225	13104.13
681.573	13183
681.922	13064.36
682.27	13028.65
682.618	13046.06
682.966	12955.21
683.314	12918.6
683.661	12953.4
684.009	12841.31
684.357	12852.61
684.705	12796.12
685.053	12813.74
685.4	12890.81
685.748	12771.49
686.095	12783.69
686.443	12719.28
686.79	12740.75
687.138	12705.05
687.485	12663.01
687.832	12697.82
688.18	12699.4
688.527	12488.78
688.874	12474.54
689.221	12444.72
689.568	12515.67
689.915	12449.23
690.262	12468.67
690.609	12366.75
690.956	12303.48
691.303	12300.54
691.65	12277.94
691.997	12210.6
692.344	12138.73
692.69	12051.51
693.037	12106.87
693.383	12009.7
693.73	11981.68
694.077	11935.58
694.423	11958.4
694.769	11916.82
695.116	11814.9
695.462	11771.29
695.808	11725.41
696.155	11799.53
696.501	11683.61
696.847	11691.97
697.193	11603.83
697.539	11636.15
697.885	11553.89
698.231	11529.71
698.577	11504.4
698.923	11464.85
699.269	11388.25
699.614	11344.86
699.96	11305.76
700.306	11297.63
700.651	11243.62
700.997	11128.37
701.342	11086.78
701.688	11123.62
702.033	11060.12
702.379	11016.73
702.724	10996.62
703.069	11102.83
703.415	10914.13
703.76	10846.57
704.105	10870.07
704.45	10823.51
704.795	10751.65
705.14	10677.08
705.485	10749.62
705.83	10650.86
706.175	10741.48
706.52	10614.71
706.865	10622.39
707.209	10514.37
707.554	10498.1
707.899	10531.32
708.243	10500.81
708.588	10534.93
708.932	10360.93
709.277	10298.1
709.621	10394.15
709.966	10322.29
710.31	10257.2
710.654	10237.54
710.998	10347.14
711.342	10357.09
711.687	10268.95
712.031	10188.73
712.375	10123.87
712.719	10133.36
713.063	10093.82
713.407	10174.94
713.75	10087.49
714.094	10061.73
714.438	10070.09
714.782	10044.55
715.125	9949.87
715.469	9973.59
715.812	9957.1
716.156	9847.95
716.499	9928.62
716.843	9932.01
717.186	9866.48
717.53	9875.52
717.873	9892.24
718.216	9855.63
718.559	9783.09
718.902	9735.18
719.246	9774.28
719.589	9772.02
719.932	9663.32
720.275	9745.58
720.617	9680.04
720.96	9664.22
721.303	9680.72
721.646	9680.49
721.989	9603.21
722.331	9634.39
722.674	9682.08
723.016	9653.6
723.359	9645.01
723.701	9660.38
724.044	9610.21
724.386	9484.57
724.729	9581.51
725.071	9563.21
725.413	9655.64
725.755	9631.68
726.097	9506.71
726.439	9406.83
726.782	9527.73
727.124	9490.89
727.465	9548.97
727.807	9543.77
728.149	9493.61
728.491	9491.12
728.833	9506.26
729.175	9456.77
729.516	9470.33
729.858	9426.72
730.199	9479.6
730.541	9449.31
730.882	9455.19
731.224	9423.78
731.565	9476.21
731.906	9510.56
732.248	9403.67
732.589	9366.83
732.93	9401.41
733.271	9487.5
733.612	9446.83
733.953	9457
734.294	9431.46
734.635	9397.56
734.976	9406.38
735.317	9362.99
735.658	9371.35
735.999	9427.39
736.339	9427.39
736.68	9466.49
737.021	9385.36
737.361	9419.71
737.702	9499.48
738.042	9468.75
738.383	9416.55
738.723	9442.08
739.063	9419.48
739.404	9478.69
739.744	9472.36
740.084	9417
740.424	9495.87
740.764	9396.89
741.104	9484.34
741.444	9520.05
741.784	9496.54
742.124	9515.07
742.464	9545.81
742.804	9476.43
743.143	9591
743.483	9509.88
743.823	9630.55
744.162	9598.01
744.502	9661.51
744.841	9622.64
745.181	9683.66
745.52	9742.19
745.86	9784.9
746.199	9849.53
746.538	9859.92
746.877	9892.69
747.216	10016.3
747.556	10037.32
747.895	10058.34
748.234	10079.58
748.573	10182.18
748.911	10154.38
749.25	10236.19
749.589	10262.17
749.928	10355.28
750.267	10425.11
750.605	10528.83
750.944	10566.57
751.283	10668.04
751.621	10731.09
751.96	10826
752.298	10908.26
752.636	11002.72
752.975	11137.4
753.313	11155.71
753.651	11294.01
753.989	11389.6
754.327	11552.76
754.666	11567.9
755.004	11736.71
755.342	11857.39
755.679	11989.59
756.017	12096.93
756.355	12319.29
756.693	12401.55
757.031	12636.35
757.368	12660.98
757.706	12819.85
758.044	13008.32
758.381	13194.3
758.719	13291.47
759.056	13558.58
759.394	13637
759.731	13726.26
760.068	13848.52
760.405	14057.33
760.743	14153.82
761.08	14382.07
761.417	14471.33
761.754	14623.41
762.091	14800.81
762.428	15055.72
762.765	15148.82
763.102	15382.94
763.438	15475.6
763.775	15606.21
764.112	15858.18
764.449	16033.1
764.785	16103.38
765.122	16281.68
765.458	16374.1
765.795	16506.98
766.131	16801.44
766.467	16895.9
766.804	17017.02
767.14	17195.32
767.476	17367.3
767.812	17359.39
768.148	17551.93
768.485	17611.81
768.821	17686.61
769.157	18027.39
769.492	17975.19
769.828	18121.85
770.164	18054.74
770.5	18206.82
770.836	18268.29
771.171	18492.01
771.507	18522.07
771.842	18548.28
772.178	18722.52
772.513	18795.28
772.849	18922.06
773.184	18963.87
773.519	19108.49
773.855	18971.78
774.19	19194.14
774.525	19110.08
774.86	19276.63
775.195	19276.4
775.53	19388.26
775.865	19281.6
776.2	19354.36
776.535	19263.52
776.87	19444.31
777.205	19447.47
777.539	19382.16
777.874	19629.84
778.209	19537.41
778.543	19507.81
778.878	19543.51
779.212	19606.79
779.547	19503.96
779.881	19749.61
780.215	19614.24
780.55	19692.89
780.884	19657.63
781.218	19673
781.552	19721.59
781.886	19725.65
782.22	19682.72
782.554	19691.53
782.888	19575.6
783.222	19548.71
783.556	19555.71
783.889	19495.83
784.223	19405.44
784.557	19506.22
784.89	19518.2
785.224	19363.18
785.557	19399.11
785.891	19446.11
786.224	19428.03
786.558	19458.09
786.891	19285.44
787.224	19263.97
787.557	19271.88
787.891	19300.13
788.224	19259.68
788.557	19359.34
788.89	19299
789.223	19263.74
789.556	19138.1
789.888	19091.55
790.221	19081.83
790.554	18973.58
790.887	18973.13
791.219	18944.66
791.552	18905.56
791.884	18869.18
792.217	18782.85
792.549	18772.01
792.882	18690.43
793.214	18787.83
793.546	18741.72
793.879	18540.15
794.211	18564.1
794.543	18586.47
794.875	18605.91
795.207	18627.38
795.539	18503.99
795.871	18437.55
796.203	18296.99
796.535	18273.71
796.867	18313.26
797.198	18177.9
797.53	18217.9
797.862	18161.18
798.193	18151.68
798.525	18045.25
798.856	18052.93
799.188	17906.72
799.519	17901.29
799.85	17886.61
800.182	17827.4
800.513	17942.88
800.844	17664.92
801.175	17749.66
801.506	17718.25
801.837	17613.62
802.168	17660.17
802.499	17543.34
802.83	17504.7
803.161	17525.49
803.491	17503.11
803.822	17542.21
804.153	17414.53
804.483	17288.66
804.814	17249.33
805.145	17125.04
805.475	17162.33
805.805	17111.26
806.136	17110.13
806.466	17040.3
806.796	17114.2
807.126	16943.58
807.457	16879.63
807.787	16962.56
808.117	16849.8
808.447	16833.75
808.777	16847.76
809.107	16790.59
809.436	16733.87
809.766	16654.32
810.096	16622.68
810.426	16623.14
810.755	16622.23
811.085	16530.48
811.414	16662.68
811.744	16379.75
812.073	16395.8
812.403	16386.98
812.732	16339.53
813.061	16252.75
813.39	16251.62
813.719	16183.37
814.049	16336.36
814.378	16221.11
814.707	16132.98
815.036	16181.79
815.365	16081.91
815.693	15969.82
816.022	15952.87
816.351	15856.15
816.68	15820.45
817.008	15871.07
817.337	15738.41
817.665	15712.43
817.994	15813.67
818.322	15711.52
818.651	15648.47
818.979	15714.01
819.307	15692.09
819.636	15674.46
819.964	15534.35
820.292	15611.41
820.62	15626.33
820.948	15524.18
821.276	15626.55
821.604	15533.67
821.932	15530.96
822.259	15623.39
822.587	15563.28
822.915	15577.74
823.243	15640.79
823.57	15444.18
823.898	15483.96
824.225	15420
824.553	15523.73
824.88	15578.64
825.207	15580.45
825.535	15507.46
825.862	15567.12
826.189	15531.87
826.516	15628.36
826.843	15582.03
827.17	15606.89
827.497	15492.09
827.824	15552.66
828.151	15668.81
828.478	15600.56
828.805	15634.24
829.131	15537.06
829.458	15498.65
829.785	15476.73
830.111	15524.63
830.438	15605.99
830.764	15570.28
831.09	15608.25
831.417	15449.61
831.743	15569.15
832.069	15483.96
832.395	15453.45
832.722	15635.14
833.048	15416.61
833.374	15450.51
833.7	15397.18
834.026	15495.93
834.351	15418.65
834.677	15352.44
835.003	15400.57
835.329	15404.64
835.654	15305.66
835.98	15284.19
836.306	15406.22
836.631	15313.11
836.956	15273.79
837.282	15243.96
837.607	15265.66
837.932	15281.25
838.258	15299.78
838.583	15240.57
838.908	15142.27
839.233	15166
839.558	15123.74
839.883	15084.19
840.208	15017.75
840.533	15051.43
840.858	15031.09
841.182	15043.29
841.507	14929.4
841.832	14908.38
842.156	14942.28
842.481	14921.03
842.805	14749.06
843.13	14795.61
843.454	14776.18
843.778	14789.74
844.103	14667.48
844.427	14712.23
844.751	14708.61
845.075	14598.56
845.399	14648.27
845.723	14470.65
846.047	14514.04
846.371	14333.48
846.695	14354.95
847.019	14295.74
847.343	14239.92
847.666	14187.49
847.99	14049.87
848.313	14025.01
848.637	13973.71
848.96	14007.84
849.284	13940.95
849.607	13768.75
849.931	13747.05
850.254	13675.19
850.577	13690.11
850.9	13599.04
851.223	13520.17
851.546	13400.85
851.869	13382.77
852.192	13510.68
852.515	13306.84
852.838	13292.83
853.161	13350.91
853.483	13181.64
853.806	13091.93
854.129	13100.07
854.451	13126.28
854.774	12980.07
855.096	13031.82
855.419	12933.06
855.741	12918.38
856.063	12851.94
856.385	12834.76
856.708	12768.55
857.03	12775.1
857.352	12764.25
857.674	12705.95
857.996	12649.68
858.318	12607.87
858.64	12562.23
858.961	12640.64
859.283	12453.75
859.605	12469.57
859.926	12500.31
860.248	12392.97
860.57	12392.29
860.891	12411.04
861.212	12342.12
861.534	12242.91
861.855	12234.78
862.176	12244.49
862.498	12236.13
862.819	12199.52
863.14	12180.32
863.461	12142.58
863.782	12085.63
864.103	12148.68
864.424	12023.94
864.745	12141.22
865.065	11979.87
865.386	11928.12
865.707	12032.52
866.027	11966.08
866.348	11919.98
866.668	11915.46
866.989	11943.26
867.309	11886.76
867.63	11887.44
867.95	11874.56
868.27	11767.9
868.59	11766.99
868.91	11785.75
869.23	11748.24
869.55	11697.62
869.87	11783.04
870.19	11736.49
870.51	11677.28
870.83	11752.76
871.15	11664.17
871.469	11668.46
871.789	11620.78
872.109	11594.79
872.428	11549.82
872.748	11523.38
873.067	11453.78
873.386	11613.1
873.706	11526.77
874.025	11409.94
874.344	11373.33
874.663	11340.11
874.982	11393.44
875.301	11397.51
875.62	11403.61
875.939	11332.2
876.258	11313.67
876.577	11298.3
876.896	11338.76
877.214	11209.49
877.533	11221.24
877.852	11213.11
878.17	11190.51
878.489	11263.05
878.807	11231.19
879.125	11209.72
879.444	11129.27
879.762	11062.83
880.08	11124.98
880.398	11105.99
880.716	11047.01
881.034	11061.25
881.352	11081.36
881.67	10999.33
881.988	10959.78
882.306	10953
882.624	10959.33
882.941	10919.11
883.259	10851.31
883.577	10751.65
883.894	10783.52
884.212	10821.93
884.529	10873.46
884.846	10739.45
885.164	10777.41
885.481	10689.96
885.798	10765.66
886.115	10614.93
886.432	10617.87
886.75	10628.94
887.067	10562.5
887.383	10571.09
887.7	10589.4
888.017	10592.11
888.334	10554.37
888.651	10499.23
888.967	10358.67
889.284	10419.01
889.6	10351.89
889.917	10355.73
890.233	10365.22
890.55	10277.77
890.866	10229.63
891.182	10213.81
891.498	10131.78
891.815	10129.97
892.131	10122.74
892.447	10064.21
892.763	9974.27
893.079	10063.99
893.395	9977.66
893.71	9967.27
894.026	9860.38
894.342	9891.34
894.657	9802.3
894.973	9850.21
895.289	9765.46
895.604	9806.37
895.92	9708.74
896.235	9628.74
896.55	9638.01
896.865	9738.57
897.181	9612.25
897.496	9616.77
897.811	9530.44
898.126	9596.88
898.441	9472.59
898.756	9472.36
899.071	9397.34
899.386	9412.7
899.7	9359.37
900.015	9317.57
900.33	9208.42
900.644	9210.22
900.959	9215.2
901.273	9177.46
901.588	9111.47
901.902	9080.96
902.216	9040.74
902.531	9040.96
902.845	9013.39
903.159	8996.9
903.473	8905.6
903.787	8885.49
904.101	8849.56
904.415	8807.3
904.729	8814.3
905.042	8778.82
905.356	8745.38
905.67	8744.7
905.984	8744.25
906.297	8679.16
906.611	8554.65
906.924	8624.02
907.237	8639.62
907.551	8491.82
907.864	8556.23
908.177	8450.47
908.491	8432.84
908.804	8412.28
909.117	8379.96
909.43	8271.27
909.743	8247.54
910.056	8251.83
910.368	8267.42
910.681	8254.09
910.994	8142.91
911.307	8074.89
911.619	8052.74
911.932	8041.89
912.244	8011.84
912.557	7974.78
912.869	7865.63
913.181	7857.04
913.494	7926.19
913.806	7787.66
914.118	7848
914.43	7766.87
914.742	7733.88
915.054	7726.42
915.366	7696.14
915.678	7643.26
915.99	7587.89
916.302	7570.04
916.613	7535.24
916.925	7530.27
917.236	7466.09
917.548	7490.95
917.859	7430.16
918.171	7374.11
918.482	7326.43
918.794	7345.41
919.105	7291.18
919.416	7204.85
919.727	7235.81
920.038	7242.82
920.349	7143.84
920.66	7142.48
920.971	7084.86
921.282	7105.42
921.593	7113.78
921.903	7040.56
922.214	7009.15
922.525	7032.2
922.835	6951.75
923.146	6867.91
923.456	6885.09
923.767	6783.62
924.077	6881.02
924.387	6788.37
924.697	6740.68
925.008	6771.42
925.318	6698.43
925.628	6690.52
925.938	6689.61
926.248	6540.24
926.558	6526.45
926.867	6566.45
927.177	6520.35
927.487	6515.15
927.796	6444.19
928.106	6439.45
928.416	6412.56
928.725	6437.19
929.034	6401.94
929.344	6340.24
929.653	6363.75
929.962	6314.48
930.271	6229.96
930.581	6245.1
930.89	6195.84
931.199	6106.8
931.508	6174.6
931.817	6192.9
932.125	6112.23
932.434	6086.46
932.743	6029.06
933.051	6064.32
933.36	6019.12
933.669	5973.25
933.977	5992
934.286	5937.32
934.594	5942.51
934.902	5867.71
935.21	5872.23
935.519	5864.32
935.827	5847.83
936.135	5810.77
936.443	5768.96
936.751	5746.81
937.059	5766.02
937.367	5673.59
937.674	5658.23
937.982	5698.45
938.29	5612.35
938.597	5661.39
938.905	5580.71
939.213	5518.8
939.52	5557.44
939.827	5545.91
940.135	5458.68
940.442	5488.74
940.749	5452.81
941.056	5462.75
941.363	5354.73
941.67	5394.96
941.977	5362.42
942.284	5327.16
942.591	5294.17
942.898	5296.43
943.205	5263.89
943.511	5261.85
943.818	5209.2
944.125	5156.32
944.431	5215.98
944.738	5226.6
945.044	5114.51
945.35	5131.01
945.657	5077
945.963	5042.42
946.269	5065.47
946.575	5004.46
946.881	4992.71
947.187	4996.78
947.493	4932.14
947.799	4915.87
948.105	4932.82
948.41	4858.02
948.716	4900.05
949.022	4870.68
949.327	4843.11
949.633	4765.82
949.938	4794.75
950.244	4807.18
950.549	4742.32
950.854	4733.28
951.16	4695.99
951.465	4703.68
951.77	4646.73
952.075	4626.62
952.38	4593.17
952.685	4648.54
952.99	4561.53
953.294	4538.26
953.599	4550.23
953.904	4518.14
954.209	4503.68
954.513	4472.5
954.818	4488.99
955.122	4463.91
955.426	4432.27
955.731	4384.59
956.035	4395.66
956.339	4367.64
956.643	4341.88
956.948	4337.58
957.252	4277.7
957.556	4264.59
957.86	4247.42
958.163	4242.22
958.467	4235.44
958.771	4180.3
959.075	4216.46
959.378	4148.89
959.682	4173.75
959.985	4136.01
960.289	4162.22
960.592	4141.2
960.896	4119.74
961.199	4038.61
961.502	4032.96
961.805	4030.02
962.108	4033.18
962.411	4050.81
962.714	3990.7
963.017	3963.58
963.32	3936.69
963.623	3925.39
963.926	3940.98
964.228	3934.2
964.531	3906.41
964.833	3902.79
965.136	3839.07
965.438	3771.27
965.741	3833.87
966.043	3787.54
966.345	3761.78
966.648	3772.4
966.95	3753.19
967.252	3739.86
967.554	3719.52
967.856	3716.58
968.158	3681.78
968.46	3649.24
968.761	3633.2
969.063	3646.98
969.365	3635.91
969.666	3625.96
969.968	3592.29
970.269	3573.31
970.571	3598.85
970.872	3538.96
971.174	3552.75
971.475	3543.48
971.776	3502.35
972.077	3479.08
972.378	3481.56
972.679	3453.77
972.98	3432.52
973.281	3442.92
973.582	3436.59
973.883	3382.13
974.183	3392.3
974.484	3363.82
974.785	3361.34
975.085	3323.37
975.386	3377.61
975.686	3325.41
975.986	3318.85
976.287	3267.56
976.587	3253.54
976.887	3265.07
977.187	3226.88
977.487	3247.22
977.787	3204.96
978.087	3156.6
978.387	3210.61
978.687	3155.02
978.987	3135.58
979.286	3127.67
979.586	3100.78
979.885	3103.27
980.185	3081.35
980.484	3071.63
980.784	3070.05
981.083	3065.98
981.382	3041.57
981.682	3025.08
981.981	3031.86
982.28	2978.52
982.579	3021.23
982.878	2950.5
983.177	2964.74
983.475	2931.74
983.774	2939.43
984.073	2917.28
984.372	2895.59
984.67	2914.8
984.969	2863.5
985.267	2879.54
985.566	2846.55
985.864	2865.98
986.162	2843.16
986.461	2838.87
986.759	2785.53
987.057	2761.58
987.355	2754.35
987.653	2759.55
987.951	2740.34
988.249	2720
988.547	2729.49
988.844	2729.49
989.142	2712.32
989.44	2703.95
989.737	2683.39
990.035	2663.73
990.332	2647.68
990.63	2628.93
990.927	2636.61
991.224	2598.42
991.521	2627.57
991.819	2581.7
992.116	2588.7
992.413	2557.74
992.71	2513
993.006	2548.03
993.303	2534.02
993.6	2489.04
993.897	2498.76
994.193	2480.46
994.49	2500.57
994.787	2463.96
995.083	2456.96
995.379	2443.62
995.676	2444.53
995.972	2419.89
996.268	2426.9
996.565	2367.47
996.861	2381.48
997.157	2362.95
997.453	2379.44
997.749	2363.62
998.044	2325.21
998.34	2330.86
998.636	2298.77
998.932	2283.4
999.227	2294.47
999.523	2282.72
999.818	2272.1
1000.114	2263.29
1000.409	2245.21
1000.704	2204.76
1001	2223.74
1001.295	2218.09
1001.59	2208.15
1001.885	2171.99
1002.18	2134.03
1002.475	2181.93
1002.77	2122.73
1003.065	2130.64
1003.359	2088.38
1003.654	2093.12
1003.949	2102.61
1004.243	2066.91
1004.538	2040.69
1004.832	2058.32
1005.127	2079.11
1005.421	2050.19
1005.715	2046.12
1006.009	2012.22
1006.304	1989.85
1006.598	1990.75
1006.892	2000.7
1007.186	1979
1007.48	1957.53
1007.773	1950.08
1008.067	1924.54
1008.361	1925.9
1008.655	1927.93
1008.948	1897.65
1009.242	1914.37
1009.535	1900.59
1009.829	1865.56
1010.122	1849.97
1010.415	1855.16
1010.708	1832.79
1011.001	1836.18
1011.295	1807.25
1011.588	1769.29
1011.881	1767.48
1012.173	1753.92
1012.466	1752.57
1012.759	1748.73
1013.052	1750.08
1013.344	1744.66
1013.637	1708.27
1013.93	1726.13
1014.222	1727.26
1014.514	1704.88
1014.807	1719.12
1015.099	1680.25
1015.391	1710.76
1015.683	1663.3
1015.976	1671.44
1016.268	1654.04
1016.56	1673.25
1016.851	1637.99
1017.143	1586.47
1017.435	1623.98
1017.727	1600.71
1018.018	1597.32
1018.31	1583.53
1018.602	1543.76
1018.893	1588.05
1019.185	1558
1019.476	1554.83
1019.767	1519.13
1020.058	1515.51
1020.35	1499.01
1020.641	1489.75
1020.932	1516.41
1021.223	1465.79
1021.514	1468.28
1021.804	1442.52
1022.095	1430.99
1022.386	1470.31
1022.677	1439.13
1022.967	1415.85
1023.258	1399.13
1023.548	1398.45
1023.839	1394.16
1024.129	1407.04
1024.419	1409.98
1024.709	1342.41
1025	1339.47
1025.29	1359.13
1025.58	1357.32
1025.87	1327.49
1026.16	1325.23
1026.449	1329.98
1026.739	1298.12
1027.029	1278.91
1027.319	1279.36
1027.608	1261.96
1027.898	1272.81
1028.187	1235.74
1028.477	1284.33
1028.766	1260.6
1029.055	1214.95
1029.344	1233.03
1029.634	1216.31
1029.923	1218.8
1030.212	1189.87
1030.501	1187.84
1030.79	1179.25
1031.078	1179.25
1031.367	1181.06
1031.656	1164.33
1031.945	1147.39
1032.233	1159.81
1032.522	1158.23
1032.81	1125.92
1033.099	1126.14
1033.387	1121.85
1033.675	1146.93
1033.963	1097.67
1034.251	1096.99
1034.54	1077.56
1034.828	1080.27
1035.116	1066.94
1035.403	1063.32
1035.691	1053.6
1035.979	1061.06
1036.267	1037.78
1036.554	1041.4
1036.842	1013.6
1037.129	1032.81
1037.417	1019.25
1037.704	1006.82
1037.992	988.29
1038.279	975.41
1038.566	1025.81
1038.853	1025.81
1039.14	1025.81
