Data from hue_200_FLMS001491_00030.txt Node
Date: Tue Feb 07 16:43:04 GMT 2017
User: dcchb
Spectrometer: FLMS00149
Trigger mode: 0
Integration Time (sec): 2.000000E-2
Scans to average: 10
Electric dark correction enabled: true
Nonlinearity correction enabled: false
Boxcar width: 0
XAxis mode: Wavelengths
Number of Pixels in Spectrum: 2048
>>>>>Begin Spectral Data<<<<<
341.393	-15
341.776	-15
342.16	-15
342.543	-54.09
342.927	-56.35
343.31	-66.52
343.693	-65.39
344.077	-40.76
344.46	-55.22
344.843	-62.68
345.226	-46.64
345.61	-26.07
345.993	-32.63
346.376	-17.94
346.759	1.95
347.142	29.29
347.525	49.86
347.908	70.42
348.291	67.94
348.674	79.91
349.057	114.49
349.44	128.05
349.823	123.98
350.206	157.43
350.588	188.16
350.971	216.63
351.354	237.88
351.737	235.39
352.119	237.65
352.502	277.2
352.884	276.52
353.267	290.98
353.65	296.86
354.032	307.03
354.414	294.37
354.797	334.14
355.179	317.65
355.562	327.14
355.944	316.29
356.326	329.62
356.709	339.57
357.091	342.28
357.473	363.07
357.855	343.41
358.238	344.99
358.62	341.6
359.002	338.44
359.384	342.05
359.766	339.34
360.148	334.6
360.53	338.21
360.912	328.49
361.294	311.77
361.676	317.65
362.057	327.82
362.439	320.13
362.821	340.92
363.203	304.77
363.584	302.96
363.966	315.61
364.348	326.91
364.729	339.12
365.111	325.1
365.493	318.32
365.874	295.95
366.256	295.27
366.637	309.96
367.019	316.52
367.4	301.38
367.781	307.93
368.163	310.87
368.544	300.7
368.925	314.71
369.306	324.43
369.688	323.3
370.069	320.13
370.45	312
370.831	310.19
371.212	309.74
371.593	331.21
371.974	304.99
372.355	337.08
372.736	315.84
373.117	315.39
373.498	303.64
373.879	318.1
374.26	308.38
374.641	325.33
375.021	309.29
375.402	321.04
375.783	321.94
376.163	327.82
376.544	309.74
376.925	313.35
377.305	323.07
377.686	321.26
378.066	342.51
378.447	323.97
378.827	331.43
379.208	323.07
379.588	340.7
379.968	345.89
380.349	341.83
380.729	340.47
381.109	334.82
381.489	335.73
381.87	341.6
382.25	348.83
382.63	336.4
383.01	353.35
383.39	343.64
383.77	350.64
384.15	340.92
384.53	340.25
384.91	344.76
385.29	365.1
385.67	358.1
386.049	347.7
386.429	369.4
386.809	346.57
387.189	343.64
387.568	337.99
387.948	352.9
388.328	367.82
388.707	346.35
389.087	344.09
389.466	360.36
389.846	360.36
390.225	368.49
390.605	364.65
390.984	366.69
391.363	365.56
391.743	364.43
392.122	372.11
392.501	370.75
392.881	377.53
393.26	371.43
393.639	367.14
394.018	383.86
394.397	387.02
394.776	375.72
395.155	383.86
395.534	377.76
395.913	399.68
396.292	397.19
396.671	392
397.05	392
397.429	415.5
397.808	401.49
398.186	395.39
398.565	414.82
398.944	409.62
399.323	409.85
399.701	398.77
400.08	404.65
400.458	439.68
400.837	453.01
401.215	418.44
401.594	416.85
401.972	419.79
402.351	418.44
402.729	418.21
403.107	447.81
403.486	476.29
403.864	449.85
404.242	442.84
404.62	442.62
404.999	471.09
405.377	460.92
405.755	447.59
406.133	462.28
406.511	451.65
406.889	471.09
407.267	469.06
407.645	478.55
408.023	495.95
408.401	477.64
408.779	497.53
409.156	508.83
409.534	513.12
409.912	545.21
410.29	530.3
410.667	568.04
411.045	559.45
411.422	538.21
411.8	575.27
412.178	571.2
412.555	600.58
412.933	595.83
413.31	603.74
413.687	601.48
414.065	631.31
414.442	614.36
414.819	637.86
415.197	640.35
415.574	640.8
415.951	644.64
416.328	659.78
416.705	664.76
417.082	654.81
417.46	701.59
417.837	716.51
418.214	708.82
418.591	722.83
418.967	735.49
419.344	745.43
419.721	743.17
420.098	736.17
420.475	794.47
420.852	794.92
421.228	824.98
421.605	825.66
421.982	812.1
422.358	859.78
422.735	848.03
423.111	875.15
423.488	869.95
423.864	899.1
424.241	935.03
424.617	938.2
424.994	963.05
425.37	941.59
425.746	963.28
426.123	1000.34
426.499	1008.48
426.875	1039.89
427.251	1007.35
427.627	1072.43
428.003	1058.87
428.379	1050.96
428.756	1105.65
429.132	1105.2
429.507	1111.07
429.883	1131.18
430.259	1151.07
430.635	1162.82
431.011	1152.65
431.387	1222.26
431.763	1205.08
432.138	1231.52
432.514	1254.8
432.89	1244.63
433.265	1267.9
433.641	1312.65
434.016	1323.95
434.392	1337.51
434.767	1409.6
435.143	1391.29
435.518	1438.3
435.894	1434.68
436.269	1459.31
436.644	1517.39
437.02	1541.34
437.395	1556.71
437.77	1578.18
438.145	1596.48
438.52	1624.51
438.895	1674.22
439.271	1690.94
439.646	1732.98
440.021	1748.34
440.395	1790.83
440.77	1777.04
441.145	1798.96
441.52	1831.96
441.895	1865.63
442.27	1872.18
442.645	1897.72
443.019	1945.85
443.394	1947.89
443.769	1973.2
444.143	1977.94
444.518	2000.54
444.892	2028.79
445.267	1989.47
445.641	2062.46
446.016	2058.84
446.39	2094.32
446.764	2092.97
447.139	2127.54
447.513	2135.9
447.887	2153.98
448.262	2158.05
448.636	2190.14
449.01	2206.64
449.384	2233.53
449.758	2239.86
450.132	2255.68
450.506	2317.14
450.88	2291.61
451.254	2338.16
451.628	2356.69
452.002	2380.42
452.376	2365.05
452.75	2403.69
453.123	2463.58
453.497	2482.79
453.871	2445.5
454.244	2564.59
454.618	2595.1
454.992	2579.06
455.365	2622.67
455.739	2652.05
456.112	2698.6
456.486	2676.68
456.859	2724.82
457.232	2751.26
457.606	2771.82
457.979	2807.53
458.352	2881.42
458.725	2927.75
459.099	2922.55
459.472	2938.82
459.845	2951.02
460.218	3030.57
460.591	3050
460.964	3018.14
461.337	3134.3
461.71	3194.63
462.083	3233.05
462.456	3216.78
462.829	3231.24
463.201	3332.48
463.574	3332.03
463.947	3331.35
464.32	3432.82
464.692	3416.1
465.065	3505.81
465.438	3533.16
465.81	3581.06
466.183	3606.6
466.555	3710.1
466.928	3694.73
467.3	3705.35
467.672	3788.74
468.045	3839.14
468.417	3908.06
468.789	3927.04
469.161	3945.8
469.534	4035.29
469.906	4077.1
470.278	4098.11
470.65	4134.72
471.022	4224.44
471.394	4297.66
471.766	4359.12
472.138	4335.39
472.51	4441.83
472.882	4521.83
473.253	4566.57
473.625	4629.4
473.997	4712.11
474.369	4718.89
474.74	4797.76
475.112	4877.3
475.484	4955.94
475.855	5013.57
476.227	5052.66
476.598	5157.97
476.97	5185.32
477.341	5366.1
477.713	5374.01
478.084	5418.53
478.455	5561.8
478.827	5614.23
479.198	5763.83
479.569	5755.02
479.94	5940.78
480.311	5914.56
480.682	6034.11
481.053	6193.2
481.424	6280.65
481.795	6322.46
482.166	6393.87
482.537	6444.49
482.908	6530.14
483.279	6631.38
483.65	6751.15
484.021	6886.74
484.391	6916.8
484.762	6982.78
485.133	7023.01
485.503	7108.65
485.874	7197.01
486.244	7282.89
486.615	7385.03
486.985	7488.76
487.356	7610.56
487.726	7721.07
488.097	7846.26
488.467	7786.6
488.837	8052.81
489.207	8036.99
489.578	8148.85
489.948	8190.43
490.318	8311.56
490.688	8333.48
491.058	8402.18
491.428	8536.87
491.798	8553.14
492.168	8719.69
492.538	8740.25
492.908	8817.08
493.278	8975.72
493.648	8940.02
494.017	9040.13
494.387	9107.92
494.757	9087.81
495.126	9215.72
495.496	9227.7
495.866	9260.01
496.235	9358.77
496.605	9446.67
496.974	9476.28
497.344	9544.52
497.713	9547.01
498.082	9580.91
498.452	9682.6
498.821	9685.31
499.19	9726.89
499.559	9796.04
499.928	9855.02
500.298	9819.09
500.667	9909.71
501.036	9837.4
501.405	9930.73
501.774	9981.12
502.143	9973.66
502.512	10096.6
502.88	10099.99
503.249	10076.71
503.618	10099.08
503.987	10156.94
504.356	10150.38
504.724	10248.91
505.093	10234.9
505.462	10176.37
505.83	10289.36
506.199	10344.28
506.567	10407.1
506.936	10436.7
507.304	10449.36
507.672	10490.94
508.041	10508.34
508.409	10566.42
508.777	10564.38
509.145	10675.34
509.514	10551.95
509.882	10719.63
510.25	10624.04
510.618	10698.84
510.986	10656.36
511.354	10732.74
511.722	10769.58
512.09	10764.83
512.458	10748.56
512.826	10843.25
513.193	10849.57
513.561	10873.08
513.929	10848.22
514.297	10791.95
514.664	10926.86
515.032	10980.42
515.4	10903.36
515.767	10953.53
516.135	10965.28
516.502	10875.11
516.869	11031.72
517.237	11033.52
517.604	10910.36
517.972	10977.48
518.339	11041.21
518.706	10973.64
519.073	10988.1
519.44	11030.36
519.808	11062.45
520.175	10986.75
520.542	11157.14
520.909	11064.48
521.276	11007.76
521.643	11158.72
522.009	11069
522.376	11161.43
522.743	11077.59
523.11	11214.31
523.477	11263.57
523.843	11193.75
524.21	11233.29
524.577	11324.14
524.943	11189.23
525.31	11290.92
525.676	11233.52
526.043	11290.01
526.409	11280.97
526.776	11340.18
527.142	11278.94
527.508	11298.15
527.874	11288.43
528.241	11224.93
528.607	11221.54
528.973	11211.15
529.339	11180.41
529.705	11212.05
530.071	11258.38
530.437	11282.78
530.803	11236
531.169	11216.57
531.535	11169.79
531.901	11139.51
532.267	11120.98
532.632	11075.33
532.998	11073.07
533.364	11058.83
533.73	11042.11
534.095	11054.99
534.461	11074.88
534.826	11044.14
535.192	10945.84
535.557	10925.73
535.923	10867.2
536.288	10904.26
536.653	10847.77
537.019	10722.35
537.384	10824.26
537.749	10701.1
538.114	10692.74
538.479	10666.98
538.845	10606.19
539.21	10478.96
539.575	10594.89
539.94	10558.51
540.305	10426.99
540.67	10384.27
541.034	10424.5
541.399	10386.31
541.764	10268.8
542.129	10291.62
542.494	10243.94
542.858	10196.03
543.223	10121.01
543.587	10121.23
543.952	10097.5
544.316	10074.23
544.681	9996.26
545.045	9970.95
545.41	9915.59
545.774	9902.71
546.138	9808.24
546.503	9831.52
546.867	9739.77
547.231	9798.08
547.595	9736.38
547.959	9698.87
548.324	9579.78
548.688	9558.99
549.052	9584.97
549.416	9582.94
549.779	9442.6
550.143	9504.75
550.507	9414.81
550.871	9371.87
551.235	9343.17
551.599	9301.59
551.962	9254.36
552.326	9289.39
552.689	9215.72
553.053	9201.93
553.417	9086.23
553.78	9131.88
554.143	9079.9
554.507	9066.8
554.87	9034.48
555.234	9073.8
555.597	9029.96
555.96	8995.16
556.323	8939.79
556.686	8899.34
557.05	8910.87
557.413	8914.48
557.776	8855.95
558.139	8840.59
558.502	8784.77
558.865	8797.65
559.228	8855.95
559.59	8726.24
559.953	8730.08
560.316	8880.59
560.679	8754.94
561.041	8767.14
561.404	8753.36
561.767	8834.26
562.129	8725.56
562.492	8779.35
562.854	8718.56
563.217	8696.41
563.579	8752.45
563.941	8717.88
564.304	8688.27
564.666	8747.71
565.028	8736.18
565.39	8698.44
565.753	8759.91
566.115	8736.18
566.477	8738.67
566.839	8740.93
567.201	8749.06
567.563	8743.87
567.925	8799.01
568.287	8757.88
568.648	8759.68
569.01	8732.79
569.372	8812.11
569.734	8776.86
570.095	8789.29
570.457	8741.15
570.819	8716.52
571.18	8727.14
571.542	8736.63
571.903	8746.58
572.265	8788.84
572.626	8783.19
572.987	8757.43
573.349	8772.34
573.71	8801.04
574.071	8767.14
574.432	8787.48
574.794	8782.51
575.155	8776.86
575.516	8813.92
575.877	8784.09
576.238	8882.62
576.599	8859.8
576.96	8845.11
577.32	8872.9
577.681	8893.69
578.042	8809.63
578.403	8856.63
578.763	8828.84
579.124	8836.52
579.485	8846.69
579.845	8880.81
580.206	8856.86
580.566	8863.86
580.927	8815.5
581.287	8874.48
581.648	8810.76
582.008	8885.33
582.368	8817.54
582.728	8846.24
583.089	8754.26
583.449	8775.5
583.809	8771.89
584.169	8883.3
584.529	8803.07
584.889	8857.54
585.249	8755.17
585.609	8765.79
585.969	8775.96
586.329	8790.19
586.688	8775.96
587.048	8782.74
587.408	8786.58
587.768	8828.16
588.127	8827.71
588.487	8784.32
588.846	8815.73
589.206	8694.83
589.565	8738.44
589.925	8803.98
590.284	8768.5
590.643	8773.7
591.003	8730.99
591.362	8849.85
591.721	8732.12
592.08	8717.2
592.44	8763.53
592.799	8744.77
593.158	8709.06
593.517	8741.15
593.876	8680.14
594.235	8705.9
594.593	8621.38
594.952	8745.45
595.311	8708.84
595.67	8686.47
596.029	8762.85
596.387	8687.14
596.746	8742.96
597.104	8627.03
597.463	8628.61
597.822	8679.46
598.18	8732.79
598.538	8661.38
598.897	8731.21
599.255	8602.17
599.613	8796.97
599.972	8665.22
600.33	8740.02
600.688	8688.5
601.046	8662.74
601.404	8678.33
601.762	8706.13
602.12	8723.3
602.478	8720.59
602.836	8700.93
603.194	8624.55
603.552	8636.98
603.91	8640.82
604.268	8701.16
604.625	8557.88
604.983	8670.65
605.341	8615.51
605.698	8606.02
606.056	8620.25
606.413	8637.2
606.771	8714.49
607.128	8678.56
607.485	8670.42
607.843	8579.12
608.2	8621.16
608.557	8756.75
608.914	8667.48
609.272	8748.84
609.629	8678.56
609.986	8758.56
610.343	8653.47
610.7	8753.81
611.057	8691.89
611.414	8709.74
611.771	8751.32
612.127	8778.22
612.484	8800.14
612.841	8727.37
613.198	8742.51
613.554	8714.04
613.911	8757.88
614.267	8772.57
614.624	8766.24
614.98	8785.22
615.337	8814.82
615.693	8787.25
616.05	8818.21
616.406	8810.08
616.762	8776.41
617.118	8762.4
617.475	8797.88
617.831	8861.83
618.187	8831.32
618.543	8825.67
618.899	8876.74
619.255	8841.94
619.611	8860.02
619.967	8810.98
620.323	8886.01
620.678	8898.66
621.034	8856.18
621.39	8848.27
621.746	8860.93
622.101	8902.51
622.457	8823.86
622.812	8813.02
623.168	8889.85
623.523	8837.42
623.879	8872.45
624.234	8820.7
624.589	8847.59
624.945	8874.94
625.3	8948.83
625.655	8894.6
626.01	8891.66
626.365	8850.98
626.72	8862.96
627.075	8805.79
627.43	8834.49
627.785	8785.9
628.14	8836.07
628.495	8852.79
628.85	8855.28
629.205	8807.59
629.559	8879.91
629.914	8736.63
630.269	8842.17
630.623	8791.1
630.978	8729.63
631.332	8870.64
631.687	8774.6
632.041	8689.4
632.396	8745.22
632.75	8688.73
633.104	8775.96
633.459	8684.43
633.813	8725.11
634.167	8711.78
634.521	8680.82
634.875	8674.04
635.229	8673.36
635.583	8611.89
635.937	8608.95
636.291	8648.05
636.645	8658.44
636.999	8574.61
637.352	8603.08
637.706	8575.73
638.06	8612.34
638.413	8576.64
638.767	8524.66
639.121	8488.28
639.474	8542.29
639.828	8525.79
640.181	8521.95
640.534	8471.56
640.888	8518.79
641.241	8438.34
641.594	8454.61
641.947	8473.82
642.301	8507.71
642.654	8442.63
643.007	8443.54
643.36	8450.09
643.713	8433.14
644.066	8507.71
644.419	8472.01
644.771	8348.17
645.124	8365.57
645.477	8293.48
645.83	8204.67
646.182	8191.56
646.535	8199.93
646.888	8187.5
647.24	8094.17
647.593	8231.34
647.945	8199.7
648.298	8163.54
648.65	8145.01
649.002	8161.51
649.355	8198.8
649.707	8182.98
650.059	8189.76
650.411	8256.2
650.763	8269.98
651.115	8369.64
651.467	8359.47
651.819	8287.61
652.171	8374.16
652.523	8331
652.875	8287.83
653.227	8244.22
653.578	8318.57
653.93	8361.73
654.282	8291.67
654.633	8283.99
654.985	8336.19
655.337	8313.14
655.688	8329.19
656.039	8300.94
656.391	8236.08
656.742	8266.14
657.094	8308.4
657.445	8361.28
657.796	8302.3
658.147	8328.28
658.498	8317.21
658.849	8320.15
659.2	8340.26
659.551	8347.72
659.902	8329.64
660.253	8371.22
660.604	8363.31
660.955	8328.51
661.306	8366.47
661.656	8342.07
662.007	8391.11
662.358	8401.73
662.708	8349.75
663.059	8366.47
663.409	8391.11
663.76	8417.32
664.11	8406.25
664.461	8445.12
664.811	8348.4
665.161	8382.07
665.511	8312.01
665.862	8359.92
666.212	8394.95
666.562	8459.58
666.912	8371.45
667.262	8356.08
667.612	8361.28
667.962	8399.47
668.312	8377.32
668.662	8430.65
669.011	8375.06
669.361	8364.89
669.711	8304.56
670.06	8350.88
670.41	8358.11
670.76	8382.75
671.109	8362.41
671.459	8293.26
671.808	8353.14
672.157	8323.09
672.507	8341.16
672.856	8334.39
673.205	8266.14
673.554	8313.14
673.904	8341.16
674.253	8295.97
674.602	8291.45
674.951	8175.52
675.3	8059.14
675.649	8259.13
675.998	8242.86
676.346	8245.35
676.695	8269.53
677.044	8262.07
677.393	8240.6
677.741	8254.84
678.09	8148.4
678.438	8203.09
678.787	8204.67
679.135	8238.57
679.484	8144.11
679.832	8205.35
680.181	8102.3
680.529	8150.89
680.877	8093.71
681.225	8078.8
681.573	8189.98
681.922	8042.19
682.27	8041.74
682.618	8043.77
682.966	8045.35
683.314	8037.9
683.661	7997.45
684.009	7940.05
684.357	7945.92
684.705	7922.64
685.053	7881.52
685.4	7862.53
685.748	7905.02
686.095	7927.84
686.443	7875.87
686.79	7807.39
687.138	7863.89
687.485	7840.39
687.832	7770.33
688.18	7823.44
688.527	7692.37
688.874	7754.29
689.221	7776.66
689.568	7667.96
689.915	7696.44
690.262	7676.78
690.609	7639.94
690.956	7578.7
691.303	7558.81
691.65	7499.38
691.997	7577.34
692.344	7453.05
692.69	7514.52
693.037	7451.24
693.383	7344.81
693.73	7352.26
694.077	7323.34
694.423	7325.82
694.769	7288.09
695.116	7296.22
695.462	7292.38
695.808	7256
696.155	7253.74
696.501	7238.37
696.847	7188.2
697.193	7127.41
697.539	7154.08
697.885	7133.29
698.231	7055.55
698.577	7141.65
698.923	7102.1
699.269	7004.93
699.614	6988.21
699.96	6930.35
700.306	7003.8
700.651	6919.51
700.997	6925.16
701.342	6892.39
701.688	6813.75
702.033	6778.49
702.379	6815.56
702.724	6813.3
703.069	6843.58
703.415	6670.93
703.76	6668.21
704.105	6717.7
704.45	6688.55
704.795	6673.86
705.14	6583.92
705.485	6586.18
705.83	6608.56
706.175	6621.89
706.52	6579.63
706.865	6526.3
707.209	6512.96
707.554	6452.63
707.899	6492.17
708.243	6454.43
708.588	6426.19
708.932	6396.36
709.277	6409.69
709.621	6387.77
709.966	6344.16
710.31	6373.08
710.654	6307.55
710.998	6275.46
711.342	6290.82
711.687	6329.01
712.031	6242.91
712.375	6278.85
712.719	6234.78
713.063	6250.82
713.407	6218.28
713.75	6201.79
714.094	6186.19
714.438	6173.76
714.782	6205.85
715.125	6133.09
715.469	6108.91
715.812	6158.62
716.156	6079.53
716.499	6105.07
716.843	6164.72
717.186	6112.3
717.53	6104.39
717.873	6100.55
718.216	6089.47
718.559	6084.73
718.902	5995.69
719.246	6042.47
719.589	5965.41
719.932	6020.32
720.275	5985.07
720.617	6025.75
720.96	6006.54
721.303	5998.85
721.646	5971.74
721.989	5975.58
722.331	6019.64
722.674	5968.35
723.016	5938.06
723.359	5917.73
723.701	5977.84
724.044	5874.34
724.386	5934.45
724.729	5940.78
725.071	5946.2
725.413	5853.32
725.755	5920.89
726.097	5881.57
726.439	5875.92
726.782	5865.07
727.124	5910.72
727.465	5882.92
727.807	5866.88
728.149	5844.51
728.491	5828.24
728.833	5866.2
729.175	5850.38
729.516	5884.28
729.858	5832.53
730.199	5844.96
730.541	5851.96
730.882	5863.04
731.224	5890.83
731.565	5842.02
731.906	5853.32
732.248	5882.7
732.589	5804.96
732.93	5820.1
733.271	5831.63
733.612	5883.15
733.953	5908.91
734.294	5904.62
734.635	5853.55
734.976	5946.2
735.317	5863.72
735.658	5829.14
735.999	5846.54
736.339	5871.63
736.68	5905.3
737.021	5859.65
737.361	5837.73
737.702	5925.18
738.042	5837.73
738.383	5947.1
738.723	5922.7
739.063	5924.73
739.404	5932.64
739.744	5877.73
740.084	5936.93
740.424	6010.38
740.764	5988.91
741.104	6005.18
741.444	5963.37
741.784	6031.17
742.124	6032.52
742.464	5984.16
742.804	6076.37
743.143	6017.38
743.483	6058.74
743.823	6052.41
744.162	6056.93
744.502	6146.65
744.841	6180.54
745.181	6206.76
745.52	6174.89
745.86	6231.62
746.199	6277.04
746.538	6291.05
746.877	6295.79
747.216	6374.66
747.556	6407.88
747.895	6496.92
748.234	6522.68
748.573	6494.21
748.911	6527.65
749.25	6692.39
749.589	6706.41
749.928	6775.33
750.267	6782.11
750.605	6886.29
750.944	6932.16
751.283	6956.57
751.621	7133.96
751.96	7089.22
752.298	7241.98
752.636	7322.43
752.975	7354.07
753.313	7508.87
753.651	7618.92
753.989	7672.03
754.327	7799.03
754.666	7940.05
755.004	8027.95
755.342	8171.9
755.679	8212.81
756.017	8375.29
756.355	8484.66
756.693	8688.27
757.031	8851.43
757.368	8889.63
757.706	9076.06
758.044	9216.85
758.381	9343.85
758.719	9472.66
759.056	9681.47
759.394	9795.14
759.731	9945.19
760.068	10067.9
760.405	10236.03
760.743	10388.12
761.08	10583.14
761.417	10776.81
761.754	10917.14
762.091	11116.69
762.428	11259.05
762.765	11508.77
763.102	11677.12
763.438	11723.22
763.775	11956.21
764.112	12207.96
764.449	12308.97
764.785	12533.37
765.122	12707.38
765.458	12857.66
765.795	12987.6
766.131	13188.95
766.467	13388.04
766.804	13491.76
767.14	13601.59
767.476	13828.25
767.812	13897.18
768.148	14124.29
768.485	14131.97
768.821	14355.02
769.157	14472.08
769.492	14639.76
769.828	14820.77
770.164	14855.57
770.5	14993.42
770.836	15157.48
771.171	15223.92
771.507	15291.94
771.842	15407.87
772.178	15503.24
772.513	15609.9
772.849	15865.26
773.184	15863.9
773.519	15948.2
773.855	16002.88
774.19	16132.6
774.525	16244.46
774.86	16344.34
775.195	16423.89
775.53	16339.6
775.865	16514.74
776.2	16460.95
776.535	16464.79
776.87	16612.59
777.205	16672.25
777.539	16630.66
777.874	16734.62
778.209	16805.35
778.543	16879.47
778.878	16789.76
779.212	16962.63
779.547	16857.33
779.881	16986.81
780.215	16996.53
780.55	17171.44
780.884	17031.11
781.218	17105.23
781.552	17198.79
781.886	17064.1
782.22	17123.76
782.554	17210.54
782.888	17122.85
783.222	17087.83
783.556	17085.57
783.889	17092.35
784.223	17092.12
784.557	16968.73
784.89	17141.61
785.224	17180.93
785.557	17165.34
785.891	17190.2
786.224	17106.36
786.558	17220.71
786.891	17030.88
787.224	17076.98
787.557	17034.95
787.891	17078.34
788.224	17093.7
788.557	17111.56
788.89	17071.78
789.223	17091.9
789.556	17035.85
789.888	16938.23
790.221	16959.02
790.554	16885.57
790.887	16906.36
791.219	16840.38
791.552	16839.02
791.884	16832.24
792.217	16883.99
792.549	16802.41
792.882	16694.17
793.214	16660.95
793.546	16768.29
793.879	16554.73
794.211	16519.93
794.543	16638.57
794.875	16623.21
795.207	16719.48
795.539	16688.74
795.871	16547.5
796.203	16500.05
796.535	16412.59
796.867	16385.25
797.198	16392.48
797.53	16293.27
797.862	16368.07
798.193	16287.17
798.525	16270.45
798.856	16185.7
799.188	16084.46
799.519	16149.77
799.85	16043.79
800.182	16080.62
800.513	16025.48
800.844	15950
801.175	16157.46
801.506	16025.26
801.837	15851.7
802.168	15836.56
802.499	15837.01
802.83	15816
803.161	15848.76
803.491	15803.12
803.822	15752.27
804.153	15724.7
804.483	15645.15
804.814	15551.6
805.145	15628.88
805.475	15502.78
805.805	15492.62
806.136	15519.73
806.466	15523.35
806.796	15437.7
807.126	15398.38
807.457	15281.55
807.787	15384.37
808.117	15293.3
808.447	15206.3
808.777	15267.54
809.107	15213.75
809.436	15099.63
809.766	15098.95
810.096	15091.95
810.426	15061.67
810.755	15090.59
811.085	14975.34
811.414	15022.57
811.744	14930.82
812.073	14918.39
812.403	14911.61
812.732	14823.03
813.061	14984.61
813.39	14759.53
813.719	14801.56
814.049	14854.89
814.378	14651.96
814.707	14711.84
815.036	14665.29
815.365	14669.59
815.693	14581.9
816.022	14514.56
816.351	14518.4
816.68	14392.76
817.008	14482.25
817.337	14397.05
817.665	14396.82
817.994	14343.27
818.322	14445.64
818.651	14275.92
818.979	14241.12
819.307	14352.08
819.636	14369.03
819.964	14149.83
820.292	14252.42
820.62	14237.06
820.948	14124.97
821.276	14268.01
821.604	14146.89
821.932	14260.11
822.259	14238.86
822.587	14208.81
822.915	14145.76
823.243	14218.52
823.57	14131.3
823.898	14190.5
824.225	14097.4
824.553	14158.86
824.88	14243.16
825.207	14270.05
825.535	14271.4
825.862	14199.09
826.189	14202.93
826.516	14278.41
826.843	14279.31
827.17	14300.56
827.497	14256.49
827.824	14205.19
828.151	14298.75
828.478	14318.86
828.805	14380.33
829.131	14277.51
829.458	14252.42
829.785	14178.98
830.111	14252.2
830.438	14264.85
830.764	14256.49
831.09	14231.41
831.417	14176.27
831.743	14249.03
832.069	14264.62
832.395	14143.27
832.722	14314.12
833.048	14148.92
833.374	14244.29
833.7	14126.32
834.026	14210.84
834.351	14272.99
834.677	14271.4
835.003	14173.1
835.329	14162.25
835.654	14068.7
835.98	14157.51
836.306	14113.44
836.631	14063.73
836.956	14108.7
837.282	14169.03
837.607	13992.54
837.932	13967.68
838.258	14023.95
838.583	14019.89
838.908	13880.91
839.233	13961.36
839.558	13829.16
839.883	13868.03
840.208	13829.16
840.533	13787.35
840.858	13823.05
841.182	13881.13
841.507	13744.86
841.832	13726.56
842.156	13691.08
842.481	13739.22
842.805	13636.84
843.13	13662.15
843.454	13645.21
843.778	13521.37
844.103	13498.32
844.427	13490.63
844.751	13484.08
845.075	13410.64
845.399	13383.97
845.723	13313.69
846.047	13264.2
846.371	13249.51
846.695	13174.71
847.019	13111.66
847.343	13054.71
847.666	12990.08
847.99	12990.99
848.313	12969.97
848.637	12857.43
848.96	12826.02
849.284	12826.02
849.607	12726.13
849.931	12663.76
850.254	12601.62
850.577	12517.55
850.9	12473.03
851.223	12475.75
851.546	12427.61
851.869	12307.61
852.192	12439.36
852.515	12258.12
852.838	12242.31
853.161	12256.32
853.483	12170.22
853.806	12125.02
854.129	12170.67
854.451	12046.6
854.774	11977.23
855.096	11898.81
855.419	11975.87
855.741	11908.98
856.063	11786.27
856.385	11744.92
856.708	11835.76
857.03	11708.99
857.352	11661.76
857.674	11697.01
857.996	11672.38
858.318	11598.03
858.64	11616.33
858.961	11516
859.283	11478.26
859.605	11498.37
859.926	11462.89
860.248	11509.67
860.57	11432.61
860.891	11419.95
861.212	11270.35
861.534	11306.51
861.855	11272.39
862.176	11287.08
862.498	11261.31
862.819	11273.74
863.14	11153.07
863.461	11215.44
863.782	11129.11
864.103	11110.58
864.424	11116.91
864.745	11152.16
865.065	11031.49
865.386	10992.62
865.707	11085.05
866.027	11001.21
866.348	11052.73
866.668	10997.59
866.989	10948.1
867.309	10901.1
867.63	10960.76
867.95	10915.79
868.27	10843.25
868.59	10857.48
868.91	10878.5
869.23	10850.25
869.55	10765.28
869.87	10856.58
870.19	10780.42
870.51	10798.5
870.83	10835.79
871.15	10753.98
871.469	10763.93
871.789	10732.74
872.109	10809.12
872.428	10598.96
872.748	10714.44
873.067	10637.38
873.386	10631.5
873.706	10646.19
874.025	10573.42
874.344	10591.5
874.663	10624.95
874.982	10549.92
875.301	10580.88
875.62	10465.4
875.939	10489.36
876.258	10484.84
876.577	10483.26
876.896	10429.7
877.214	10412.07
877.533	10422.47
877.852	10429.47
878.17	10386.31
878.489	10407.55
878.807	10336.37
879.125	10315.12
879.444	10345.41
879.762	10346.99
880.08	10313.77
880.398	10199.87
880.716	10226.99
881.034	10206.88
881.352	10197.39
881.67	10163.26
881.988	10085.98
882.306	10160.78
882.624	10137.05
882.941	10082.81
883.259	10042.36
883.577	10002.59
883.894	9958.52
884.212	10046.2
884.529	9923.5
884.846	9955.13
885.164	9932.76
885.481	9812.09
885.798	9834.23
886.115	9805.99
886.432	9815.93
886.75	9757.62
887.067	9775.48
887.383	9704.97
887.7	9754.91
888.017	9694.35
888.334	9751.75
888.651	9597.85
888.967	9678.08
889.284	9659.77
889.6	9535.48
889.917	9475.82
890.233	9485.77
890.55	9453
890.866	9476.28
891.182	9396.05
891.498	9430.18
891.815	9368.03
892.131	9316.73
892.447	9335.94
892.763	9321.48
893.079	9288.48
893.395	9280.35
893.71	9210.75
894.026	9207.13
894.342	9198.09
894.657	9092.56
894.973	9057.08
895.289	9089.62
895.604	9023.63
895.92	8948.38
896.235	8881.26
896.55	8939.34
896.865	8923.3
897.181	8941.6
897.496	8857.76
897.811	8892.79
898.126	8839.68
898.441	8747.03
898.756	8804.43
899.071	8678.33
899.386	8680.59
899.7	8582.29
900.015	8575.28
900.33	8496.42
900.644	8540.26
900.959	8497.77
901.273	8460.71
901.588	8482.63
901.902	8411.45
902.216	8312.01
902.531	8360.15
902.845	8390.43
903.159	8236.99
903.473	8243.54
903.787	8249.87
904.101	8143.66
904.415	8164.45
904.729	8131
905.042	8036.54
905.356	8086.48
905.67	8048.74
905.984	8009.65
906.297	7966.71
906.611	7914.51
906.924	7917
907.237	7964.68
907.551	7888.07
907.864	7792.93
908.177	7782.76
908.491	7768.07
908.804	7683.33
909.117	7675.19
909.43	7636.78
909.743	7609.88
910.056	7581.64
910.368	7531.92
910.681	7483.56
910.994	7453.05
911.307	7454.18
911.619	7383.68
911.932	7390.91
912.244	7402.43
912.557	7367.41
912.869	7300.74
913.181	7233.62
913.494	7284.24
913.806	7181.2
914.118	7206.73
914.43	7177.81
914.742	7151.59
915.054	7137.13
915.366	7052.16
915.678	7056.23
915.99	6998.6
916.302	6928.77
916.613	6936.91
916.925	6988.21
917.236	6941.65
917.548	6883.12
917.859	6884.48
918.171	6849
918.482	6800.19
918.794	6730.81
919.105	6759.74
919.416	6664.6
919.727	6668.89
920.038	6632.74
920.349	6660.98
920.66	6618.72
920.971	6623.7
921.282	6529.69
921.593	6509.8
921.903	6440.42
922.214	6505.51
922.525	6438.16
922.835	6440.65
923.146	6380.76
923.456	6383.48
923.767	6350.93
924.077	6361.1
924.387	6317.04
924.697	6254.44
925.008	6258.73
925.318	6212.86
925.628	6250.6
925.938	6174.89
926.248	6115.46
926.558	6105.97
926.867	6134.44
927.177	6110.94
927.487	6064.84
927.796	5992.98
928.106	6004.96
928.416	5959.53
928.725	5938.52
929.034	5881.57
929.344	5945.3
929.653	5870.72
929.962	5767
930.271	5823.49
930.581	5764.06
930.89	5774.45
931.199	5786.88
931.508	5706.66
931.817	5722.48
932.125	5694.45
932.434	5689.03
932.743	5635.25
933.051	5621.24
933.36	5523.84
933.669	5520.45
933.977	5504.86
934.286	5509.37
934.594	5527.91
934.902	5425.54
935.21	5434.8
935.519	5435.48
935.827	5428.93
936.135	5373.56
936.443	5368.81
936.751	5324.75
937.059	5324.3
937.367	5329.94
937.674	5271.87
937.982	5248.14
938.29	5237.74
938.597	5235.94
938.905	5182.38
939.213	5114.81
939.52	5098.99
939.827	5155.03
940.135	5099.67
940.442	5100.8
940.749	5063.96
941.056	5103.96
941.363	5011.53
941.67	4991.2
941.977	4997.75
942.284	4927.92
942.591	4995.26
942.898	4945.1
943.205	4895.83
943.511	4862.39
943.818	4839.11
944.125	4819.22
944.431	4843.63
944.738	4809.05
945.044	4768.6
945.35	4765.21
945.657	4686.57
945.963	4670.07
946.269	4680.92
946.575	4687.93
946.881	4668.95
947.187	4640.7
947.493	4596.18
947.799	4633.69
948.105	4550.98
948.41	4514.15
948.716	4572
949.022	4489.74
949.327	4478.44
949.633	4467.37
949.938	4427.37
950.244	4429.63
950.549	4372.91
950.854	4420.82
951.16	4350.76
951.465	4370.2
951.77	4378.56
952.075	4300.59
952.38	4317.09
952.685	4280.93
952.99	4294.27
953.294	4254.27
953.599	4246.81
953.904	4211.78
954.209	4159.35
954.513	4199.58
954.818	4226.47
955.122	4121.61
955.426	4145.12
955.731	4109.86
956.035	4101.95
956.339	4075.51
956.643	4076.19
956.948	4044.55
957.252	4056.76
957.556	3997.78
957.86	3992.8
958.163	3976.31
958.467	3946.25
958.771	3887.27
959.075	3947.16
959.378	3894.5
959.682	3909.87
959.985	3854.73
960.289	3864.9
960.592	3854.5
960.896	3828.97
961.199	3814.73
961.502	3785.8
961.805	3784.45
962.108	3728.86
962.411	3734.51
962.714	3742.87
963.017	3745.81
963.32	3722.08
963.623	3647.73
963.926	3703.09
964.228	3645.24
964.531	3640.72
964.833	3611.57
965.136	3609.76
965.438	3583.78
965.741	3546.26
966.043	3525.47
966.345	3526.15
966.648	3524.57
966.95	3520.5
967.252	3480.28
967.554	3467.39
967.856	3426.72
968.158	3442.08
968.46	3441.86
968.761	3434.4
969.063	3428.3
969.365	3345.82
969.666	3374.97
969.968	3354.18
970.269	3350.56
970.571	3362.31
970.872	3336.78
971.174	3292.26
971.475	3293.61
971.776	3274.18
972.077	3268.53
972.378	3216.78
972.679	3231.24
972.98	3225.82
973.281	3213.39
973.582	3202.99
973.883	3181.98
974.183	3150.34
974.484	3137.69
974.785	3128.19
975.085	3108.76
975.386	3147.4
975.686	3084.81
975.986	3082.55
976.287	3045.48
976.587	3027.63
976.887	3011.14
977.187	3032.15
977.487	3031.47
977.787	3025.37
978.087	2952.15
978.387	2980.4
978.687	2956
978.987	2940.85
979.286	2938.14
979.586	2889.56
979.885	2927.52
980.185	2905.38
980.484	2864.02
980.784	2879.61
981.083	2837.58
981.382	2811.59
981.682	2810.69
981.981	2826.28
982.28	2788.54
982.579	2793.06
982.878	2774.76
983.177	2772.95
983.475	2769.11
983.774	2758.94
984.073	2720.52
984.372	2720.97
984.67	2697.7
984.969	2698.6
985.267	2693.86
985.566	2657.47
985.864	2677.13
986.162	2659.28
986.461	2616.57
986.759	2588.55
987.057	2589.45
987.355	2591.03
987.653	2600.07
987.951	2613.63
988.249	2598.94
988.547	2580.64
988.844	2520.07
989.142	2525.05
989.44	2527.76
989.737	2515.33
990.035	2465.84
990.332	2460.42
990.63	2475.78
990.927	2462
991.224	2453.86
991.521	2422.68
991.819	2446.86
992.116	2391.26
992.413	2417.7
992.71	2354.88
993.006	2386.97
993.303	2385.39
993.6	2331.83
993.897	2360.31
994.193	2306.97
994.49	2308.78
994.787	2274.88
995.083	2297.26
995.379	2284.15
995.676	2294.77
995.972	2260.65
996.268	2244.6
996.565	2258.84
996.861	2229.46
997.157	2221.1
997.453	2229.24
997.749	2195.79
998.044	2195.34
998.34	2169.12
998.636	2178.62
998.932	2156.24
999.227	2163.25
999.523	2163.7
999.818	2107.2
1000.114	2135.45
1000.409	2119.18
1000.704	2108.56
1001	2064.95
1001.295	2048.22
1001.59	2054.78
1001.885	2074.21
1002.18	2041.9
1002.475	2008.45
1002.77	2041.67
1003.065	1999.18
1003.359	1970.48
1003.654	2012.07
1003.949	1969.35
1004.243	1958.51
1004.538	1927.1
1004.832	1960.09
1005.127	1927.55
1005.421	1929.13
1005.715	1885.97
1006.009	1890.49
1006.304	1886.65
1006.598	1861.34
1006.892	1840.09
1007.186	1827.66
1007.48	1837.16
1007.773	1826.31
1008.067	1840.32
1008.361	1777.27
1008.655	1782.02
1008.948	1765.97
1009.242	1780.66
1009.535	1756.48
1009.829	1781.11
1010.122	1756.93
1010.415	1756.71
1010.708	1705.41
1011.001	1710.6
1011.295	1696.82
1011.588	1697.27
1011.881	1683.71
1012.173	1704.28
1012.466	1661.34
1012.759	1643.71
1013.052	1640.78
1013.344	1658.85
1013.637	1621.34
1013.93	1629.93
1014.222	1620.44
1014.514	1615.24
1014.807	1609.14
1015.099	1598.07
1015.391	1563.04
1015.683	1556.71
1015.976	1591.96
1016.268	1571.17
1016.56	1525.07
1016.851	1529.14
1017.143	1543.6
1017.435	1492.08
1017.727	1482.14
1018.018	1496.83
1018.31	1474.45
1018.602	1438.75
1018.893	1451.85
1019.185	1445.53
1019.476	1459.09
1019.767	1413.89
1020.058	1454.11
1020.35	1406.43
1020.641	1398.3
1020.932	1390.39
1021.223	1388.35
1021.514	1393.55
1021.804	1383.16
1022.095	1373.44
1022.386	1384.06
1022.677	1349.03
1022.967	1346.32
1023.258	1309.26
1023.548	1294.34
1023.839	1310.16
1024.129	1298.41
1024.419	1294.57
1024.709	1304.29
1025	1296.15
1025.29	1276.49
1025.58	1234.23
1025.87	1231.97
1026.16	1240.11
1026.449	1261.8
1026.739	1264.74
1027.029	1238.53
1027.319	1208.02
1027.608	1205.31
1027.898	1232.65
1028.187	1196.27
1028.477	1186.32
1028.766	1184.97
1029.055	1158.08
1029.344	1166.44
1029.634	1147.23
1029.923	1118.53
1030.212	1117.17
1030.501	1138.87
1030.79	1169.38
1031.078	1136.61
1031.367	1105.87
1031.656	1107.23
1031.945	1088.25
1032.233	1097.29
1032.522	1065.42
1032.81	1084.63
1033.099	1072.2
1033.387	1051.86
1033.675	1046.22
1033.963	1060.9
1034.251	1052.99
1034.54	1048.48
1034.828	1039.89
1035.116	1009.38
1035.403	1013.9
1035.691	1010.51
1035.979	1009.38
1036.267	1013
1036.554	955.82
1036.842	985.88
1037.129	983.62
1037.417	969.38
1037.704	975.26
1037.992	945.2
1038.279	949.95
1038.566	923.73
1038.853	923.73
1039.14	923.73
