Data from hue_320_FLMS001491_24.txt Node
Date: Mon Feb 06 15:46:58 GMT 2017
User: dcchb
Spectrometer: FLMS00149
Trigger mode: 0
Integration Time (sec): 2.000000E-2
Scans to average: 10
Electric dark correction enabled: true
Nonlinearity correction enabled: false
Boxcar width: 0
XAxis mode: Wavelengths
Number of Pixels in Spectrum: 2048
>>>>>Begin Spectral Data<<<<<
341.393	-9.91
341.776	-9.91
342.16	-9.91
342.543	-73.64
342.927	-77.03
343.31	-62.79
343.693	-79.07
344.077	-62.79
344.46	-60.99
344.843	-44.94
345.226	-52.63
345.61	-22.12
345.993	-25.96
346.376	-27.77
346.759	8.39
347.142	35.51
347.525	37.09
347.908	68.73
348.291	72.34
348.674	94.26
349.057	122.74
349.44	123.19
349.823	141.72
350.206	162.28
350.588	196.41
350.971	219.46
351.354	203.19
351.737	210.64
352.119	246.12
352.502	261.72
352.884	272.34
353.267	277.99
353.65	299.23
354.032	317.08
354.414	322.96
354.797	325.22
355.179	307.36
355.562	325.67
355.944	310.98
356.326	327.7
356.709	335.84
357.091	340.81
357.473	327.25
357.855	344.43
358.238	334.71
358.62	334.93
359.002	336.52
359.384	337.42
359.766	327.25
360.148	318.21
360.53	318.89
360.912	327.25
361.294	314.6
361.676	326.35
362.057	327.03
362.439	313.01
362.821	317.31
363.203	317.31
363.584	324.54
363.966	309.85
364.348	321.83
364.729	307.59
365.111	315.5
365.493	303.52
365.874	342.39
366.256	317.53
366.637	321.83
367.019	335.16
367.4	299.23
367.781	316.63
368.163	303.98
368.544	315.5
368.925	303.07
369.306	328.38
369.688	310.3
370.069	315.5
370.45	316.86
370.831	317.31
371.212	313.92
371.593	300.13
371.974	311.43
372.355	303.3
372.736	331.09
373.117	320.47
373.498	303.75
373.879	319.57
374.26	318.44
374.641	343.97
375.021	324.09
375.402	304.88
375.783	314.6
376.163	322.73
376.544	312.11
376.925	322.05
377.305	316.18
377.686	318.44
378.066	315.05
378.447	330.42
378.827	321.83
379.208	351.21
379.588	315.5
379.968	332.45
380.349	328.38
380.729	340.36
381.109	315.5
381.489	327.03
381.87	328.83
382.25	326.8
382.63	315.95
383.01	345.56
383.39	342.39
383.77	334.71
384.15	337.42
384.53	342.84
384.91	330.64
385.29	357.53
385.67	351.21
386.049	356.4
386.429	346.69
386.809	355.73
387.189	352.56
387.568	337.42
387.948	348.27
388.328	344.43
388.707	323.18
389.087	368.15
389.466	351.66
389.846	359.11
390.225	365.22
390.605	348.27
390.984	367.93
391.363	373.58
391.743	361.6
392.122	364.31
392.501	367.7
392.881	361.37
393.26	354.6
393.639	390.53
394.018	378.78
394.397	364.99
394.776	358.66
395.155	377.65
395.534	363.41
395.913	364.76
396.292	387.81
396.671	359.57
397.05	363.41
397.429	381.26
397.808	364.99
398.186	380.58
398.565	388.27
398.944	376.06
399.323	400.47
399.701	388.72
400.08	375.16
400.458	377.19
400.837	396.63
401.215	396.4
401.594	380.13
401.972	395.95
402.351	422.62
402.729	408.38
403.107	404.09
403.486	399.57
403.864	408.61
404.242	381.04
404.62	416.29
404.999	442.5
405.377	421.03
405.755	421.71
406.133	453.12
406.511	418.77
406.889	444.76
407.267	435.72
407.645	442.73
408.023	430.98
408.401	440.02
408.779	455.61
409.156	453.35
409.534	444.99
409.912	463.29
410.29	472.33
410.667	466.23
411.045	480.92
411.422	468.49
411.8	478.43
412.178	481.82
412.555	492.9
412.933	506
413.31	524.08
413.687	522.95
414.065	501.03
414.442	518.88
414.819	529.96
415.197	542.61
415.574	535.61
415.951	534.03
416.328	551.88
416.705	567.7
417.082	568.15
417.46	563.63
417.837	569.73
418.214	561.6
418.591	595.04
418.967	568.37
419.344	605.44
419.721	618.77
420.098	595.94
420.475	628.03
420.852	605.44
421.228	628.49
421.605	630.97
421.982	634.14
422.358	654.7
422.735	637.75
423.111	665.77
423.488	675.04
423.864	674.13
424.241	675.04
424.617	663.97
424.994	688.15
425.37	669.39
425.746	691.76
426.123	700.57
426.499	701.93
426.875	711.87
427.251	712.55
427.627	716.17
428.003	744.87
428.379	759.56
428.756	748.71
429.132	767.01
429.507	766.79
429.883	754.81
430.259	807.69
430.635	803.85
431.011	794.36
431.387	818.76
431.763	837.29
432.138	828.48
432.514	835.71
432.89	833.9
433.265	843.62
433.641	843.4
434.016	894.92
434.392	870.51
434.767	898.31
435.143	886.33
435.518	899.44
435.894	908.48
436.269	915.03
436.644	908.25
437.02	934.01
437.395	939.89
437.77	943.05
438.145	953.68
438.52	955.71
438.895	957.97
439.271	963.17
439.646	1002.49
440.021	998.65
440.395	1026.44
440.77	995.26
441.145	1000.68
441.52	1027.8
441.895	1029.38
442.27	1047.91
442.645	1035.48
443.019	1028.7
443.394	1051.53
443.769	1042.94
444.143	1044.97
444.518	1047.68
444.892	1059.44
445.267	1068.47
445.641	1081.81
446.016	1059.21
446.39	1105.54
446.764	1078.64
447.139	1074.12
447.513	1078.64
447.887	1082.94
448.262	1093.56
448.636	1098.53
449.01	1135.59
449.384	1113.67
449.758	1119.77
450.132	1118.19
450.506	1107.8
450.88	1130.17
451.254	1111.41
451.628	1154.57
452.002	1127.23
452.376	1171.3
452.75	1170.62
453.123	1156.16
453.497	1159.55
453.871	1169.72
454.244	1204.52
454.618	1180.34
454.992	1201.58
455.365	1224.18
455.739	1231.18
456.112	1230.28
456.486	1240
456.859	1230.96
457.232	1249.26
457.606	1272.76
457.979	1255.36
458.352	1299.43
458.725	1265.76
459.099	1296.94
459.472	1301.46
459.845	1319.77
460.218	1331.07
460.591	1346.89
460.964	1322.93
461.337	1343.04
461.71	1380.56
462.083	1384.17
462.456	1390.5
462.829	1405.42
463.201	1434.57
463.574	1408.8
463.947	1430.5
464.32	1448.13
464.692	1447
465.065	1470.72
465.438	1466.43
465.81	1491.51
466.183	1488.58
466.555	1498.52
466.928	1529.48
467.3	1539.65
467.672	1552.98
468.045	1522.25
468.417	1548.91
468.789	1582.81
469.161	1584.39
469.534	1605.41
469.906	1641.12
470.278	1609.93
470.65	1640.89
471.022	1673.88
471.394	1678.63
471.766	1674.56
472.138	1728.34
472.51	1715.46
472.882	1773.09
473.253	1776.48
473.625	1762.24
473.997	1806.99
474.369	1814.67
474.74	1802.24
475.112	1870.49
475.484	1891.73
475.855	1872.97
476.227	1886.76
476.598	1956.14
476.97	1951.84
477.341	1985.06
477.713	2026.42
478.084	2002.01
478.455	2092.63
478.827	2083.14
479.198	2101.67
479.569	2113.64
479.94	2150.93
480.311	2136.92
480.682	2193.42
481.053	2213.53
481.424	2253.53
481.795	2250.82
482.166	2277.26
482.537	2311.83
482.908	2342.11
483.279	2379.63
483.65	2384.15
484.021	2390.47
484.391	2468.89
484.762	2460.98
485.133	2458.27
485.503	2483.13
485.874	2521.09
486.244	2576.46
486.615	2596.34
486.985	2622.33
487.356	2645.38
487.726	2682.44
488.097	2730.58
488.467	2698.49
488.837	2731.26
489.207	2739.84
489.578	2787.07
489.948	2786.17
490.318	2867.52
490.688	2849.9
491.058	2867.07
491.428	2930.12
491.798	2947.07
492.168	2999.95
492.538	2975.32
492.908	2963.79
493.278	3050.12
493.648	3043.56
494.017	3116.56
494.387	3138.93
494.757	3086.5
495.126	3135.09
495.496	3150.68
495.866	3172.83
496.235	3208.53
496.605	3209.44
496.974	3191.13
497.344	3239.27
497.713	3251.24
498.082	3279.94
498.452	3294.4
498.821	3295.08
499.19	3338.47
499.559	3359.49
499.928	3407.17
500.298	3345.25
500.667	3365.59
501.036	3389.09
501.405	3432.03
501.774	3396.32
502.143	3422.09
502.512	3465.7
502.88	3480.39
503.249	3445.59
503.618	3517.45
503.987	3531.46
504.356	3546.6
504.724	3519.71
505.093	3564.23
505.462	3528.3
505.83	3554.74
506.199	3596.32
506.567	3653.49
506.936	3629.54
507.304	3662.76
507.672	3624.11
508.041	3667.05
508.409	3657.56
508.777	3683.1
509.145	3703.66
509.514	3701.85
509.882	3691
510.25	3741.17
510.618	3754.96
510.986	3766.03
511.354	3720.83
511.722	3793.83
512.09	3797.67
512.458	3837.22
512.826	3807.61
513.193	3801.96
513.561	3826.82
513.929	3855.75
514.297	3907.95
514.664	3859.59
515.032	3862.07
515.4	3879.93
515.767	3880.38
516.135	3958.12
516.502	3862.53
516.869	3944.33
517.237	3916.08
517.604	3935.97
517.972	3981.84
518.339	3955.4
518.706	3968.29
519.073	3976.19
519.44	3962.64
519.808	4005.57
520.175	4002.86
520.542	4040.6
520.909	4031.56
521.276	4008.51
521.643	4067.49
522.009	4067.27
522.376	4094.84
522.743	4150.88
523.11	4158.34
523.477	4182.29
523.843	4170.54
524.21	4229.52
524.577	4221.39
524.943	4244.89
525.31	4233.82
525.676	4267.03
526.043	4302.51
526.409	4279.92
526.776	4309.07
527.142	4327.15
527.508	4372.57
527.874	4375.96
528.241	4386.13
528.607	4399.46
528.973	4455.05
529.339	4468.16
529.705	4535.05
530.071	4540.25
530.437	4562.85
530.803	4515.62
531.169	4571.21
531.535	4558.55
531.901	4583.86
532.267	4603.3
532.632	4625.44
532.998	4652.11
533.364	4659.34
533.73	4742.73
534.095	4737.08
534.461	4686.68
534.826	4753.12
535.192	4743.41
535.557	4782.5
535.923	4796.51
536.288	4789.96
536.653	4883.06
537.019	4824.99
537.384	4860.01
537.749	4896.4
538.114	4930.07
538.479	4965.77
538.845	4949.28
539.21	4947.69
539.575	4968.49
539.94	4976.85
540.305	5048.26
540.67	5034.25
541.034	5069.05
541.399	5078.09
541.764	5092.78
542.129	5121.02
542.494	5161.02
542.858	5177.07
543.223	5173
543.587	5174.81
543.952	5196.95
544.316	5218.2
544.681	5251.42
545.045	5241.25
545.41	5328.02
545.774	5306.1
546.138	5313.33
546.503	5353.79
546.867	5383.62
547.231	5417.51
547.595	5444.63
547.959	5431.52
548.324	5443.95
548.688	5482.37
549.052	5488.47
549.416	5533.22
549.779	5505.87
550.143	5486.21
550.507	5534.8
550.871	5565.53
551.235	5581.58
551.599	5654.57
551.962	5676.04
552.326	5673.78
552.689	5738.63
553.053	5653.89
553.417	5665.64
553.78	5735.24
554.143	5700.67
554.507	5743.38
554.87	5801.46
555.234	5820.89
555.597	5790.84
555.96	5832.87
556.323	5858.41
556.686	5857.05
557.05	5851.85
557.413	5880.1
557.776	5864.51
558.139	5943.6
558.502	5904.96
558.865	5927.33
559.228	6004.62
559.59	6019.53
559.953	6038.74
560.316	6052.52
560.679	6010.04
561.041	6082.81
561.404	6104.05
561.767	6178.85
562.129	6132.75
562.492	6177.27
562.854	6189.24
563.217	6188.57
563.579	6205.74
563.941	6264.72
564.304	6323.25
564.666	6287.32
565.028	6306.08
565.39	6292.07
565.753	6359.18
566.115	6287.09
566.477	6380.65
566.839	6419.97
567.201	6430.82
567.563	6461.33
567.925	6497.48
568.287	6505.39
568.648	6483.7
569.01	6593.3
569.372	6628.33
569.734	6634.43
570.095	6642.11
570.457	6640.53
570.819	6649.12
571.18	6650.25
571.542	6721.43
571.903	6735.9
572.265	6768.89
572.626	6792.62
572.987	6840.53
573.349	6916.23
573.71	6923.46
574.071	6988.09
574.432	6993.97
574.794	7108.54
575.155	7154.87
575.516	7113.51
575.877	7234.19
576.238	7287.75
576.599	7366.16
576.96	7407.52
577.32	7432.38
577.681	7511.7
578.042	7644.8
578.403	7713.5
578.763	7744.91
579.124	7854.51
579.485	7961.63
579.845	8073.26
580.206	8162.07
580.566	8216.31
580.927	8309.87
581.287	8473.7
581.648	8568.39
582.008	8698.1
582.368	8759.35
582.728	8939.91
583.089	9143.52
583.449	9224.19
583.809	9369.05
584.169	9527.24
584.529	9703.5
584.889	9910.73
585.249	10071.85
585.609	10184.85
585.969	10438.4
586.329	10658.51
586.688	10847.88
587.048	11002.9
587.408	11263.23
587.768	11443.34
588.127	11654.86
588.487	11869.55
588.846	12217.11
589.206	12369.87
589.565	12548.62
589.925	12897.99
590.284	13148.38
590.643	13391.09
591.003	13718.09
591.362	14048.02
591.721	14184.97
592.08	14394
592.44	14821.33
592.799	15144.49
593.158	15286.63
593.517	15608.88
593.876	15928.2
594.235	16172.48
594.593	16479.37
594.952	16759.14
595.311	16908.74
595.67	17265.56
596.029	17683.18
596.387	18051.53
596.746	18261.92
597.104	18479.77
597.463	18745.3
597.822	19151.62
598.18	19399.29
598.538	19721.77
598.897	20037.02
599.255	20212.83
599.613	20705.92
599.972	20879.48
600.33	21182.07
600.688	21328.96
601.046	21784.99
601.404	22079
601.762	22337.29
602.12	22613.44
602.478	22999.88
602.836	23187.22
603.194	23181.57
603.552	23738.16
603.91	23891.83
604.268	24191.03
604.625	24399.84
604.983	24802.54
605.341	24948.75
605.698	25287.05
606.056	25440.26
606.413	25708.73
606.771	25997.31
607.128	26313.23
607.485	26473.91
607.843	26680.23
608.2	26998.19
608.557	27349.37
608.914	27333.55
609.272	27754.78
609.629	27920.42
609.986	28191.6
610.343	28369
610.7	28789.78
611.057	28813.51
611.414	29098.92
611.771	29227.96
612.127	29563.54
612.484	29555.18
612.841	29889.64
613.198	29928.28
613.554	30244.43
613.911	30486.23
614.267	30603.52
614.624	30846.67
614.98	30989.5
615.337	31300.67
615.693	31318.75
616.05	31527.79
616.406	31733.66
616.762	31741.57
617.118	31856.59
617.475	31989.24
617.831	32273.53
618.187	32490.25
618.543	32558.72
618.899	32825.61
619.255	32907.41
619.611	32975.43
619.967	33201.87
620.323	33353.73
620.678	33219.27
621.034	33361.64
621.39	33549.2
621.746	33596.66
622.101	34038.23
622.457	33866.71
622.812	34107.15
623.168	34239.58
623.523	34207.49
623.879	34492.45
624.234	34377.66
624.589	34493.13
624.945	34646.35
625.3	34766.57
625.655	34731.54
626.01	34929.96
626.365	34993.23
626.72	35019.67
627.075	35148.26
627.43	35239.1
627.785	35233
628.14	35253.79
628.495	35350.96
628.85	35399.78
629.205	35245.2
629.559	35564.52
629.914	35413.11
630.269	35689.03
630.623	35498.76
630.978	35504.18
631.332	35672.08
631.687	35755.02
632.041	35748.24
632.396	35931.96
632.75	35797.05
633.104	35915.02
633.459	35743.27
633.813	35717.06
634.167	35948.01
634.521	35823.27
634.875	35909.82
635.229	35877.28
635.583	35762.93
635.937	35712.08
636.291	35896.49
636.645	35903.04
636.999	35785.53
637.352	35996.37
637.706	35886.09
638.06	36001.57
638.413	35817.84
638.767	35927.22
639.121	35951.17
639.474	35775.13
639.828	35747.56
640.181	35780.1
640.534	35960.44
640.888	35867.79
641.241	35621.24
641.594	35812.65
641.947	35859.2
642.301	35799.99
642.654	36013.54
643.007	35934.9
643.36	35773.1
643.713	35797.51
644.066	35971.51
644.419	35725.87
644.771	35416.95
645.124	35231.87
645.477	35083.85
645.83	35072.33
646.182	34812.45
646.535	34741.49
646.888	34850.64
647.24	34637.31
647.593	34898.55
647.945	34745.78
648.298	34689.96
648.65	34596.41
649.002	34436.18
649.355	34674.14
649.707	34559.35
650.059	34706.01
650.411	35181.02
650.763	35208.59
651.115	35627.11
651.467	35339.89
651.819	35437.51
652.171	35466.67
652.523	35348.48
652.875	35400.68
653.227	35256.5
653.578	35430.96
653.93	35346.67
654.282	35219.44
654.633	35127.24
654.985	35350.96
655.337	35243.85
655.688	35343.51
656.039	35356.39
656.391	35065.32
656.742	35023.06
657.094	35227.8
657.445	35229.61
657.796	35236.84
658.147	35049.05
658.498	35172.44
658.849	35249.04
659.2	35138.54
659.551	35063.51
659.902	35270.74
660.253	35202.49
660.604	35204.53
660.955	35176.73
661.306	35275.94
661.656	35140.35
662.007	35155.49
662.358	34951.2
662.708	35192.78
663.059	35116.17
663.409	34760.7
663.76	35079.11
664.11	35024.87
664.461	35181.25
664.811	35045.43
665.161	35114.59
665.511	35019.9
665.862	35071.65
666.212	35142.61
666.562	35200.23
666.912	35020.8
667.262	34923.18
667.612	35076.85
667.962	35196.84
668.312	34968.83
668.662	35087.24
669.011	34953.23
669.361	34913.23
669.711	34902.39
670.06	34774.71
670.41	34967.92
670.76	34789.4
671.109	35144.87
671.459	34862.84
671.808	34831.88
672.157	34909.39
672.507	34922.5
672.856	34778.77
673.205	34910.52
673.554	35054.7
673.904	34707.14
674.253	34902.39
674.602	34792.33
674.951	34348.5
675.3	34296.3
675.649	34770.19
675.998	34644.77
676.346	34680.02
676.695	34891.09
677.044	34437.77
677.393	34763.18
677.741	34744.65
678.09	34629.4
678.438	34496.52
678.787	34623.98
679.135	34571.32
679.484	34346.47
679.832	34485.22
680.181	34338.79
680.529	34342.63
680.877	34304.21
681.225	34231.44
681.573	34513.92
681.922	34157.55
682.27	34124.78
682.618	34163.65
682.966	34049.53
683.314	34136.76
683.661	34069.64
684.009	33880.04
684.357	33893.83
684.705	33843.43
685.053	33837.1
685.4	33776.54
685.748	33551.91
686.095	33561.41
686.443	33562.76
686.79	33520.5
687.138	33563.67
687.485	33513.5
687.832	33372.26
688.18	33421.07
688.527	33281.87
688.874	33135.88
689.221	33132.49
689.568	33115.99
689.915	32949.9
690.262	32944.47
690.609	32799.84
690.956	32737.25
691.303	32839.16
691.65	32700.86
691.997	32626.97
692.344	32423.13
692.69	32416.13
693.037	32386.52
693.383	32176.13
693.73	32238.5
694.077	32053.65
694.423	32050.26
694.769	32019.75
695.116	31937.49
695.462	31991.28
695.808	31757.84
696.155	31827.89
696.501	31608.01
696.847	31719.87
697.193	31373.89
697.539	31557.62
697.885	31235.59
698.231	31335.7
698.577	31087.57
698.923	31189.94
699.269	31054.35
699.614	30939.1
699.96	30873.79
700.306	30827.01
700.651	30757.86
700.997	30519.9
701.342	30583.4
701.688	30574.14
702.033	30567.36
702.379	30416.18
702.724	30326.69
703.069	30340.02
703.415	30026.36
703.76	30068.39
704.105	30125.56
704.45	29923.08
704.795	29820.26
705.14	29712.69
705.485	29760.15
705.83	29582.98
706.175	29709.76
706.52	29586.37
706.865	29419.82
707.209	29390.89
707.554	29395.41
707.899	29342.31
708.243	29254.63
708.588	29151.13
708.932	29057.12
709.277	29013.5
709.621	29153.84
709.966	28892.6
710.31	28990
710.654	28672.04
710.998	28736.45
711.342	28644.7
711.687	28629.33
712.031	28615.32
712.375	28337.59
712.719	28327.87
713.063	28247.87
713.407	28490.8
713.75	28242
714.094	28191.83
714.438	28154.09
714.782	27975.34
715.125	27952.74
715.469	28110.93
715.812	27895.79
716.156	27717.72
716.499	27732.86
716.843	27795
717.186	27550.26
717.53	27722.01
717.873	27689.92
718.216	27665.06
718.559	27562.69
718.902	27397.05
719.246	27470.94
719.589	27295.81
719.932	27326.77
720.275	27202.7
720.617	27238.86
720.96	27046.77
721.303	27144.85
721.646	27111.41
721.989	27093.33
722.331	27075.25
722.674	26957.74
723.016	27038.41
723.359	26894.46
723.701	27001.13
724.044	26796.61
724.386	26661.25
724.729	26700.34
725.071	26612.44
725.413	26659.67
725.755	26690.17
726.097	26583.28
726.439	26363.85
726.782	26380.35
727.124	26488.82
727.465	26306.68
727.807	26371.31
728.149	26233.24
728.491	26291.77
728.833	26291.09
729.175	26100.36
729.516	26084.09
729.858	26088.61
730.199	26157.31
730.541	26082.96
730.882	25965.22
731.224	26101.71
731.565	25901.04
731.906	25908.27
732.248	25812.23
732.589	25648.17
732.93	25632.8
733.271	25612.91
733.612	25736.75
733.953	25671.67
734.294	25471.9
734.635	25522.3
734.976	25599.36
735.317	25495.63
735.658	25364.33
735.999	25567.94
736.339	25404.56
736.68	25468.96
737.021	25376.99
737.361	25210.89
737.702	25378.57
738.042	25334.05
738.383	25175.64
738.723	25197.78
739.063	25138.8
739.404	25193.26
739.744	25171.34
740.084	24997.79
740.424	24981.97
740.764	24955.08
741.104	25005.7
741.444	24932.48
741.784	24766.61
742.124	24788.98
742.464	24803.22
742.804	24686.38
743.143	24679.15
743.483	24765.48
743.823	24561.64
744.162	24570.23
744.502	24608.19
744.841	24409.33
745.181	24589.44
745.52	24432.15
745.86	24441.19
746.199	24386.96
746.538	24411.36
746.877	24432.15
747.216	24293.17
747.556	24266.28
747.895	24304.47
748.234	24183.8
748.573	24186.96
748.911	24104.25
749.25	24130.24
749.589	23950.13
749.928	23972.96
750.267	24012.96
750.605	24029
750.944	23900.87
751.283	23843.24
751.621	23879.85
751.96	23709.01
752.298	23631.27
752.636	23666.75
752.975	23708.78
753.313	23433.54
753.651	23585.17
753.989	23494.78
754.327	23427.43
754.666	23301.11
755.004	23369.58
755.342	23411.84
755.679	23329.81
756.017	23151.96
756.355	23318.06
756.693	23188.57
757.031	23139.53
757.368	23001.01
757.706	22874
758.044	22960.78
758.381	22892.08
758.719	22780.9
759.056	22836.72
759.394	22728.47
759.731	22500.45
760.068	22629.04
760.405	22526.89
760.743	22329.38
761.08	22398.99
761.417	22299.55
761.754	22299.1
762.091	22309.5
762.428	22213.91
762.765	21973.24
763.102	22045.55
763.438	22004.87
763.775	21895.5
764.112	21920.81
764.449	21797.87
764.785	21604.43
765.122	21617.76
765.458	21505.9
765.795	21459.58
766.131	21472.68
766.467	21401.05
766.804	21268.4
767.14	21191.79
767.476	21291.22
767.812	21027.05
768.148	21118.12
768.485	20924.45
768.821	20912.25
769.157	20779.37
769.492	20799.71
769.828	20697.79
770.164	20595.87
770.5	20451.69
770.836	20559.04
771.171	20371.24
771.507	20412.37
771.842	20216.67
772.178	20103.23
772.513	20208.76
772.849	20031.37
773.184	20005.38
773.519	20012.38
773.855	19856
774.19	19823.46
774.525	19726.52
774.86	19661.21
775.195	19641.77
775.53	19540.53
775.865	19438.16
776.2	19258.05
776.535	19158.85
776.87	19206.53
777.205	19101.9
777.539	19065.52
777.874	19030.26
778.209	18811.51
778.543	18860.32
778.878	18770.38
779.212	18729.03
779.547	18563.83
779.881	18661.68
780.215	18532.65
780.55	18613.32
780.884	18395.02
781.218	18413.78
781.552	18365.65
781.886	18334.91
782.22	18177.4
782.554	18271.86
782.888	17991.42
783.222	17896.96
783.556	17899.44
783.889	17730.64
784.223	17741.93
784.557	17727.02
784.89	17737.87
785.224	17557.31
785.557	17524.99
785.891	17427.14
786.224	17360.25
786.558	17342.85
786.891	17273.92
787.224	17208.16
787.557	17022.86
787.891	17110.54
788.224	17077.32
788.557	17094.49
788.89	16935.4
789.223	16955.29
789.556	16746.48
789.888	16831.68
790.221	16675.52
790.554	16592.59
790.887	16553.04
791.219	16499.71
791.552	16509.65
791.884	16381.07
792.217	16317.11
792.549	16360.73
792.882	16158.47
793.214	16097.68
793.546	16187.4
793.879	15985.82
794.211	15973.17
794.543	15963
794.875	15903.56
795.207	15835.09
795.539	15886.16
795.871	15794.42
796.203	15674.19
796.535	15663.57
796.867	15604.82
797.198	15610.47
797.53	15517.13
797.862	15430.13
798.193	15431.94
798.525	15348.1
798.856	15394.88
799.188	15284.15
799.519	15216.58
799.85	15126.86
800.182	15146.3
800.513	15013.87
800.844	14888.22
801.175	15026.75
801.506	14981.33
801.837	14846.64
802.168	14874.89
802.499	14748.57
802.83	14708.12
803.161	14688.91
803.491	14732.52
803.822	14688.91
804.153	14528.91
804.483	14432.87
804.814	14480.33
805.145	14423.15
805.475	14386.77
805.805	14359.2
806.136	14283.27
806.466	14297.73
806.796	14229.48
807.126	14181.12
807.457	14112.88
807.787	14139.77
808.117	14067.23
808.447	13935.48
808.777	13984.52
809.107	13956.05
809.436	13914.92
809.766	13904.97
810.096	13827.01
810.426	13830.63
810.755	13822.04
811.085	13827.91
811.414	13722.83
811.744	13593.12
812.073	13615.04
812.403	13615.72
812.732	13520.8
813.061	13442.61
813.39	13394.03
813.719	13423.18
814.049	13469.73
814.378	13397.42
814.707	13335.04
815.036	13318.1
815.365	13255.95
815.693	13121.04
816.022	13169.85
816.351	13091.44
816.68	13069.97
817.008	13114.49
817.337	13063.19
817.665	12983.64
817.994	12943.87
818.322	12896.64
818.651	12883.76
818.979	12872.01
819.307	12891.67
819.636	12825.68
819.964	12728.51
820.292	12792.91
820.62	12756.3
820.948	12741.16
821.276	12686.02
821.604	12714.27
821.932	12740.26
822.259	12744.1
822.587	12686.93
822.915	12627.04
823.243	12729.86
823.57	12651.22
823.898	12713.59
824.225	12578.68
824.553	12603.54
824.88	12645.8
825.207	12614.39
825.535	12648.74
825.862	12636.76
826.189	12593.82
826.516	12625.91
826.843	12716.08
827.17	12688.06
827.497	12608.51
827.824	12678.11
828.151	12710.88
828.478	12615.29
828.805	12702.29
829.131	12637.21
829.458	12625.68
829.785	12586.82
830.111	12614.84
830.438	12700.71
830.764	12632.24
831.09	12641.05
831.417	12505.46
831.743	12608.51
832.069	12657.55
832.395	12533.26
832.722	12593.37
833.048	12487.16
833.374	12610.77
833.7	12482.86
834.026	12542.52
834.351	12482.86
834.677	12496.42
835.003	12558.12
835.329	12560.6
835.654	12542.3
835.98	12460.27
836.306	12441.96
836.631	12345.24
836.956	12372.58
837.282	12363.54
837.607	12407.16
837.932	12302.98
838.258	12331.23
838.583	12324.9
838.908	12161.52
839.233	12200.84
839.558	12190.44
839.883	12162.42
840.208	12140.05
840.533	12192.25
840.858	12050.78
841.182	12101.86
841.507	12042.88
841.832	11948.87
842.156	12071.58
842.481	12001.75
842.805	11955.42
843.13	11897.12
843.454	11940.05
843.778	11830.45
844.103	11924.91
844.427	11806.27
844.751	11813.73
845.075	11761.3
845.399	11695.99
845.723	11713.84
846.047	11660.96
846.371	11570.35
846.695	11645.37
847.019	11484.7
847.343	11528.76
847.666	11356.79
847.99	11332.39
848.313	11307.3
848.637	11273.4
848.96	11238.6
849.284	11157.02
849.607	11210.81
849.931	11066.4
850.254	11094.2
850.577	11004.94
850.9	10872.51
851.223	10910.93
851.546	10858.73
851.869	10800.87
852.192	10799.97
852.515	10747.99
852.838	10697.83
853.161	10757.03
853.483	10705.51
853.806	10595.46
854.129	10539.64
854.451	10547.32
854.774	10443.6
855.096	10469.13
855.419	10401.79
855.741	10355.46
856.063	10380.32
856.385	10344.16
856.708	10286.76
857.03	10251.74
857.352	10266.2
857.674	10230.72
857.996	10122.93
858.318	10131.29
858.64	10105.07
858.961	10076.6
859.283	10042.7
859.605	9966.55
859.926	10060.1
860.248	9985.98
860.57	9910.5
860.891	9985.75
861.212	9846.77
861.534	9915.02
861.855	9804.29
862.176	9852.65
862.498	9871.63
862.819	9868.47
863.14	9776.95
863.461	9733.11
863.782	9747.79
864.103	9722.71
864.424	9708.25
864.745	9736.5
865.065	9659.66
865.386	9616.95
865.707	9663.28
866.027	9678.42
866.348	9612.66
866.668	9610.17
866.989	9580.79
867.309	9568.59
867.63	9540.34
867.95	9585.31
868.27	9456.73
868.59	9505.09
868.91	9466.45
869.23	9448.14
869.55	9430.51
869.87	9467.58
870.19	9344.87
870.51	9476.84
870.83	9435.49
871.15	9368.14
871.469	9330.18
871.789	9441.36
872.109	9375.6
872.428	9280.01
872.748	9277.75
873.067	9273.91
873.386	9278.43
873.706	9223.74
874.025	9207.7
874.344	9197.98
874.663	9195.27
874.982	9143.06
875.301	9150.97
875.62	9117.75
875.939	9098.32
876.258	9119.56
876.577	9108.72
876.896	9051.99
877.214	9012.22
877.533	8993.24
877.852	8997.08
878.17	9054.25
878.489	9002.73
878.807	9044.54
879.125	8971.09
879.444	9021.49
879.762	8943.75
880.08	8908.49
880.398	8902.85
880.716	8935.84
881.034	8888.38
881.352	8913.01
881.67	8854.26
881.988	8817.65
882.306	8784.66
882.624	8730.19
882.941	8817.2
883.259	8716.18
883.577	8715.05
883.894	8679.57
884.212	8607.71
884.529	8600.03
884.846	8587.83
885.164	8613.36
885.481	8589.86
885.798	8618.33
886.115	8571.78
886.432	8537.2
886.75	8521.16
887.067	8521.39
887.383	8432.8
887.7	8454.95
888.017	8429.64
888.334	8434.16
888.651	8358.23
888.967	8385.8
889.284	8298.79
889.6	8328.4
889.917	8230.55
890.233	8215.41
890.55	8279.13
890.866	8309.87
891.182	8222.41
891.498	8209.08
891.815	8174.5
892.131	8171.11
892.447	8158.46
892.763	8060.38
893.079	8078.23
893.395	8012.47
893.71	7983.77
894.026	7944.68
894.342	7980.61
894.657	7959.14
894.973	7896.54
895.289	7904.23
895.604	7844.12
895.92	7850.9
896.235	7772.48
896.55	7790.33
896.865	7753.5
897.181	7760.28
897.496	7737.9
897.811	7731.35
898.126	7687.06
898.441	7638.92
898.756	7644.12
899.071	7581.3
899.386	7615.87
899.7	7530.68
900.015	7506.72
900.33	7433.28
900.644	7389.66
900.959	7481.87
901.273	7374.75
901.588	7383.34
901.902	7309.67
902.216	7327.07
902.531	7265.83
902.845	7304.92
903.159	7264.02
903.473	7167.98
903.787	7227.86
904.101	7144.93
904.415	7145.83
904.729	7124.59
905.042	7087.07
905.356	7090.69
905.67	7015.21
905.984	7048.66
906.297	7030.58
906.611	6980.86
906.924	6919.85
907.237	6949.22
907.551	6864.71
907.864	6805.5
908.177	6827.42
908.491	6785.61
908.804	6791.94
909.117	6751.49
909.43	6705.61
909.743	6707.65
910.056	6682.34
910.368	6631.27
910.681	6601.89
910.994	6563.92
911.307	6589.91
911.619	6547.2
911.932	6535.22
912.244	6463.81
912.557	6441.67
912.869	6461.55
913.181	6400.09
913.494	6407.32
913.806	6381.1
914.118	6315.12
914.43	6256.36
914.742	6240.99
915.054	6278.28
915.366	6236.47
915.678	6145.63
915.99	6155.12
916.302	6171.84
916.613	6097.95
916.925	6067.89
917.236	6082.58
917.548	6049.36
917.859	6031.28
918.171	6026.08
918.482	5971.62
918.794	5956.03
919.105	5906.99
919.416	5850.27
919.727	5892.98
920.038	5856.82
920.349	5831.06
920.66	5835.13
920.971	5768.24
921.282	5779.54
921.593	5704.06
921.903	5683.49
922.214	5689.14
922.525	5678.75
922.835	5645.53
923.146	5589.71
923.456	5580.45
923.767	5577.06
924.077	5530.28
924.387	5561.92
924.697	5538.19
925.008	5456.83
925.318	5435.59
925.628	5492.31
925.938	5410.06
926.248	5409.6
926.558	5375.71
926.867	5357.85
927.177	5327.35
927.487	5283.28
927.796	5336.61
928.106	5192.43
928.416	5201.47
928.725	5215.26
929.034	5136.39
929.344	5200.57
929.653	5128.25
929.962	5145.88
930.271	5108.14
930.581	5089.16
930.89	5042.16
931.199	5061.82
931.508	5007.58
931.817	5013.68
932.125	4980.24
932.434	4945.89
932.743	4923.74
933.051	4913.8
933.36	4900.46
933.669	4864.99
933.977	4829.96
934.286	4866.34
934.594	4830.86
934.902	4741.6
935.21	4773.91
935.519	4739.34
935.827	4740.47
936.135	4679.45
936.443	4641.71
936.751	4645.1
937.059	4623.18
937.367	4597.87
937.674	4583.86
937.982	4559.91
938.29	4578.89
938.597	4570.98
938.905	4509.29
939.213	4502.51
939.52	4479.23
939.827	4499.57
940.135	4460.93
940.442	4410.53
940.749	4400.82
941.056	4382.74
941.363	4396.3
941.67	4366.92
941.977	4345.22
942.284	4283.31
942.591	4248.5
942.898	4259.13
943.205	4281.72
943.511	4230.65
943.818	4241.27
944.125	4207.15
944.431	4141.84
944.738	4161.05
945.044	4167.38
945.35	4173.03
945.657	4119.47
945.963	4120.37
946.269	4107.72
946.575	4098.9
946.881	4020.49
947.187	4025.46
947.493	4022.97
947.799	4018.68
948.105	3969.19
948.41	3932.81
948.716	3951.79
949.022	3891.68
949.327	3897.1
949.633	3893.71
949.938	3910.89
950.244	3885.58
950.549	3843.54
950.854	3832.02
951.16	3805.58
951.465	3775.75
951.77	3796.31
952.075	3742.08
952.38	3750.66
952.685	3740.27
952.99	3757.67
953.294	3687.16
953.599	3636.32
953.904	3668.86
954.209	3663.43
954.513	3672.93
954.818	3609.42
955.122	3602.65
955.426	3597.45
955.731	3611.68
956.035	3559.93
956.339	3541.63
956.643	3530.78
956.948	3504.57
957.252	3484.46
957.556	3478.35
957.86	3476.32
958.163	3478.58
958.467	3443.78
958.771	3427.28
959.075	3423.67
959.378	3407.17
959.682	3393.84
959.985	3362.65
960.289	3381.86
960.592	3340.96
960.896	3349.54
961.199	3276.55
961.502	3306.16
961.805	3275.87
962.108	3300.05
962.411	3263.45
962.714	3231.13
963.017	3223.45
963.32	3249.89
963.623	3258.25
963.926	3224.35
964.228	3170.79
964.531	3148.87
964.833	3116.56
965.136	3169.66
965.438	3139.38
965.741	3099.61
966.043	3118.36
966.345	3046.95
966.648	3078.59
966.95	3052.83
967.252	3057.8
967.554	3007.18
967.856	3045.15
968.158	3000.85
968.46	2946.17
968.761	2966.96
969.063	2948.2
969.365	2951.59
969.666	2957.24
969.968	2918.14
970.269	2918.6
970.571	2897.81
970.872	2891.03
971.174	2831.37
971.475	2895.32
971.776	2828.43
972.077	2845.38
972.378	2824.81
972.679	2828.43
972.98	2819.39
973.281	2779.62
973.582	2775.32
973.883	2777.58
974.183	2736.45
974.484	2730.13
974.785	2736.45
975.085	2715.66
975.386	2720.18
975.686	2705.49
975.986	2654.65
976.287	2659.85
976.587	2666.62
976.887	2622.56
977.187	2634.54
977.487	2632.95
977.787	2606.29
978.087	2591.15
978.387	2620.52
978.687	2597.7
978.987	2576.01
979.286	2544.37
979.586	2529.68
979.885	2550.24
980.185	2551.37
980.484	2501.66
980.784	2522.9
981.083	2483.8
981.382	2494.65
981.682	2463.01
981.981	2464.37
982.28	2453.3
982.579	2428.66
982.878	2446.07
983.177	2411.04
983.475	2423.24
983.774	2413.75
984.073	2388.67
984.372	2388.89
984.67	2376.69
984.969	2372.4
985.267	2356.35
985.566	2349.8
985.864	2329.46
986.162	2310.48
986.461	2322.45
986.759	2326.29
987.057	2266.86
987.355	2247.65
987.653	2305.96
987.951	2261.66
988.249	2278.84
988.547	2235.68
988.844	2199.29
989.142	2244.26
989.44	2235.9
989.737	2184.83
990.035	2193.64
990.332	2175.34
990.63	2172.17
990.927	2170.14
991.224	2150.71
991.521	2136.7
991.819	2138.05
992.116	2102.57
992.413	2114.55
992.71	2111.61
993.006	2095.79
993.303	2113.64
993.6	2070.48
993.897	2069.58
994.193	2080.2
994.49	2087.66
994.787	2072.06
995.083	2041.56
995.379	2011.5
995.676	2008.11
995.972	2004.5
996.268	2005.63
996.565	1990.71
996.861	1962.69
997.157	1951.84
997.453	1942.35
997.749	1919.07
998.044	1922.24
998.34	1915.23
998.636	1929.02
998.932	1890.37
999.227	1853.99
999.523	1864.16
999.818	1884.05
1000.114	1872.75
1000.409	1885.4
1000.704	1863.71
1001	1834.33
1001.295	1830.94
1001.59	1819.64
1001.885	1817.83
1002.18	1829.13
1002.475	1806.76
1002.77	1779.64
1003.065	1773.99
1003.359	1765.41
1003.654	1774.22
1003.949	1738.06
1004.243	1724.73
1004.538	1715.69
1004.832	1708.68
1005.127	1738.51
1005.421	1712.53
1005.715	1701.68
1006.009	1676.37
1006.304	1658.06
1006.598	1666.43
1006.892	1653.54
1007.186	1667.1
1007.48	1627.78
1007.773	1597.73
1008.067	1622.13
1008.361	1599.99
1008.655	1557.73
1008.948	1583.72
1009.242	1576.48
1009.535	1538.74
1009.829	1550.27
1010.122	1541.46
1010.415	1543.04
1010.708	1551.4
1011.001	1519.54
1011.295	1508.01
1011.588	1537.16
1011.881	1530.16
1012.173	1488.35
1012.466	1477.05
1012.759	1504.62
1013.052	1512.53
1013.344	1444.06
1013.637	1463.27
1013.93	1444.51
1014.222	1456.71
1014.514	1442.25
1014.807	1456.71
1015.099	1402.93
1015.391	1385.53
1015.683	1398.18
1015.976	1395.92
1016.268	1410.39
1016.56	1380.78
1016.851	1370.84
1017.143	1366.77
1017.435	1345.08
1017.727	1346.43
1018.018	1333.78
1018.31	1314.34
1018.602	1320.67
1018.893	1318.64
1019.185	1315.7
1019.476	1298.98
1019.767	1289.71
1020.058	1263.27
1020.35	1242.93
1020.641	1272.54
1020.932	1260.11
1021.223	1237.28
1021.514	1249.94
1021.804	1224.4
1022.095	1196.38
1022.386	1195.93
1022.677	1192.99
1022.967	1219.43
1023.258	1207.68
1023.548	1181.47
1023.839	1191.64
1024.129	1174.91
1024.419	1193.9
1024.709	1148.7
1025	1176.27
1025.29	1124.97
1025.58	1112.09
1025.87	1109.38
1026.16	1134.24
1026.449	1117.96
1026.739	1111.64
1027.029	1088.59
1027.319	1103.5
1027.608	1118.19
1027.898	1110.28
1028.187	1094.01
1028.477	1053.56
1028.766	1069.38
1029.055	1071.19
1029.344	1065.99
1029.634	1033
1029.923	1036.39
1030.212	1008.82
1030.501	1030.51
1030.79	1001.58
1031.078	997.29
1031.367	1013.11
1031.656	1002.04
1031.945	995.93
1032.233	1009.04
1032.522	1009.72
1032.81	985.09
1033.099	958.42
1033.387	981.92
1033.675	958.42
1033.963	951.42
1034.251	932.21
1034.54	948.93
1034.828	934.92
1035.116	939.21
1035.403	920.23
1035.691	893.11
1035.979	905.77
1036.267	905.54
1036.554	872.77
1036.842	895.37
1037.129	874.81
1037.417	872.77
1037.704	871.87
1037.992	876.16
1038.279	874.36
1038.566	872.55
1038.853	872.55
1039.14	872.55
