Data from hue_38_FLMS001491_00038.txt Node
Date: Tue Feb 07 17:31:25 GMT 2017
User: dcchb
Spectrometer: FLMS00149
Trigger mode: 0
Integration Time (sec): 2.000000E-2
Scans to average: 10
Electric dark correction enabled: true
Nonlinearity correction enabled: false
Boxcar width: 0
XAxis mode: Wavelengths
Number of Pixels in Spectrum: 2048
>>>>>Begin Spectral Data<<<<<
341.393	-12.49
341.776	-12.49
342.16	-12.49
342.543	-63.78
342.927	-59.49
343.31	-58.36
343.693	-73.27
344.077	-66.72
344.46	-54.29
344.843	-74.18
345.226	-29.43
345.61	-40.96
345.993	-13.16
346.376	-20.62
346.759	13.05
347.142	30
347.525	58.25
347.908	74.74
348.291	69.09
348.674	85.59
349.057	100.28
349.44	132.14
349.823	130.34
350.206	183.22
350.588	212.59
350.971	223.21
351.354	218.69
351.737	254.85
352.119	263.21
352.502	273.61
352.884	257.79
353.267	291.69
353.65	298.24
354.032	309.99
354.414	314.29
354.797	309.54
355.179	342.53
355.562	315.42
355.944	338.47
356.326	341.18
356.709	342.99
357.091	345.25
357.473	355.19
357.855	329.43
358.238	331.91
358.62	338.01
359.002	340.05
359.384	344.34
359.766	360.61
360.148	338.01
360.53	344.34
360.912	348.86
361.294	346.15
361.676	332.82
362.057	349.31
362.439	334.4
362.821	334.17
363.203	331.01
363.584	342.31
363.966	316.32
364.348	334.62
364.729	325.58
365.111	334.62
365.493	324.23
365.874	314.29
366.256	307.05
366.637	318.58
367.019	321.97
367.4	310.9
367.781	319.48
368.163	323.78
368.544	332.14
368.925	309.31
369.306	315.19
369.688	326.49
370.069	322.65
370.45	310.67
370.831	323.78
371.212	301.63
371.593	323.55
371.974	330.78
372.355	335.3
372.736	325.58
373.117	303.44
373.498	314.06
373.879	326.49
374.26	324.68
374.641	312.93
375.021	330.33
375.402	339.14
375.783	318.13
376.163	334.17
376.544	351.35
376.925	310.22
377.305	328.52
377.686	329.65
378.066	325.36
378.447	309.99
378.827	317
379.208	346.83
379.588	323.55
379.968	336.21
380.349	334.85
380.729	341.18
381.109	339.37
381.489	350.67
381.87	336.88
382.25	335.53
382.63	349.99
383.01	345.7
383.39	345.25
383.77	342.76
384.15	364.23
384.53	365.13
384.91	359.93
385.29	374.17
385.67	358.35
386.049	363.55
386.429	357
386.809	362.19
387.189	339.14
387.568	347.05
387.948	345.47
388.328	358.8
388.707	357.9
389.087	354.51
389.466	348.63
389.846	378.46
390.225	375.53
390.605	369.65
390.984	357.45
391.363	347.96
391.743	375.98
392.122	382.53
392.501	370.33
392.881	366.71
393.26	392.02
393.639	387.05
394.018	333.72
394.397	349.99
394.776	380.27
395.155	394.51
395.534	380.27
395.913	392.48
396.292	381.63
396.671	376.88
397.05	381.18
397.429	391.12
397.808	407.62
398.186	413.04
398.565	398.58
398.944	393.61
399.323	377.79
399.701	385.7
400.08	399.26
400.458	408.97
400.837	399.93
401.215	376.43
401.594	403.77
401.972	388.41
402.351	402.42
402.729	401.06
403.107	401.06
403.486	399.03
403.864	413.72
404.242	406.94
404.62	411.68
404.999	399.48
405.377	403.77
405.755	411.46
406.133	414.17
406.511	407.62
406.889	444.23
407.267	425.02
407.645	438.58
408.023	405.81
408.401	446.49
408.779	436.32
409.156	426.15
409.534	444.23
409.912	436.54
410.29	477.67
410.667	460.95
411.045	441.29
411.422	484.68
411.8	462.76
412.178	451.23
412.555	475.64
412.933	473.83
413.31	466.82
413.687	455.3
414.065	478.12
414.442	473.15
414.819	475.41
415.197	493.49
415.574	476.99
415.951	483.09
416.328	485.58
416.705	495.75
417.082	485.58
417.46	496.88
417.837	483.32
418.214	500.27
418.591	515.86
418.967	518.12
419.344	523.32
419.721	496.2
420.098	514.05
420.475	507.27
420.852	521.29
421.228	535.97
421.605	526.94
421.982	528.52
422.358	531.91
422.735	527.61
423.111	545.01
423.488	567.39
423.864	554.51
424.241	584.11
424.617	548.18
424.994	553.6
425.37	544.56
425.746	561.06
426.123	559.48
426.499	551.34
426.875	590.44
427.251	588.18
427.627	591.34
428.003	581.17
428.379	604.9
428.756	596.09
429.132	612.81
429.507	591.57
429.883	606.48
430.259	611.23
430.635	648.29
431.011	609.64
431.387	626.37
431.763	626.37
432.138	637.21
432.514	663.88
432.89	670.66
433.265	660.49
433.641	663.43
434.016	667.04
434.392	666.82
434.767	656.88
435.143	681.28
435.518	695.97
435.894	695.97
436.269	695.07
436.644	723.31
437.02	723.09
437.395	730.09
437.77	731.68
438.145	721.05
438.52	721.73
438.895	753.82
439.271	732.81
439.646	726.25
440.021	755.18
440.395	763.09
440.77	773.93
441.145	763.99
441.52	766.48
441.895	741.39
442.27	794.72
442.645	764.44
443.019	787.27
443.394	786.36
443.769	784.56
444.143	803.54
444.518	801.73
444.892	798.11
445.267	802.41
445.641	829.75
446.016	789.98
446.39	812.58
446.764	805.8
447.139	799.24
447.513	818.23
447.887	828.62
448.262	838.57
448.636	852.58
449.01	850.09
449.384	852.35
449.758	855.06
450.132	863.42
450.506	874.27
450.88	860.03
451.254	869.53
451.628	865.01
452.002	877.66
452.376	887.83
452.75	914.95
453.123	942.07
453.497	922.41
453.871	943.87
454.244	946.13
454.618	958.11
454.992	960.14
455.365	977.54
455.739	977.54
456.112	1010.54
456.486	989.52
456.859	989.52
457.232	1016.87
457.606	1012.35
457.979	1037.66
458.352	1068.39
458.725	1039.46
459.099	1081.27
459.472	1056.19
459.845	1104.1
460.218	1074.94
460.591	1138.44
460.964	1119.46
461.337	1132.57
461.71	1121.27
462.083	1175.73
462.456	1173.92
462.829	1154.94
463.201	1195.17
463.574	1202.17
463.947	1215.5
464.32	1224.32
464.692	1260.48
465.065	1244.2
465.438	1283.3
465.81	1298.44
466.183	1320.59
466.555	1350.19
466.928	1343.41
467.3	1379.34
467.672	1371.43
468.045	1404.43
468.417	1461.83
468.789	1435.61
469.161	1437.42
469.534	1487.36
469.906	1492.56
470.278	1534.37
470.65	1537.08
471.022	1540.69
471.394	1626.34
471.766	1631.54
472.138	1647.58
472.51	1689.39
472.882	1746.56
473.253	1730.52
473.625	1789.27
473.997	1823.85
474.369	1846.45
474.74	1891.65
475.112	1948.82
475.484	1979.33
475.855	2031.75
476.227	2068.82
476.598	2069.95
476.97	2142.49
477.341	2195.37
477.713	2230.39
478.084	2315.14
478.455	2346.55
478.827	2391.52
479.198	2471.29
479.569	2499.76
479.94	2572.76
480.311	2671.06
480.682	2701.34
481.053	2798.06
481.424	2886.2
481.795	2890.94
482.166	2977.72
482.537	3055.23
482.908	3152.85
483.279	3228.33
483.65	3294.55
484.021	3374.09
484.391	3436.69
484.762	3519.85
485.133	3617.7
485.503	3685.95
485.874	3782.22
486.244	3859.05
486.615	3954.19
486.985	4057.24
487.356	4178.36
487.726	4225.6
488.097	4342.2
488.467	4388.3
488.837	4523.44
489.207	4625.36
489.578	4746.26
489.948	4846.37
490.318	4977.44
490.688	5052.24
491.058	5121.62
491.428	5255.4
491.798	5376.07
492.168	5505.34
492.538	5552.11
492.908	5690.19
493.278	5831.43
493.648	5787.81
494.017	5921.6
494.387	6074.13
494.757	6201.81
495.126	6271.42
495.496	6330.17
495.866	6445.88
496.235	6533.56
496.605	6676.38
496.974	6672.08
497.344	6838.63
497.713	6883.6
498.082	6995.01
498.452	7067.55
498.821	7133.09
499.19	7266.42
499.559	7302.12
499.928	7428.9
500.298	7474.78
500.667	7668.44
501.036	7679.97
501.405	7794.54
501.774	7816.69
502.143	7945.27
502.512	7996.8
502.88	8106.17
503.249	8146.85
503.618	8227.52
503.987	8309.56
504.356	8390.91
504.724	8450.57
505.093	8564.69
505.462	8591.58
505.83	8655.08
506.199	8787.51
506.567	8924.45
506.936	8871.35
507.304	9059.14
507.672	9061.17
508.041	9130.1
508.409	9294.39
508.777	9304.11
509.145	9359.25
509.514	9455.97
509.882	9528.05
510.25	9517.66
510.618	9673.36
510.986	9718.56
511.354	9720.14
511.722	9881.27
512.09	9938.44
512.458	9958.33
512.826	10065.22
513.193	10156.96
513.561	10225.44
513.929	10313.34
514.297	10375.04
514.664	10394.7
515.032	10496.39
515.4	10578.42
515.767	10615.71
516.135	10664.52
516.502	10612.09
516.869	10851.64
517.237	10886.21
517.604	10860.22
517.972	11019.77
518.339	11092.53
518.706	11121.23
519.073	11142.25
519.44	11226.54
519.808	11395.58
520.175	11292.75
520.542	11462.92
520.909	11576.81
521.276	11566.19
521.643	11664.5
522.009	11661.33
522.376	11770.93
522.743	11777.26
523.11	11906.3
523.477	12080.76
523.843	12095.67
524.21	12258.83
524.577	12309.68
524.943	12419.28
525.31	12451.59
525.676	12614.53
526.043	12687.75
526.409	12670.8
526.776	12847.06
527.142	12815.2
527.508	12876.44
527.874	12999.6
528.241	13090.45
528.607	13122.99
528.973	13226.49
529.339	13314.62
529.705	13388.74
530.071	13513.03
530.437	13484.56
530.803	13643.88
531.169	13659.47
531.535	13655.63
531.901	13822.86
532.267	13843.42
532.632	13958.45
532.998	14036.86
533.364	14072.79
533.73	14132.91
534.095	14195.95
534.461	14331.54
534.826	14318.66
535.192	14329.28
535.557	14470.3
535.923	14425.78
536.288	14483.86
536.653	14587.13
537.019	14568.37
537.384	14655.15
537.749	14684.53
538.114	14771.31
538.479	14887.46
538.845	14826.67
539.21	14856.28
539.575	14976.72
539.94	15006.78
540.305	15143.27
540.67	15134.69
541.034	15186.89
541.399	15228.92
541.764	15293.33
542.129	15357.96
542.494	15447.67
542.858	15438.41
543.223	15568.12
543.587	15691.96
543.952	15669.36
544.316	15693.77
544.681	15699.42
545.045	15802.92
545.41	15905.29
545.774	16015.34
546.138	15925.63
546.503	16073.42
546.867	16076.81
547.231	16220.31
547.595	16238.16
547.959	16293.75
548.324	16295.33
548.688	16324.49
549.052	16480.87
549.416	16425.73
549.779	16481.54
550.143	16588.43
550.507	16668.21
550.871	16627.08
551.235	16689.45
551.599	16906.17
551.962	16822.33
552.326	16989.1
552.689	17040.4
553.053	16959.95
553.417	17052.38
553.78	17216.44
554.143	17242.88
554.507	17313.16
554.87	17335.76
555.234	17555.41
555.597	17445.36
555.96	17463.21
556.323	17660.72
556.686	17688.29
557.05	17780.94
557.413	17764
557.776	17712.92
558.139	17945.01
558.502	17958.34
558.865	17966.25
559.228	18084.89
559.59	18179.8
559.953	18203.98
560.316	18368.95
560.679	18315.17
561.041	18407.14
561.404	18457.09
561.767	18655.72
562.129	18672.22
562.492	18727.81
562.854	18740.47
563.217	18823.86
563.579	18844.65
563.941	18953.8
564.304	19135.94
564.666	19146.56
565.028	19223.62
565.39	19236.95
565.753	19454.8
566.115	19318.08
566.477	19417.96
566.839	19528.92
567.201	19667.22
567.563	19757.39
567.925	19763.27
568.287	19731.85
568.648	19878.29
569.01	20048.68
569.372	20150.15
569.734	20054.56
570.095	20170.26
570.457	20341.33
570.819	20402.12
571.18	20465.85
571.542	20529.12
571.903	20574.54
572.265	20756.01
572.626	20737.7
572.987	20885.95
573.349	20890.24
573.71	21022.89
574.071	21021.99
574.432	21170.91
574.794	21415.65
575.155	21440.28
575.516	21467.18
575.877	21571.35
576.238	21636.21
576.599	21908.52
576.96	21860.16
577.32	21921.63
577.681	22123.43
578.042	22245.91
578.403	22241.39
578.763	22602.97
579.124	22610.65
579.485	22858.1
579.845	22994.14
580.206	23113.69
580.566	23332.66
580.927	23273.23
581.287	23638.42
581.648	23637.06
582.008	23957.96
582.368	23999.99
582.728	24172.19
583.089	24262.36
583.449	24521.78
583.809	24704.38
584.169	24812.4
584.529	24938.04
584.889	25359.95
585.249	25234.99
585.609	25375.1
585.969	25743.45
586.329	25923.78
586.688	26052.82
587.048	26243.55
587.408	26504.11
587.768	26646.93
588.127	26902.51
588.487	26956.75
588.846	27338.43
589.206	27435.38
589.565	27531.87
589.925	27890.51
590.284	27943.39
590.643	28297.73
591.003	28549.25
591.362	28794.67
591.721	28895
592.08	29085.96
592.44	29352.17
592.799	29591.48
593.158	29812.72
593.517	29952.83
593.876	30154.18
594.235	30390.78
594.593	30530.21
594.952	30711.45
595.311	30893.37
595.67	31079.35
596.029	31477.31
596.387	31684.08
596.746	31837.07
597.104	31904.87
597.463	32104.86
597.822	32396.83
598.18	32542.14
598.538	32689.25
598.897	32990.71
599.255	32805.41
599.613	33429.57
599.972	33463.92
600.33	33698.94
600.688	33719.96
601.046	34005.15
601.404	34319.27
601.762	34265.94
602.12	34562.88
602.478	34746.15
602.836	34886.94
603.194	35055.52
603.552	35093.03
603.91	35138.91
604.268	35457.54
604.625	35516.75
604.983	35738.89
605.341	35787.7
605.698	36007.58
606.056	36264.98
606.413	36243.28
606.771	36451.19
607.128	36572.99
607.485	36617.06
607.843	36666.32
608.2	37161.23
608.557	37278.96
608.914	37193.54
609.272	37309.24
609.629	37490.71
609.986	37812.06
610.343	37701.1
610.7	37974.31
611.057	38131.6
611.414	38119.17
611.771	38220.41
612.127	38496.56
612.484	38722.99
612.841	38819.26
613.198	38680.06
613.554	38892.25
613.911	39064.91
614.267	39202.3
614.624	39167.73
614.98	39312.36
615.337	39595.51
615.693	39637.09
616.05	39577.21
616.406	39900.82
616.762	39841.61
617.118	39832.57
617.475	40018.33
617.831	40105.1
618.187	40148.72
618.543	40285.66
618.899	40573.57
619.255	40533.34
619.611	40559.78
619.967	40698.99
620.323	40771.07
620.678	40757.97
621.034	40728.14
621.39	40799.77
621.746	40751.87
622.101	41314.56
622.457	40968.81
622.812	41127.9
623.168	41311.63
623.523	41348.91
623.879	41547.1
624.234	41300.1
624.589	41425.75
624.945	41510.04
625.3	41494.67
625.655	41559.3
626.01	41441.57
626.365	41663.03
626.72	41537.38
627.075	41717.04
627.43	41608.79
627.785	41656.25
628.14	41861.22
628.495	41964.94
628.85	41781.9
629.205	41678.4
629.559	41985.28
629.914	41842.01
630.269	41831.39
630.623	41806.53
630.978	41659.41
631.332	42052.85
631.687	42057.59
632.041	41978.5
632.396	42022.12
632.75	41861.22
633.104	42028.22
633.459	41906.19
633.813	41692.41
634.167	41909.8
634.521	41794.55
634.875	41917.94
635.229	41964.26
635.583	41693.54
635.937	41765.85
636.291	41834.1
636.645	41917.71
636.999	41668.45
637.352	41903.25
637.706	41640.2
638.06	41762.01
638.413	41671.16
638.767	41599.53
639.121	41563.82
639.474	41458.29
639.828	41528.57
640.181	41566.08
640.534	41554.56
640.888	41397.5
641.241	41344.39
641.594	41512.98
641.947	41614.89
642.301	41364.51
642.654	41433.2
643.007	41452.86
643.36	41361.12
643.713	41386.43
644.066	41483.82
644.419	41229.82
644.771	41041.12
645.124	40539.22
645.477	40780.57
645.83	40395.94
646.182	40271.43
646.535	40244.54
646.888	40333.35
647.24	40001.83
647.593	40454.25
647.945	40194.37
648.298	39914.15
648.65	39949.85
649.002	39824.89
649.355	40097.19
649.707	40064.65
650.059	40177.42
650.411	40740.12
650.763	40709.83
651.115	41021.24
651.467	40837.29
651.819	41026.66
652.171	40825.08
652.523	40691.08
652.875	40885.42
653.227	40550.52
653.578	40818.76
653.93	40684.98
654.282	40649.95
654.633	40498.31
654.985	40583.28
655.337	40691.53
655.688	40732.88
656.039	40790.96
656.391	40463.74
656.742	40544.87
657.094	40568.59
657.445	40692.88
657.796	40697.86
658.147	40600.01
658.498	40573.34
658.849	40651.3
659.2	40541.02
659.551	40478.2
659.902	40673.45
660.253	40588.71
660.604	40576.96
660.955	40546.67
661.306	40617.63
661.656	40364.53
662.007	40434.81
662.358	40505.77
662.708	40301.48
663.059	40415.83
663.409	40186.23
663.76	40521.82
664.11	40416.28
664.461	40437.98
664.811	40591.19
665.161	40269.85
665.511	40223.52
665.862	40384.42
666.212	40369.05
666.562	40402.72
666.912	40376.73
667.262	40301.71
667.612	40251.77
667.962	40292.67
668.312	40260.13
668.662	40483.85
669.011	40273.46
669.361	40217.87
669.711	40098.32
670.06	40189.62
670.41	40160.7
670.76	40151.43
671.109	40164.99
671.459	40092.9
671.808	40105.33
672.157	40188.94
672.507	39862.4
672.856	40051.09
673.205	40065.33
673.554	40178.32
673.904	40162.05
674.253	40263.29
674.602	40122.5
674.951	39473.48
675.3	39470.32
675.649	40097.19
675.998	39863.53
676.346	39960.93
676.695	40108.72
677.044	39648.62
677.393	39928.61
677.741	39996.18
678.09	39927.03
678.438	39826.69
678.787	39795.06
679.135	39736.53
679.484	39558
679.832	39692.23
680.181	39446.36
680.529	39666.02
680.877	39551.9
681.225	39407.49
681.573	39640.48
681.922	39319.36
682.27	39142.42
682.618	39269.87
682.966	39205.69
683.314	39274.17
683.661	39136.32
684.009	38907.4
684.357	38940.39
684.705	38825.59
685.053	38872.59
685.4	38861.52
685.748	38615.65
686.095	38497.01
686.443	38494.52
686.79	38424.7
687.138	38584.69
687.485	38529.1
687.832	38207.98
688.18	38377.01
688.527	38213.18
688.874	38136.57
689.221	38116.91
689.568	37949.68
689.915	37929.34
690.262	37979.28
690.609	37893.18
690.956	37852.96
691.303	37668.56
691.65	37475.79
691.997	37536.13
692.344	37406.87
692.69	37309.92
693.037	37321.45
693.383	37039.42
693.73	37068.12
694.077	36960.55
694.423	37040.33
694.769	36758.53
695.116	36770.05
695.462	36713.1
695.808	36547.23
696.155	36671.75
696.501	36353.56
696.847	36348.82
697.193	36156.96
697.539	36289.61
697.885	36083.06
698.231	35986.57
698.577	35800.81
698.923	35757.2
699.269	35737.76
699.614	35510.2
699.96	35400.82
700.306	35449.18
700.651	35313.14
700.997	35255.74
701.342	35012.13
701.688	35184.56
702.033	34934.84
702.379	34999.48
702.724	34762.87
703.069	34991.34
703.415	34510.22
703.76	34582.54
704.105	34629.54
704.45	34448.08
704.795	34318.82
705.14	34200.17
705.485	34185.03
705.83	34103.23
706.175	34161.31
706.52	34069.78
706.865	33987.3
707.209	33830.24
707.554	33696.23
707.899	33878.83
708.243	33578.95
708.588	33624.14
708.932	33469.12
709.277	33358.16
709.621	33486.75
709.966	33157.72
710.31	33279.75
710.654	32897.38
710.998	32965.4
711.342	32976.93
711.687	32972.18
712.031	32875.92
712.375	32787.78
712.719	32656.03
713.063	32732.42
713.407	32765.86
713.75	32501.46
714.094	32568.8
714.438	32299.66
714.782	32282.03
715.125	32248.59
715.469	32386.21
715.812	32043.62
716.156	31897.41
716.499	32006.79
716.843	31930.4
717.186	31786.9
717.53	31946.45
717.873	31845.43
718.216	31942.83
718.559	31764.53
718.902	31420.36
719.246	31639.34
719.589	31442.96
719.932	31405.22
720.275	31352.34
720.617	31442.73
720.96	31200.03
721.303	31194.38
721.646	31277.09
721.989	30971.78
722.331	31150.76
722.674	31100.59
723.016	31020.6
723.359	31086.58
723.701	31043.87
724.044	30791.45
724.386	30659.02
724.729	30755.29
725.071	30706.03
725.413	30617.22
725.755	30648.4
726.097	30528.86
726.439	30404.57
726.782	30458.8
727.124	30527.05
727.465	30380.61
727.807	30411.57
728.149	30346.72
728.491	30192.82
728.833	30157.79
729.175	30235.98
729.516	30081.19
729.858	29999.61
730.199	30141.98
730.541	29949.21
730.882	29862.44
731.224	29976.56
731.565	29910.8
731.906	29854.75
732.248	29817.01
732.589	29645.49
732.93	29643.91
733.271	29537.7
733.612	29563.23
733.953	29619.96
734.294	29410.7
734.635	29409.11
734.976	29348.55
735.317	29250.7
735.658	29352.17
735.999	29249.34
736.339	29171.61
736.68	29217.93
737.021	29255.9
737.361	29140.19
737.702	29272.62
738.042	29041.21
738.383	29061.78
738.723	29130.7
739.063	28930.48
739.404	28963.02
739.744	28850.48
740.084	28768.68
740.424	28909.01
740.764	28785.4
741.104	28858.62
741.444	28703.14
741.784	28576.14
742.124	28736.14
742.464	28631.51
742.804	28506.54
743.143	28481.68
743.483	28474.22
743.823	28379.99
744.162	28288.69
744.502	28272.19
744.841	28213.89
745.181	28260.22
745.52	28201.01
745.86	28239.65
746.199	28096.15
746.538	28038.3
746.877	28106.78
747.216	28109.26
747.556	27984.52
747.895	28026.33
748.234	27854.8
748.573	27919.44
748.911	27801.25
749.25	27830.4
749.589	27615.71
749.928	27678.76
750.267	27687.13
750.605	27568.71
750.944	27471.54
751.283	27360.35
751.621	27498.2
751.96	27273.12
752.298	27384.53
752.636	27396.96
752.975	27215.05
753.313	27206.23
753.651	27195.39
753.989	27040.36
754.327	26988.84
754.666	26875.85
755.004	26859.12
755.342	26940.48
755.679	26876.3
756.017	26665.23
756.355	26735.74
756.693	26678.34
757.031	26719.47
757.368	26578.45
757.706	26478.57
758.044	26371.45
758.381	26484.22
758.719	26327.16
759.056	26269.76
759.394	26319.93
759.731	26017.79
760.068	26118.35
760.405	25900.28
760.743	25778.7
761.08	25863.9
761.417	25648.08
761.754	25768.53
762.091	25630.23
762.428	25454.42
762.765	25418.71
763.102	25432.72
763.438	25261.88
763.775	25159.28
764.112	25289
764.449	25234.76
764.785	25057.14
765.122	24828.44
765.458	24861.44
765.795	24771.27
766.131	24823.92
766.467	24714.1
766.804	24654.66
767.14	24484.72
767.476	24490.37
767.812	24442.69
768.148	24418.06
768.485	24427.55
768.821	24113.89
769.157	24075.69
769.492	24046.09
769.828	23867.79
770.164	23688.59
770.5	23787.57
770.836	23618.08
771.171	23538.53
771.507	23547.12
771.842	23266.45
772.178	23355.94
772.513	23247.02
772.849	23327.47
773.184	23183.06
773.519	23171.54
773.855	23017.87
774.19	22715.96
774.525	22836.41
774.86	22771.1
775.195	22687.48
775.53	22572.01
775.865	22591.21
776.2	22449.07
776.535	22179.25
776.87	22154.62
777.205	22111.9
777.539	22002.98
777.874	22038.91
778.209	21891.8
778.543	21771.35
778.878	21795.75
779.212	21685.93
779.547	21508.76
779.881	21588.3
780.215	21318.93
780.55	21439.83
780.884	21274.64
781.218	21171.59
781.552	21248.65
781.886	21089.11
782.22	20948.77
782.554	20990.35
782.888	20780.19
783.222	20630.14
783.556	20592.4
783.889	20559.18
784.223	20444.38
784.557	20307.88
784.89	20393.76
785.224	20285.29
785.557	20278.51
785.891	20122.8
786.224	20029.47
786.558	20074.9
786.891	19937.27
787.224	19844.17
787.557	19744.74
787.891	19702.02
788.224	19761.01
788.557	19791.74
788.89	19577.06
789.223	19601.69
789.556	19402.6
789.888	19391.52
790.221	19279.44
790.554	19234.47
790.887	19226.56
791.219	19127.8
791.552	19053.68
791.884	18950.41
792.217	18862.5
792.549	18852.1
792.882	18728.26
793.214	18637.65
793.546	18717.42
793.879	18587.93
794.211	18441.94
794.543	18578.66
794.875	18384.54
795.207	18485.33
795.539	18370.31
795.871	18320.14
796.203	18188.39
796.535	18038.34
796.867	18072.01
797.198	18018.9
797.53	18001.5
797.862	17841.06
798.193	17789.98
798.525	17762.19
798.856	17752.02
799.188	17608.75
799.519	17504.79
799.85	17357
800.182	17321.07
800.513	17404.68
800.844	17285.14
801.175	17312.93
801.506	17333.05
801.837	17204.24
802.168	17174.41
802.499	17168.98
802.83	16971.47
803.161	16907.52
803.491	16924.02
803.822	16993.39
804.153	16872.49
804.483	16680.41
804.814	16607.87
805.145	16614.42
805.475	16642.22
805.805	16660.3
806.136	16489.23
806.466	16511.37
806.796	16452.39
807.126	16332.85
807.457	16367.42
807.787	16294.66
808.117	16157.94
808.447	16266.41
808.777	16197.03
809.107	16096.92
809.436	16039.75
809.766	16065.74
810.096	16050.37
810.426	15946.19
810.755	15908.9
811.085	15830.04
811.414	15889.24
811.744	15751.62
812.073	15737.16
812.403	15772.86
812.732	15677.72
813.061	15647.22
813.39	15536.48
813.719	15493.77
814.049	15592.98
814.378	15491.74
814.707	15364.06
815.036	15313.21
815.365	15266.21
815.693	15152.99
816.022	15185.76
816.351	15114.8
816.68	15141.24
817.008	15143.95
817.337	14966.56
817.665	14981.02
817.994	14997.29
818.322	14994.8
818.651	14884.3
818.979	14854.02
819.307	14922.04
819.636	14818.99
819.964	14684.76
820.292	14789.39
820.62	14752.78
820.948	14702.61
821.276	14670.07
821.604	14651.54
821.932	14692.21
822.259	14703.06
822.587	14648.82
822.915	14652.44
823.243	14651.99
823.57	14702.61
823.898	14614.93
824.225	14602.95
824.553	14562.95
824.88	14696.51
825.207	14677.52
825.535	14534.25
825.862	14703.96
826.189	14570.63
826.516	14656.51
826.843	14679.78
827.17	14666.68
827.497	14604.76
827.824	14634.13
828.151	14659.45
828.478	14696.73
828.805	14727.01
829.131	14585.55
829.458	14559.79
829.785	14488.38
830.111	14545.32
830.438	14609.95
830.764	14551.65
831.09	14574.25
831.417	14481.82
831.743	14515.49
832.069	14472.78
832.395	14454.93
832.722	14475.5
833.048	14504.87
833.374	14520.69
833.7	14395.95
834.026	14391.43
834.351	14419.9
834.677	14402.28
835.003	14332.45
835.329	14391.2
835.654	14433.91
835.98	14333.58
836.306	14345.78
836.631	14331.09
836.956	14327.48
837.282	14287.25
837.607	14163.41
837.932	14195.95
838.258	14239.8
838.583	14133.36
838.908	14157.09
839.233	14161.38
839.558	14071.89
839.883	14014.49
840.208	14011.1
840.533	13950.76
840.858	13962.29
841.182	14014.26
841.507	13944.21
841.832	13927.49
842.156	13836.87
842.481	13810.2
842.805	13779.24
843.13	13729.75
843.454	13827.83
843.778	13657.44
844.103	13648.4
844.427	13675.97
844.751	13645.91
845.075	13621.51
845.399	13640.94
845.723	13567.95
846.047	13475.07
846.371	13364.11
846.695	13419.03
847.019	13333.38
847.343	13278.69
847.666	13189.43
847.99	13179.71
848.313	13092.71
848.637	13035.53
848.96	13104.46
849.284	12894.97
849.607	12859.72
849.931	12806.16
850.254	12708.54
850.577	12660.18
850.9	12607.97
851.223	12600.97
851.546	12544.47
851.869	12419.96
852.192	12519.84
852.515	12347.19
852.838	12341.31
853.161	12388.09
853.483	12314.2
853.806	12175.89
854.129	12206.63
854.451	12204.59
854.774	12057.71
855.096	12054.09
855.419	12050.25
855.741	12057.93
856.063	11892.06
856.385	11905.62
856.708	11875.11
857.03	11794.21
857.352	11807.09
857.674	11759.63
857.996	11737.04
858.318	11708.79
858.64	11680.31
858.961	11579.07
859.283	11596.47
859.605	11579.75
859.926	11465.18
860.248	11563.93
860.57	11503.14
860.891	11516.25
861.212	11326.65
861.534	11346.09
861.855	11400.32
862.176	11372.3
862.498	11353.32
862.819	11354.67
863.14	11299.53
863.461	11266.31
863.782	11238.52
864.103	11231.29
864.424	11169.59
864.745	11216.37
865.065	11150.84
865.386	11117.84
865.707	11141.35
866.027	11117.39
866.348	11071.29
866.668	11059.99
866.989	10982.03
867.309	11003.72
867.63	11040.11
867.95	10963.95
868.27	10844.63
868.59	10925.76
868.91	10901.8
869.23	10846.89
869.55	10843.73
869.87	10993.78
870.19	10864.52
870.51	10832.65
870.83	10860.45
871.15	10710.4
871.469	10766.89
871.789	10747.46
872.109	10692.32
872.428	10705.65
872.748	10761.47
873.067	10729.38
873.386	10635.82
873.706	10670.17
874.025	10629.72
874.344	10593.56
874.663	10610.96
874.982	10590.17
875.301	10635.37
875.62	10541.81
875.939	10508.59
876.258	10447.35
876.577	10461.14
876.896	10427.69
877.214	10418.88
877.533	10434.92
877.852	10399.9
878.17	10392.66
878.489	10321.03
878.807	10387.69
879.125	10322.61
879.444	10293.01
879.762	10329.84
880.08	10317.64
880.398	10274.02
880.716	10294.14
881.034	10222.95
881.352	10269.96
881.67	10223.18
881.988	10140.24
882.306	10142.5
882.624	10221.82
882.941	10065.67
883.259	10085.33
883.577	10013.69
883.894	10073.58
884.212	9952.45
884.529	10003.52
884.846	9891.21
885.164	9885.11
885.481	9862.96
885.798	9920.36
886.115	9861.15
886.432	9903.19
886.75	9775.28
887.067	9780.25
887.383	9721.04
887.7	9800.59
888.017	9747.94
888.334	9793.36
888.651	9715.17
888.967	9588.17
889.284	9605.79
889.6	9620.71
889.917	9515.4
890.233	9570.77
890.55	9509.75
890.866	9538.22
891.182	9446.7
891.498	9403.09
891.815	9358.79
892.131	9331.9
892.447	9315.18
892.763	9289.64
893.079	9323.31
893.395	9266.37
893.71	9244.22
894.026	9230.66
894.342	9132.58
894.657	9199.93
894.973	9136.88
895.289	9095.52
895.604	9126.71
895.92	9051
896.235	8974.4
896.55	8999.25
896.865	8958.58
897.181	8861.18
897.496	8939.82
897.811	8856.21
898.126	8735.98
898.441	8808.98
898.756	8787.28
899.071	8728.08
899.386	8704.8
899.7	8628.64
900.015	8612.37
900.33	8557.68
900.644	8577.8
900.959	8606.5
901.273	8544.13
901.588	8513.39
901.902	8377.58
902.216	8391.81
902.531	8412.6
902.845	8310.46
903.159	8305.49
903.473	8272.04
903.787	8275.88
904.101	8208.99
904.415	8212.61
904.729	8204.93
905.042	8194.76
905.356	8115.89
905.67	8084.7
905.984	8112.72
906.297	8065.72
906.611	7976
906.924	8001.32
907.237	7931.03
907.551	7864.14
907.864	7866.18
908.177	7915.89
908.491	7870.92
908.804	7745.73
909.117	7754.54
909.43	7694.88
909.743	7687.42
910.056	7615.79
910.368	7580.54
910.681	7592.51
910.994	7502.12
911.307	7545.96
911.619	7488.79
911.932	7528.79
912.244	7450.82
912.557	7434.55
912.869	7378.73
913.181	7374.44
913.494	7348.9
913.806	7271.62
914.118	7244.72
914.43	7222.8
914.742	7252.86
915.054	7183.48
915.366	7160.21
915.678	7097.16
915.99	7127.21
916.302	7054.22
916.613	7071.62
916.925	7030.49
917.236	6968.12
917.548	6929.7
917.859	6988.23
918.171	6914.56
918.482	6868.46
918.794	6821.23
919.105	6821.01
919.416	6698.3
919.727	6767.9
920.038	6715.02
920.349	6704.4
920.66	6638.64
920.971	6646.77
921.282	6608.81
921.593	6624.85
921.903	6517.74
922.214	6536.27
922.525	6458.08
922.835	6454.46
923.146	6427.35
923.456	6427.8
923.767	6334.01
924.077	6362.26
924.387	6374.24
924.697	6320.68
925.008	6226.22
925.318	6234.81
925.628	6290.85
925.938	6225.09
926.248	6102.38
926.558	6167.24
926.867	6124.53
927.177	6079.78
927.487	6073.23
927.796	6058.77
928.106	5952.33
928.416	5969.96
928.725	5947.81
929.034	5929.28
929.344	5948.04
929.653	5892.44
929.962	5852.67
930.271	5815.16
930.581	5867.36
930.89	5789.85
931.199	5758.44
931.508	5686.57
931.817	5691.32
932.125	5723.63
932.434	5678.21
932.743	5615.62
933.051	5581.49
933.36	5595.28
933.669	5555.5
933.977	5559.8
934.286	5531.32
934.594	5540.14
934.902	5431.89
935.21	5440.25
935.519	5441.16
935.827	5384.43
936.135	5345.79
936.443	5386.92
936.751	5327.71
937.059	5322.97
937.367	5294.72
937.674	5290.88
937.982	5255.85
938.29	5224.89
938.597	5204.1
938.905	5135.85
939.213	5162.29
939.52	5128.4
939.827	5122.97
940.135	5108.96
940.442	5104.67
940.749	5090.21
941.056	5050.21
941.363	4948.74
941.67	4973.15
941.977	4948.97
942.284	4899.93
942.591	4872.81
942.898	4909.87
943.205	4878.23
943.511	4858.12
943.818	4855.41
944.125	4819.48
944.431	4806.6
944.738	4808.86
945.044	4807.95
945.35	4793.26
945.657	4728.41
945.963	4744.23
946.269	4624.45
946.575	4646.15
946.881	4622.87
947.187	4632.14
947.493	4557.11
947.799	4581.74
948.105	4543.33
948.41	4551.91
948.716	4527.06
949.022	4478.7
949.327	4469.2
949.633	4403.44
949.938	4424.91
950.244	4424.23
950.549	4375.87
950.854	4321.41
951.16	4348.98
951.465	4328.19
951.77	4314.41
952.075	4283.67
952.38	4303.79
952.685	4226.05
952.99	4277.35
953.294	4191.25
953.599	4234.86
953.904	4202.54
954.209	4162.32
954.513	4204.35
954.818	4115.54
955.122	4114.64
955.426	4066.5
955.731	4071.02
956.035	4081.42
956.339	4040.06
956.643	4059.72
956.948	4005.71
957.252	3980.18
957.556	4017.69
957.86	3988.09
958.163	3975.43
958.467	3941.53
958.771	3916.68
959.075	3908.32
959.378	3896.79
959.682	3887.07
959.985	3819.28
960.289	3807.75
960.592	3823.57
960.896	3748.77
961.199	3823.12
961.502	3781.54
961.805	3731.82
962.108	3717.13
962.411	3702.9
962.714	3651.82
963.017	3643.24
963.32	3685.04
963.623	3687.08
963.926	3628.77
964.228	3599.17
964.531	3591.49
964.833	3611.6
965.136	3567.31
965.438	3531.38
965.741	3529.34
966.043	3487.99
966.345	3522.11
966.648	3499.74
966.95	3487.54
967.252	3479.17
967.554	3431.49
967.856	3447.76
968.158	3412.51
968.46	3405.96
968.761	3379.29
969.063	3388.1
969.365	3355.56
969.666	3342.68
969.968	3323.25
970.269	3265.62
970.571	3329.8
970.872	3305.85
971.174	3290.7
971.475	3249.8
971.776	3241.44
972.077	3236.69
972.378	3194.66
972.679	3224.72
972.98	3219.29
973.281	3182.68
973.582	3183.36
973.883	3160.31
974.183	3121.44
974.484	3140.88
974.785	3123.03
975.085	3059.75
975.386	3085.06
975.686	3092.52
975.986	3052.97
976.287	3055
976.587	2995.57
976.887	3006.64
977.187	3016.81
977.487	2986.98
977.787	2945.4
978.087	2969.13
978.387	2950.37
978.687	2954.89
978.987	2905.86
979.286	2895.01
979.586	2868.57
979.885	2885.74
980.185	2869.47
980.484	2857.72
980.784	2846.42
981.083	2829.93
981.382	2830.6
981.682	2787.67
981.981	2773.2
982.28	2801.68
982.579	2804.62
982.878	2764.16
983.177	2763.26
983.475	2758.29
983.774	2718.97
984.073	2714.22
984.372	2700.44
984.67	2707.67
984.969	2673.55
985.267	2688.46
985.566	2656.82
985.864	2629.03
986.162	2591.29
986.461	2605.98
986.759	2619.54
987.057	2601.68
987.355	2564.17
987.653	2562.14
987.951	2547.9
988.249	2549.26
988.547	2523.72
988.844	2556.94
989.142	2497.96
989.44	2500.89
989.737	2484.17
990.035	2484.4
990.332	2488.69
990.63	2434.23
990.927	2443.5
991.224	2458.86
991.521	2428.13
991.819	2428.35
992.116	2373.67
992.413	2379.99
992.71	2386.55
993.006	2352.42
993.303	2382.03
993.6	2350.84
993.897	2326.21
994.193	2333.22
994.49	2296.61
994.787	2290.28
995.083	2265.87
995.379	2293.89
995.676	2254.35
995.972	2269.71
996.268	2241.92
996.565	2202.15
996.861	2218.87
997.157	2185.65
997.453	2199.66
997.749	2189.04
998.044	2149.49
998.34	2159.89
998.636	2161.69
998.932	2172.09
999.227	2129.15
999.523	2107.23
999.818	2117.85
1000.114	2108.14
1000.409	2090.06
1000.704	2089.15
1001	2046.22
1001.295	2031.98
1001.59	2077.4
1001.885	2048.93
1002.18	2021.13
1002.475	2016.61
1002.77	2005.99
1003.065	1975.48
1003.359	1980
1003.654	1960.57
1003.949	1979.1
1004.243	1935.94
1004.538	1921.93
1004.832	1943.17
1005.127	1904.07
1005.421	1923.73
1005.715	1896.16
1006.009	1877.86
1006.304	1894.36
1006.598	1862.49
1006.892	1842.83
1007.186	1850.29
1007.48	1856.84
1007.773	1832.21
1008.067	1827.92
1008.361	1778.65
1008.655	1798.09
1008.948	1756.73
1009.242	1766
1009.535	1763.74
1009.829	1763.74
1010.122	1760.35
1010.415	1742.04
1010.708	1719.22
1011.001	1702.5
1011.295	1706.11
1011.588	1669.05
1011.881	1697.3
1012.173	1685.1
1012.466	1670.63
1012.759	1660.69
1013.052	1653.23
1013.344	1662.27
1013.637	1668.15
1013.93	1640.58
1014.222	1631.99
1014.514	1594.48
1014.807	1596.06
1015.099	1579.11
1015.391	1589.51
1015.683	1595.61
1015.976	1581.14
1016.268	1546.12
1016.56	1556.06
1016.851	1490.3
1017.143	1500.47
1017.435	1528.26
1017.727	1498.21
1018.018	1496.18
1018.31	1448.94
1018.602	1486.46
1018.893	1472.45
1019.185	1466.8
1019.476	1440.81
1019.767	1410.08
1020.058	1438.55
1020.35	1413.47
1020.641	1394.03
1020.932	1395.84
1021.223	1390.19
1021.514	1391.77
1021.804	1371.88
1022.095	1360.13
1022.386	1357.65
1022.677	1344.31
1022.967	1304.77
1023.258	1341.15
1023.548	1313.58
1023.839	1302.51
1024.129	1275.84
1024.419	1301.6
1024.709	1285.79
1025	1286.01
1025.29	1271.77
1025.58	1268.16
1025.87	1267.48
1026.16	1259.8
1026.449	1240.14
1026.739	1222.06
1027.029	1232
1027.319	1217.99
1027.608	1209.86
1027.898	1188.84
1028.187	1180.25
1028.477	1189.06
1028.766	1186.8
1029.055	1188.39
1029.344	1160.14
1029.634	1154.26
1029.923	1166.24
1030.212	1154.94
1030.501	1151.1
1030.79	1137.99
1031.078	1114.72
1031.367	1097.77
1031.656	1089.41
1031.945	1080.82
1032.233	1084.43
1032.522	1073.81
1032.81	1083.98
1033.099	1082.4
1033.387	1046.7
1033.675	1035.62
1033.963	1068.16
1034.251	1052.12
1034.54	1035.85
1034.828	1025.68
1035.116	1012.8
1035.403	999.47
1035.691	1001.73
1035.979	994.49
1036.267	961.5
1036.554	999.69
1036.842	984.1
1037.129	968.96
1037.417	981.39
1037.704	964.21
1037.992	957.21
1038.279	946.13
1038.566	940.03
1038.853	940.03
1039.14	940.03
