Data from hue_240_FLMS001491_00067.txt Node
Date: Tue Feb 07 16:35:48 GMT 2017
User: dcchb
Spectrometer: FLMS00149
Trigger mode: 0
Integration Time (sec): 2.000000E-2
Scans to average: 10
Electric dark correction enabled: true
Nonlinearity correction enabled: false
Boxcar width: 0
XAxis mode: Wavelengths
Number of Pixels in Spectrum: 2048
>>>>>Begin Spectral Data<<<<<
341.393	-20.18
341.776	-20.18
342.16	-20.18
342.543	-70.13
342.927	-74.87
343.31	-53.63
343.693	-83.68
344.077	-67.19
344.46	-58.83
344.843	-57.24
345.226	-36.91
345.61	-53.63
345.993	-30.58
346.376	-17.92
346.759	6.48
347.142	21.62
347.525	44
347.908	82.64
348.291	74.5
348.674	111.34
349.057	119.02
349.44	114.28
349.823	122.19
350.206	155.63
350.588	186.14
350.971	208.51
351.354	206.03
351.737	223.43
352.119	228.62
352.502	255.74
352.884	273.14
353.267	283.99
353.65	265.69
354.032	282.63
354.414	302.75
354.797	291.9
355.179	302.75
355.562	324.21
355.944	323.54
356.326	314.27
356.709	343.88
357.091	333.48
357.473	341.84
357.855	334.38
358.238	336.64
358.62	304.1
359.002	339.81
359.384	317.21
359.766	347.72
360.148	327.38
360.53	330.09
360.912	323.99
361.294	328.96
361.676	336.87
362.057	308.17
362.439	324.44
362.821	308.85
363.203	320.37
363.584	335.51
363.966	319.69
364.348	306.81
364.729	303.88
365.111	316.53
365.493	326.7
365.874	332.12
366.256	295.06
366.637	315.85
367.019	318.79
367.4	320.37
367.781	312.69
368.163	332.8
368.544	288.51
368.925	321.95
369.306	312.46
369.688	301.16
370.069	308.17
370.45	317.66
370.831	307.72
371.212	286.48
371.593	306.36
371.974	298
372.355	319.92
372.736	321.28
373.117	319.92
373.498	313.14
373.879	286.93
374.26	313.82
374.641	290.32
375.021	311.33
375.402	296.64
375.783	333.03
376.163	314.5
376.544	290.09
376.925	323.76
377.305	332.35
377.686	333.93
378.066	299.13
378.447	319.69
378.827	341.39
379.208	327.38
379.588	316.76
379.968	323.08
380.349	328.73
380.729	339.36
381.109	326.7
381.489	321.5
381.87	325.34
382.25	344.33
382.63	333.71
383.01	342.29
383.39	342.07
383.77	342.52
384.15	345.91
384.53	348.85
384.91	343.65
385.29	344.55
385.67	354.04
386.049	339.36
386.429	349.07
386.809	349.3
387.189	345.91
387.568	351.33
387.948	366.25
388.328	355.4
388.707	347.49
389.087	355.63
389.466	339.81
389.846	337.55
390.225	368.28
390.605	357.89
390.984	379.58
391.363	362.18
391.743	369.64
392.122	356.76
392.501	359.24
392.881	378.22
393.26	380.71
393.639	355.63
394.018	375.29
394.397	371.22
394.776	380.48
395.155	363.54
395.534	384.33
395.913	360.15
396.292	382.97
396.671	372.35
397.05	396.08
397.429	383.42
397.808	387.49
398.186	384.55
398.565	396.3
398.944	409.86
399.323	411.22
399.701	400.6
400.08	387.72
400.458	394.72
400.837	411.44
401.215	407.15
401.594	417.55
401.972	423.42
402.351	433.59
402.729	422.97
403.107	405.34
403.486	414.83
403.864	417.09
404.242	421.16
404.62	428.39
404.999	428.17
405.377	421.39
405.755	447.83
406.133	455.74
406.511	462.06
406.889	462.06
407.267	455.74
407.645	466.81
408.023	481.5
408.401	472.69
408.779	447.6
409.156	481.72
409.534	471.78
409.912	463.87
410.29	495.06
410.667	504.55
411.045	504.77
411.422	512.01
411.8	502.29
412.178	515.17
412.555	512.01
412.933	552.23
413.31	542.51
413.687	547.94
414.065	545.45
414.442	546.81
414.819	578.9
415.197	551.55
415.574	583.87
415.951	586.35
416.328	583.42
416.705	570.99
417.082	604.43
417.46	615.73
417.837	608.73
418.214	593.81
418.591	618.9
418.967	616.64
419.344	635.62
419.721	626.13
420.098	614.15
420.475	649.86
420.852	675.17
421.228	687.59
421.605	646.47
421.982	677.65
422.358	690.98
422.735	698.89
423.111	699.35
423.488	729.18
423.864	756.52
424.241	719.23
424.617	729.63
424.994	735.5
425.37	767.37
425.746	752.23
426.123	777.99
426.499	784.77
426.875	804.88
427.251	824.54
427.627	834.48
428.003	838.78
428.379	841.72
428.756	846.23
429.132	863.86
429.507	858.44
429.883	870.64
430.259	881.94
430.635	872
431.011	906.57
431.387	887.14
431.763	925.78
432.138	928.94
432.514	929.62
432.89	953.12
433.265	966.01
433.641	980.92
434.016	983.86
434.392	1015.04
434.767	1017.08
435.143	1045.1
435.518	1036.74
435.894	1057.53
436.269	1071.09
436.644	1092.78
437.02	1114.48
437.395	1108.83
437.77	1148.37
438.145	1160.12
438.52	1161.93
438.895	1186.79
439.271	1185.21
439.646	1195.6
440.021	1222.04
440.395	1227.69
440.77	1222.5
441.145	1240.35
441.52	1247.81
441.895	1286
442.27	1325.09
442.645	1280.12
443.019	1297.07
443.394	1303.17
443.769	1318.76
444.143	1342.49
444.518	1350.18
444.892	1327.8
445.267	1358.99
445.641	1377.29
446.016	1380.68
446.39	1364.87
446.764	1401.25
447.139	1421.81
447.513	1429.72
447.887	1427.46
448.262	1428.59
448.636	1434.47
449.01	1470.4
449.384	1474.01
449.758	1478.99
450.132	1484.86
450.506	1514.24
450.88	1505.2
451.254	1536.39
451.628	1525.54
452.002	1539.1
452.376	1560.34
452.75	1537.06
453.123	1593.56
453.497	1629.94
453.871	1598.98
454.244	1637.4
454.618	1681.69
454.992	1660
455.365	1675.82
455.739	1718.08
456.112	1753.56
456.486	1759.43
456.859	1756.04
457.232	1815.47
457.606	1775.93
457.979	1804.4
458.352	1830.84
458.725	1854.34
459.099	1863.84
459.472	1903.61
459.845	1922.59
460.218	1920.33
460.591	1924.4
460.964	1939.09
461.337	1999.2
461.71	2028.8
462.083	2031.51
462.456	2015.24
462.829	2059.31
463.201	2091.17
463.574	2069.93
463.947	2128.01
464.32	2182.92
464.692	2129.14
465.065	2173.88
465.438	2224.96
465.81	2250.94
466.183	2270.15
466.555	2319.42
466.928	2302.47
467.3	2290.72
467.672	2314.44
468.045	2379.98
468.417	2406.19
468.789	2399.87
469.161	2472.41
469.534	2463.82
469.906	2500.65
470.278	2539.75
470.65	2592.18
471.022	2617.04
471.394	2629.01
471.766	2666.98
472.138	2673.31
472.51	2726.64
472.882	2786.75
473.253	2774.77
473.625	2855
473.997	2874.2
474.369	2900.19
474.74	2940.42
475.112	2970.7
475.484	2982.22
475.855	3006.4
476.227	3106.06
476.598	3154.87
476.97	3173.63
477.341	3244.36
477.713	3291.37
478.084	3355.77
478.455	3362.1
478.827	3422.21
479.198	3521.42
479.569	3490.69
479.94	3575.2
480.311	3578.37
480.682	3688.42
481.053	3748.98
481.424	3831.47
481.795	3823.11
482.166	3871.69
482.537	3913.72
482.908	3981.29
483.279	4011.35
483.65	4117.11
484.021	4140.84
484.391	4184
484.762	4249.76
485.133	4268.74
485.503	4278.23
485.874	4383.54
486.244	4457.67
486.615	4510.32
486.985	4505.35
487.356	4625.57
487.726	4593.03
488.097	4687.49
488.467	4748.73
488.837	4807.26
489.207	4869.63
489.578	4911.44
489.948	4965.67
490.318	5024.66
490.688	5030.76
491.058	5119.34
491.428	5152.34
491.798	5174.48
492.168	5245.44
492.538	5301.94
492.908	5349.17
493.278	5395.95
493.648	5411.54
494.017	5481.37
494.387	5523.4
494.757	5524.98
495.126	5622.15
495.496	5581.48
495.866	5624.64
496.235	5714.58
496.605	5731.08
496.974	5769.27
497.344	5787.8
497.713	5863.73
498.082	5890.62
498.452	5894.92
498.821	5966.78
499.19	5908.93
499.559	6006.78
499.928	5999.32
500.298	6022.82
500.667	6086.1
501.036	6067.34
501.405	6173.33
501.774	6083.16
502.143	6134.23
502.512	6178.75
502.88	6191.41
503.249	6197.96
503.618	6269.82
503.987	6256.71
504.356	6293.32
504.724	6332.42
505.093	6396.6
505.462	6384.39
505.83	6402.7
506.199	6414.45
506.567	6497.84
506.936	6471.17
507.304	6560.43
507.672	6543.71
508.041	6569.7
508.409	6569.7
508.777	6698.28
509.145	6692.86
509.514	6693.99
509.882	6679.75
510.25	6711.17
510.618	6751.39
510.986	6738.06
511.354	6780.32
511.722	6824.83
512.09	6861.9
512.458	6805.63
512.826	6876.81
513.193	6891.73
513.561	6875.91
513.929	6883.59
514.297	7038.16
514.664	7047.43
515.032	7056.24
515.4	7061.44
515.767	7079.74
516.135	7083.58
516.502	7067.09
516.869	7120.19
517.237	7104.15
517.604	7082.68
517.972	7155
518.339	7174.2
518.706	7263.92
519.073	7201.55
519.44	7253.98
519.808	7260.98
520.175	7244.94
520.542	7306.86
520.909	7271.15
521.276	7352.05
521.643	7406.51
522.009	7398.15
522.376	7458.26
522.743	7459.39
523.11	7472.73
523.477	7542.56
523.843	7463.91
524.21	7529.9
524.577	7569.67
524.943	7566.96
525.31	7659.16
525.676	7566.96
526.043	7618.26
526.409	7714.08
526.776	7712.72
527.142	7713.17
527.508	7727.86
527.874	7750.91
528.241	7773.28
528.607	7789.56
528.973	7802.44
529.339	7758.82
529.705	7835.88
530.071	7886.28
530.437	7847.86
530.803	7883.56
531.169	7951.36
531.535	7878.37
531.901	7898.03
532.267	7953.39
532.632	7878.59
532.998	7935.09
533.364	7935.54
533.73	7965.37
534.095	7984.58
534.461	8023.45
534.826	8000.85
535.192	7981.19
535.557	7958.82
535.923	7972.38
536.288	7965.82
536.653	7990
537.019	7924.69
537.384	7982.54
537.749	8049.66
538.114	7927.63
538.479	8002.88
538.845	7965.14
539.21	7924.24
539.575	7921.75
539.94	7895.32
540.305	7946.16
540.67	7971.47
541.034	7971.25
541.399	7899.61
541.764	7978.48
542.129	7991.36
542.494	7952.04
542.858	7957.46
543.223	7891.02
543.587	7987.97
543.952	7939.61
544.316	7953.17
544.681	7863.68
545.045	7896.9
545.41	7918.37
545.774	7917.91
546.138	7859.38
546.503	7953.62
546.867	7908.42
547.231	7947.97
547.595	7877.46
547.959	7859.84
548.324	7890.57
548.688	7923.79
549.052	7855.99
549.416	7944.13
549.779	7841.76
550.143	7867.52
550.507	7876.33
550.871	7853.06
551.235	7798.59
551.599	7878.37
551.962	7844.92
552.326	7830.46
552.689	7852.83
553.053	7884.24
553.417	7833.85
553.78	7806.28
554.143	7859.16
554.507	7846.5
554.87	7821.19
555.234	7950.91
555.597	7886.95
555.96	7833.17
556.323	7912.49
556.686	7877.91
557.05	7935.31
557.413	7889.67
557.776	7925.37
558.139	7942.55
558.502	7932.83
558.865	7955.43
559.228	7990.45
559.59	7955.2
559.953	8016.89
560.316	7975.09
560.679	7994.52
561.041	8049.44
561.404	8036.1
561.767	8073.39
562.129	8026.16
562.492	8145.7
562.854	8120.85
563.217	8067.97
563.579	8116.55
563.941	8117.91
564.304	8126.27
564.666	8221.18
565.028	8219.83
565.39	8281.97
565.753	8220.73
566.115	8274.97
566.477	8275.19
566.839	8295.53
567.201	8322.42
567.563	8366.49
567.925	8343.21
568.287	8389.31
568.648	8397.9
569.01	8443.55
569.372	8410.56
569.734	8382.76
570.095	8471.8
570.457	8505.24
570.819	8496.88
571.18	8463.66
571.542	8560.83
571.903	8552.25
572.265	8615.75
572.626	8542.3
572.987	8572.13
573.349	8625.92
573.71	8657.33
574.071	8658.23
574.432	8677.67
574.794	8729.42
575.155	8702.53
575.516	8710.66
575.877	8743.88
576.238	8724.22
576.599	8761.05
576.96	8777.1
577.32	8773.48
577.681	8841.05
578.042	8859.58
578.403	8843.76
578.763	8867.72
579.124	8877.44
579.485	8960.15
579.845	8971.67
580.206	8972.12
580.566	8934.84
580.927	8983.2
581.287	8960.37
581.648	8933.25
582.008	9019.13
582.368	9022.29
582.728	9064.32
583.089	9094.38
583.449	8981.84
583.809	9062.74
584.169	9020.71
584.529	9070.2
584.889	9151.1
585.249	9056.41
585.609	9072.69
585.969	9134.83
586.329	9121.27
586.688	9123.76
587.048	9111.33
587.408	9156.98
587.768	9100.71
588.127	9137.99
588.487	9058.22
588.846	9165.56
589.206	9144.55
589.565	9133.93
589.925	9235.17
590.284	9164.89
590.643	9232.23
591.003	9250.08
591.362	9221.61
591.721	9296.18
592.08	9218.67
592.44	9260.48
592.799	9261.83
593.158	9275.17
593.517	9298.89
593.876	9329.4
594.235	9282.17
594.593	9261.61
594.952	9311.77
595.311	9327.59
595.67	9269.29
596.029	9322.17
596.387	9317.88
596.746	9343.19
597.104	9331.44
597.463	9329.63
597.822	9371.89
598.18	9310.42
598.538	9305.22
598.897	9380.47
599.255	9298.89
599.613	9432.22
599.972	9358.1
600.33	9455.5
600.688	9374.15
601.046	9345.67
601.404	9430.64
601.762	9475.61
602.12	9357.2
602.478	9432.68
602.836	9464.09
603.194	9363.98
603.552	9393.58
603.91	9398.1
604.268	9455.27
604.625	9476.97
604.983	9464.77
605.341	9384.99
605.698	9424.54
606.056	9446.69
606.413	9414.37
606.771	9457.31
607.128	9467.93
607.485	9496.63
607.843	9503.18
608.2	9482.39
608.557	9530.75
608.914	9530.3
609.272	9577.98
609.629	9540.7
609.986	9545.67
610.343	9561.03
610.7	9627.02
611.057	9680.13
611.414	9552.9
611.771	9623.63
612.127	9619.56
612.484	9600.35
612.841	9629.28
613.198	9626.57
613.554	9601.94
613.911	9657.08
614.267	9652.56
614.624	9656.4
614.98	9689.17
615.337	9698.66
615.693	9739.11
616.05	9709.96
616.406	9764.42
616.762	9726.68
617.118	9699.79
617.475	9724.87
617.831	9788.15
618.187	9778.43
618.543	9766.45
618.899	9838.99
619.255	9748.37
619.611	9753.12
619.967	9784.53
620.323	9849.16
620.678	9811.87
621.034	9773.01
621.39	9836.73
621.746	9770.29
622.101	9830.86
622.457	9819.11
622.812	9863.62
623.168	9786.79
623.523	9738.43
623.879	9855.04
624.234	9798.77
624.589	9743.63
624.945	9806
625.3	9839.9
625.655	9770.97
626.01	9832.44
626.365	9836.05
626.72	9768.03
627.075	9755.83
627.43	9761.25
627.785	9806.9
628.14	9805.32
628.495	9840.57
628.85	9747.24
629.205	9779.33
629.559	9775.94
629.914	9757.41
630.269	9684.65
630.623	9705.21
630.978	9771.2
631.332	9749.5
631.687	9802.61
632.041	9716.51
632.396	9698.88
632.75	9697.08
633.104	9667.92
633.459	9673.57
633.813	9688.94
634.167	9599.45
634.521	9585.89
634.875	9687.58
635.229	9710.63
635.583	9608.26
635.937	9592.22
636.291	9510.41
636.645	9558.55
636.999	9538.89
637.352	9534.14
637.706	9540.7
638.06	9561.49
638.413	9494.14
638.767	9459.79
639.121	9518.55
639.474	9340.02
639.828	9453.24
640.181	9529.17
640.534	9495.05
640.888	9347.71
641.241	9355.62
641.594	9408.95
641.947	9411.43
642.301	9402.62
642.654	9424.77
643.007	9400.36
643.36	9432.68
643.713	9349.74
644.066	9438.78
644.419	9334.37
644.771	9294.6
645.124	9185.9
645.477	9242.85
645.83	9135.06
646.182	9030.43
646.535	9061.39
646.888	9095.28
647.24	9040.6
647.593	9065.68
647.945	9034.49
648.298	9036.08
648.65	9007.38
649.002	8992.69
649.355	8974.38
649.707	8947.94
650.059	9010.77
650.411	9177.54
650.763	9185.9
651.115	9213.92
651.467	9242.62
651.819	9219.12
652.171	9231.55
652.523	9177.09
652.875	9136.19
653.227	9129.41
653.578	9194.26
653.93	9186.58
654.282	9150.2
654.633	9082.18
654.985	9123.98
655.337	9106.81
655.688	9159.24
656.039	9192.46
656.391	9140.48
656.742	9128.05
657.094	9114.49
657.445	9134.38
657.796	9148.16
658.147	9149.75
658.498	9142.06
658.849	9154.72
659.2	9095.74
659.551	9099.58
659.902	9187.94
660.253	9151.33
660.604	9145.68
660.955	9089.86
661.306	9163.53
661.656	9224.77
662.007	9139.58
662.358	9214.6
662.708	9180.93
663.059	9125.11
663.409	9103.64
663.76	9139.8
664.11	9153.36
664.461	9129.63
664.811	9203.08
665.161	9101.38
665.511	9099.13
665.862	9141.84
666.212	9187.48
666.562	9172.34
666.912	9185.9
667.262	9092.57
667.612	9107.26
667.962	9196.98
668.312	9087.15
668.662	9140.03
669.011	9194.26
669.361	9086.24
669.711	9116.53
670.06	9135.06
670.41	9112.46
670.76	9116.07
671.109	9109.97
671.459	9147.71
671.808	9041.73
672.157	9091.44
672.507	9103.87
672.856	9039.24
673.205	9088.28
673.554	9085.57
673.904	9008.73
674.253	9122.4
674.602	9132.57
674.951	8930.77
675.3	8902.75
675.649	9053.02
675.998	9031.1
676.346	9023.19
676.695	9025.23
677.044	9015.74
677.393	8981.84
677.741	9055.96
678.09	8944.33
678.438	8960.15
678.787	8955.4
679.135	8994.95
679.484	8907.49
679.832	8938.45
680.181	8864.78
680.529	8849.64
680.877	8821.84
681.225	8855.97
681.573	8900.71
681.922	8835.18
682.27	8814.16
682.618	8806.7
682.966	8782.52
683.314	8815.06
683.661	8666.82
684.009	8725.8
684.357	8709.08
684.705	8656.42
685.053	8687.84
685.4	8714.28
685.748	8618.46
686.095	8700.72
686.443	8665.69
686.79	8636.09
687.138	8620.04
687.485	8516.09
687.832	8523.1
688.18	8519.48
688.527	8542.08
688.874	8412.59
689.221	8455.75
689.568	8347.05
689.915	8445.58
690.262	8420.05
690.609	8375.98
690.956	8409.2
691.303	8354.29
691.65	8293.27
691.997	8326.72
692.344	8243.78
692.69	8255.98
693.037	8268.41
693.383	8155.2
693.73	8219.15
694.077	8114.29
694.423	8119.49
694.769	8041.53
695.116	8025.03
695.462	8057.12
695.808	8015.31
696.155	8064.58
696.501	7938.03
696.847	7912.04
697.193	7892.83
697.539	7968.08
697.885	7820.29
698.231	7899.38
698.577	7816
698.923	7808.76
699.269	7765.6
699.614	7701.2
699.96	7633.4
700.306	7739.16
700.651	7692.83
700.997	7589.33
701.342	7655.55
701.688	7594.76
702.033	7520.64
702.379	7577.58
702.724	7549.34
703.069	7520.64
703.415	7418.94
703.76	7445.38
704.105	7461.2
704.45	7389.79
704.795	7370.58
705.14	7339.62
705.485	7263.92
705.83	7326.97
706.175	7345.5
706.52	7273.64
706.865	7163.13
707.209	7224.15
707.554	7278.83
707.899	7225.73
708.243	7150.25
708.588	7163.36
708.932	7114.32
709.277	7153.64
709.621	7148.22
709.966	7059.86
710.31	7054.89
710.654	7031.16
710.998	7022.12
711.342	7036.13
711.687	7006.07
712.031	6933.31
712.375	6927.43
712.719	6957.94
713.063	6968.56
713.407	6943.25
713.75	6930.37
714.094	6879.52
714.438	6877.71
714.782	6877.71
715.125	6881.33
715.469	6809.02
715.812	6821.67
716.156	6829.35
716.499	6828.45
716.843	6824.38
717.186	6762.92
717.53	6791.39
717.873	6795
718.216	6736.02
718.559	6757.04
718.902	6685.18
719.246	6723.14
719.589	6686.53
719.932	6648.12
720.275	6644.95
720.617	6644.73
720.96	6639.3
721.303	6641.11
721.646	6707.55
721.989	6609.02
722.331	6630.49
722.674	6641.11
723.016	6635.24
723.359	6653.77
723.701	6638.85
724.044	6572.41
724.386	6553.43
724.729	6558.85
725.071	6559.3
725.413	6563.82
725.755	6485.86
726.097	6532.19
726.439	6521.79
726.782	6503.49
727.124	6542.13
727.465	6516.82
727.807	6486.54
728.149	6476.37
728.491	6550.94
728.833	6485.41
729.175	6444.05
729.516	6472.53
729.858	6513.43
730.199	6478.4
730.541	6486.99
730.882	6446.54
731.224	6514.11
731.565	6431.85
731.906	6443.6
732.248	6462.58
732.589	6418.29
732.93	6381.23
733.271	6399.99
733.612	6482.47
733.953	6470.72
734.294	6416.03
734.635	6399.76
734.976	6439.08
735.317	6380.55
735.658	6378.29
735.999	6445.64
736.339	6420.78
736.68	6440.66
737.021	6409.03
737.361	6365.41
737.702	6437.73
738.042	6422.36
738.383	6376.71
738.723	6448.57
739.063	6377.16
739.404	6448.35
739.744	6457.16
740.084	6425.98
740.424	6421.46
740.764	6437.95
741.104	6451.29
741.444	6445.86
741.784	6396.82
742.124	6446.31
742.464	6465.3
742.804	6505.3
743.143	6456.48
743.483	6482.7
743.823	6486.99
744.162	6533.99
744.502	6525.86
744.841	6517.5
745.181	6596.14
745.52	6616.03
745.86	6615.35
746.199	6641.56
746.538	6688.12
746.877	6658.06
747.216	6683.14
747.556	6709.81
747.895	6766.98
748.234	6761.11
748.573	6766.31
748.911	6790.71
749.25	6867.09
749.589	6880.2
749.928	6923.14
750.267	6950.71
750.605	6925.17
750.944	6967.2
751.283	7019.18
751.621	7116.35
751.96	7134.43
752.298	7202.68
752.636	7219.85
752.975	7319.28
753.313	7366.74
753.651	7460.3
753.989	7401.09
754.327	7550.69
754.666	7589.79
755.004	7625.49
755.342	7761.53
755.679	7801.98
756.017	7883.11
756.355	7943.45
756.693	8042.43
757.031	8062.54
757.368	8160.17
757.706	8260.96
758.044	8317.22
758.381	8382.76
758.719	8502.08
759.056	8555.18
759.394	8675.86
759.731	8706.59
760.068	8881.5
760.405	8990.43
760.743	9002.18
761.08	9133.7
761.417	9155.85
761.754	9260.25
762.091	9323.75
762.428	9412.34
762.765	9546.57
763.102	9605.33
763.438	9735.72
763.775	9780.24
764.112	9881.25
764.449	9950.4
764.785	10153.56
765.122	10089.83
765.458	10127.8
765.795	10229.04
766.131	10281.92
766.467	10355.14
766.804	10426.55
767.14	10410.73
767.476	10600.33
767.812	10612.53
768.148	10710.61
768.485	10727.78
768.821	10792.41
769.157	10788.8
769.492	10925.97
769.828	10938.17
770.164	10930.04
770.5	11030.15
770.836	11156.02
771.171	11096.59
771.507	11201.67
771.842	11122.8
772.178	11221.78
772.513	11255.45
772.849	11331.38
773.184	11360.08
773.519	11384.04
773.855	11323.47
774.19	11409.8
774.525	11396.24
774.86	11511.72
775.195	11500.87
775.53	11413.64
775.865	11523.24
776.2	11421.55
776.535	11412.96
776.87	11532.96
777.205	11516.69
777.539	11486.86
777.874	11606.18
778.209	11512.4
778.543	11511.27
778.878	11476.92
779.212	11577.25
779.547	11519.63
779.881	11564.37
780.215	11453.41
780.55	11638.49
780.884	11500.87
781.218	11487.76
781.552	11548.1
781.886	11550.81
782.22	11491.38
782.554	11433.08
782.888	11441.21
783.222	11437.14
783.556	11414.54
783.889	11356.69
784.223	11331.38
784.557	11361.66
784.89	11415
785.224	11355.56
785.557	11358.05
785.891	11280.54
786.224	11212.74
786.558	11239.63
786.891	11227.43
787.224	11167.32
787.557	11201.89
787.891	11166.64
788.224	11215.68
788.557	11215.91
788.89	11130.03
789.223	11177.26
789.556	11080.77
789.888	11053.42
790.221	11015.01
790.554	11016.59
790.887	11002.58
791.219	10845.75
791.552	10932.07
791.884	10867.89
792.217	10904.95
792.549	10850.04
792.882	10774.34
793.214	10778.63
793.546	10770.72
793.879	10706.09
794.211	10669.25
794.543	10771.4
794.875	10708.12
795.207	10740.66
795.539	10610.72
795.871	10652.3
796.203	10537.05
796.535	10534.79
796.867	10572.76
797.198	10512.87
797.53	10488.69
797.862	10442.14
798.193	10467.22
798.525	10363.27
798.856	10417.28
799.188	10339.54
799.519	10263.61
799.85	10236.72
800.182	10303.84
800.513	10285.08
800.844	10192.43
801.175	10309.71
801.506	10201.7
801.837	10227.68
802.168	10124.18
802.499	10198.53
802.83	10054.58
803.161	10053.68
803.491	10036.5
803.822	10053
804.153	10031.76
804.483	9975.94
804.814	9883.06
805.145	9923.74
805.475	9911.99
805.805	9941.59
806.136	9892.55
806.466	9915.37
806.796	9785.66
807.126	9788.37
807.457	9754.25
807.787	9769.39
808.117	9780.01
808.447	9676.51
808.777	9819.56
809.107	9684.65
809.436	9624.31
809.766	9704.08
810.096	9637.64
810.426	9593.8
810.755	9585.89
811.085	9517.65
811.414	9568.72
811.744	9475.39
812.073	9461.83
812.403	9546.8
812.732	9398.33
813.061	9472.45
813.39	9398.1
813.719	9331.89
814.049	9450.98
814.378	9276.3
814.707	9371.21
815.036	9352
815.365	9273.58
815.693	9197.43
816.022	9260.7
816.351	9170.31
816.68	9123.08
817.008	9210.76
817.337	9130.08
817.665	9089.18
817.994	9135.73
818.322	9105.9
818.651	9033.59
818.979	9035.4
819.307	9126.7
819.636	8986.59
819.964	8988.39
820.292	9037.66
820.62	9041.05
820.948	8975.06
821.276	8988.39
821.604	8993.82
821.932	8990.88
822.259	9027.94
822.587	8968.28
822.915	8952.69
823.243	8980.94
823.57	8946.36
823.898	8979.81
824.225	8954.04
824.553	8968.28
824.88	8942.07
825.207	9003.08
825.535	8964.89
825.862	9002.18
826.189	8948.39
826.516	8983.2
826.843	8985.91
827.17	9054.61
827.497	9038.34
827.824	8896.19
828.151	8987.94
828.478	8970.99
828.805	9008.28
829.131	8955.17
829.458	8968.51
829.785	8931.45
830.111	9015.96
830.438	9019.81
830.764	8972.12
831.09	9002.18
831.417	9010.09
831.743	8986.59
832.069	8986.59
832.395	8925.57
832.722	8968.51
833.048	8922.18
833.374	8930.77
833.7	8893.93
834.026	8938.45
834.351	8942.07
834.677	8886.93
835.003	8934.61
835.329	8926.93
835.654	8947.04
835.98	8821.39
836.306	8888.96
836.631	8886.25
836.956	8905.01
837.282	8939.58
837.607	8843.76
837.932	8845.8
838.258	8883.99
838.583	8813.48
838.908	8778.46
839.233	8754.73
839.558	8828.17
839.883	8688.06
840.208	8737.1
840.533	8705.92
840.858	8687.61
841.182	8699.36
841.507	8725.12
841.832	8614.62
842.156	8678.8
842.481	8643.09
842.805	8643.32
843.13	8602.87
843.454	8591.34
843.778	8526.48
844.103	8527.16
844.427	8486.94
844.751	8467.96
845.075	8504.11
845.399	8450.78
845.723	8476.54
846.047	8473.83
846.371	8340.5
846.695	8410.33
847.019	8296.21
847.343	8239.26
847.666	8227.28
847.99	8207.17
848.313	8137.34
848.637	8119.26
848.96	8172.14
849.284	8099.38
849.607	8122.88
849.931	8035.65
850.254	7923.79
850.577	7918.59
850.9	7918.14
851.223	7882.89
851.546	7820.29
851.869	7792.94
852.192	7872.26
852.515	7797.69
852.838	7769.67
853.161	7733.51
853.483	7729.44
853.806	7685.38
854.129	7643.57
854.451	7585.72
854.774	7615.1
855.096	7550.47
855.419	7508.66
855.741	7505.72
856.063	7547.53
856.385	7483.57
856.708	7457.81
857.03	7427.53
857.352	7408.32
857.674	7401.32
857.996	7385.05
858.318	7362.67
858.64	7371.26
858.961	7380.53
859.283	7288.1
859.605	7257.14
859.926	7270.47
860.248	7237.71
860.57	7221.43
860.891	7203.13
861.212	7170.81
861.534	7198.84
861.855	7189.12
862.176	7141.89
862.498	7177.37
862.819	7131.95
863.14	7105.05
863.461	7096.47
863.782	7054.21
864.103	7112.28
864.424	7067.09
864.745	7045.62
865.065	7033.42
865.386	6932.18
865.707	7020.54
866.027	6986.41
866.348	7008.11
866.668	6992.97
866.989	6905.28
867.309	6922.91
867.63	6943.93
867.95	6873.87
868.27	6855.79
868.59	6915.45
868.91	6870.26
869.23	6899.18
869.55	6842.01
869.87	6936.47
870.19	6876.81
870.51	6855.34
870.83	6856.25
871.15	6783.93
871.469	6806.08
871.789	6815.12
872.109	6837.49
872.428	6735.35
872.748	6822.12
873.067	6732.86
873.386	6759.98
873.706	6788.9
874.025	6717.27
874.344	6680.66
874.663	6699.64
874.982	6692.41
875.301	6677.04
875.62	6713.88
875.939	6674.1
876.258	6669.58
876.577	6637.72
876.896	6615.12
877.214	6635.01
877.533	6571.73
877.852	6608.8
878.17	6609.25
878.489	6620.77
878.807	6566.08
879.125	6627.78
879.444	6560.43
879.762	6541.9
880.08	6549.59
880.398	6518.4
880.716	6588.46
881.034	6522.92
881.352	6511.62
881.67	6497.16
881.988	6437.27
882.306	6471.62
882.624	6403.15
882.941	6377.84
883.259	6372.42
883.577	6340.78
883.894	6388.24
884.212	6405.41
884.529	6378.97
884.846	6319.76
885.164	6288.13
885.481	6323.15
885.798	6335.81
886.115	6279.99
886.432	6272.98
886.75	6249.03
887.067	6262.82
887.383	6249.71
887.7	6255.13
888.017	6182.82
888.334	6202.25
888.651	6149.82
888.967	6162.71
889.284	6146.43
889.6	6123.16
889.917	6072.76
890.233	6100.33
890.55	6063.5
890.866	6033.22
891.182	6044.06
891.498	6009.94
891.815	6004.52
892.131	5999.55
892.447	5995.93
892.763	5932.65
893.079	5940.56
893.395	5940.11
893.71	5890.4
894.026	5910.73
894.342	5880.68
894.657	5876.61
894.973	5802.71
895.289	5842.94
895.604	5786.44
895.92	5737.86
896.235	5746.44
896.55	5784.18
896.865	5744.86
897.181	5715.94
897.496	5703.73
897.811	5755.48
898.126	5651.53
898.441	5642.04
898.756	5656.5
899.071	5583.29
899.386	5614.25
899.7	5509.39
900.015	5480.24
900.33	5483.85
900.644	5463.51
900.959	5481.37
901.273	5456.74
901.588	5432.78
901.902	5389.17
902.216	5355.04
902.531	5408.83
902.845	5327.92
903.159	5363.18
903.473	5336.74
903.787	5284.54
904.101	5257.42
904.415	5293.35
904.729	5228.49
905.042	5232.11
905.356	5225.33
905.67	5191.21
905.984	5204.76
906.297	5216.74
906.611	5146.23
906.924	5128.83
907.237	5064.43
907.551	5081.6
907.864	5071.21
908.177	5092.22
908.491	5040.25
908.804	5015.39
909.117	5011.78
909.43	4965.22
909.743	4958.22
910.056	4952.12
910.368	4965.45
910.681	4925
910.994	4894.72
911.307	4867.6
911.619	4848.16
911.932	4864.43
912.244	4831.67
912.557	4828.05
912.869	4769.75
913.181	4733.82
913.494	4735.4
913.806	4717.55
914.118	4719.35
914.43	4637.55
914.742	4688.85
915.054	4634.16
915.366	4622.41
915.678	4607.94
915.99	4547.61
916.302	4549.87
916.613	4566.81
916.925	4544.44
917.236	4570.88
917.548	4532.01
917.859	4487.95
918.171	4503.54
918.482	4472.58
918.794	4397.1
919.105	4404.56
919.416	4404.56
919.727	4374.73
920.038	4353.04
920.349	4334.28
920.66	4362.98
920.971	4295.86
921.282	4334.96
921.593	4273.04
921.903	4223.77
922.214	4217.9
922.525	4230.78
922.835	4195.75
923.146	4212.47
923.456	4156.66
923.767	4119.6
924.077	4148.75
924.387	4099.26
924.697	4122.76
925.008	4102.42
925.318	4095.87
925.628	4098.8
925.938	4041.41
926.248	4011.8
926.558	4009.54
926.867	3995.76
927.177	3955.31
927.487	3962.76
927.796	3899.71
928.106	3925.93
928.416	3886.83
928.725	3919.6
929.034	3884.57
929.344	3912.37
929.653	3865.14
929.962	3870.56
930.271	3792.82
930.581	3820.17
930.89	3780.62
931.199	3751.24
931.508	3761.19
931.817	3776.78
932.125	3718.93
932.434	3724.58
932.743	3705.14
933.051	3672.15
933.36	3677.8
933.669	3642.77
933.977	3636.9
934.286	3621.3
934.594	3637.57
934.902	3587.63
935.21	3589.89
935.519	3590.8
935.827	3547.63
936.135	3525.49
936.443	3516
936.751	3501.76
937.059	3503.34
937.367	3487.07
937.674	3476.9
937.982	3480.97
938.29	3447.75
938.597	3450.01
938.905	3391.7
939.213	3414.08
939.52	3381.31
939.827	3397.13
940.135	3379.5
940.442	3363
940.749	3339.05
941.056	3329.56
941.363	3299.5
941.67	3269.9
941.977	3285.94
942.284	3261.54
942.591	3214.99
942.898	3219.51
943.205	3248.88
943.511	3232.16
943.818	3227.42
944.125	3214.76
944.431	3185.38
944.738	3169.79
945.044	3165.95
945.35	3140.41
945.657	3116.91
945.963	3106.06
946.269	3093.63
946.575	3132.5
946.881	3038.27
947.187	3076.23
947.493	3068.55
947.799	3045.05
948.105	3031.49
948.41	3005.5
948.716	3022
949.022	2998.27
949.327	2951.94
949.633	2965.28
949.938	2952.17
950.244	2950.36
950.549	2901.32
950.854	2931.6
951.16	2902.68
951.465	2887.31
951.77	2845.5
952.075	2887.76
952.38	2867.65
952.685	2856.13
952.99	2864.71
953.294	2807.77
953.599	2803.47
953.904	2812.28
954.209	2770.7
954.513	2799.86
954.818	2780.87
955.122	2760.76
955.426	2754.66
955.731	2758.05
956.035	2721.89
956.339	2705.62
956.643	2725.73
956.948	2718.73
957.252	2714.66
957.556	2670.37
957.86	2650.03
958.163	2635.79
958.467	2617.04
958.771	2616.81
959.075	2628.79
959.378	2585.85
959.682	2555.34
959.985	2649.13
960.289	2571.84
960.592	2530.03
960.896	2551.27
961.199	2576.58
961.502	2542.01
961.805	2507.89
962.108	2530.94
962.411	2490.03
962.714	2506.53
963.017	2462.01
963.32	2494.55
963.623	2464.95
963.926	2495.68
964.228	2437.61
964.531	2449.13
964.833	2454.33
965.136	2417.49
965.438	2403.26
965.741	2383.82
966.043	2381.79
966.345	2357.38
966.648	2407.55
966.95	2357.83
967.252	2319.42
967.554	2325.52
967.856	2321
968.158	2335.01
968.46	2304.95
968.761	2291.85
969.063	2310.83
969.365	2284.16
969.666	2306.54
969.968	2306.31
970.269	2236.71
970.571	2271.73
970.872	2226.76
971.174	2249.36
971.475	2231.96
971.776	2203.49
972.077	2198.97
972.378	2174.79
972.679	2192.87
972.98	2174.56
973.281	2177.73
973.582	2172.53
973.883	2156.26
974.183	2114.45
974.484	2114
974.785	2142.47
975.085	2134.79
975.386	2112.19
975.686	2100.89
975.986	2060.44
976.287	2089.14
976.587	2055.02
976.887	2069.48
977.187	2070.84
977.487	2076.26
977.787	2022.48
978.087	2014.79
978.387	2024.51
978.687	2001.91
978.987	2002.81
979.286	2007.79
979.586	1987.67
979.885	2043.04
980.185	1980.89
980.484	1949.48
980.784	1974.11
981.083	1926.43
981.382	1943.61
981.682	1925.3
981.981	1934.34
982.28	1963.27
982.579	1891.18
982.878	1899.99
983.177	1910.61
983.475	1902.25
983.774	1891.63
984.073	1881.01
984.372	1857.51
984.67	1870.16
984.969	1833.78
985.267	1841.46
985.566	1814.8
985.864	1819.99
986.162	1840.56
986.461	1810.05
986.759	1834.23
987.057	1787.23
987.355	1794.46
987.653	1802.59
987.951	1780.22
988.249	1770.73
988.547	1769.6
988.844	1762.82
989.142	1745.65
989.44	1744.06
989.737	1723.5
990.035	1708.59
990.332	1731.18
990.63	1700.9
990.927	1720.56
991.224	1688.7
991.521	1699.55
991.819	1674.24
992.116	1696.38
992.413	1688.25
992.71	1674.91
993.006	1671.52
993.303	1648.02
993.6	1625.65
993.897	1623.62
994.193	1619.32
994.49	1630.39
994.787	1584.75
995.083	1586.78
995.379	1581.13
995.676	1591.53
995.972	1589.27
996.268	1592.2
996.565	1580.45
996.861	1558.98
997.157	1544.3
997.453	1558.98
997.749	1507.23
998.044	1539.32
998.34	1498.87
998.636	1491.42
998.932	1517.63
999.227	1492.55
999.523	1488.25
999.818	1470.63
1000.114	1469.72
1000.409	1459.33
1000.704	1475.82
1001	1483.05
1001.295	1471.53
1001.59	1442.15
1001.885	1412.32
1002.18	1435.37
1002.475	1420.68
1002.77	1400.34
1003.065	1404.86
1003.359	1400.57
1003.654	1392.44
1003.949	1399.89
1004.243	1400.8
1004.538	1367.58
1004.832	1387.46
1005.127	1365.77
1005.421	1346.79
1005.715	1348.59
1006.009	1334.13
1006.304	1357.63
1006.598	1322.15
1006.892	1315.15
1007.186	1325.77
1007.48	1333
1007.773	1304.3
1008.067	1302.72
1008.361	1309.95
1008.655	1257.75
1008.948	1255.26
1009.242	1306.79
1009.535	1260.24
1009.829	1249.84
1010.122	1215.49
1010.415	1226.11
1010.708	1234.47
1011.001	1230.63
1011.295	1232.21
1011.588	1216.85
1011.881	1183.63
1012.173	1211.65
1012.466	1196.73
1012.759	1184.08
1013.052	1169.39
1013.344	1177.75
1013.637	1170.29
1013.93	1153.8
1014.222	1141.14
1014.514	1122.16
1014.807	1157.87
1015.099	1136.62
1015.391	1125.78
1015.683	1111.76
1015.976	1113.35
1016.268	1100.01
1016.56	1105.89
1016.851	1127.81
1017.143	1125.32
1017.435	1093.91
1017.727	1082.61
1018.018	1076.96
1018.31	1063.4
1018.602	1083.06
1018.893	1073.12
1019.185	1064.76
1019.476	1032.9
1019.767	1023.63
1020.058	1041.48
1020.35	1022.95
1020.641	1008.26
1020.932	1027.02
1021.223	989.73
1021.514	1007.36
1021.804	1020.02
1022.095	994.25
1022.386	997.19
1022.677	985.21
1022.967	1000.58
1023.258	972.56
1023.548	987.93
1023.839	956.51
1024.129	946.35
1024.419	954.48
1024.709	947.93
1025	957.19
1025.29	945.22
1025.58	949.51
1025.87	917.87
1026.16	931.2
1026.449	896.4
1026.739	912.9
1027.029	905.22
1027.319	889.4
1027.608	900.02
1027.898	884.88
1028.187	885.1
1028.477	903.86
1028.766	874.71
1029.055	853.69
1029.344	867.7
1029.634	853.01
1029.923	837.42
1030.212	852.56
1030.501	869.51
1030.79	851.43
1031.078	846.46
1031.367	836.97
1031.656	839.46
1031.945	825.44
1032.233	824.31
1032.522	808.04
1032.81	792.9
1033.099	820.25
1033.387	829.51
1033.675	794.26
1033.963	796.97
1034.251	799.91
1034.54	790.19
1034.828	770.3
1035.116	746.35
1035.403	764.88
1035.691	784.09
1035.979	772.79
1036.267	780.02
1036.554	749.06
1036.842	743.64
1037.129	743.86
1037.417	747.71
1037.704	735.73
1037.992	722.85
1038.279	742.73
1038.566	729.85
1038.853	729.85
1039.14	729.85
