Data from hue_10_FLMS001491_22.txt Node
Date: Mon Feb 06 15:31:39 GMT 2017
User: dcchb
Spectrometer: FLMS00149
Trigger mode: 0
Integration Time (sec): 2.000000E-2
Scans to average: 10
Electric dark correction enabled: true
Nonlinearity correction enabled: false
Boxcar width: 0
XAxis mode: Wavelengths
Number of Pixels in Spectrum: 2048
>>>>>Begin Spectral Data<<<<<
341.393	-11.43
341.776	-11.43
342.16	-11.43
342.543	-66.34
342.927	-74.02
343.31	-65.21
343.693	-68.37
344.077	-53.69
344.46	-62.95
344.843	-51.43
345.226	-36.96
345.61	-21.6
345.993	-18.66
346.376	2.36
346.759	10.27
347.142	8.69
347.525	38.52
347.908	62.02
348.291	55.69
348.674	102.24
349.057	99.08
349.44	100.66
349.823	142.69
350.206	149.47
350.588	198.74
350.971	202.58
351.354	233.54
351.737	246.19
352.119	259.53
352.502	261.11
352.884	267.44
353.267	261.79
353.65	294.1
354.032	296.14
354.414	296.14
354.797	317.6
355.179	336.81
355.562	326.42
355.944	326.19
356.326	317.83
356.709	328
357.091	342.46
357.473	320.77
357.855	329.13
358.238	356.25
358.62	348.11
359.002	367.32
359.384	363.48
359.766	340.2
360.148	354.67
360.53	335.68
360.912	329.36
361.294	355.57
361.676	322.12
362.057	336.14
362.439	324.61
362.821	345.63
363.203	323.03
363.584	317.15
363.966	323.03
364.348	321.22
364.729	312.18
365.111	335.01
365.493	314.44
365.874	316.47
366.256	290.26
366.637	315.12
367.019	318.28
367.4	315.57
367.781	317.15
368.163	295.23
368.544	308.11
368.925	299.3
369.306	322.58
369.688	326.64
370.069	302.69
370.45	310.37
370.831	321.45
371.212	317.15
371.593	310.37
371.974	326.42
372.355	319.86
372.736	300.43
373.117	309.47
373.498	320.99
373.879	327.55
374.26	317.38
374.641	314.44
375.021	319.64
375.402	330.71
375.783	314.89
376.163	320.54
376.544	342.46
376.925	352.18
377.305	325.97
377.686	319.19
378.066	330.26
378.447	331.84
378.827	335.68
379.208	308.34
379.588	316.7
379.968	323.93
380.349	310.83
380.729	317.6
381.109	312.18
381.489	318.73
381.87	314.67
382.25	332.52
382.63	325.06
383.01	322.8
383.39	341.33
383.77	344.5
384.15	338.85
384.53	321.67
384.91	348.34
385.29	331.39
385.67	337.94
386.049	354.89
386.429	358.51
386.809	342.46
387.189	371.61
387.568	346.76
387.948	344.5
388.328	338.85
388.707	339.07
389.087	365.51
389.466	339.3
389.846	348.11
390.225	341.33
390.605	343.82
390.984	336.59
391.363	340.2
391.743	355.34
392.122	378.62
392.501	349.47
392.881	363.48
393.26	357.15
393.639	361.67
394.018	370.48
394.397	365.74
394.776	350.6
395.155	364.16
395.534	366.87
395.913	356.02
396.292	354.44
396.671	381.56
397.05	385.4
397.429	384.72
397.808	368.22
398.186	382.69
398.565	384.27
398.944	393.08
399.323	396.02
399.701	406.87
400.08	385.17
400.458	404.83
400.837	386.53
401.215	369.58
401.594	386.53
401.972	379.07
402.351	380.2
402.729	388.11
403.107	400.54
403.486	386.76
403.864	406.87
404.242	429.69
404.62	410.94
404.999	414.55
405.377	418.39
405.755	418.84
406.133	421.33
406.511	395.34
406.889	424.27
407.267	427.88
407.645	423.59
408.023	403.03
408.401	437.15
408.779	436.7
409.156	439.64
409.534	405.51
409.912	423.59
410.29	423.59
410.667	443.48
411.045	452.52
411.422	457.94
411.8	438.96
412.178	462.91
412.555	456.58
412.933	447.54
413.31	464.95
413.687	451.84
414.065	451.16
414.442	456.81
414.819	470.82
415.197	486.19
415.574	483.7
415.951	468.79
416.328	454.55
416.705	469.24
417.082	469.47
417.46	494.78
417.837	485.28
418.214	490.71
418.591	475.11
418.967	496.58
419.344	510.14
419.721	501.55
420.098	490.26
420.475	506.98
420.852	497.49
421.228	501.1
421.605	487.77
421.982	503.14
422.358	521.44
422.735	514.21
423.111	532.74
423.488	532.97
423.864	529.35
424.241	542.91
424.617	539.52
424.994	556.24
425.37	548.33
425.746	525.96
426.123	534.77
426.499	548.56
426.875	545.17
427.251	569.8
427.627	561.21
428.003	574.55
428.379	558.05
428.756	582.46
429.132	550.82
429.507	574.32
429.883	603.92
430.259	579.52
430.635	586.98
431.011	571.38
431.387	593.98
431.763	609.8
432.138	624.72
432.514	637.82
432.89	624.72
433.265	610.7
433.641	629.91
434.016	611.38
434.392	659.06
434.767	635.56
435.143	654.54
435.518	643.7
435.894	650.25
436.269	666.07
436.644	665.62
437.02	690.48
437.395	658.16
437.77	674.66
438.145	694.32
438.52	700.65
438.895	695.9
439.271	699.06
439.646	690.02
440.021	727.76
440.395	716.69
440.77	720.76
441.145	724.83
441.52	736.12
441.895	746.75
442.27	745.84
442.645	721.66
443.019	730.02
443.394	756.24
443.769	733.41
444.143	749.46
444.518	738.61
444.892	741.77
445.267	753.3
445.641	767.08
446.016	747.88
446.39	759.85
446.764	778.16
447.139	774.09
447.513	769.8
447.887	797.82
448.262	798.27
448.636	758.27
449.01	806.63
449.384	802.34
449.758	795.78
450.132	817.25
450.506	814.09
450.88	821.55
451.254	810.25
451.628	828.33
452.002	826.07
452.376	838.72
452.75	847.31
453.123	864.71
453.497	850.25
453.871	870.81
454.244	877.82
454.618	874.65
454.992	881.88
455.365	893.86
455.739	892.5
456.112	909.91
456.486	928.44
456.859	919.4
457.232	924.82
457.606	930.02
457.979	946.29
458.352	945.61
458.725	970.69
459.099	959.85
459.472	988.1
459.845	999.39
460.218	1019.96
460.591	985.61
460.964	995.1
461.337	1031.94
461.71	1048.66
462.083	1042.56
462.456	1054.76
462.829	1049.34
463.201	1087.08
463.574	1076.68
463.947	1087.98
464.32	1107.19
464.692	1098.83
465.065	1143.12
465.438	1128.88
465.81	1154.42
466.183	1151.26
466.555	1200.75
466.928	1233.74
467.3	1201.65
467.672	1228.77
468.045	1254.76
468.417	1231.93
468.789	1230.35
469.161	1267.41
469.534	1298.14
469.906	1311.7
470.278	1314.19
470.65	1314.87
471.022	1351.93
471.394	1370.91
471.766	1405.71
472.138	1411.14
472.51	1428.31
472.882	1479.61
473.253	1493.62
473.625	1503.56
473.997	1551.02
474.369	1531.13
474.74	1559.15
475.112	1572.03
475.484	1619.49
475.855	1660.39
476.227	1675.08
476.598	1706.95
476.97	1727.51
477.341	1794.63
477.713	1790.79
478.084	1816.32
478.455	1831.01
478.827	1844.8
479.198	1926.15
479.569	1925.02
479.94	1988.97
480.311	1992.14
480.682	2047.28
481.053	2085.92
481.424	2143.32
481.795	2170.44
482.166	2189.19
482.537	2233.49
482.908	2265.12
483.279	2311.45
483.65	2376.08
484.021	2394.39
484.391	2414.27
484.762	2488.62
485.133	2492.69
485.503	2520.71
485.874	2578.56
486.244	2626.02
486.615	2649.97
486.985	2735.39
487.356	2754.6
487.726	2773.59
488.097	2833.7
488.467	2892
488.837	2935.16
489.207	2981.26
489.578	3058.55
489.948	3073.01
490.318	3131.32
490.688	3152.56
491.058	3204.08
491.428	3271.43
491.798	3240.24
492.168	3353.91
492.538	3362.27
492.908	3414.47
493.278	3430.97
493.648	3430.07
494.017	3491.31
494.387	3574.92
494.757	3589.38
495.126	3632.77
495.496	3608.14
495.866	3680
496.235	3717.52
496.605	3740.34
496.974	3758.64
497.344	3800.68
497.713	3841.35
498.082	3877.29
498.452	3925.65
498.821	3927.91
499.19	3988.92
499.559	4029.15
499.928	3995.7
500.298	4011.29
500.667	4044.06
501.036	4061.01
501.405	4112.53
501.774	4091.06
502.143	4139.43
502.512	4158.18
502.88	4195.24
503.249	4252.42
503.618	4194.79
503.987	4274.79
504.356	4317.73
504.724	4302.36
505.093	4343.71
505.462	4359.08
505.83	4365.18
506.199	4397.27
506.567	4456.03
506.936	4437.95
507.304	4515.46
507.672	4551.17
508.041	4501.45
508.409	4573.09
508.777	4603.14
509.145	4610.15
509.514	4605.85
509.882	4650.15
510.25	4650.82
510.618	4613.99
510.986	4682.46
511.354	4723.36
511.722	4766.75
512.09	4721.1
512.458	4777.83
512.826	4804.27
513.193	4833.42
513.561	4829.8
513.929	4856.69
514.297	4941.44
514.664	4881.78
515.032	4938.05
515.4	4939.63
515.767	4913.87
516.135	4971.27
516.502	4929.23
516.869	5008.1
517.237	5049.91
517.604	4991.15
517.972	5057.82
518.339	5065.95
518.706	5100.76
519.073	5120.87
519.44	5123.13
519.808	5181.21
520.175	5159.29
520.542	5161.09
520.909	5188.44
521.276	5214.88
521.643	5285.16
522.009	5245.84
522.376	5305.5
522.743	5359.28
523.11	5413.97
523.477	5358.38
523.843	5395.44
524.21	5417.36
524.577	5474.53
524.943	5508.2
525.31	5540.52
525.676	5542.78
526.043	5593.85
526.409	5610.8
526.776	5600.86
527.142	5683.11
527.508	5683.11
527.874	5786.84
528.241	5732.6
528.607	5752.94
528.973	5872.26
529.339	5838.36
529.705	5831.36
530.071	5905.25
530.437	5892.83
530.803	5954.52
531.169	5987.96
531.535	5974.41
531.901	6043.56
532.267	6037.91
532.632	6098.24
532.998	6065.93
533.364	6095.76
533.73	6127.17
534.095	6125.59
534.461	6170.33
534.826	6181.18
535.192	6249.43
535.557	6259.6
535.923	6300.5
536.288	6326.26
536.653	6364.23
537.019	6300.72
537.384	6396.09
537.749	6428.86
538.114	6361.29
538.479	6396.31
538.845	6522.41
539.21	6478.35
539.575	6479.48
539.94	6547.95
540.305	6592.02
540.67	6592.24
541.034	6584.33
541.399	6618.91
541.764	6688.06
542.129	6712.92
542.494	6718.34
542.858	6750.2
543.223	6774.38
543.587	6801.73
543.952	6840.82
544.316	6851.22
544.681	6847.83
545.045	6887.6
545.41	6910.2
545.774	6938.9
546.138	7004.43
546.503	7067.94
546.867	7031.1
547.231	7094.38
547.595	7106.13
547.959	7132.57
548.324	7164.66
548.688	7161.94
549.052	7202.17
549.416	7250.53
549.779	7207.82
550.143	7285.33
550.507	7314.48
550.871	7334.6
551.235	7373.69
551.599	7336.4
551.962	7327.82
552.326	7379.11
552.689	7438.32
553.053	7374.82
553.417	7452.11
553.78	7514.48
554.143	7546.12
554.507	7541.37
554.87	7567.13
555.234	7661.59
555.597	7619.33
555.96	7618.43
556.323	7651.42
556.686	7646.45
557.05	7798.54
557.413	7758.76
557.776	7782.95
558.139	7819.78
558.502	7822.27
558.865	7859.78
559.228	7931.19
559.59	7876.95
559.953	7928.7
560.316	8009.61
560.679	7993.11
561.041	8097.74
561.404	8024.29
561.767	8095.71
562.129	8015.93
562.492	8097.51
562.854	8138.64
563.217	8145.87
563.579	8256.15
563.941	8266.55
564.304	8294.57
564.666	8370.73
565.028	8324.85
565.39	8389.03
565.753	8383.38
566.115	8410.95
566.477	8466.32
566.839	8494.56
567.201	8508.35
567.563	8523.94
567.925	8521.46
568.287	8580.21
568.648	8589.93
569.01	8683.49
569.372	8668.35
569.734	8771.17
570.095	8748.12
570.457	8736.82
570.819	8834.44
571.18	8892.52
571.542	8876.02
571.903	8932.07
572.265	8990.37
572.626	9086.87
572.987	9143.59
573.349	9115.11
573.71	9192.85
574.071	9184.49
574.432	9358.27
574.794	9313.07
575.155	9422.68
575.516	9458.38
575.877	9582.67
576.238	9658.38
576.599	9663.35
576.96	9724.14
577.32	9802.55
577.681	9933.17
578.042	9998.25
578.403	9972.27
578.763	10152.83
579.124	10290.9
579.485	10321.41
579.845	10476.43
580.206	10624.45
580.566	10688.18
580.927	10766.6
581.287	10955.07
581.648	11050.66
582.008	11203.42
582.368	11402.96
582.728	11503.3
583.089	11678.66
583.449	11812.22
583.809	12016.05
584.169	12269.15
584.529	12369.94
584.889	12634.12
585.249	12727.22
585.609	13017.38
585.969	13266.64
586.329	13376.02
586.688	13631.6
587.048	13960.86
587.408	14082.44
587.768	14306.84
588.127	14602.88
588.487	14800.61
588.846	15106.82
589.206	15350.66
589.565	15724.66
589.925	15954.48
590.284	16222.27
590.643	16537.97
591.003	16867.9
591.362	17174.34
591.721	17480.77
592.08	17863.13
592.44	18106.06
592.799	18410.46
593.158	18675.31
593.517	19027.85
593.876	19413.83
594.235	19638.9
594.593	20104.2
594.952	20426
595.311	20793.45
595.67	21021.69
596.029	21538.06
596.387	21851.05
596.746	22274.09
597.104	22371.04
597.463	22658.49
597.822	23236.55
598.18	23425.92
598.538	23724.22
598.897	24300.25
599.255	24385.45
599.613	25007.12
599.972	25150.85
600.33	25601.23
600.688	25779.08
601.046	26250.03
601.404	26623.13
601.762	26844.36
602.12	27419.26
602.478	27584.91
602.836	27901.74
603.194	28128.62
603.552	28620.14
603.91	28702.17
604.268	29155.26
604.625	29348.71
604.983	29947.56
605.341	29953.21
605.698	30321.56
606.056	30830.25
606.413	30951.83
606.771	31322.67
607.128	31728.3
607.485	31761.07
607.843	32112.02
608.2	32409.87
608.557	32902.51
608.914	33123.52
609.272	33511.76
609.629	33658.2
609.986	34024.74
610.343	34184.28
610.7	34635.57
611.057	34737.72
611.414	35027.88
611.771	35196.24
612.127	35504.25
612.484	35715.09
612.841	36115.76
613.198	36193.5
613.554	36342.65
613.911	36821.05
614.267	36881.39
614.624	36935.85
614.98	37324.54
615.337	37618.09
615.693	37687.24
616.05	37842.49
616.406	38168.59
616.762	38165.65
617.118	38438.18
617.475	38557.05
617.831	38776.71
618.187	38924.05
618.543	39202.68
618.899	39454.43
619.255	39524.03
619.611	39623.01
619.967	39888.54
620.323	40093.96
620.678	40043.34
621.034	40193.17
621.39	40362.43
621.746	40518.36
622.101	40881.96
622.457	40717.67
622.812	40992.69
623.168	41159.02
623.523	41152.46
623.879	41313.59
624.234	41230.43
624.589	41524.43
624.945	41639
625.3	41597.65
625.655	41761.94
626.01	41950.86
626.365	42102.95
626.72	42006.68
627.075	42155.83
627.43	42060.69
627.785	42231.3
628.14	42295.71
628.495	42285.77
628.85	42321.47
629.205	42343.62
629.559	42595.36
629.914	42553.33
630.269	42552.88
630.623	42612.76
630.978	42543.39
631.332	42714.68
631.687	42850.27
632.041	42692.54
632.396	42866.99
632.75	42914
633.104	42868.58
633.459	42785.87
633.813	42859.31
634.167	42882.36
634.521	42896.6
634.875	43017.27
635.229	43068.8
635.583	42961
635.937	42757.84
636.291	42846.66
636.645	42933.21
636.999	42812.31
637.352	42961
637.706	42948.35
638.06	42937.05
638.413	42888.46
638.767	42908.12
639.121	42921.68
639.474	42806.2
639.828	42795.13
640.181	42878.29
640.534	42847.56
640.888	42792.65
641.241	42798.97
641.594	42821.35
641.947	43012.75
642.301	42804.62
642.654	42812.08
643.007	42843.27
643.36	42897.95
643.713	42679.88
644.066	43011.85
644.419	42803.04
644.771	42541.81
645.124	42126.67
645.477	42081.25
645.83	41822.95
646.182	41743.18
646.535	41572.57
646.888	41810.3
647.24	41587.03
647.593	41707.25
647.945	41656.18
648.298	41536.63
648.65	41486.47
649.002	41329.63
649.355	41445.11
649.707	41502.06
650.059	41586.8
650.411	42092.1
650.763	42138.43
651.115	42585.19
651.467	42308.59
651.819	42362.15
652.171	42258.65
652.523	42274.24
652.875	42440.56
653.227	42076.96
653.578	42351.98
653.93	42307.24
654.282	42248.03
654.633	42182.72
654.985	42238.08
655.337	42142.04
655.688	42176.84
656.039	42420.23
656.391	41972.33
656.742	42120.57
657.094	42120.57
657.445	42140.01
657.796	42148.37
658.147	42031.54
658.498	41899.79
658.849	42091.42
659.2	42038.99
659.551	41891.2
659.902	42126.9
660.253	42057.98
660.604	42061.37
660.955	41850.07
661.306	41962.16
661.656	41880.81
662.007	41838.55
662.358	41951.99
662.708	41905.66
663.059	41931.2
663.409	41728.95
663.76	42032.21
664.11	41928.04
664.461	42057.3
664.811	42034.02
665.161	41939.11
665.511	41880.13
665.862	41903.4
666.212	42016.17
666.562	41940.01
666.912	41956.06
667.262	41970.29
667.612	41926.23
667.962	41923.29
668.312	41881.03
668.662	42022.95
669.011	41892.1
669.361	41830.86
669.711	41597.2
670.06	41767.14
670.41	41626.35
670.76	41622.28
671.109	41738.21
671.459	41627.7
671.808	41573.02
672.157	41764.88
672.507	41440.59
672.856	41608.5
673.205	41624.99
673.554	41756.06
673.904	41657.31
674.253	41806.46
674.602	41597.2
674.951	41064.33
675.3	40922.86
675.649	41495.05
675.998	41370.31
676.346	41440.59
676.695	41515.62
677.044	41174.84
677.393	41309.07
677.741	41450.76
678.09	41274.95
678.438	41142.07
678.787	41211.44
679.135	41429.29
679.484	41076.76
679.832	41299.13
680.181	40886.48
680.529	41158.34
680.877	40980.26
681.225	40961.51
681.573	41188.85
681.922	40760.61
682.27	40802.64
682.618	40823.66
682.966	40501.41
683.314	40612.14
683.661	40595.42
684.009	40339.83
684.357	40288.31
684.705	40253.96
685.053	40289.43
685.4	40274.29
685.748	40140.51
686.095	40164.01
686.443	40050.57
686.79	39930.35
687.138	40030.68
687.485	40068.42
687.832	39909.78
688.18	39954.75
688.527	39838.15
688.874	39719.05
689.221	39581.43
689.568	39621.43
689.915	39400.19
690.262	39381.89
690.609	39213.98
690.956	39240.65
691.303	39160.43
691.65	38952.3
691.997	38973.09
692.344	38719.08
692.69	38642.7
693.037	38704.84
693.383	38238.87
693.73	38505.75
694.077	38285.87
694.423	38307.11
694.769	38241.13
695.116	38134.24
695.462	38045.65
695.808	37965.43
696.155	37890.18
696.501	37597.08
696.847	37707.81
697.193	37459.45
697.539	37562.95
697.885	37185.11
698.231	37269.18
698.577	37132
698.923	37353.92
699.269	37089.97
699.614	36800.26
699.96	36804.55
700.306	36896.98
700.651	36688.85
700.997	36593.94
701.342	36455.86
701.688	36459.03
702.033	36274.63
702.379	36264.46
702.724	36195.31
703.069	36261.74
703.415	35753.96
703.76	35847.07
704.105	36000.51
704.45	35753.96
704.795	35595.77
705.14	35507.41
705.485	35531.37
705.83	35231.49
706.175	35398.04
706.52	35350.13
706.865	35159.4
707.209	35060.19
707.554	35004.38
707.899	35005.51
708.243	34800.54
708.588	34832.86
708.932	34619.08
709.277	34584.05
709.621	34664.05
709.966	34474.67
710.31	34504.95
710.654	34225.64
710.998	34192.65
711.342	34216.15
711.687	34086.66
712.031	34013.44
712.375	33956.49
712.719	34022.03
713.063	33857.29
713.407	33848.47
713.75	33764.41
714.094	33813.67
714.438	33580.23
714.782	33587.01
715.125	33457.52
715.469	33423.85
715.812	33222.28
716.156	33104.77
716.499	33100.92
716.843	33126.23
717.186	33018.44
717.53	33100.25
717.873	33114.03
718.216	32984.77
718.559	32838.33
718.902	32679.24
719.246	32716.07
719.589	32624.33
719.932	32465.23
720.275	32494.39
720.617	32427.27
720.96	32555.85
721.303	32390.43
721.646	32394.28
721.989	32081.97
722.331	32364.45
722.674	32102.53
723.016	32090.78
723.359	32051.01
723.701	32127.16
724.044	31913.38
724.386	31749.77
724.729	31886.94
725.071	31899.83
725.413	31721.07
725.755	31765.14
726.097	31622.77
726.439	31460.29
726.782	31557.69
727.124	31672.94
727.465	31476.33
727.807	31426.62
728.149	31340.52
728.491	31275.66
728.833	31404.24
729.175	31223.91
729.516	31202.89
729.858	31235.44
730.199	31159.05
730.541	30989.11
730.882	31001.77
731.224	31048.77
731.565	30835.45
731.906	30829.57
732.248	30900.98
732.589	30614.66
732.93	30553.42
733.271	30697.14
733.612	30622.34
733.953	30639.97
734.294	30565.4
734.635	30457.38
734.976	30557.04
735.317	30372.41
735.658	30413.76
735.999	30376.93
736.339	30233.88
736.68	30323.6
737.021	30152.75
737.361	30159.76
737.702	30203.6
738.042	30084.51
738.383	30049.25
738.723	30133.77
739.063	29951.18
739.404	29947.11
739.744	29973.77
740.084	29743.95
740.424	29849.48
740.764	29840.9
741.104	29827.79
741.444	29688.36
741.784	29659.43
742.124	29639.32
742.464	29702.82
742.804	29542.15
743.143	29508.02
743.483	29479.1
743.823	29353.9
744.162	29333.11
744.502	29417.4
744.841	29220.8
745.181	29305.99
745.52	29207.69
745.86	29236.84
746.199	29170.86
746.538	29238.43
746.877	29093.35
747.216	29114.59
747.556	29042.05
747.895	29061.26
748.234	28873.69
748.573	28899.23
748.911	28859.45
749.25	28829.62
749.589	28768.38
749.928	28711.89
750.267	28843.63
750.605	28698.1
750.944	28708.27
751.283	28513.25
751.621	28661.72
751.96	28430.54
752.298	28248.85
752.636	28400.93
752.975	28435.28
753.313	28243.42
753.651	28399.13
753.989	28057.44
754.327	28063.99
754.666	27941.96
755.004	27996.2
755.342	28031.68
755.679	28023.54
756.017	27755.98
756.355	27805.92
756.693	27687.05
757.031	27879.14
757.368	27586.72
757.706	27605.93
758.044	27512.6
758.381	27576.55
758.719	27385.82
759.056	27401.86
759.394	27261.3
759.731	27164.81
760.068	27105.6
760.405	27070.12
760.743	26945.15
761.08	26994.42
761.417	26870.58
761.754	26915.32
762.091	26813.41
762.428	26624.94
762.765	26520.53
763.102	26533.64
763.438	26507.88
763.775	26316.24
764.112	26396.24
764.449	26346.98
764.785	26185.85
765.122	26054.56
765.458	25857.27
765.795	25900.89
766.131	25869.93
766.467	25729.37
766.804	25687.11
767.14	25637.16
767.476	25622.93
767.812	25354.69
768.148	25468.13
768.485	25394.91
768.821	25142.04
769.157	25130.96
769.492	25068.82
769.828	25000.12
770.164	24882.61
770.5	24849.84
770.836	24668.15
771.171	24624.76
771.507	24575.05
771.842	24441.72
772.178	24355.62
772.513	24348.61
772.849	24270.65
773.184	24114.72
773.519	24073.59
773.855	24107.26
774.19	23844.22
774.525	23803.99
774.86	23837.21
775.195	23721.51
775.53	23603.77
775.865	23454.4
776.2	23392.93
776.535	23230
776.87	23228.41
777.205	23145.93
777.539	23040.4
777.874	23099.6
778.209	22782.32
778.543	22806.73
778.878	22732.38
779.212	22698.49
779.547	22395.89
779.881	22545.27
780.215	22302.34
780.55	22304.37
780.884	22222.34
781.218	22300.53
781.552	22139.63
781.886	22054.66
782.22	21959.75
782.554	21796.14
782.888	21694.22
783.222	21631.39
783.556	21526.09
783.889	21466.88
784.223	21370.61
784.557	21248.81
784.89	21315.7
785.224	21266.66
785.557	21239.77
785.891	21068.7
786.224	20992.99
786.558	21032.31
786.891	20800.23
787.224	20724.75
787.557	20683.4
787.891	20640.91
788.224	20624.64
788.557	20608.14
788.89	20477.75
789.223	20466.23
789.556	20226.23
789.888	20282.28
790.221	20153.24
790.554	20068.27
790.887	20112.56
791.219	20011.55
791.552	19863.31
791.884	19825.57
792.217	19821.05
792.549	19653.14
792.882	19519.81
793.214	19453.15
793.546	19435.07
793.879	19342.64
794.211	19226.49
794.543	19319.36
794.875	19169.09
795.207	19313.49
795.539	19088.86
795.871	19169.31
796.203	18937.68
796.535	18831.24
796.867	18811.58
797.198	18763
797.53	18697.46
797.862	18590.8
798.193	18532.94
798.525	18541.98
798.856	18551.02
799.188	18306.74
799.519	18390.58
799.85	18174.76
800.182	18245.04
800.513	18181.99
800.844	18059.74
801.175	18143.58
801.506	18070.58
801.837	18088.89
802.168	17901.32
802.499	17885.73
802.83	17758.5
803.161	17713.98
803.491	17712.18
803.822	17648.22
804.153	17552.18
804.483	17522.35
804.814	17365.29
805.145	17449.58
805.475	17297.05
805.805	17274.9
806.136	17341.34
806.466	17211.4
806.796	17245.52
807.126	17099.31
807.457	17020.67
807.787	17045.53
808.117	16944.74
808.447	16882.82
808.777	17005.3
809.107	16764.86
809.436	16796.72
809.766	16708.59
810.096	16728.02
810.426	16638.31
810.755	16638.08
811.085	16591.53
811.414	16561.25
811.744	16469.95
812.073	16387.24
812.403	16400.8
812.732	16292.1
813.061	16234.02
813.39	16232.44
813.719	16124.42
814.049	16317.18
814.378	16206.68
814.707	16136.4
815.036	16097.3
815.365	15973.24
815.693	15815.5
816.022	15915.39
816.351	15842.62
816.68	15800.81
817.008	15850.98
817.337	15617.32
817.665	15659.8
817.994	15629.29
818.322	15625.68
818.651	15592.91
818.979	15457.09
819.307	15572.8
819.636	15458.9
819.964	15372.35
820.292	15430.43
820.62	15384.55
820.948	15427.72
821.276	15432.24
821.604	15356.31
821.932	15357.44
822.259	15358.79
822.587	15311.79
822.915	15283.99
823.243	15316.31
823.57	15192.24
823.898	15313.59
824.225	15236.31
824.553	15251.68
824.88	15227.5
825.207	15225.01
825.535	15301.39
825.862	15289.87
826.189	15158.34
826.516	15217.55
826.843	15335.74
827.17	15227.27
827.497	15266.82
827.824	15294.61
828.151	15372.35
828.478	15225.24
828.805	15322.63
829.131	15193.82
829.458	15187.5
829.785	15088.52
830.111	15148.63
830.438	15293.48
830.764	15154.5
831.09	15285.57
831.417	15138.01
831.743	15185.69
832.069	15209.19
832.395	15117.67
832.722	15178.68
833.048	15171.9
833.374	15139.14
833.7	15080.83
834.026	15113.83
834.351	15222.75
834.677	15076.99
835.003	15119.02
835.329	15041.29
835.654	14996.99
835.98	15053.94
836.306	15019.14
836.631	14891.91
836.956	15001.96
837.282	14979.37
837.607	14863.89
837.932	14832.03
838.258	14826.15
838.583	14828.86
838.908	14695.08
839.233	14774.63
839.558	14681.97
839.883	14647.4
840.208	14599.49
840.533	14613.95
840.858	14552.03
841.182	14638.36
841.507	14609.66
841.832	14516.33
842.156	14509.1
842.481	14433.62
842.805	14378.7
843.13	14366.95
843.454	14363.34
843.778	14333.28
844.103	14369.21
844.427	14342.55
844.751	14286.95
845.075	14219.16
845.399	14186.17
845.723	14091.03
846.047	14143.23
846.371	13995.89
846.695	13910.02
847.019	13896.23
847.343	13798.61
847.666	13724.94
847.99	13707.54
848.313	13682.22
848.637	13705.95
848.96	13569.23
849.284	13591.38
849.607	13456.47
849.931	13512.96
850.254	13206.98
850.577	13321.78
850.9	13150.94
851.223	13139.41
851.546	13094.67
851.869	13015.8
852.192	13089.25
852.515	12918.4
852.838	12830.04
853.161	12902.58
853.483	12857.84
853.806	12755.47
854.129	12679.54
854.451	12668.69
854.774	12644.74
855.096	12660.56
855.419	12653.78
855.741	12519.32
856.063	12433.9
856.385	12469.6
856.708	12369.72
857.03	12383.95
857.352	12328.36
857.674	12318.19
857.996	12311.87
858.318	12228.03
858.64	12187.8
858.961	12185.32
859.283	12112.1
859.605	12015.83
859.926	12132.89
860.248	12081.36
860.57	11987.35
860.891	12004.53
861.212	11929.28
861.534	11866.91
861.855	11864.87
862.176	11858.09
862.498	11840.47
862.819	11837.53
863.14	11742.16
863.461	11697.42
863.782	11741.49
864.103	11714.14
864.424	11653.58
864.745	11768.15
865.065	11626.46
865.386	11528.16
865.707	11650.87
866.027	11607.25
866.348	11534.26
866.668	11512.11
866.989	11515.05
867.309	11458.55
867.63	11413.81
867.95	11400.25
868.27	11381.95
868.59	11471.44
868.91	11361.38
869.23	11400.93
869.55	11278.45
869.87	11375.17
870.19	11354.83
870.51	11337.65
870.83	11263.08
871.15	11212.69
871.469	11196.41
871.789	11275.06
872.109	11267.37
872.428	11154.16
872.748	11232.8
873.067	11162.29
873.386	11185.34
873.706	11123.2
874.025	11107.38
874.344	10988.28
874.663	11103.08
874.982	11006.59
875.301	10979.7
875.62	10997.32
875.939	10961.84
876.258	10992.13
876.577	10889.98
876.896	10894.73
877.214	10889.08
877.533	10903.99
877.852	10867.38
878.17	10898.34
878.489	10785.8
878.807	10883.43
879.125	10775.63
879.444	10748.74
879.762	10738.35
880.08	10743.77
880.398	10754.39
880.716	10709.87
881.034	10591.01
881.352	10658.58
881.67	10627.62
881.988	10591.68
882.306	10581.74
882.624	10515.3
882.941	10527.96
883.259	10483.44
883.577	10436.43
883.894	10518.24
884.212	10359.83
884.529	10418.13
884.846	10440.95
885.164	10280.96
885.481	10351.47
885.798	10363.22
886.115	10246.61
886.432	10270.34
886.75	10205.71
887.067	10181.07
887.383	10186.05
887.7	10230.11
888.017	10110.34
888.334	10145.59
888.651	10045.71
888.967	10031.93
889.284	9963
889.6	9952.83
889.917	9875.77
890.233	9895.43
890.55	9939.72
890.866	9905.83
891.182	9843
891.498	9869.67
891.815	9770.92
892.131	9819.05
892.447	9717.36
892.763	9750.12
893.079	9715.78
893.395	9647.75
893.71	9562.33
894.026	9624.48
894.342	9588.1
894.657	9564.82
894.973	9468.32
895.289	9506.29
895.604	9507.87
895.92	9427.2
896.235	9385.39
896.55	9395.11
896.865	9354.43
897.181	9377.03
897.496	9278.27
897.811	9309.68
898.126	9212.29
898.441	9151.27
898.756	9211.16
899.071	9079.41
899.386	9073.98
899.7	9040.54
900.015	9024.49
900.33	8949.24
900.644	8939.98
900.959	9006.19
901.273	8929.36
901.588	8878.06
901.902	8788.57
902.216	8738.17
902.531	8801.45
902.845	8717.38
903.159	8637.16
903.473	8633.54
903.787	8615.24
904.101	8551.29
904.415	8594.22
904.729	8523.94
905.042	8480.33
905.356	8440.33
905.67	8410.5
905.984	8449.82
906.297	8357.62
906.611	8296.38
906.924	8303.61
907.237	8222.93
907.551	8227.68
907.864	8232.2
908.177	8242.37
908.491	8213.44
908.804	8103.39
909.117	8091.41
909.43	8054.58
909.743	8003.5
910.056	8020.68
910.368	7945.65
910.681	7939.55
910.994	7884.41
911.307	7838.76
911.619	7780.91
911.932	7785.43
912.244	7714.25
912.557	7765.54
912.869	7767.58
913.181	7645.32
913.494	7647.36
913.806	7591.76
914.118	7602.84
914.43	7524.19
914.742	7542.27
915.054	7472.67
915.366	7469.28
915.678	7413.92
915.99	7339.79
916.302	7280.36
916.613	7319.91
916.925	7295.73
917.236	7278.33
917.548	7199.91
917.859	7198.55
918.171	7198.55
918.482	7180.25
918.794	7136.41
919.105	7086.01
919.416	7052.79
919.727	7041.27
920.038	7010.54
920.349	6961.27
920.66	6957.88
920.971	6941.16
921.282	6923.31
921.593	6823.42
921.903	6824.55
922.214	6776.87
922.525	6749.98
922.835	6721.5
923.146	6661.84
923.456	6663.2
923.767	6622.75
924.077	6633.6
924.387	6613.26
924.697	6547.05
925.008	6573.94
925.318	6484.9
925.628	6509.31
925.938	6488.74
926.248	6424.56
926.558	6444.68
926.867	6410.55
927.177	6355.19
927.487	6388.63
927.796	6218.69
928.106	6247.84
928.416	6216.88
928.725	6228.86
929.034	6164.23
929.344	6192.93
929.653	6167.85
929.962	6092.14
930.271	6125.36
930.581	6094.4
930.89	6056.44
931.199	6019.38
931.508	5944.35
931.817	5938.25
932.125	5921.53
932.434	5926.27
932.743	5890.11
933.051	5838.14
933.36	5815.31
933.669	5733.51
933.977	5743.68
934.286	5723.11
934.594	5751.81
934.902	5673.17
935.21	5626.84
935.519	5658.26
935.827	5648.99
936.135	5671.59
936.443	5548.2
936.751	5549.33
937.059	5513.17
937.367	5489.67
937.674	5468.2
937.982	5440.86
938.29	5394.99
938.597	5426.4
938.905	5351.37
939.213	5396.34
939.52	5347.75
939.827	5351.37
940.135	5258.27
940.442	5219.4
940.749	5257.14
941.056	5275.21
941.363	5168.32
941.67	5167.65
941.977	5156.35
942.284	5130.59
942.591	5106.86
942.898	5064.6
943.205	5087.42
943.511	5043.58
943.818	5035.45
944.125	4972.17
944.431	4992.06
944.738	4976.92
945.044	4968.56
945.35	4913.87
945.657	4890.14
945.963	4867.54
946.269	4864.38
946.575	4859.41
946.881	4780.99
947.187	4809.24
947.493	4785.96
947.799	4752.97
948.105	4724.27
948.41	4700.77
948.716	4697.6
949.022	4716.81
949.327	4723.59
949.633	4603.14
949.938	4640.88
950.244	4622.58
950.549	4549.58
950.854	4497.38
951.16	4525.86
951.465	4489.47
951.77	4510.04
952.075	4443.6
952.38	4429.13
952.685	4439.76
952.99	4399.53
953.294	4390.27
953.599	4368.8
953.904	4336.48
954.209	4336.71
954.513	4312.53
954.818	4303.49
955.122	4249.03
955.426	4261.68
955.731	4262.13
956.035	4220.1
956.339	4244.28
956.643	4180.55
956.948	4152.31
957.252	4122.02
957.556	4174
957.86	4123.15
958.163	4096.04
958.467	4101.46
958.771	4028.69
959.075	4022.14
959.378	4039.77
959.682	4003.61
959.985	4039.54
960.289	3978.07
960.592	3951.18
960.896	3895.59
961.199	3906.89
961.502	3888.58
961.805	3893.1
962.108	3846.78
962.411	3855.82
962.714	3820.79
963.017	3818.76
963.32	3859.43
963.623	3778.3
963.926	3778.08
964.228	3796.16
964.531	3722.03
964.833	3692.66
965.136	3696.72
965.438	3706.44
965.741	3696.72
966.043	3648.36
966.345	3666.44
966.648	3615.82
966.95	3617.18
967.252	3582.15
967.554	3555.71
967.856	3594.13
968.158	3537.18
968.46	3525.43
968.761	3477.75
969.063	3467.58
969.365	3500.35
969.666	3496.73
969.968	3475.04
970.269	3441.14
970.571	3440.23
970.872	3433.45
971.174	3396.62
971.475	3363.4
971.776	3376.51
972.077	3370.41
972.378	3344.87
972.679	3308.26
972.98	3291.76
973.281	3308.26
973.582	3265.32
973.883	3294.02
974.183	3238.66
974.484	3263.52
974.785	3227.13
975.085	3191.2
975.386	3190.07
975.686	3193.46
975.986	3141.71
976.287	3118.43
976.587	3140.36
976.887	3119.79
977.187	3127.93
977.487	3128.83
977.787	3059
978.087	3073.69
978.387	3045.22
978.687	3016.29
978.987	3046.57
979.286	2994.14
979.586	3019
979.885	2982.85
980.185	2947.14
980.484	2986.91
980.784	2924.99
981.083	2921.83
981.382	2915.5
981.682	2874.37
981.981	2936.52
982.28	2888.16
982.579	2882.73
982.878	2830.76
983.177	2809.97
983.475	2821.27
983.774	2816.97
984.073	2797.77
984.372	2768.39
984.67	2788.5
984.969	2777.65
985.267	2760.25
985.566	2707.6
985.864	2746.92
986.162	2669.18
986.461	2702.63
986.759	2689.07
987.057	2664.66
987.355	2675.96
987.653	2627.15
987.951	2684.1
988.249	2654.72
988.547	2626.47
988.844	2604.78
989.142	2599.35
989.44	2562.07
989.737	2576.53
990.035	2567.04
990.332	2569.97
990.63	2498.34
990.927	2553.48
991.224	2505.12
991.521	2503.99
991.819	2508.73
992.116	2478
992.413	2479.81
992.71	2505.8
993.006	2463.54
993.303	2449.53
993.6	2463.08
993.897	2390.32
994.193	2398
994.49	2413.37
994.787	2362.3
995.083	2336.31
995.379	2346.7
995.676	2342.18
995.972	2339.47
996.268	2306.93
996.565	2311.9
996.861	2286.14
997.157	2286.37
997.453	2280.94
997.749	2273.03
998.044	2268.51
998.34	2240.72
998.636	2202.75
998.932	2200.27
999.227	2216.54
999.523	2204.11
999.818	2209.08
1000.114	2173.6
1000.409	2184.22
1000.704	2178.8
1001	2158.91
1001.295	2134.51
1001.59	2144.22
1001.885	2099.93
1002.18	2071.46
1002.475	2110.1
1002.77	2044.11
1003.065	2075.3
1003.359	2037.33
1003.654	2065.13
1003.949	1997.79
1004.243	2019.25
1004.538	2021.29
1004.832	2004.79
1005.127	2011.35
1005.421	1982.19
1005.715	1964.79
1006.009	1967.28
1006.304	1954.4
1006.598	1957.34
1006.892	1922.08
1007.186	1918.47
1007.48	1914.62
1007.773	1913.49
1008.067	1887.51
1008.361	1854.06
1008.655	1850.45
1008.948	1844.12
1009.242	1818.81
1009.535	1817.9
1009.829	1791.46
1010.122	1807.96
1010.415	1811.58
1010.708	1750.34
1011.001	1753.05
1011.295	1750.11
1011.588	1719.83
1011.881	1748.3
1012.173	1719.38
1012.466	1718.47
1012.759	1704.46
1013.052	1686.83
1013.344	1669.43
1013.637	1676.44
1013.93	1679.6
1014.222	1669.89
1014.514	1653.39
1014.807	1641.41
1015.099	1619.04
1015.391	1621.53
1015.683	1611.58
1015.976	1607.51
1016.268	1579.72
1016.56	1586.27
1016.851	1562.77
1017.143	1560.96
1017.435	1571.13
1017.727	1533.84
1018.018	1550.79
1018.31	1537.23
1018.602	1522.09
1018.893	1512.15
1019.185	1516.22
1019.476	1493.17
1019.767	1485.71
1020.058	1482.32
1020.35	1466.5
1020.641	1459.27
1020.932	1444.35
1021.223	1433.28
1021.514	1437.35
1021.804	1412.49
1022.095	1393.73
1022.386	1394.41
1022.677	1381.76
1022.967	1382.44
1023.258	1353.51
1023.548	1373.62
1023.839	1375.88
1024.129	1357.58
1024.419	1333.85
1024.709	1344.47
1025	1318.26
1025.29	1306.28
1025.58	1331.14
1025.87	1320.06
1026.16	1284.13
1026.449	1284.36
1026.739	1258.14
1027.029	1280.07
1027.319	1251.82
1027.608	1275.09
1027.898	1240.74
1028.187	1220.41
1028.477	1221.76
1028.766	1218.37
1029.055	1204.81
1029.344	1190.35
1029.634	1185.6
1029.923	1174.98
1030.212	1182.44
1030.501	1158.71
1030.79	1149.22
1031.078	1122.33
1031.367	1134.31
1031.656	1121.2
1031.945	1125.94
1032.233	1122.56
1032.522	1108.54
1032.81	1105.15
1033.099	1127.07
1033.387	1105.83
1033.675	1080.52
1033.963	1061.31
1034.251	1034.42
1034.54	1086.17
1034.828	1065.16
1035.116	1020.64
1035.403	1049.56
1035.691	1018.83
1035.979	1011.6
1036.267	1019.51
1036.554	1002.56
1036.842	984.48
1037.129	971.6
1037.417	997.81
1037.704	982.45
1037.992	988.32
1038.279	967.08
1038.566	957.59
1038.853	957.59
1039.14	957.59
