Data from hue_320_FLMS001491_28.txt Node
Date: Mon Feb 06 15:46:59 GMT 2017
User: dcchb
Spectrometer: FLMS00149
Trigger mode: 0
Integration Time (sec): 2.000000E-2
Scans to average: 10
Electric dark correction enabled: true
Nonlinearity correction enabled: false
Boxcar width: 0
XAxis mode: Wavelengths
Number of Pixels in Spectrum: 2048
>>>>>Begin Spectral Data<<<<<
341.393	-0.18
341.776	-0.18
342.16	-0.18
342.543	-56
342.927	-57.36
343.31	-63.01
343.693	-65.04
344.077	-62.33
344.46	-54.65
344.843	-60.97
345.226	-54.87
345.61	-35.21
345.993	-26.4
346.376	-12.61
346.759	29.42
347.142	36.2
347.525	25.35
347.908	73.26
348.291	68.29
348.674	88.4
349.057	114.16
349.44	142.19
349.823	140.15
350.206	169.53
350.588	188.96
350.971	233.93
351.354	238.68
351.737	243.88
352.119	253.14
352.502	243.65
352.884	279.13
353.267	296.53
353.65	294.5
354.032	306.93
354.414	322.52
354.797	314.84
355.179	319.13
355.562	353.25
355.944	327.72
356.326	338.11
356.709	332.24
357.091	322.07
357.473	326.14
357.855	320.71
358.238	340.6
358.62	329.3
359.002	340.15
359.384	349.64
359.766	350.77
360.148	333.82
360.53	320.26
360.912	326.81
361.294	328.17
361.676	337.21
362.057	332.91
362.439	334.27
362.821	320.26
363.203	323.2
363.584	331.79
363.966	337.21
364.348	343.31
364.729	316.42
365.111	309.41
365.493	331.56
365.874	332.01
366.256	314.38
366.637	322.29
367.019	294.72
367.4	325.91
367.781	319.13
368.163	323.42
368.544	298.79
368.925	300.15
369.306	325.01
369.688	314.38
370.069	321.16
370.45	306.25
370.831	302.63
371.212	301.73
371.593	314.84
371.974	296.76
372.355	316.19
372.736	316.64
373.117	328.17
373.498	314.84
373.879	324.1
374.26	326.59
374.641	329.53
375.021	315.29
375.402	329.75
375.783	318
376.163	328.62
376.544	335.63
376.925	346.25
377.305	296.53
377.686	325.68
378.066	326.59
378.447	332.91
378.827	330.66
379.208	326.36
379.588	328.62
379.968	317.77
380.349	336.76
380.729	333.59
381.109	334.95
381.489	356.42
381.87	344.44
382.25	331.56
382.63	351.9
383.01	357.32
383.39	354.16
383.77	355.74
384.15	323.88
384.53	332.01
384.91	354.84
385.29	341.95
385.67	347.15
386.049	359.35
386.429	340.6
386.809	352.8
387.189	344.44
387.568	353.25
387.948	341.95
388.328	372.24
388.707	360.71
389.087	377.43
389.466	366.59
389.846	363.2
390.225	365.23
390.605	341.05
390.984	350.32
391.363	365.91
391.743	373.82
392.122	339.69
392.501	362.07
392.881	373.37
393.26	375.17
393.639	363.42
394.018	360.48
394.397	369.3
394.776	367.49
395.155	414.72
395.534	382.86
395.913	385.57
396.292	395.51
396.671	396.64
397.05	393.48
397.429	375.85
397.808	399.35
398.186	391.67
398.565	405
398.944	372.69
399.323	394.83
399.701	380.37
400.08	382.18
400.458	381.73
400.837	375.4
401.215	386.92
401.594	378.11
401.972	394.61
402.351	421.05
402.729	389.18
403.107	414.49
403.486	410.43
403.864	412.69
404.242	423.08
404.62	425.57
404.999	419.24
405.377	432.35
405.755	429.64
406.133	414.95
406.511	444.78
406.889	429.18
407.267	447.94
407.645	455.17
408.023	432.8
408.401	442.06
408.779	477.32
409.156	455.62
409.534	462.18
409.912	463.31
410.29	500.14
410.667	458.11
411.045	485.23
411.422	489.52
411.8	486.58
412.178	503.53
412.555	511.22
412.933	522.74
413.31	516.86
413.687	514.15
414.065	527.49
414.442	537.66
414.819	534.49
415.197	546.47
415.574	562.74
415.951	555.96
416.328	541.5
416.705	559.58
417.082	572.68
417.46	556.19
417.837	586.02
418.214	576.75
418.591	564.32
418.967	610.65
419.344	597.77
419.721	603.64
420.098	613.81
420.475	628.95
420.852	620.59
421.228	639.12
421.605	629.4
421.982	632.57
422.358	653.36
422.735	653.13
423.111	650.42
423.488	655.39
423.864	648.84
424.241	658.78
424.617	689.74
424.994	717.31
425.37	700.14
425.746	702.62
426.123	693.13
426.499	704.66
426.875	720.02
427.251	719.35
427.627	751.44
428.003	740.81
428.379	748.95
428.756	742.62
429.132	760.02
429.507	754.82
429.883	772.45
430.259	786.24
430.635	795.73
431.011	786.69
431.387	833.69
431.763	824.65
432.138	816.07
432.514	831.43
432.89	851.55
433.265	863.07
433.641	852.22
434.016	875.73
434.392	872.56
434.767	911.66
435.143	882.96
435.518	906.23
435.894	902.84
436.269	902.62
436.644	932.67
437.02	938.55
437.395	936.29
437.77	946.46
438.145	951.88
438.52	944.2
438.895	999.56
439.271	986.91
439.646	999.34
440.021	993.01
440.395	998.89
440.77	989.39
441.145	1024.87
441.52	1025.1
441.895	1029.62
442.27	1046.12
442.645	1026.46
443.019	1045.66
443.394	1057.19
443.769	1033.46
444.143	1045.66
444.518	1088.15
444.892	1072.33
445.267	1093.8
445.641	1061.03
446.016	1083.18
446.39	1074.59
446.764	1095.83
447.139	1071.88
447.513	1065.1
447.887	1091.09
448.262	1131.54
448.636	1094.02
449.01	1095.15
449.384	1088.6
449.758	1110.97
450.132	1138.09
450.506	1149.39
450.88	1136.28
451.254	1135.15
451.628	1150.52
452.002	1171.76
452.376	1153.91
452.75	1148.26
453.123	1154.81
453.497	1178.99
453.871	1173.34
454.244	1175.15
454.618	1219.22
454.992	1220.35
455.365	1217.19
455.739	1241.14
456.112	1234.59
456.486	1257.86
456.859	1242.5
457.232	1285.88
457.606	1290.4
457.979	1279.33
458.352	1270.52
458.725	1332.66
459.099	1297.64
459.472	1310.52
459.845	1341.25
460.218	1354.81
460.591	1356.62
460.964	1305.77
461.337	1363.4
461.71	1359.33
462.083	1376.96
462.456	1391.19
462.829	1388.48
463.201	1422.83
463.574	1421.47
463.947	1411.76
464.32	1461.47
464.692	1454.92
465.065	1462.6
465.438	1491.3
465.81	1504.18
466.183	1489.04
466.555	1515.93
466.928	1550.51
467.3	1526.56
467.672	1575.37
468.045	1525.88
468.417	1559.1
468.789	1573.33
469.161	1583.05
469.534	1605.42
469.906	1645.65
470.278	1615.14
470.65	1640
471.022	1681.58
471.394	1681.13
471.766	1700.34
472.138	1723.16
472.51	1757.51
472.882	1753.67
473.253	1769.71
473.625	1756.83
473.997	1768.58
474.369	1822.14
474.74	1832.99
475.112	1857.39
475.484	1885.19
475.855	1896.26
476.227	1901.69
476.598	1935.81
476.97	1935.13
477.341	2005.19
477.713	1991.18
478.084	2036.6
478.455	2056.94
478.827	2083.83
479.198	2136.26
479.569	2126.09
479.94	2179.65
480.311	2163.15
480.682	2218.74
481.053	2250.83
481.424	2263.49
481.795	2278.63
482.166	2280.21
482.537	2297.84
482.908	2349.13
483.279	2366.76
483.65	2414.67
484.021	2427.55
484.391	2447.44
484.762	2447.44
485.133	2490.82
485.503	2505.74
485.874	2562.01
486.244	2593.65
486.615	2612.18
486.985	2618.73
487.356	2644.27
487.726	2655.34
488.097	2700.54
488.467	2704.38
488.837	2748.9
489.207	2786.18
489.578	2831.15
489.948	2822.79
490.318	2829.8
490.688	2872.28
491.058	2894.43
491.428	2901.89
491.798	2959.74
492.168	2988.66
492.538	3006.74
492.908	3003.58
493.278	3093.75
493.648	3072.05
494.017	3051.49
494.387	3072.73
494.757	3121.99
495.126	3128.77
495.496	3185.95
495.866	3191.6
496.235	3185.5
496.605	3225.72
496.974	3227.08
497.344	3261.65
497.713	3270.24
498.082	3246.74
498.452	3296
498.821	3307.98
499.19	3339.84
499.559	3300.07
499.928	3335.32
500.298	3393.17
500.667	3372.16
501.036	3374.42
501.405	3388.2
501.774	3394.08
502.143	3438.6
502.512	3436.56
502.88	3461.42
503.249	3463.91
503.618	3512.49
503.987	3491.93
504.356	3509.78
504.724	3486.5
505.093	3572.15
505.462	3579.84
505.83	3559.04
506.199	3594.3
506.567	3663.67
506.936	3608.31
507.304	3647.4
507.672	3606.73
508.041	3689.21
508.409	3677.69
508.777	3642.21
509.145	3706.84
509.514	3675.43
509.882	3747.06
510.25	3733.28
510.618	3722.88
510.986	3744.12
511.354	3736.44
511.722	3765.37
512.09	3829.77
512.458	3843.78
512.826	3793.16
513.193	3798.59
513.561	3810.11
513.929	3882.2
514.297	3858.47
514.664	3861.41
515.032	3850.34
515.4	3882.2
515.767	3907.74
516.135	3929.43
516.502	3907.74
516.869	3925.14
517.237	3939.83
517.604	3950.67
517.972	3938.47
518.339	3980.28
518.706	4017.11
519.073	4019.6
519.44	3991.8
519.808	4007.62
520.175	4023.67
520.542	4054.85
520.909	4035.42
521.276	4075.42
521.643	4055.75
522.009	4074.96
522.376	4100.05
522.743	4116.32
523.11	4195.86
523.477	4202.64
523.843	4210.33
524.21	4192.47
524.577	4208.52
524.943	4241.96
525.31	4256.2
525.676	4303.21
526.043	4283.09
526.409	4317.89
526.776	4361.51
527.142	4362.19
527.508	4376.2
527.874	4402.64
528.241	4394.96
528.607	4425.46
528.973	4483.31
529.339	4408.74
529.705	4484.9
530.071	4544.78
530.437	4509.98
530.803	4538.68
531.169	4593.59
531.535	4605.57
531.901	4597.89
532.267	4599.02
532.632	4649.41
532.998	4668.85
533.364	4645.8
533.73	4711.56
534.095	4709.52
534.461	4748.17
534.826	4760.14
535.192	4776.41
535.557	4764.21
535.923	4795.4
536.288	4808.73
536.653	4822.06
537.019	4819.58
537.384	4862.51
537.749	4887.37
538.114	4932.34
538.479	4898.9
538.845	4924.21
539.21	4940.48
539.575	4987.71
539.94	5047.59
540.305	5040.36
540.67	5042.17
541.034	5076.97
541.399	5064.09
541.764	5070.42
542.129	5148.38
542.494	5113.35
542.858	5173.47
543.223	5182.73
543.587	5211.43
543.952	5241.49
544.316	5253.01
544.681	5229.28
545.045	5254.82
545.41	5302.95
545.774	5320.35
546.138	5338.43
546.503	5352.44
546.867	5406.23
547.231	5416.4
547.595	5426.57
547.959	5465.21
548.324	5434.93
548.688	5457.75
549.052	5454.36
549.416	5531.42
549.779	5506.56
550.143	5560.12
550.507	5587.69
550.871	5562.83
551.235	5590.4
551.599	5627.01
551.962	5603.28
552.326	5639.89
552.689	5705.43
553.053	5662.94
553.417	5663.85
553.78	5714.02
554.143	5725.54
554.507	5774.13
554.87	5766.67
555.234	5841.02
555.597	5808.7
555.96	5824.3
556.323	5817.74
556.686	5846.67
557.05	5841.7
557.413	5889.38
557.776	5921.24
558.139	5918.53
558.502	5935.03
558.865	6004.18
559.228	5982.26
559.59	5992.65
559.953	5975.25
560.316	6060.22
560.679	6021.35
561.041	6088.92
561.404	6106.1
561.767	6132.76
562.129	6132.54
562.492	6187.9
562.854	6208.01
563.217	6220.22
563.579	6200.33
563.941	6326.43
564.304	6202.14
564.666	6328.92
565.028	6310.61
565.39	6332.31
565.753	6352.42
566.115	6400.33
566.477	6404.39
566.839	6438.07
567.201	6426.09
567.563	6433.55
567.925	6440.55
568.287	6430.83
568.648	6492.75
569.01	6547.44
569.372	6549.25
569.734	6577.27
570.095	6645.97
570.457	6617.27
570.819	6705.18
571.18	6682.8
571.542	6734.55
571.903	6771.39
572.265	6814.33
572.626	6818.17
572.987	6858.17
573.349	6905.17
573.71	6882.12
574.071	6975.45
574.432	6995.79
574.794	7156.24
575.155	7103.13
575.516	7167.54
575.877	7294.99
576.238	7321.66
576.599	7356.69
576.96	7404.37
577.32	7407.76
577.681	7562.33
578.042	7587.64
578.403	7658.37
578.763	7743.12
579.124	7830.12
579.485	7972.49
579.845	8057.01
580.206	8107.85
580.566	8181.52
580.927	8320.28
581.287	8433.27
581.648	8547.84
582.008	8734.5
582.368	8805.01
582.728	8930.66
583.089	9087.04
583.449	9235.05
583.809	9359.34
584.169	9572.9
584.529	9726.57
584.889	9923.4
585.249	10063.73
585.609	10157.52
585.969	10456.04
586.329	10673.43
586.688	10763.15
587.048	10997.95
587.408	11236.36
587.768	11409.69
588.127	11681.77
588.487	11826.85
588.846	12183.9
589.206	12334.18
589.565	12545.02
589.925	12901.17
590.284	13102.75
590.643	13399.46
591.003	13640.81
591.362	13970.52
591.721	14189.27
592.08	14388.36
592.44	14798.98
592.799	15084.84
593.158	15227.66
593.517	15510.37
593.876	15881.88
594.235	16133.4
594.593	16384.7
594.952	16647.29
595.311	16924.12
595.67	17238.23
596.029	17674.61
596.387	18016.52
596.746	18266.68
597.104	18393.01
597.463	18823.5
597.822	19174.68
598.18	19316.82
598.538	19640.43
598.897	20002.91
599.255	20153.64
599.613	20682.21
599.972	20816.67
600.33	21026.83
600.688	21358.35
601.046	21748.62
601.404	22092.12
601.762	22283.52
602.12	22622.72
602.478	22883.73
602.836	23186.1
603.194	23326.21
603.552	23619.53
603.91	23834.9
604.268	24158.5
604.625	24224.26
604.983	24732.73
605.341	24866.51
605.698	25135.2
606.056	25551.91
606.413	25661.06
606.771	26047.49
607.128	26328.16
607.485	26478.44
607.843	26696.52
608.2	27004.53
608.557	27246.78
608.914	27372.43
609.272	27684.74
609.629	28006.54
609.986	28241.56
610.343	28345.29
610.7	28771.72
611.057	28828.44
611.414	29041.54
611.771	29214.87
612.127	29420.51
612.484	29712.71
612.841	29962.42
613.198	29856.66
613.554	30159.93
613.911	30530.09
614.267	30585.45
614.624	30700.93
614.98	31043.97
615.337	31209.84
615.693	31234.02
616.05	31433.11
616.406	31706.33
616.762	31814.12
617.118	32054.34
617.475	32122.14
617.831	32194
618.187	32457.27
618.543	32537.94
618.899	32879.86
619.255	32830.14
619.611	32956.24
619.967	33103.8
620.323	33239.85
620.678	33411.14
621.034	33347.87
621.39	33470.12
621.746	33507.86
622.101	34137.22
622.457	33901.07
622.812	33918.25
623.168	34082.54
623.523	34274.17
623.879	34334.96
624.234	34228.97
624.589	34518.23
624.945	34690.43
625.3	34794.61
625.655	34691.79
626.01	34865.79
626.365	34987.6
626.72	35071.44
627.075	35098.33
627.43	34996.41
627.785	35146.46
628.14	35275.27
628.495	35303.75
628.85	35388.94
629.205	35316.4
629.559	35586.9
629.914	35438.43
630.269	35518.88
630.623	35614.02
630.978	35508.71
631.332	35715.49
631.687	35781.25
632.041	35665.09
632.396	35984.18
632.75	35804.52
633.104	35885.43
633.459	35799.78
633.813	35631.2
634.167	35741.93
634.521	35716.62
634.875	35894.92
635.229	35819.44
635.583	35690.4
635.937	35728.59
636.291	35806.11
636.645	35746.67
636.999	35738.76
637.352	35905.31
637.706	35692.44
638.06	35814.69
638.413	35863.51
638.767	35767.92
639.121	35782.15
639.474	35795.26
639.828	35840.46
640.181	35872.77
640.534	35924.75
640.888	35921.13
641.241	35776.28
641.594	35753.9
641.947	35929.72
642.301	35653.34
642.654	35860.57
643.007	35815.82
643.36	35826.9
643.713	35629.39
644.066	35848.37
644.419	35686.11
644.771	35459.22
645.124	35206.12
645.477	35139.91
645.83	34925.23
646.182	34849.97
646.535	34785.12
646.888	34816.75
647.24	34606.59
647.593	34951.67
647.945	34856.3
648.298	34570.21
648.65	34588.29
649.002	34400.72
649.355	34668.96
649.707	34555.52
650.059	34730.43
650.411	35174.26
650.763	35126.35
651.115	35577.41
651.467	35381.48
651.819	35351.88
652.171	35373.35
652.523	35335.84
652.875	35407.92
653.227	35138.33
653.578	35491.76
653.93	35468.04
654.282	35296.29
654.633	35302.62
654.985	35220.13
655.337	35272.11
655.688	35293.8
656.039	35375.61
656.391	35175.16
656.742	34955.51
657.094	35152.34
657.445	35443.86
657.796	35113.47
658.147	35126.8
658.498	35286.8
658.849	35141.72
659.2	35138.78
659.551	35086.13
659.902	35312.79
660.253	35229.4
660.604	35223.52
660.955	35018.33
661.306	35088.84
661.656	35167.48
662.007	34956.19
662.358	35083.19
662.708	35125.22
663.059	35074.15
663.409	34857.66
663.76	35098.33
664.11	35277.98
664.461	34939.46
664.811	35140.36
665.161	34976.98
665.511	35073.7
665.862	35045.67
666.212	35061.95
666.562	35120.7
666.912	35001.83
667.262	34964.09
667.612	34918.22
667.962	35043.87
668.312	34962.29
668.662	35122.96
669.011	34999.8
669.361	34927.03
669.711	34877.09
670.06	34801.16
670.41	34819.69
670.76	34827.6
671.109	35008.39
671.459	34899.69
671.808	34908.95
672.157	34989.4
672.507	34811.78
672.856	34722.75
673.205	34886.36
673.554	34902.85
673.904	34759.81
674.253	34966.81
674.602	34930.65
674.951	34258.8
675.3	34165.02
675.649	34819.01
675.998	34725.01
676.346	34785.57
676.695	34750.99
677.044	34509.87
677.393	34645.01
677.741	34642.07
678.09	34544.9
678.438	34485.24
678.787	34635.29
679.135	34547.83
679.484	34324.11
679.832	34408.18
680.181	34289.54
680.529	34334.51
680.877	34318.24
681.225	34161.18
681.573	34520.72
681.922	34175.41
682.27	34158.01
682.618	34128.18
682.966	33968.87
683.314	34142.42
683.661	34027.4
684.009	33831.02
684.357	33924.35
684.705	33800.74
685.053	33807.52
685.4	33748.76
685.748	33543.79
686.095	33637.35
686.443	33511.93
686.79	33550.12
687.138	33556
687.485	33480.07
687.832	33324.14
688.18	33445.49
688.527	33208.21
688.874	33169.79
689.221	33112.84
689.568	32961.89
689.915	33001.66
690.262	33109.45
690.609	32731.84
690.956	32801.67
691.303	32816.81
691.65	32537.04
691.997	32596.93
692.344	32434.22
692.69	32428.12
693.037	32492.97
693.383	32116.94
693.73	32316.25
694.077	32070.16
694.423	31978.86
694.769	32054.79
695.116	31916.27
695.462	31951.29
695.808	31718.76
696.155	31876.94
696.501	31551.08
696.847	31612.32
697.193	31350.18
697.539	31531.87
697.885	31387.92
698.231	31197.41
698.577	31140.69
698.923	31003.75
699.269	31003.97
699.614	30879.23
699.96	30788.16
700.306	30895.05
700.651	30772.57
700.997	30702.96
701.342	30570.31
701.688	30419.36
702.033	30475.4
702.379	30380.94
702.724	30342.07
703.069	30347.72
703.415	30049.2
703.76	30002.42
704.105	30153.6
704.45	29919.48
704.795	29713.39
705.14	29681.75
705.485	29769.43
705.83	29669.77
706.175	29693.05
706.52	29637.68
706.865	29446.05
707.209	29489.21
707.554	29268.43
707.899	29399.95
708.243	29197.47
708.588	29266.84
708.932	28916.57
709.277	28951.82
709.621	29090.12
709.966	28853.52
710.31	28940.75
710.654	28638.61
710.998	28674.54
711.342	28613.75
711.687	28556.81
712.031	28411.95
712.375	28272.97
712.719	28388.45
713.063	28367.66
713.407	28368.79
713.75	28223.03
714.094	28244.95
714.438	28106.87
714.782	28072.52
715.125	27926.54
715.469	27963.6
715.812	27815.58
716.156	27732.87
716.499	27646.1
716.843	27732.42
717.186	27672.54
717.53	27862.13
717.873	27733.32
718.216	27608.81
718.559	27544.63
718.902	27388.47
719.246	27353.9
719.589	27293.79
719.932	27282.04
720.275	27146.67
720.617	27172.21
720.96	27143.28
721.303	27084.98
721.646	27096.96
721.989	26994.81
722.331	27065.09
722.674	27037.75
723.016	27032.55
723.359	26906.23
723.701	26858.77
724.044	26664.88
724.386	26553.92
724.729	26814.48
725.071	26691.32
725.413	26627.14
725.755	26715.27
726.097	26569.06
726.439	26369.07
726.782	26332.01
727.124	26438.67
727.465	26296.07
727.807	26390.08
728.149	26393.92
728.491	26134.5
728.833	26222.4
729.175	26123.42
729.516	25981.96
729.858	25971.34
730.199	26020.15
730.541	26005.91
730.882	25959.36
731.224	26167.49
731.565	25861.28
731.906	25785.81
732.248	25897.21
732.589	25698.12
732.93	25694.28
733.271	25699.03
733.612	25688.63
733.953	25681.18
734.294	25579.03
734.635	25415.19
734.976	25524.57
735.317	25329.32
735.658	25452.03
735.999	25431.01
736.339	25324.57
736.68	25441.41
737.021	25240.73
737.361	25191.47
737.702	25438.24
738.042	25312.37
738.383	25088.87
738.723	25313.73
739.063	25179.04
739.404	25127.97
739.744	25001.42
740.084	24922.78
740.424	25117.8
740.764	24858.37
741.104	25004.58
741.444	24887.07
741.784	24848.88
742.124	24750.58
742.464	24775.21
742.804	24771.14
743.143	24623.35
743.483	24699.96
743.823	24622.9
744.162	24585.84
744.502	24627.19
744.841	24538.38
745.181	24546.29
745.52	24440.3
745.86	24392.17
746.199	24439.4
746.538	24335.22
746.877	24374.77
747.216	24350.59
747.556	24320.31
747.895	24245.51
748.234	24048
748.573	24031.05
748.911	24104.04
749.25	23990.37
749.589	23956.47
749.928	24067.43
750.267	24057.71
750.605	24040.77
750.944	23882.13
751.283	23868.34
751.621	23941.11
751.96	23728.23
752.298	23675.8
752.636	23709.93
752.975	23585.18
753.313	23583.83
753.651	23529.59
753.989	23487.56
754.327	23495.24
754.666	23325.76
755.004	23335.93
755.342	23276.27
755.679	23361.01
756.017	23208.02
756.355	23145.2
756.693	23141.81
757.031	23175.48
757.368	22972.55
757.706	22899.78
758.044	22833.11
758.381	22861.81
758.719	22809.84
759.056	22878.31
759.394	22558.32
759.731	22518.32
760.068	22502.28
760.405	22428.61
760.743	22344.54
761.08	22358.32
761.417	22221.83
761.754	22212.79
762.091	22187.03
762.428	22038.11
762.765	22021.84
763.102	22038.33
763.438	21861.16
763.775	21847.15
764.112	21823.2
764.449	21749.98
764.785	21741.39
765.122	21685.57
765.458	21605.12
765.795	21398.8
766.131	21421.4
766.467	21308.86
766.804	21291.01
767.14	21176.89
767.476	21187.73
767.812	21100.05
768.148	21208.3
768.485	20791.59
768.821	20888.76
769.157	20853.05
769.492	20782.32
769.828	20752.27
770.164	20586.85
770.5	20485.38
770.836	20439.5
771.171	20362.22
771.507	20342.11
771.842	20129.23
772.178	20246.29
772.513	20113.19
772.849	20072.06
773.184	19991.83
773.519	20029.57
773.855	19871.38
774.19	19735.79
774.525	19720.2
774.86	19679.52
775.195	19640.88
775.53	19540.09
775.865	19369.7
776.2	19268.01
776.535	19216.71
776.87	19152.76
777.205	19130.84
777.539	18987.11
777.874	19029.15
778.209	19029.15
778.543	18846.1
778.878	18683.39
779.212	18652.89
779.547	18545.32
779.881	18653.79
780.215	18498.77
780.55	18558.65
780.884	18409.95
781.218	18354.81
781.552	18389.39
781.886	18230.3
782.22	18176.97
782.554	18108.94
782.888	17944.2
783.222	17955.95
783.556	17848.16
783.889	17715.51
784.223	17612.23
784.557	17748.5
784.89	17638.9
785.224	17588.51
785.557	17460.83
785.891	17432.35
786.224	17336.54
786.558	17389.64
786.891	17292.92
787.224	17151
787.557	17026.49
787.891	17102.19
788.224	17138.35
788.557	16995.98
788.89	17028.52
789.223	16945.36
789.556	16782.2
789.888	16770.45
790.221	16668.08
790.554	16532.04
790.887	16495.43
791.219	16441.64
791.552	16421.98
791.884	16412.49
792.217	16300.86
792.549	16216.79
792.882	16165.27
793.214	16146.06
793.546	16153.52
793.879	15991.71
794.211	15939.28
794.543	15962.33
794.875	15931.6
795.207	15917.36
795.539	15802.11
795.871	15783.81
796.203	15658.84
796.535	15610.93
796.867	15600.54
797.198	15539.07
797.53	15535.23
797.862	15284.84
798.193	15469.24
798.525	15351.5
798.856	15292.52
799.188	15196.25
799.519	15105.86
799.85	15157.16
800.182	15121.45
800.513	15070.15
800.844	14871.06
801.175	15049.14
801.506	14944.06
801.837	14846.66
802.168	14830.84
802.499	14817.51
802.83	14624.06
803.161	14649.6
803.491	14707
803.822	14625.65
804.153	14540.45
804.483	14420.91
804.814	14394.92
805.145	14388.14
805.475	14389.49
805.805	14350.63
806.136	14214.81
806.466	14285.32
806.796	14163.06
807.126	14081.71
807.457	14114.25
807.787	14073.34
808.117	14017.75
808.447	13940.92
808.777	14096.85
809.107	13959.9
809.436	13896.63
809.766	13838.77
810.096	13778.44
810.426	13871.77
810.755	13767.59
811.085	13717.42
811.414	13690.3
811.744	13628.16
812.073	13584.09
812.403	13603.75
812.732	13453.02
813.061	13460.93
813.39	13464.77
813.719	13360.37
814.049	13420.71
814.378	13428.16
814.707	13337.32
815.036	13269.98
815.365	13184.1
815.693	13136.65
816.022	13172.13
816.351	13072.24
816.68	13034.28
817.008	13095.29
817.337	12943.2
817.665	12962.41
817.994	12940.04
818.322	12950.21
818.651	12899.36
818.979	12738.01
819.307	12844
819.636	12815.3
819.964	12771.46
820.292	12806.26
820.62	12769.2
820.948	12664.57
821.276	12825.92
821.604	12724.68
821.932	12684
822.259	12705.02
822.587	12636.09
822.915	12627.96
823.243	12673.83
823.57	12623.67
823.898	12626.38
824.225	12660.05
824.553	12639.03
824.88	12545.25
825.207	12579.37
825.535	12678.81
825.862	12709.09
826.189	12593.16
826.516	12566.04
826.843	12701.18
827.17	12646.04
827.497	12705.92
827.824	12648.75
828.151	12647.17
828.478	12580.73
828.805	12673.83
829.131	12565.14
829.458	12577.11
829.785	12495.08
830.111	12581.41
830.438	12653.72
830.764	12647.17
831.09	12636.32
831.417	12525.59
831.743	12613.5
832.069	12587.06
832.395	12511.13
832.722	12525.81
833.048	12510.67
833.374	12554.06
833.7	12432.94
834.026	12471.35
834.351	12581.41
834.677	12448.75
835.003	12475.19
835.329	12467.29
835.654	12477.91
835.98	12437.91
836.306	12414.41
836.631	12401.52
836.956	12368.3
837.282	12434.97
837.607	12331.24
837.932	12308.19
838.258	12270.23
838.583	12289.21
838.908	12214.64
839.233	12270.45
839.558	12243.79
839.883	12143
840.208	12096
840.533	12069.78
840.858	12153.62
841.182	12088.31
841.507	12115.2
841.832	12093.28
842.156	12002.66
842.481	12060.97
842.805	11949.33
843.13	11974.19
843.454	11916.11
843.778	11776
844.103	11899.39
844.427	11816.45
844.751	11869.79
845.075	11768.32
845.399	11766.29
845.723	11696.01
846.047	11675.67
846.371	11575.56
846.695	11536.24
847.019	11487.88
847.343	11456.46
847.666	11428.89
847.99	11340.99
848.313	11300.54
848.637	11277.26
848.96	11184.61
849.284	11211.27
849.607	11137.83
849.931	11145.74
850.254	11008.11
850.577	10964.05
850.9	10908.91
851.223	10908.91
851.546	10731.29
851.869	10735.35
852.192	10772.64
852.515	10754.56
852.838	10677.95
853.161	10679.08
853.483	10632.98
853.806	10621.01
854.129	10592.08
854.451	10561.35
854.774	10452.42
855.096	10449.49
855.419	10407.45
855.741	10329.04
856.063	10352.31
856.385	10311.41
856.708	10268.92
857.03	10248.36
857.352	10249.94
857.674	10235.03
857.996	10211.75
858.318	10146.89
858.64	10118.19
858.961	10104.64
859.283	9983.28
859.605	10045.65
859.926	9937.86
860.248	9931.98
860.57	9921.59
860.891	9913.45
861.212	9840.46
861.534	9830.07
861.855	9841.14
862.176	9866.22
862.498	9835.94
862.819	9838.43
863.14	9737.19
863.461	9797.07
863.782	9752.55
864.103	9781.48
864.424	9661.71
864.745	9800.01
865.065	9653.12
865.386	9656.74
865.707	9656.06
866.027	9646.34
866.348	9592.56
866.668	9583.75
866.989	9535.61
867.309	9501.49
867.63	9511.88
867.95	9499.91
868.27	9448.61
868.59	9478.44
868.91	9465.1
869.23	9411.77
869.55	9368.38
869.87	9452
870.19	9430.08
870.51	9376.97
870.83	9427.14
871.15	9384.2
871.469	9293.58
871.789	9384.65
872.109	9388.27
872.428	9317.76
872.748	9299.46
873.067	9312.79
873.386	9236.41
873.706	9263.53
874.025	9179.01
874.344	9212.23
874.663	9226.01
874.982	9162.74
875.301	9160.03
875.62	9122.97
875.939	9103.08
876.258	9077.09
876.577	9062.63
876.896	9089.52
877.214	9029.18
877.533	9080.93
877.852	8970.65
878.17	9007.49
878.489	8943.31
878.807	8997.77
879.125	8967.94
879.444	8967.26
879.762	9006.59
880.08	8994.61
880.398	8936.76
880.716	8917.1
881.034	8899.7
881.352	8889.07
881.67	8843.65
881.988	8876.65
882.306	8758.46
882.624	8782.18
882.941	8699.47
883.259	8759.81
883.577	8734.95
883.894	8711.23
884.212	8700.38
884.529	8666.71
884.846	8652.92
885.164	8643.88
885.481	8585.35
885.798	8551.23
886.115	8518.46
886.432	8516.88
886.75	8529.31
887.067	8476.2
887.383	8461.51
887.7	8474.4
888.017	8406.15
888.334	8449.76
888.651	8413.15
888.967	8375.87
889.284	8317.56
889.6	8365.92
889.917	8263.78
890.233	8314.85
890.55	8231.46
890.866	8282.76
891.182	8264.01
891.498	8212.26
891.815	8184.69
892.131	8124.12
892.447	8169.77
892.763	8091.58
893.079	8087.29
893.395	8031.24
893.71	8021.75
894.026	8021.75
894.342	7992.83
894.657	7898.82
894.973	7910.34
895.289	7922.55
895.604	7904.24
895.92	7828.99
896.235	7795.77
896.55	7766.39
896.865	7807.29
897.181	7735.43
897.496	7763.23
897.811	7647.3
898.126	7682.78
898.441	7689.56
898.756	7595.32
899.071	7531.37
899.386	7571.82
899.7	7524.36
900.015	7473.52
900.33	7496.57
900.644	7412.95
900.959	7469.22
901.273	7428.55
901.588	7393.75
901.902	7380.87
902.216	7302.22
902.531	7320.53
902.845	7290.7
903.159	7266.97
903.473	7233.75
903.787	7198.05
904.101	7092.06
904.415	7109.01
904.729	7085.96
905.042	7033.3
905.356	7015.45
905.67	7022.23
905.984	7029.01
906.297	7000.31
906.611	6949.92
906.924	6917.83
907.237	6915.79
907.551	6930.26
907.864	6858.85
908.177	6805.97
908.491	6845.29
908.804	6755.34
909.117	6713.76
909.43	6713.54
909.743	6664.05
910.056	6639.87
910.368	6620.43
910.681	6621.79
910.994	6590.15
911.307	6540.44
911.619	6495.24
911.932	6518.29
912.244	6451.4
912.557	6441.45
912.869	6463.38
913.181	6465.64
913.494	6406.2
913.806	6294.11
914.118	6303.15
914.43	6228.35
914.742	6370.27
915.054	6271.52
915.366	6163.04
915.678	6194.23
915.99	6179.31
916.302	6141.12
916.613	6106.55
916.925	6125.31
917.236	6036.95
917.548	6020.45
917.859	6042.82
918.171	6002.6
918.482	5998.08
918.794	5959.66
919.105	5916.72
919.416	5895.48
919.727	5897.51
920.038	5853.22
920.349	5839.44
920.66	5827.46
920.971	5751.08
921.282	5725.77
921.593	5759.21
921.903	5719.67
922.214	5663.4
922.525	5669.27
922.835	5629.72
923.146	5611.42
923.456	5593.57
923.767	5572.55
924.077	5581.59
924.387	5483.97
924.697	5521.48
925.008	5498.2
925.318	5467.7
925.628	5446.23
925.938	5440.8
926.248	5348.6
926.558	5366.45
926.867	5359.22
927.177	5330.98
927.487	5283.97
927.796	5249.62
928.106	5323.52
928.416	5274.93
928.725	5210.07
929.034	5179.57
929.344	5220.24
929.653	5162.84
929.962	5119.46
930.271	5144.54
930.581	5062.73
930.89	5029.51
931.199	5036.97
931.508	5038.1
931.817	4959.23
932.125	5001.94
932.434	4978.67
932.743	4882.63
933.051	4903.19
933.36	4835.4
933.669	4824.1
933.977	4817.09
934.286	4856.19
934.594	4808.28
934.902	4796.53
935.21	4753.36
935.519	4743.65
935.827	4759.92
936.135	4692.8
936.443	4704.33
936.751	4629.07
937.059	4607.6
937.367	4586.81
937.674	4646.25
937.982	4604.22
938.29	4553.82
938.597	4544.78
938.905	4560.15
939.213	4507.27
939.52	4505.91
939.827	4514.05
940.135	4441.51
940.442	4403.32
940.749	4416.88
941.056	4427.5
941.363	4385.92
941.67	4368.06
941.977	4380.72
942.284	4292.36
942.591	4269.76
942.898	4302.75
943.205	4255.75
943.511	4237.9
943.818	4246.48
944.125	4228.63
944.431	4175.3
944.738	4194.96
945.044	4177.56
945.35	4166.49
945.657	4091.01
945.963	4088.52
946.269	4084.45
946.575	4075.42
946.881	4051.69
947.187	4045.59
947.493	4014.4
947.799	3988.64
948.105	4003.78
948.41	3975.98
948.716	3946.83
949.022	3924.91
949.327	3921.07
949.633	3882.65
949.938	3897.79
950.244	3897.57
950.549	3855.08
950.854	3850.79
951.16	3797.23
951.465	3829.55
951.77	3806.5
952.075	3764.24
952.38	3766.27
952.685	3762.2
952.99	3719.49
953.294	3670.68
953.599	3697.8
953.904	3647.4
954.209	3630.23
954.513	3637.23
954.818	3586.16
955.122	3647.86
955.426	3630
955.731	3584.35
956.035	3564.47
956.339	3550.23
956.643	3552.94
956.948	3498.71
957.252	3514.98
957.556	3519.95
957.86	3477.01
958.163	3477.24
958.467	3447.18
958.771	3446.28
959.075	3415.09
959.378	3437.24
959.682	3377.13
959.985	3344.36
960.289	3307.3
960.592	3345.27
960.896	3354.76
961.199	3308.43
961.502	3308.2
961.805	3302.55
962.108	3246.96
962.411	3284.93
962.714	3210.13
963.017	3241.77
963.32	3264.36
963.623	3217.81
963.926	3175.55
964.228	3164.7
964.531	3168.77
964.833	3140.07
965.136	3147.53
965.438	3054.88
965.741	3118.83
966.043	3087.42
966.345	3059.85
966.648	3067.76
966.95	3051.04
967.252	3051.04
967.554	3039.51
967.856	3025.27
968.158	2994.31
968.46	2980.53
968.761	3014.2
969.063	2960.19
969.365	2945.28
969.666	2958.83
969.968	2945.28
970.269	2909.8
970.571	2924.49
970.872	2869.8
971.174	2864.37
971.475	2867.09
971.776	2867.31
972.077	2793.64
972.378	2813.08
972.679	2822.57
972.98	2805.84
973.281	2814.88
973.582	2811.95
973.883	2766.3
974.183	2740.08
974.484	2741.67
974.785	2728.78
975.085	2712.06
975.386	2755
975.686	2735.56
975.986	2687.88
976.287	2698.05
976.587	2654.89
976.887	2635.23
977.187	2644.94
977.487	2641.33
977.787	2608.11
978.087	2635
978.387	2605.85
978.687	2600.88
978.987	2537.15
979.286	2572.63
979.586	2555.46
979.885	2507.55
980.185	2520.88
980.484	2533.54
980.784	2521.78
981.083	2497.83
981.382	2501.22
981.682	2468.23
981.981	2473.88
982.28	2419.87
982.579	2430.03
982.878	2395.46
983.177	2436.81
983.475	2435.46
983.774	2358.17
984.073	2393.65
984.372	2374.67
984.67	2413.09
984.969	2379.87
985.267	2329.47
985.566	2339.64
985.864	2313.88
986.162	2327.89
986.461	2326.08
986.759	2304.84
987.057	2279.08
987.355	2264.62
987.653	2258.06
987.951	2239.31
988.249	2253.77
988.547	2238.63
988.844	2230.49
989.142	2236.59
989.44	2230.72
989.737	2226.2
990.035	2201.11
990.332	2164.28
990.63	2183.71
990.927	2147.1
991.224	2118.18
991.521	2115.02
991.819	2128.35
992.116	2129.93
992.413	2133.77
992.71	2116.37
993.006	2118.86
993.303	2076.82
993.6	2073.21
993.897	2088.58
994.193	2062.59
994.49	2085.41
994.787	2050.16
995.083	2014
995.379	2015.58
995.676	2006.32
995.972	2016.03
996.268	1977.17
996.565	1984.4
996.861	1957.96
997.157	1976.04
997.453	1967.22
997.749	1945.3
998.044	1916.38
998.34	1950.95
998.636	1916.38
998.932	1941.91
999.227	1886.77
999.523	1875.93
999.818	1863.5
1000.114	1875.93
1000.409	1873.89
1000.704	1862.82
1001	1817.4
1001.295	1830.5
1001.59	1813.55
1001.885	1810.84
1002.18	1757.28
1002.475	1803.61
1002.77	1774.91
1003.065	1770.17
1003.359	1774.23
1003.654	1743.5
1003.949	1738.3
1004.243	1755.02
1004.538	1713.9
1004.832	1700.34
1005.127	1741.01
1005.421	1697.4
1005.715	1683.16
1006.009	1685.65
1006.304	1712.31
1006.598	1642.49
1006.892	1643.16
1007.186	1662.6
1007.48	1624.18
1007.773	1642.03
1008.067	1629.38
1008.361	1600.23
1008.655	1599.1
1008.948	1610.4
1009.242	1584.41
1009.535	1556.84
1009.829	1587.8
1010.122	1555.48
1010.415	1558.19
1010.708	1528.82
1011.001	1548.7
1011.295	1528.59
1011.588	1541.7
1011.881	1504.86
1012.173	1487.01
1012.466	1502.6
1012.759	1500.57
1013.052	1498.76
1013.344	1457.18
1013.637	1431.87
1013.93	1460.12
1014.222	1446.11
1014.514	1451.08
1014.807	1418.76
1015.099	1421.47
1015.391	1400.68
1015.683	1405.2
1015.976	1400.91
1016.268	1388.03
1016.56	1381.7
1016.851	1376.28
1017.143	1367.01
1017.435	1352.32
1017.727	1327.69
1018.018	1335.37
1018.31	1342.83
1018.602	1321.59
1018.893	1330.4
1019.185	1321.82
1019.476	1298.54
1019.767	1311.87
1020.058	1273.68
1020.35	1265.77
1020.641	1260.8
1020.932	1274.36
1021.223	1254.92
1021.514	1258.09
1021.804	1226
1022.095	1219.9
1022.386	1236.39
1022.677	1227.13
1022.967	1202.27
1023.258	1201.59
1023.548	1203.4
1023.839	1200.91
1024.129	1177.19
1024.419	1187.81
1024.709	1174.25
1025	1173.57
1025.29	1162.05
1025.58	1148.71
1025.87	1123.63
1026.16	1135.38
1026.449	1117.98
1026.739	1108.04
1027.029	1122.72
1027.319	1103.97
1027.608	1119.11
1027.898	1091.54
1028.187	1093.35
1028.477	1077.75
1028.766	1050.86
1029.055	1072.78
1029.344	1044.53
1029.634	1028.26
1029.923	1067.81
1030.212	1055.38
1030.501	1039.11
1030.79	1062.84
1031.078	1031.43
1031.367	1033.69
1031.656	1015.16
1031.945	1016.29
1032.233	1011.77
1032.522	990.75
1032.81	983.52
1033.099	973.35
1033.387	950.98
1033.675	985.78
1033.963	944.88
1034.251	973.12
1034.54	927.25
1034.828	927.25
1035.116	969.06
1035.403	940.81
1035.691	895.16
1035.979	908.04
1036.267	904.88
1036.554	908.04
1036.842	908.04
1037.129	910.3
1037.417	898.1
1037.704	886.35
1037.992	871.66
1038.279	870.3
1038.566	854.48
1038.853	854.48
1039.14	854.48
