Data from hue_34_FLMS001491_00084.txt Node
Date: Tue Feb 07 17:26:19 GMT 2017
User: dcchb
Spectrometer: FLMS00149
Trigger mode: 0
Integration Time (sec): 2.000000E-2
Scans to average: 10
Electric dark correction enabled: true
Nonlinearity correction enabled: false
Boxcar width: 0
XAxis mode: Wavelengths
Number of Pixels in Spectrum: 2048
>>>>>Begin Spectral Data<<<<<
341.393	-12.84
341.776	-12.84
342.16	-12.84
342.543	-43.8
342.927	-76.11
343.31	-64.59
343.693	-56.68
344.077	-73.85
344.46	-54.65
344.843	-62.1
345.226	-51.03
345.61	-22.56
345.993	-30.47
346.376	-2.9
346.759	12.25
347.142	38.23
347.525	35.75
347.908	51.79
348.291	68.97
348.674	101.06
349.057	110.77
349.44	121.4
349.823	138.34
350.206	188.74
350.588	187.83
350.971	221.96
351.354	238.91
351.737	236.19
352.119	251.34
352.502	261.05
352.884	285.01
353.267	300.83
353.65	297.89
354.032	298.57
354.414	311.22
354.797	331.33
355.179	328.85
355.562	336.53
355.944	336.3
356.326	322.29
356.709	350.54
357.091	351.67
357.473	362.52
357.855	341.05
358.238	344.44
358.62	351.67
359.002	350.99
359.384	335.17
359.766	359.13
360.148	345.57
360.53	367.72
360.912	346.93
361.294	336.08
361.676	324.55
362.057	333.59
362.439	343.31
362.821	349.19
363.203	327.94
363.584	332.46
363.966	331.11
364.348	330.2
364.729	319.58
365.111	324.78
365.493	327.49
365.874	327.94
366.256	321.16
366.637	324.78
367.019	319.81
367.4	325.23
367.781	348.51
368.163	324.1
368.544	316.19
368.925	311.67
369.306	334.27
369.688	332.01
370.069	302.86
370.45	318.23
370.831	334.27
371.212	322.29
371.593	296.53
371.974	342.86
372.355	318.9
372.736	303.99
373.117	315.06
373.498	304.89
373.879	324.78
374.26	334.95
374.641	311.22
375.021	325.23
375.402	332.01
375.783	325.68
376.163	319.58
376.544	340.82
376.925	322.07
377.305	338.11
377.686	335.4
378.066	319.36
378.447	344.89
378.827	342.18
379.208	351.45
379.588	327.94
379.968	331.11
380.349	345.12
380.729	345.34
381.109	334.5
381.489	324.1
381.87	341.5
382.25	334.27
382.63	362.74
383.01	347.38
383.39	342.41
383.77	339.92
384.15	334.27
384.53	351.67
384.91	357.55
385.29	353.71
385.67	327.04
386.049	337.89
386.429	348.73
386.809	364.1
387.189	358.68
387.568	360.48
387.948	371.56
388.328	364.78
388.707	362.74
389.087	375.63
389.466	371.56
389.846	362.52
390.225	348.96
390.605	362.07
390.984	360.26
391.363	349.64
391.743	363.2
392.122	373.37
392.501	358.23
392.881	396.87
393.26	383.08
393.639	396.19
394.018	399.58
394.397	385.57
394.776	390.77
395.155	367.72
395.534	395.29
395.913	372.24
396.292	412.69
396.671	405.46
397.05	383.99
397.429	399.35
397.808	396.64
398.186	400.94
398.565	398
398.944	393.03
399.323	395.74
399.701	389.18
400.08	400.94
400.458	418.34
400.837	392.12
401.215	414.04
401.594	387.83
401.972	384.44
402.351	400.71
402.729	404.55
403.107	402.07
403.486	412.23
403.864	408.62
404.242	420.14
404.62	420.37
404.999	420.37
405.377	421.5
405.755	405.46
406.133	421.27
406.511	426.7
406.889	440.93
407.267	427.38
407.645	452.46
408.023	464.66
408.401	440.26
408.779	448.62
409.156	436.19
409.534	452.23
409.912	470.99
410.29	459.47
410.667	454.72
411.045	453.14
411.422	466.24
411.8	458.34
412.178	462.63
412.555	463.53
412.933	474.83
413.31	492.46
413.687	480.71
414.065	470.31
414.442	488.84
414.819	488.62
415.197	487.71
415.574	499.92
415.951	501.5
416.328	502.63
416.705	501.72
417.082	511.67
417.46	517.32
417.837	491.33
418.214	489.07
418.591	520.25
418.967	495.4
419.344	518.45
419.721	536.75
420.098	509.18
420.475	535.85
420.852	533.59
421.228	507.6
421.605	542.18
421.982	536.3
422.358	541.27
422.735	526.81
423.111	565.9
423.488	562.74
423.864	544.66
424.241	562.29
424.617	559.35
424.994	581.04
425.37	560.93
425.746	560.48
426.123	573.81
426.499	575.17
426.875	589.86
427.251	554.38
427.627	590.54
428.003	606.13
428.379	565.9
428.756	600.7
429.132	607.26
429.507	604.32
429.883	616.75
430.259	600.03
430.635	650.42
431.011	634.83
431.387	624.21
431.763	646.35
432.138	637.77
432.514	641.16
432.89	668.05
433.265	646.35
433.641	653.81
434.016	654.04
434.392	700.81
434.767	664.88
435.143	672.34
435.518	680.48
435.894	661.04
436.269	701.27
436.644	706.01
437.02	696.52
437.395	716.41
437.77	726.12
438.145	716.86
438.52	729.29
438.895	728.38
439.271	721.15
439.646	745.33
440.021	758.67
440.395	750.31
440.77	753.02
441.145	753.69
441.52	761.83
441.895	788.04
442.27	759.57
442.645	755.73
443.019	771.55
443.394	771.1
443.769	783.07
444.143	768.84
444.518	791.21
444.892	768.38
445.267	800.93
445.641	839.79
446.016	785.11
446.39	806.12
446.764	831.21
447.139	812.45
447.513	837.99
447.887	810.87
448.262	828.72
448.636	828.04
449.01	854.03
449.384	841.83
449.758	835.27
450.132	845.67
450.506	856.29
450.88	843.41
451.254	837.08
451.628	884.09
452.002	880.47
452.376	882.96
452.75	890.87
453.123	902.62
453.497	908.27
453.871	901.26
454.244	936.74
454.618	952.79
454.992	941.71
455.365	941.94
455.739	961.82
456.112	986.46
456.486	983.29
456.859	993.69
457.232	991.65
457.606	986.46
457.979	1014.03
458.352	1025.55
458.725	1033.46
459.099	1032.56
459.472	1047.02
459.845	1039.11
460.218	1106.68
460.591	1093.8
460.964	1066.46
461.337	1084.99
461.71	1100.35
462.083	1138.32
462.456	1149.84
462.829	1143.06
463.201	1189.62
463.574	1186
463.947	1169.05
464.32	1206.56
464.692	1227.58
465.065	1219.9
465.438	1254.25
465.81	1245.43
466.183	1282.49
466.555	1305.54
466.928	1311.87
467.3	1327.69
467.672	1350.52
468.045	1368.59
468.417	1373.79
468.789	1373.11
469.161	1418.31
469.534	1425.32
469.906	1440.46
470.278	1444.3
470.65	1476.61
471.022	1497.4
471.394	1538.08
471.766	1574.92
472.138	1574.69
472.51	1636.61
472.882	1626.89
473.253	1656.5
473.625	1727.45
473.997	1748.7
474.369	1760
474.74	1768.13
475.112	1799.54
475.484	1856.49
475.855	1886.55
476.227	1912.31
476.598	1966.77
476.97	2002.02
477.341	2065.75
477.713	2101.91
478.084	2103.72
478.455	2197.95
478.827	2232.75
479.198	2310.26
479.569	2300.09
479.94	2369.25
480.311	2435.01
480.682	2480.66
481.053	2570.6
481.424	2614.44
481.795	2651.5
482.166	2713.19
482.537	2755
482.908	2863.92
483.279	2945.05
483.65	2981.66
484.021	3071.83
484.391	3094.2
484.762	3185.27
485.133	3292.16
485.503	3359.95
485.874	3436.56
486.244	3457.8
486.615	3547.52
486.985	3668.19
487.356	3748.42
487.726	3799.94
488.097	3900.28
488.467	3952.25
488.837	4016.21
489.207	4156.32
489.578	4202.19
489.948	4265.01
490.318	4391.79
490.688	4461.62
491.058	4549.3
491.428	4664.1
491.798	4694.16
492.168	4862.06
492.538	4839.01
492.908	5029.97
493.278	5060.7
493.648	5102.51
494.017	5241.26
494.387	5293.01
494.757	5322.16
495.126	5429.96
495.496	5516.96
495.866	5646.9
496.235	5697.07
496.605	5748.82
496.974	5824.97
497.344	5950.62
497.713	5930.96
498.082	6003.05
498.452	6123.5
498.821	6185.87
499.19	6271.74
499.559	6277.39
499.928	6426.09
500.298	6460.21
500.667	6551.06
501.036	6551.51
501.405	6666.53
501.774	6723.26
502.143	6770.49
502.512	6874.66
502.88	6921.67
503.249	6936.36
503.618	7019.52
503.987	7132.51
504.356	7097.03
504.724	7205.05
505.093	7242.11
505.462	7308.1
505.83	7384.93
506.199	7458.15
506.567	7524.82
506.936	7548.54
507.304	7649.56
507.672	7737.69
508.041	7742.21
508.409	7847.29
508.777	7860.63
509.145	7967.29
509.514	7997.12
509.882	8058.36
510.25	8058.14
510.618	8133.16
510.986	8137.46
511.354	8312.82
511.722	8276.43
512.09	8461.74
512.458	8393.04
512.826	8489.76
513.193	8481.63
513.561	8584
513.929	8625.13
514.297	8705.58
514.664	8769.53
515.032	8783.77
515.4	8873.03
515.767	8920.26
516.135	8911.45
516.502	8855.85
516.869	9042.74
517.237	9004.33
517.604	9072.8
517.972	9110.76
518.339	9164.32
518.706	9247.48
519.073	9223.98
519.44	9295.62
519.808	9419.23
520.175	9390.98
520.542	9510.75
520.909	9597.3
521.276	9535.38
521.643	9671.65
522.009	9680.24
522.376	9768.83
522.743	9802.27
523.11	9913.68
523.477	10035.94
523.843	10044.52
524.21	10129.04
524.577	10209.72
524.943	10206.1
525.31	10256.95
525.676	10350.28
526.043	10416.04
526.409	10459.65
526.776	10550.27
527.142	10609.93
527.508	10684.96
527.874	10705.52
528.241	10747.33
528.607	10856.48
528.973	10931.51
529.339	10855.35
529.705	10987.1
530.071	11170.37
530.437	11119.75
530.803	11185.06
531.169	11247.66
531.535	11238.39
531.901	11364.94
532.267	11361.1
532.632	11409.91
532.998	11509.34
533.364	11526.29
533.73	11621.21
534.095	11724.93
534.461	11671.15
534.826	11785.95
535.192	11778.04
535.557	11884.02
535.923	11875.89
536.288	11937.13
536.653	12004.25
537.019	11873.85
537.384	12044.25
537.749	12074.98
538.114	12173.73
538.479	12213.28
538.845	12226.39
539.21	12219.16
539.575	12395.2
539.94	12375.99
540.305	12456.44
540.67	12472.93
541.034	12535.76
541.399	12542.99
541.764	12574.18
542.129	12693.27
542.494	12700.73
542.858	12717
543.223	12824.11
543.587	12901.17
543.952	12918.8
544.316	12992.47
544.681	12933.26
545.045	13064.11
545.41	13094.16
545.774	13113.37
546.138	13204.67
546.503	13233.82
546.867	13250.54
547.231	13385
547.595	13391.33
547.959	13457.99
548.324	13498.67
548.688	13559.23
549.052	13512
549.416	13651.21
549.779	13601.72
550.143	13679.68
550.507	13765.78
550.871	13782.05
551.235	13742.05
551.599	13958.09
551.962	13895.27
552.326	13956.74
552.689	14027.47
553.053	14056.62
553.417	14194.25
553.78	14218.43
554.143	14140.91
554.507	14187.01
554.87	14316.95
555.234	14441.92
555.597	14425.43
555.96	14352.43
556.323	14549.26
556.686	14465.2
557.05	14505.88
557.413	14637.85
557.776	14674.68
558.139	14715.36
558.502	14763.5
558.865	14872.65
559.228	14914.23
559.59	15050.95
559.953	14976.82
560.316	15203.03
560.679	15211.39
561.041	15214.33
561.404	15172.98
561.767	15317.61
562.129	15294.1
562.492	15408.22
562.854	15447.55
563.217	15506.75
563.579	15517.37
563.941	15563.47
564.304	15722.57
564.666	15736.35
565.028	15757.82
565.39	15776.12
565.753	15920.08
566.115	15907.42
566.477	15980.87
566.839	16026.06
567.201	16186.06
567.563	16233.51
567.925	16323.68
568.287	16299.5
568.648	16277.81
569.01	16372.04
569.372	16502.21
569.734	16431.93
570.095	16665.37
570.457	16628.31
570.819	16766.16
571.18	16751.69
571.542	16880.95
571.903	16951.01
572.265	16998.01
572.626	17077.11
572.987	17141.96
573.349	17248.85
573.71	17330.21
574.071	17340.83
574.432	17463.31
574.794	17667.37
575.155	17652.91
575.516	17673.93
575.877	17867.6
576.238	17856.97
576.599	18004.77
576.96	18088.83
577.32	18249.96
577.681	18423.74
578.042	18536.73
578.403	18593.68
578.763	18790.96
579.124	18882.48
579.485	19030.28
579.845	19180.33
580.206	19333.09
580.566	19422.13
580.927	19645.63
581.287	19809.92
581.648	19827.54
582.008	20157.03
582.368	20175.78
582.728	20322.45
583.089	20467.75
583.449	20703.9
583.809	20909.55
584.169	21087.4
584.529	21343.89
584.889	21489.65
585.249	21726.48
585.609	21782.29
585.969	22175.05
586.329	22226.35
586.688	22573.01
587.048	22763.96
587.408	22910.4
587.768	23226.55
588.127	23417.05
588.487	23521.46
588.846	23896.36
589.206	23935.91
589.565	24240.08
589.925	24478.49
590.284	24816.11
590.643	25042.32
591.003	25238.25
591.362	25520.73
591.721	25882.07
592.08	25927.72
592.44	26390.08
592.799	26508.27
593.158	26798.66
593.517	27082.04
593.876	27285.2
594.235	27517.28
594.593	27701.01
594.952	28017.61
595.311	28188.23
595.67	28503.93
596.029	28820.3
596.387	29113.63
596.746	29423.22
597.104	29442.21
597.463	29784.8
597.822	30064.11
598.18	30105.47
598.538	30464.55
598.897	30821.15
599.255	30736.18
599.613	31372.55
599.972	31365.09
600.33	31732.09
600.688	31657.97
601.046	32017.96
601.404	32370.94
601.762	32586.08
602.12	32885.73
602.478	32948.33
602.836	33206.85
603.194	33277.36
603.552	33607.29
603.91	33473.29
604.268	33854.07
604.625	34007.51
604.983	34291.34
605.341	34189.2
605.698	34616.31
606.056	34819.01
606.413	34929.07
606.771	35108.05
607.128	35386.68
607.485	35382.39
607.843	35492.44
608.2	35903.73
608.557	36060.56
608.914	36047.91
609.272	36432.98
609.629	36714.11
609.986	36874.78
610.343	36848.34
610.7	37024.61
611.057	37043.59
611.414	37302.79
611.771	37386.18
612.127	37616
612.484	37738.26
612.841	37990.68
613.198	37932.15
613.554	38025.94
613.911	38366.49
614.267	38547.5
614.624	38437.22
614.98	38555.19
615.337	38860.26
615.693	38872.24
616.05	38859.81
616.406	39345.45
616.762	39298.22
617.118	39328.95
617.475	39561.71
617.831	39672.67
618.187	39794.93
618.543	39700.02
618.899	40082.15
619.255	40197.86
619.611	40234.24
619.967	40265.2
620.323	40556.72
620.678	40403.05
621.034	40315.82
621.39	40350.17
621.746	40505.64
622.101	41033.54
622.457	40762.59
622.812	40808.91
623.168	41006.65
623.523	41024.95
623.879	41258.39
624.234	40970.72
624.589	41267.66
624.945	41342.46
625.3	41337.26
625.655	41331.84
626.01	41399.86
626.365	41291.84
626.72	41444.15
627.075	41457.94
627.43	41469.46
627.785	41551.72
628.14	41635.33
628.495	41739.51
628.85	41572.51
629.205	41586.97
629.559	41772.73
629.914	41713.97
630.269	41786.06
630.623	41647.99
630.978	41571.83
631.332	41742.67
631.687	41961.42
632.041	41822.67
632.396	41828.77
632.75	41703.13
633.104	41818.38
633.459	41621.77
633.813	41573.86
634.167	41758.94
634.521	41694.31
634.875	41738.61
635.229	41752.39
635.583	41720.75
635.937	41516.24
636.291	41659.96
636.645	41656.57
636.999	41540.87
637.352	41660.42
637.706	41486.18
638.06	41734.99
638.413	41712.17
638.767	41491.83
639.121	41628.55
639.474	41457.94
639.828	41437.82
640.181	41409.12
640.534	41559.63
640.888	41553.3
641.241	41395.34
641.594	41420.2
641.947	41396.02
642.301	41351.27
642.654	41301.56
643.007	41311.05
643.36	41435.79
643.713	41355.11
644.066	41492.74
644.419	41289.58
644.771	41026.31
645.124	40608.92
645.477	40598.97
645.83	40308.59
646.182	40085.32
646.535	40052.32
646.888	40303.62
647.24	39930.74
647.593	40208.7
647.945	40121.02
648.298	39892.55
648.65	39837.64
649.002	39831.76
649.355	40088.93
649.707	39935.94
650.059	40010.29
650.411	40473.55
650.763	40604.4
651.115	41024.27
651.467	40736.6
651.819	40802.81
652.171	40820.66
652.523	40819.76
652.875	40788.12
653.227	40654.57
653.578	40890.04
653.93	40780.89
654.282	40603.72
654.633	40501.35
654.985	40566.43
655.337	40692.53
655.688	40702.93
656.039	40731.17
656.391	40337.74
656.742	40523.04
657.094	40577.51
657.445	40680.55
657.796	40545.19
658.147	40420.9
658.498	40379.77
658.849	40586.09
659.2	40521.69
659.551	40485.53
659.902	40502.03
660.253	40479.66
660.604	40522.37
660.955	40143.17
661.306	40417.06
661.656	40331.86
662.007	40336.61
662.358	40452.99
662.708	40523.72
663.059	40476.72
663.409	40273.11
663.76	40517.85
664.11	40461.58
664.461	40458.87
664.811	40488.24
665.161	40373.22
665.511	40274.46
665.862	40150.4
666.212	40330.28
666.562	40385.87
666.912	40214.8
667.262	40231.53
667.612	40218.87
667.962	40307.01
668.312	40128.7
668.662	40371.18
669.011	40163.51
669.361	40194.24
669.711	40193.11
670.06	40140.46
670.41	40094.81
670.76	40042.15
671.109	40269.04
671.459	40104.52
671.808	40020.68
672.157	40050.74
672.507	39773.01
672.856	39944.3
673.205	39938.65
673.554	40114.69
673.904	39982.04
674.253	40211.87
674.602	39928.48
674.951	39485.56
675.3	39236.07
675.649	39841.48
675.998	39892.33
676.346	39845.55
676.695	39984.53
677.044	39608.27
677.393	39830.63
677.741	39911.08
678.09	39747.47
678.438	39579.79
678.787	39719.68
679.135	39793.8
679.484	39455.28
679.832	39653.01
680.181	39359.46
680.529	39545.44
680.877	39478.1
681.225	39457.31
681.573	39633.8
681.922	39457.99
682.27	39261.16
682.618	39175.51
682.966	39114.72
683.314	39157.43
683.661	39027.04
684.009	38996.98
684.357	38976.19
684.705	38687.39
685.053	38821.39
685.4	38709.08
685.748	38705.69
686.095	38599.93
686.443	38515.64
686.79	38437.9
687.138	38539.14
687.485	38440.61
687.832	38362.2
688.18	38412.59
688.527	38285.82
688.874	38256.21
689.221	38191.13
689.568	37998.14
689.915	37957.69
690.262	37720.86
690.609	37797.01
690.956	37642.44
691.303	37711.14
691.65	37398.83
691.997	37512.95
692.344	37306.63
692.69	37209.01
693.037	37197.03
693.383	36918.85
693.73	37187.54
694.077	36793.88
694.423	36883.59
694.769	36825.74
695.116	36594.11
695.462	36616.93
695.808	36514.11
696.155	36707.33
696.501	36287
696.847	36258.75
697.193	36023.95
697.539	36275.7
697.885	35965.65
698.231	35771.98
698.577	35853.11
698.923	35778.08
699.269	35542.38
699.614	35551.2
699.96	35448.83
700.306	35535.15
700.651	35313.24
700.997	35155.5
701.342	35161.15
701.688	34960.71
702.033	35061.04
702.379	34894.49
702.724	34919.58
703.069	34962.06
703.415	34420.83
703.76	34572.24
704.105	34548.06
704.45	34426.93
704.795	34177
705.14	34200.05
705.485	34091.35
705.83	34053.84
706.175	33953.27
706.52	33937
706.865	33846.61
707.209	33795.99
707.554	33677.35
707.899	33693.39
708.243	33541.76
708.588	33407.3
708.932	33267.87
709.277	33327.75
709.621	33338.6
709.966	33099.96
710.31	33259.96
710.654	32927.31
710.998	32877.14
711.342	33014.77
711.687	32904.26
712.031	32678.05
712.375	32678.51
712.719	32699.07
713.063	32595.34
713.407	32675.34
713.75	32504.72
714.094	32381.11
714.438	32350.38
714.782	32222.25
715.125	32294.79
715.469	32196.03
715.812	31993.33
716.156	31995.13
716.499	32028.58
716.843	31915.14
717.186	31798.3
717.53	31760.11
717.873	31811.86
718.216	31716.04
718.559	31552.89
718.902	31356.51
719.246	31449.38
719.589	31276.96
719.932	31261.37
720.275	31279.45
720.617	31264.98
720.96	31089.62
721.303	31083.29
721.646	31113.12
721.989	30933.24
722.331	30980.7
722.674	31075.61
723.016	30877.87
723.359	30913.13
723.701	30988.83
724.044	30674.94
724.386	30643.08
724.729	30768.05
725.071	30672
725.413	30549.3
725.755	30630.42
726.097	30531.22
726.439	30438.11
726.782	30394.5
727.124	30494.16
727.465	30214.84
727.807	30238.57
728.149	30225.69
728.491	30168.06
728.833	30253.03
729.175	30165.35
729.516	30027.05
729.858	29983.66
730.199	30021.63
730.541	29918.8
730.882	29947.73
731.224	29875.19
731.565	29738.24
731.906	29739.37
732.248	29767.4
732.589	29670.22
732.93	29563.11
733.271	29461.87
733.612	29493.05
733.953	29651.47
734.294	29419.61
734.635	29399.72
734.976	29406.5
735.317	29383.45
735.658	29161.99
735.999	29312.27
736.339	29134.42
736.68	29202.44
737.021	29058.94
737.361	29075.66
737.702	29243.79
738.042	28960.64
738.383	28955.21
738.723	29039.05
739.063	28889.68
739.404	29003.8
739.744	28890.13
740.084	28808.78
740.424	28808.55
740.764	28683.36
741.104	28792.28
741.444	28560.2
741.784	28560.65
742.124	28739.17
742.464	28516.58
742.804	28492.63
743.143	28440.65
743.483	28411.95
743.823	28407.21
744.162	28346.87
744.502	28325.17
744.841	28261.67
745.181	28411.05
745.52	28138.96
745.86	28304.83
746.199	28151.39
746.538	28218.74
746.877	28148.91
747.216	28111.85
747.556	27989.59
747.895	28007.67
748.234	27918.4
748.573	27848.8
748.911	27795.92
749.25	27831.63
749.589	27729.03
749.928	27829.82
750.267	27712.31
750.605	27691.07
750.944	27608.81
751.283	27473.9
751.621	27599.32
751.96	27360.9
752.298	27332.88
752.636	27502.82
752.975	27359.1
753.313	27318.65
753.651	27293.34
753.989	27066.9
754.327	27167.46
754.666	26934.48
755.004	27049.05
755.342	27029.39
755.679	26866.45
756.017	26779.9
756.355	26831.88
756.693	26784.65
757.031	26752.56
757.368	26536.52
757.706	26538.78
758.044	26414.94
758.381	26455.17
758.719	26421.04
759.056	26297.43
759.394	26254.27
759.731	26045.23
760.068	26168.39
760.405	25934.5
760.743	25938.34
761.08	25993.03
761.417	25805.92
761.754	25860.61
762.091	25686.82
762.428	25632.36
762.765	25448.41
763.102	25553.27
763.438	25482.76
763.775	25249.77
764.112	25259.72
764.449	25348.98
764.785	25238.7
765.122	25035.09
765.458	25052.27
765.795	24919.84
766.131	24823.34
766.467	24885.04
766.804	24705.83
767.14	24657.47
767.476	24632.16
767.812	24456.8
768.148	24519.62
768.485	24373.41
768.821	24119.18
769.157	24062.46
769.492	24097.49
769.828	24028.56
770.164	23973.42
770.5	23767.1
770.836	23774.56
771.171	23614.79
771.507	23661.79
771.842	23436.04
772.178	23487.79
772.513	23429.26
772.849	23214.8
773.184	23151.07
773.519	23167.79
773.855	22995.82
774.19	22930.96
774.525	22875.6
774.86	22939.55
775.195	22842.15
775.53	22599.45
775.865	22618.66
776.2	22396.97
776.535	22403.07
776.87	22340.7
777.205	22257.54
777.539	22198.55
777.874	22185
778.209	21954.49
778.543	21970.54
778.878	21875.4
779.212	21838.79
779.547	21609.64
779.881	21666.82
780.215	21491.91
780.55	21488.97
780.884	21350.89
781.218	21388.41
781.552	21290.1
781.886	21187.28
782.22	21147.51
782.554	20997
782.888	20899.61
783.222	20863.45
783.556	20820.51
783.889	20650.8
784.223	20549.33
784.557	20470.92
784.89	20530.12
785.224	20397.25
785.557	20306.85
785.891	20239.06
786.224	20161.09
786.558	20190.92
786.891	19965.17
787.224	19941.66
787.557	19863.93
787.891	19869.12
788.224	19793.19
788.557	19749.35
788.89	19766.08
789.223	19704.61
789.556	19631.39
789.888	19513.65
790.221	19444.95
790.554	19251.97
790.887	19246.99
791.219	19143.49
791.552	19057.85
791.884	19004.74
792.217	18997.73
792.549	18908.92
792.882	18755.48
793.214	18715.26
793.546	18693.79
793.879	18676.61
794.211	18542.15
794.543	18532.44
794.875	18582.6
795.207	18499.89
795.539	18396.39
795.871	18436.17
796.203	18292.67
796.535	18187.36
796.867	18088.83
797.198	18089.96
797.53	17996.86
797.862	17991.43
798.193	18018.78
798.525	17801.83
798.856	17904.2
799.188	17705.57
799.519	17658.34
799.85	17645.23
800.182	17627.15
800.513	17497.21
800.844	17295.63
801.175	17472.13
801.506	17313.26
801.837	17296.54
802.168	17217.44
802.499	17197.78
802.83	17108.07
803.161	17152.81
803.491	16987.62
803.822	17080.72
804.153	16937.9
804.483	16822.65
804.814	16767.96
805.145	16787.4
805.475	16755.31
805.805	16671.24
806.136	16672.37
806.466	16646.61
806.796	16523.45
807.126	16399.84
807.457	16456.56
807.787	16461.98
808.117	16328.2
808.447	16269.22
808.777	16265.15
809.107	16201.88
809.436	16197.13
809.766	16127.98
810.096	16095.21
810.426	15997.59
810.755	16007.98
811.085	15965.72
811.414	15954.43
811.744	15826.29
812.073	15799.63
812.403	15716.92
812.732	15715.11
813.061	15686.64
813.39	15601.44
813.719	15585.62
814.049	15645.05
814.378	15566.41
814.707	15410.71
815.036	15461.1
815.365	15359.64
815.693	15245.29
816.022	15213.65
816.351	15240.32
816.68	15241.22
817.008	15271.96
817.337	15070.61
817.665	15020.21
817.994	15087.1
818.322	15049.14
818.651	15022.47
818.979	14974.34
819.307	14996.71
819.636	14987.22
819.964	14857.28
820.292	14827.45
820.62	14857.05
820.948	14793.33
821.276	14907.45
821.604	14730.05
821.932	14843.72
822.259	14831.52
822.587	14834
822.915	14753.33
823.243	14822.25
823.57	14817.96
823.898	14675.14
824.225	14692.76
824.553	14697.06
824.88	14741.12
825.207	14761.01
825.535	14725.53
825.862	14691.86
826.189	14734.12
826.516	14762.82
826.843	14747
827.17	14727.11
827.497	14730.05
827.824	14629.04
828.151	14716.49
828.478	14663.39
828.805	14750.61
829.131	14699.32
829.458	14704.97
829.785	14624.06
830.111	14591.98
830.438	14738.64
830.764	14590.85
831.09	14697.74
831.417	14498.64
831.743	14686.21
832.069	14674.68
832.395	14530.96
832.722	14645.76
833.048	14604.63
833.374	14510.85
833.7	14439.44
834.026	14499.32
834.351	14570.51
834.677	14551.07
835.003	14385.88
835.329	14401.47
835.654	14446.67
835.98	14411.19
836.306	14488.02
836.631	14295.49
836.956	14408.48
837.282	14384.75
837.607	14364.41
837.932	14298.42
838.258	14301.36
838.583	14172.55
838.908	14158.09
839.233	14236.73
839.558	14120.35
839.883	14102.27
840.208	14046.9
840.533	14038.09
840.858	14058.88
841.182	14072.21
841.507	14040.58
841.832	13932.56
842.156	13993.57
842.481	13999
842.805	13933.46
843.13	13901.37
843.454	13781.83
843.778	13792.22
844.103	13704.31
844.427	13747.03
844.751	13760.58
845.075	13686.91
845.399	13619.12
845.723	13536.41
846.047	13549.97
846.371	13441.27
846.695	13521.49
847.019	13399.92
847.343	13306.13
847.666	13197.21
847.99	13244.67
848.313	13168.28
848.637	13124.67
848.96	13084.44
849.284	13066.14
849.607	13002.41
849.931	12893.04
850.254	12891.23
850.577	12805.13
850.9	12680.84
851.223	12602.42
851.546	12600.62
851.869	12624.12
852.192	12633.83
852.515	12497.11
852.838	12319.94
853.161	12371.02
853.483	12412.82
853.806	12302.32
854.129	12264.8
854.451	12252.6
854.774	12223
855.096	12110.91
855.419	12088.99
855.741	12069.33
856.063	12066.62
856.385	11975.09
856.708	11946.85
857.03	11969.45
857.352	11882.89
857.674	11846.96
857.996	11811.71
858.318	11743.24
858.64	11771.94
858.961	11708.21
859.283	11643.58
859.605	11603.58
859.926	11617.14
860.248	11618.72
860.57	11517.48
860.891	11563.35
861.212	11450.81
861.534	11489.01
861.855	11429.35
862.176	11404.04
862.498	11444.04
862.819	11364.49
863.14	11353.19
863.461	11364.49
863.782	11321.1
864.103	11345.96
864.424	11296.24
864.745	11230.26
865.065	11242.91
865.386	11216.7
865.707	11211.27
866.027	11185.96
866.348	11195.23
866.668	11169.47
866.989	11131.5
867.309	11063.03
867.63	11032.52
867.95	11060.77
868.27	10929.47
868.59	11030.03
868.91	10974.67
869.23	10985.97
869.55	10879.3
869.87	10937.61
870.19	10948.46
870.51	10948.68
870.83	10873.65
871.15	10828.46
871.469	10790.49
871.789	10862.36
872.109	10828.91
872.428	10752.53
872.748	10790.95
873.067	10739.42
873.386	10744.62
873.706	10733.77
874.025	10690.83
874.344	10670.5
874.663	10726.31
874.982	10704.39
875.301	10585.07
875.62	10651.51
875.939	10559.31
876.258	10571.29
876.577	10581.91
876.896	10510.27
877.214	10452.42
877.533	10504.62
877.852	10483.83
878.17	10466.66
878.489	10474.57
878.807	10423.05
879.125	10418.53
879.444	10382.37
879.762	10383.27
880.08	10305.08
880.398	10317.06
880.716	10366.78
881.034	10327.91
881.352	10258.53
881.67	10260.56
881.988	10213.79
882.306	10165.42
882.624	10083.39
882.941	10145.09
883.259	10138.53
883.577	10154.58
883.894	10047.69
884.212	10052.89
884.529	10035.26
884.846	9991.64
885.164	10002.94
885.481	9890.4
885.798	9924.3
886.115	9869.61
886.432	9869.39
886.75	9855.38
887.067	9848.15
887.383	9763.4
887.7	9875.49
888.017	9753.46
888.334	9813.12
888.651	9762.72
888.967	9722.27
889.284	9746.45
889.6	9727.02
889.917	9628.94
890.233	9620.13
890.55	9585.78
890.866	9614.7
891.182	9463.75
891.498	9426.01
891.815	9376.29
892.131	9343.53
892.447	9456.52
892.763	9354.6
893.079	9376.74
893.395	9294.71
893.71	9300.59
894.026	9251.32
894.342	9286.13
894.657	9235.51
894.973	9164.55
895.289	9132.23
895.604	9133.81
895.92	9025.57
896.235	8953.93
896.55	8996.64
896.865	9012.69
897.181	9012.69
897.496	8915.06
897.811	8924.1
898.126	8885.91
898.441	8866.25
898.756	8760.94
899.071	8771.56
899.386	8801.17
899.7	8755.74
900.015	8715.75
900.33	8666.71
900.644	8643.88
900.959	8661.06
901.273	8540.61
901.588	8529.31
901.902	8522.98
902.216	8478.46
902.531	8488.63
902.845	8416.09
903.159	8439.59
903.473	8341.97
903.787	8341.97
904.101	8257.68
904.415	8257
904.729	8289.32
905.042	8197.34
905.356	8237.79
905.67	8103.11
905.984	8145.59
906.297	8045.71
906.611	8008.42
906.924	8024.69
907.237	8076.21
907.551	7998.48
907.864	7947.63
908.177	7944.01
908.491	7942.43
908.804	7890.46
909.117	7791.48
909.43	7811.14
909.743	7758.93
910.056	7744.25
910.368	7708.31
910.681	7598.71
910.994	7564.14
911.307	7631.71
911.619	7529.34
911.932	7528.43
912.244	7527.08
912.557	7531.82
912.869	7408.66
913.181	7468.09
913.494	7331.83
913.806	7367.08
914.118	7255.9
914.43	7275.11
914.742	7319.62
915.054	7227.42
915.366	7209.12
915.678	7156.01
915.99	7174.99
916.302	7155.11
916.613	7042.34
916.925	7053.42
917.236	7064.26
917.548	6981.1
917.859	6976.13
918.171	6924.15
918.482	6936.81
918.794	6807.32
919.105	6878.51
919.416	6828.79
919.727	6828.56
920.038	6759.64
920.349	6680.09
920.66	6707.89
920.971	6654.33
921.282	6652.97
921.593	6607.55
921.903	6573.65
922.214	6532.98
922.525	6532.98
922.835	6526.65
923.146	6441
923.456	6511.96
923.767	6437.16
924.077	6415.92
924.387	6348.35
924.697	6324.17
925.008	6257.73
925.318	6329.14
925.628	6281.46
925.938	6208.47
926.248	6207.56
926.558	6208.01
926.867	6184.06
927.177	6148.36
927.487	6121.69
927.796	6105.87
928.106	6088.7
928.416	5996.04
928.725	6066.78
929.034	5955.14
929.344	5954.01
929.653	5905.65
929.962	5917.17
930.271	5882.83
930.581	5830.17
930.89	5805.54
931.199	5760.12
931.508	5788.14
931.817	5803.96
932.125	5722.83
932.434	5735.03
932.743	5700.01
933.051	5628.14
933.36	5619.78
933.669	5639.44
933.977	5600.57
934.286	5563.96
934.594	5571.2
934.902	5515.15
935.21	5492.55
935.519	5496.85
935.827	5474.7
936.135	5433.35
936.443	5377.53
936.751	5334.37
937.059	5347.25
937.367	5323.07
937.674	5326.68
937.982	5305.21
938.29	5295.5
938.597	5258.66
938.905	5193.13
939.213	5187.25
939.52	5176.18
939.827	5170.98
940.135	5132.34
940.442	5083.07
940.749	5066.35
941.056	5079.23
941.363	5014.37
941.67	4999.46
941.977	4964.21
942.284	4912.46
942.591	4968.05
942.898	4949.29
943.205	4935.28
943.511	4919.24
943.818	4869.52
944.125	4849.18
944.431	4830.88
944.738	4849.41
945.044	4786.13
945.35	4736.64
945.657	4710.2
945.963	4705.46
946.269	4704.1
946.575	4655.06
946.881	4703.2
947.187	4662.29
947.493	4610.99
947.799	4596.53
948.105	4569.19
948.41	4549.3
948.716	4583.88
949.022	4517.89
949.327	4496.2
949.633	4476.99
949.938	4502.52
950.244	4466.14
950.549	4376.88
950.854	4381.4
951.16	4403.99
951.465	4383.2
951.77	4361.51
952.075	4318.12
952.38	4332.36
952.685	4320.38
952.99	4261.85
953.294	4244.22
953.599	4255.98
953.904	4171.23
954.209	4183.89
954.513	4153.38
954.818	4158.35
955.122	4137.79
955.426	4117.22
955.731	4070.9
956.035	4097.56
956.339	4076.32
956.643	4064.79
956.948	4060.95
957.252	4000.39
957.556	4001.97
957.86	4041.97
958.163	3957.23
958.467	3944.57
958.771	3944.12
959.075	3885.14
959.378	3922.43
959.682	3886.04
959.985	3900.28
960.289	3849.88
960.592	3844.46
960.896	3842.65
961.199	3799.04
961.502	3829.09
961.805	3811.24
962.108	3785.48
962.411	3746.84
962.714	3738.48
963.017	3664.13
963.32	3720.17
963.623	3710.91
963.926	3663.9
964.228	3648.08
964.531	3628.65
964.833	3644.24
965.136	3575.32
965.438	3554.3
965.741	3562.43
966.043	3562.21
966.345	3533.06
966.648	3510.46
966.95	3510.01
967.252	3504.36
967.554	3483.79
967.856	3465.71
968.158	3408.54
968.46	3402.89
968.761	3369.67
969.063	3437.01
969.365	3360.18
969.666	3376.22
969.968	3300.97
970.269	3359.28
970.571	3312.5
970.872	3292.16
971.174	3318.6
971.475	3262.78
971.776	3251.26
972.077	3284.93
972.378	3268.43
972.679	3194.76
972.98	3216
973.281	3226.4
973.582	3198.15
973.883	3146.63
974.183	3156.34
974.484	3153.18
974.785	3120.19
975.085	3125.16
975.386	3107.31
975.686	3084.48
975.986	3072.96
976.287	3058.94
976.587	3039.28
976.887	2999.51
977.187	3043.35
977.487	3044.93
977.787	2980.98
978.087	3018.95
978.387	2972.17
978.687	2959.96
978.987	2970.36
979.286	2941.66
979.586	2881.77
979.885	2916.8
980.185	2894.43
980.484	2871.83
980.784	2874.77
981.083	2833.41
981.382	2844.26
981.682	2817.82
981.981	2829.8
982.28	2787.54
982.579	2768.78
982.878	2784.38
983.177	2776.24
983.475	2800.42
983.774	2715
984.073	2744.38
984.372	2712.97
984.67	2698.95
984.969	2702.57
985.267	2687.43
985.566	2663.93
985.864	2657.15
986.162	2667.77
986.461	2644.04
986.759	2624.61
987.057	2614.89
987.355	2554.33
987.653	2536.25
987.951	2546.19
988.249	2535.79
988.547	2552.97
988.844	2532.41
989.142	2561.78
989.44	2503.03
989.737	2484.72
990.035	2504.16
990.332	2477.72
990.63	2488.56
990.927	2494.44
991.224	2448.34
991.521	2425.74
991.819	2424.84
992.116	2443.37
992.413	2428.91
992.71	2376.03
993.006	2381.67
993.303	2367.21
993.6	2372.18
993.897	2357.95
994.193	2372.41
994.49	2334.22
994.787	2298.96
995.083	2291.73
995.379	2277.95
995.676	2267.1
995.972	2248.12
996.268	2254.9
996.565	2221
996.861	2223.94
997.157	2208.8
997.453	2229.14
997.749	2186.43
998.044	2193.21
998.34	2199.08
998.636	2173.77
998.932	2180.55
999.227	2137.61
999.523	2145.97
999.818	2104.85
1000.114	2135.58
1000.409	2100.78
1000.704	2113.43
1001	2060.33
1001.295	2090.83
1001.59	2073.66
1001.885	2053.32
1002.18	2060.55
1002.475	2014.9
1002.77	2041.8
1003.065	2029.14
1003.359	2025.3
1003.654	1976.26
1003.949	1955.92
1004.243	1969.93
1004.538	1949.37
1004.832	1935.81
1005.127	1951.4
1005.421	1919.31
1005.715	1912.53
1006.009	1905.53
1006.304	1912.31
1006.598	1884.74
1006.892	1884.96
1007.186	1847.9
1007.48	1875.25
1007.773	1837.96
1008.067	1803.61
1008.361	1826.89
1008.655	1823.05
1008.948	1808.58
1009.242	1791.18
1009.535	1778.07
1009.829	1758.87
1010.122	1745.76
1010.415	1748.47
1010.708	1748.7
1011.001	1742.82
1011.295	1727.45
1011.588	1730.39
1011.881	1703.95
1012.173	1675.93
1012.466	1699.43
1012.759	1668.25
1013.052	1667.34
1013.344	1640.68
1013.637	1646.1
1013.93	1636.84
1014.222	1610.62
1014.514	1607.91
1014.807	1617.4
1015.099	1589.83
1015.391	1610.62
1015.683	1571.75
1015.976	1563.84
1016.268	1540.57
1016.56	1549.83
1016.851	1541.24
1017.143	1527.23
1017.435	1519.1
1017.727	1531.3
1018.018	1491.98
1018.31	1489.49
1018.602	1478.65
1018.893	1486.56
1019.185	1462.38
1019.476	1452.43
1019.767	1461.02
1020.058	1455.15
1020.35	1431.87
1020.641	1414.24
1020.932	1420.57
1021.223	1411.76
1021.514	1388.25
1021.804	1363.4
1022.095	1376.5
1022.386	1351.42
1022.677	1364.3
1022.967	1327.47
1023.258	1347.13
1023.548	1321.59
1023.839	1309.16
1024.129	1296.51
1024.419	1302.83
1024.709	1278.65
1025	1296.28
1025.29	1269.84
1025.58	1277.07
1025.87	1246.34
1026.16	1248.82
1026.449	1263.96
1026.739	1218.09
1027.029	1209.5
1027.319	1249.73
1027.608	1203.17
1027.898	1215.38
1028.187	1191.42
1028.477	1207.02
1028.766	1162.05
1029.055	1173.57
1029.344	1180.58
1029.634	1171.54
1029.923	1151.65
1030.212	1129.96
1030.501	1127.92
1030.79	1134.93
1031.078	1124.08
1031.367	1124.53
1031.656	1140.58
1031.945	1111.43
1032.233	1085.66
1032.522	1086.12
1032.81	1070.07
1033.099	1074.82
1033.387	1088.6
1033.675	1082.05
1033.963	1066.46
1034.251	1045.66
1034.54	1041.6
1034.828	1044.99
1035.116	1020.81
1035.403	1041.82
1035.691	1008.83
1035.979	1003.63
1036.267	1019.22
1036.554	973.35
1036.842	997.53
1037.129	1000.02
1037.417	972.9
1037.704	966.8
1037.992	957.31
1038.279	971.54
1038.566	964.76
1038.853	964.76
1039.14	964.76
