Data from hue_340_FLMS001491_62.txt Node
Date: Mon Feb 06 15:43:26 GMT 2017
User: dcchb
Spectrometer: FLMS00149
Trigger mode: 0
Integration Time (sec): 2.000000E-2
Scans to average: 10
Electric dark correction enabled: true
Nonlinearity correction enabled: false
Boxcar width: 0
XAxis mode: Wavelengths
Number of Pixels in Spectrum: 2048
>>>>>Begin Spectral Data<<<<<
341.393	-4.56
341.776	-4.56
342.16	-4.56
342.543	-88.85
342.927	-74.39
343.31	-66.26
343.693	-73.49
344.077	-88.18
344.46	-46.14
344.843	-47.27
345.226	-51.57
345.61	-22.87
345.993	-26.71
346.376	5.61
346.759	12.16
347.142	19.84
347.525	43.8
347.908	50.8
348.291	84.48
348.674	92.61
349.057	113.17
349.44	123.12
349.823	126.96
350.206	141.87
350.588	188.88
350.971	207.64
351.354	216.22
351.737	224.81
352.119	247.18
352.502	256.9
352.884	281.31
353.267	276.56
353.65	263.91
354.032	298.93
354.414	314.75
354.797	303.9
355.179	328.31
355.562	332.6
355.944	317.92
356.326	335.09
356.709	329.89
357.091	318.59
357.473	331.7
357.855	330.12
358.238	338.93
358.62	343.23
359.002	322.44
359.384	340.06
359.766	327.86
360.148	324.69
360.53	319.27
360.912	329.44
361.294	326.73
361.676	337.58
362.057	332.83
362.439	305.94
362.821	326.95
363.203	318.37
363.584	341.19
363.966	329.21
364.348	317.69
364.729	341.19
365.111	321.76
365.493	308.42
365.874	331.93
366.256	318.37
366.637	331.25
367.019	301.64
367.4	292.83
367.781	312.04
368.163	301.87
368.544	304.58
368.925	309.55
369.306	312.94
369.688	317.01
370.069	304.36
370.45	314.3
370.831	284.7
371.212	290.8
371.593	309.1
371.974	300.51
372.355	299.16
372.736	312.94
373.117	318.14
373.498	312.94
373.879	304.36
374.26	294.41
374.641	296.22
375.021	307.07
375.402	305.49
375.783	322.89
376.163	304.81
376.544	331.47
376.925	324.47
377.305	335.54
377.686	317.01
378.066	315.66
378.447	331.93
378.827	323.11
379.208	319.27
379.588	314.98
379.968	309.78
380.349	343
380.729	326.95
381.109	312.94
381.489	313.17
381.87	332.38
382.25	330.8
382.63	338.71
383.01	329.44
383.39	340.29
383.77	332.83
384.15	326.28
384.53	302.32
384.91	341.42
385.29	338.71
385.67	341.19
386.049	330.34
386.429	343.68
386.809	344.81
387.189	331.93
387.568	359.72
387.948	348.65
388.328	350
388.707	351.81
389.087	343.68
389.466	339.38
389.846	332.6
390.225	358.82
390.605	357.24
390.984	351.36
391.363	361.3
391.743	351.13
392.122	336.67
392.501	357.01
392.881	371.02
393.26	361.98
393.639	350.91
394.018	365.15
394.397	383.45
394.776	343.9
395.155	353.85
395.534	357.24
395.913	375.31
396.292	373.51
396.671	368.31
397.05	359.95
397.429	375.54
397.808	352.26
398.186	368.08
398.565	392.04
398.944	383.9
399.323	375.31
399.701	391.59
400.08	381.64
400.458	398.82
400.837	398.82
401.215	380.96
401.594	372.83
401.972	387.07
402.351	418.48
402.729	407.4
403.107	385.26
403.486	399.5
403.864	412.6
404.242	420.51
404.62	398.37
404.999	419.16
405.377	389.55
405.755	413.73
406.133	423.68
406.511	432.94
406.889	419.16
407.267	417.12
407.645	408.53
408.023	434.75
408.401	444.69
408.779	412.6
409.156	441.53
409.534	438.14
409.912	432.71
410.29	431.58
410.667	451.92
411.045	432.26
411.422	439.72
411.8	446.05
412.178	454.86
412.555	456.44
412.933	463.9
413.31	458.48
413.687	462.09
414.065	482.2
414.442	467.74
414.819	480.85
415.197	492.6
415.574	482.43
415.951	504.8
416.328	502.32
416.705	513.39
417.082	476.78
417.46	509.32
417.837	539.83
418.214	522.2
418.591	526.5
418.967	514.97
419.344	514.75
419.721	529.21
420.098	545.48
420.475	540.51
420.852	547.29
421.228	564.24
421.605	554.07
421.982	566.95
422.358	556.1
422.735	562.43
423.111	573.73
423.488	566.27
423.864	581.86
424.241	593.84
424.617	607.17
424.994	582.32
425.37	596.1
425.746	608.08
426.123	601.75
426.499	585.48
426.875	615.53
427.251	626.38
427.627	634.74
428.003	598.81
428.379	625.7
428.756	630.9
429.132	639.04
429.507	666.38
429.883	657.12
430.259	651.47
430.635	655.31
431.011	679.49
431.387	691.01
431.763	690.33
432.138	698.7
432.514	688.08
432.89	692.14
433.265	692.37
433.641	686.95
434.016	737.11
434.392	708.64
434.767	704.35
435.143	726.49
435.518	755.87
435.894	754.29
436.269	723.1
436.644	772.14
437.02	773.04
437.395	765.59
437.77	784.12
438.145	772.37
438.52	799.26
438.895	804.23
439.271	793.38
439.646	828.18
440.021	818.24
440.395	830.9
440.77	791.12
441.145	787.73
441.52	828.41
441.895	823.21
442.27	848.97
442.645	839.26
443.019	835.42
443.394	848.97
443.769	855.75
444.143	871.57
444.518	877.9
444.892	862.31
445.267	849.43
445.641	875.41
446.016	873.83
446.39	891.46
446.764	879.71
447.139	894.62
447.513	890.1
447.887	920.16
448.262	902.08
448.636	907.5
449.01	890.33
449.384	919.48
449.758	934.4
450.132	931.46
450.506	914.51
450.88	914.28
451.254	938.69
451.628	954.06
452.002	938.92
452.376	946.37
452.75	939.14
453.123	965.58
453.497	954.06
453.871	952.93
454.244	972.36
454.618	974.85
454.992	999.93
455.365	1006.94
455.739	1002.87
456.112	1003.1
456.486	1024.79
456.859	1021.63
457.232	1053.94
457.606	1064.56
457.979	1058.23
458.352	1026.82
458.725	1067.5
459.099	1092.13
459.472	1079.25
459.845	1093.04
460.218	1090.78
460.591	1138.01
460.964	1127.61
461.337	1153.37
461.71	1150.21
462.083	1191.11
462.456	1159.7
462.829	1171
463.201	1209.87
463.574	1181.17
463.947	1190.43
464.32	1211.23
464.692	1208.74
465.065	1247.16
465.438	1223.65
465.81	1237.89
466.183	1284.9
466.555	1289.42
466.928	1284.22
467.3	1292.13
467.672	1285.8
468.045	1366.48
468.417	1339.58
468.789	1318.34
469.161	1369.64
469.534	1366.02
469.906	1389.3
470.278	1390.43
470.65	1422.75
471.022	1433.14
471.394	1482.63
471.766	1466.81
472.138	1502.74
472.51	1518.56
472.882	1520.37
473.253	1586.58
473.625	1574.38
473.997	1573.48
474.369	1573.02
474.74	1607.82
475.112	1634.49
475.484	1659.12
475.855	1665.45
476.227	1693.02
476.598	1741.38
476.97	1742.74
477.341	1780.25
477.713	1770.98
478.084	1776.18
478.455	1856.18
478.827	1882.17
479.198	1914.03
479.569	1908.61
479.94	1939.12
480.311	1970.98
480.682	2008.27
481.053	2042.16
481.424	2073.35
481.795	2136.62
482.166	2151.09
482.537	2147.25
482.908	2195.61
483.279	2190.18
483.65	2243.29
484.021	2247.36
484.391	2305.66
484.762	2304.08
485.133	2342.49
485.503	2418.43
485.874	2387.01
486.244	2422.94
486.615	2469.05
486.985	2454.58
487.356	2533.68
487.726	2514.69
488.097	2595.14
488.467	2643.96
488.837	2663.62
489.207	2679.21
489.578	2708.36
489.948	2749.26
490.318	2777.29
490.688	2764.4
491.058	2819.54
491.428	2858.41
491.798	2873.33
492.168	2927.11
492.538	2958.3
492.908	2980.9
493.278	3043.27
493.648	3002.59
494.017	3022.93
494.387	3035.81
494.757	3082.36
495.126	3156.26
495.496	3117.16
495.866	3170.04
496.235	3201.68
496.605	3179.08
496.974	3192.87
497.344	3256.82
497.713	3269.7
498.082	3282.81
498.452	3335.46
498.821	3332.75
499.19	3293.2
499.559	3378.63
499.928	3363.49
500.298	3353.99
500.667	3433.09
501.036	3391.05
501.405	3437.16
501.774	3422.24
502.143	3482.35
502.512	3516.48
502.88	3549.92
503.249	3517.15
503.618	3523.03
503.987	3548.34
504.356	3603.7
504.724	3580.88
505.093	3606.87
505.462	3638.28
505.83	3653.42
506.199	3649.58
506.567	3682.12
506.936	3677.83
507.304	3735
507.672	3746.53
508.041	3762.57
508.409	3759.63
508.777	3756.02
509.145	3790.14
509.514	3796.47
509.882	3835.34
510.25	3820.42
510.618	3869.46
510.986	3841.44
511.354	3890.93
511.722	3907.88
512.09	3890.25
512.458	3903.81
512.826	3940.19
513.193	3920.08
513.561	3962.57
513.929	4009.12
514.297	3997.37
514.664	3994.88
515.032	4018.38
515.4	4071.26
515.767	4055.22
516.135	4047.99
516.502	4053.41
516.869	4087.53
517.237	4097.93
517.604	4083.24
517.972	4135.67
518.339	4141.32
518.706	4164.14
519.073	4117.59
519.44	4174.76
519.808	4195.1
520.175	4228.1
520.542	4228.32
520.909	4245.5
521.276	4244.82
521.643	4276.91
522.009	4293.86
522.376	4309
522.743	4356.68
523.11	4357.58
523.477	4365.27
523.843	4381.09
524.21	4424.47
524.577	4433.06
524.943	4471.93
525.31	4451.59
525.676	4500.63
526.043	4487.3
526.409	4541.31
526.776	4594.64
527.142	4580.18
527.508	4640.29
527.874	4615.2
528.241	4648.65
528.607	4693.85
528.973	4704.24
529.339	4732.04
529.705	4721.42
530.071	4800.74
530.437	4774.07
530.803	4803.22
531.169	4788.98
531.535	4830.34
531.901	4818.36
532.267	4886.61
532.632	4890.22
532.998	4944.01
533.364	4935.87
533.73	4954.18
534.095	4985.14
534.461	4981.3
534.826	5067.85
535.192	5075.3
535.557	5082.76
535.923	5082.54
536.288	5086.6
536.653	5109.2
537.019	5118.02
537.384	5184.68
537.749	5180.39
538.114	5145.81
538.479	5217.45
538.845	5198.92
539.21	5252.7
539.575	5257.9
539.94	5243.89
540.305	5342.19
540.67	5315.75
541.034	5331.34
541.399	5412.7
541.764	5392.58
542.129	5451.57
542.494	5422.87
542.858	5466.71
543.223	5448.63
543.587	5487.5
543.952	5543.54
544.316	5539.7
544.681	5515.97
545.045	5603.2
545.41	5604.33
545.774	5645.68
546.138	5701.28
546.503	5624.89
546.867	5659.02
547.231	5740.15
547.595	5752.8
547.959	5738.34
548.324	5714.61
548.688	5784.66
549.052	5805.68
549.416	5788.73
549.779	5836.19
550.143	5857.43
550.507	5897.88
550.871	5882.29
551.235	5937.2
551.599	5979.01
551.962	5900.82
552.326	6021.72
552.689	6006.13
553.053	5994.83
553.417	6034.6
553.78	6091.55
554.143	6087.48
554.507	6090.87
554.87	6119.8
555.234	6197.76
555.597	6148.04
555.96	6195.73
556.323	6238.21
556.686	6220.59
557.05	6289.51
557.413	6209.96
557.776	6208.16
558.139	6308.27
558.502	6273.01
558.865	6294.93
559.228	6369.73
559.59	6368.83
559.953	6409.73
560.316	6430.07
560.679	6420.13
561.041	6414.7
561.404	6487.7
561.767	6525.44
562.129	6548.03
562.492	6594.81
562.854	6527.92
563.217	6617.18
563.579	6569.95
563.941	6647.92
564.304	6644.08
564.666	6706.45
565.028	6685.66
565.39	6708.71
565.753	6730.4
566.115	6733.11
566.477	6751.19
566.839	6790.29
567.201	6883.84
567.563	6854.92
567.925	6887.91
568.287	6945.99
568.648	6927.91
569.01	7016.27
569.372	7004.29
569.734	7013.11
570.095	7048.81
570.457	7090.84
570.819	7073.44
571.18	7135.59
571.542	7166.32
571.903	7156.15
572.265	7227.56
572.626	7264.85
572.987	7337.39
573.349	7362.93
573.71	7465.07
574.071	7464.17
574.432	7501.68
574.794	7519.08
575.155	7606.31
575.516	7637.04
575.877	7694.22
576.238	7694.44
576.599	7832.75
576.96	7851.95
577.32	7937.83
577.681	7956.58
578.042	8116.35
578.403	8088.11
578.763	8235.45
579.124	8265.5
579.485	8315.67
579.845	8484.25
580.206	8496.23
580.566	8546.63
580.927	8698.03
581.287	8879.5
581.648	8999.95
582.008	9110
582.368	9270.22
582.728	9325.59
583.089	9455.3
583.449	9553.83
583.809	9775.29
584.169	9896.65
584.529	9985.23
584.889	10274.04
585.249	10331.66
585.609	10481.04
585.969	10853.01
586.329	10866.79
586.688	11063.62
587.048	11318.08
587.408	11475.14
587.768	11641.01
588.127	11870.15
588.487	12053.43
588.846	12420.87
589.206	12546.52
589.565	12819.51
589.925	13078.71
590.284	13280.29
590.643	13619.71
591.003	13830.55
591.362	14043.66
591.721	14268.51
592.08	14539.01
592.44	14841.83
592.799	15133.8
593.158	15362.49
593.517	15609.04
593.876	16007.22
594.235	16093.09
594.593	16443.82
594.952	16694.66
595.311	16954.54
595.67	17291.93
596.029	17587.52
596.387	17993.38
596.746	18128.07
597.104	18349.53
597.463	18645.34
597.822	18996.29
598.18	19241.26
598.538	19523.29
598.897	19861.36
599.255	19984.52
599.613	20546.99
599.972	20694.33
600.33	21092.74
600.688	21323.01
601.046	21679.84
601.404	21970.68
601.762	22232.82
602.12	22459.25
602.478	22726.14
602.836	22998.67
603.194	23185.79
603.552	23497.42
603.91	23701.71
604.268	24113
604.625	24183.28
604.983	24581.46
605.341	24677.95
605.698	24945.29
606.056	25230.03
606.413	25389.35
606.771	25837.92
607.128	26026.17
607.485	26093.28
607.843	26456.66
608.2	26741.85
608.557	26940.27
608.914	27034.5
609.272	27390.2
609.629	27610.53
609.986	27918.09
610.343	28060.01
610.7	28410.28
611.057	28667.9
611.414	28691.41
611.771	28883.04
612.127	29150.15
612.484	29370.71
612.841	29491.84
613.198	29663.81
613.554	29822.9
613.911	30146.51
614.267	30300.63
614.624	30361.19
614.98	30660.17
615.337	30838.69
615.693	30914.4
616.05	31113.49
616.406	31553.93
616.762	31396.42
617.118	31532.91
617.475	31699.46
617.831	31966.57
618.187	32030.3
618.543	32242.05
618.899	32502.15
619.255	32624.64
619.611	32673.45
619.967	32805.87
620.323	33065.75
620.678	32934.68
621.034	33022.14
621.39	33171.29
621.746	33189.37
622.101	33760.88
622.457	33486.99
622.812	33732.18
623.168	33870.93
623.523	33892.4
623.879	33989.12
624.234	34045.84
624.589	34244.71
624.945	34212.84
625.3	34452.39
625.655	34376.23
626.01	34457.13
626.365	34481.54
626.72	34615.54
627.075	34792.72
627.43	34713.85
627.785	34639.95
628.14	34731.25
628.495	34941.86
628.85	34982.31
629.205	34990
629.559	35215.53
629.914	35000.85
630.269	35139.15
630.623	35169.2
630.978	35041.07
631.332	35297.56
631.687	35368.29
632.041	35184.57
632.396	35488.97
632.75	35287.17
633.104	35412.13
633.459	35285.81
633.813	35288.75
634.167	35417.11
634.521	35395.86
634.875	35458.69
635.229	35431.34
635.583	35338.69
635.937	35365.81
636.291	35433.38
636.645	35391.8
636.999	35345.24
637.352	35438.35
637.706	35348.63
638.06	35414.17
638.413	35392.7
638.767	35416.43
639.121	35470.44
639.474	35280.16
639.828	35415.3
640.181	35437.44
640.534	35395.41
640.888	35303.66
641.241	35151.35
641.594	35251.23
641.947	35326.94
642.301	35319.48
642.654	35422.76
643.007	35316.32
643.36	35441.51
643.713	35194.74
644.066	35527.39
644.419	35312.25
644.771	35032.03
645.124	34771.92
645.477	34541.2
645.83	34366.74
646.182	34464.59
646.535	34227.31
646.888	34390.69
647.24	34081.77
647.593	34332.39
647.945	34260.3
648.298	34148.21
648.65	34243.13
649.002	34145.05
649.355	34226.4
649.707	34211.71
650.059	34399.96
650.411	34707.07
650.763	34781.19
651.115	35109.99
651.467	34949.32
651.819	34830.23
652.171	34863.67
652.523	34926.5
652.875	34873.84
653.227	34798.14
653.578	35116.32
653.93	34779.61
654.282	34686.73
654.633	34602.44
654.985	34667.52
655.337	34781.64
655.688	34742.77
656.039	35020.05
656.391	34579.16
656.742	34633.17
657.094	34617.35
657.445	34875.2
657.796	34782.32
658.147	34613.51
658.498	34543.68
658.849	34574.42
659.2	34579.84
659.551	34579.16
659.902	34725.37
660.253	34506.39
660.604	34634.75
660.955	34536.9
661.306	34690.57
661.656	34523.12
662.007	34533.06
662.358	34494.42
662.708	34681.98
663.059	34662.1
663.409	34333.29
663.76	34525.6
664.11	34498.49
664.461	34604.92
664.811	34637.24
665.161	34473.18
665.511	34527.86
665.862	34488.77
666.212	34603.57
666.562	34660.74
666.912	34559.27
667.262	34530.35
667.612	34481.76
667.962	34613.06
668.312	34560.4
668.662	34697.8
669.011	34479.28
669.361	34453.74
669.711	34547.98
670.06	34429.33
670.41	34444.02
670.76	34382.1
671.109	34293.97
671.459	34388.21
671.808	34430.69
672.157	34451.48
672.507	34206.97
672.856	34300.98
673.205	34285.84
673.554	34382.1
673.904	34220.75
674.253	34477.7
674.602	34310.02
674.951	33838.16
675.3	33675.91
675.649	34199.74
675.998	34136.69
676.346	34114.77
676.695	34263.92
677.044	33981.89
677.393	34277.25
677.741	34153.41
678.09	33995.22
678.438	33966.97
678.787	33985.73
679.135	34093.75
679.484	33811.72
679.832	33918.84
680.181	33794.32
680.529	33963.36
680.877	33723.14
681.225	33697.38
681.573	33950.03
681.922	33609.7
682.27	33592.52
682.618	33615.12
682.966	33574.22
683.314	33610.37
683.661	33550.49
684.009	33385.75
684.357	33280.44
684.705	33119.31
685.053	33261.23
685.4	33274.79
685.748	33071.4
686.095	33015.81
686.443	33028.24
686.79	32958.64
687.138	33000.45
687.485	33069.37
687.832	32815.14
688.18	32854.91
688.527	32733.11
688.874	32761.81
689.221	32765.88
689.568	32522.04
689.915	32573.56
690.262	32568.59
690.609	32255.61
690.956	32320.69
691.303	32230.52
691.65	32136.51
691.997	32115.27
692.344	31925.9
692.69	31846.58
693.037	31977.2
693.383	31664.21
693.73	31829.63
694.077	31564.55
694.423	31645.45
694.769	31419.24
695.116	31469.86
695.462	31425.35
695.808	31279.59
696.155	31372.24
696.501	31143.09
696.847	31142.19
697.193	30875.98
697.539	30990.56
697.885	30798.92
698.231	30697.23
698.577	30709.88
698.923	30688.42
699.269	30574.29
699.614	30461.3
699.96	30303.34
700.306	30325.26
700.651	30268.31
700.997	30129.79
701.342	30109.22
701.688	30038.04
702.033	29894.09
702.379	29986.51
702.724	29756.69
703.069	29833.75
703.415	29611.83
703.76	29580.65
704.105	29593.08
704.45	29467.66
704.795	29383.14
705.14	29208
705.485	29148.8
705.83	29239.19
706.175	29160.32
706.52	29064.73
706.865	28860.67
707.209	28990.83
707.554	28839.43
707.899	28664.97
708.243	28721.46
708.588	28660.9
708.932	28495.03
709.277	28495.71
709.621	28547.68
709.966	28300.91
710.31	28488.02
710.654	28217.75
710.998	28175.49
711.342	28207.8
711.687	28067.24
712.031	28021.82
712.375	27909.28
712.719	27959
713.063	27839.45
713.407	27862.5
713.75	27838.1
714.094	27809.4
714.438	27672.22
714.782	27723.52
715.125	27580.93
715.469	27681.94
715.812	27446.47
716.156	27441.04
716.499	27317.66
716.843	27360.37
717.186	27105.01
717.53	27372.57
717.873	27267.49
718.216	27191.11
718.559	27150.66
718.902	26921.74
719.246	26977.78
719.589	26860.27
719.932	26664.34
720.275	26803.09
720.617	26764.68
720.96	26731.68
721.303	26664.34
721.646	26667.05
721.989	26416.89
722.331	26626.38
722.674	26450.11
723.016	26525.14
723.359	26405.59
723.701	26549.54
724.044	26251.47
724.386	26098.48
724.729	26398.13
725.071	26177.57
725.413	26173.05
725.755	26090.8
726.097	25939.61
726.439	25919.73
726.782	25981.65
727.124	26023
727.465	25809.67
727.807	25738.26
728.149	25712.05
728.491	25814.42
728.833	25790.92
729.175	25696.01
729.516	25613.07
729.858	25636.35
730.199	25544.6
730.541	25670.47
730.882	25543.92
731.224	25522.9
731.565	25418.72
731.906	25478.38
732.248	25372.4
732.589	25354.55
732.93	25258.05
733.271	25197.94
733.612	25243.36
733.953	25196.36
734.294	25127.66
734.635	25054.89
734.976	25100.09
735.317	24969.47
735.658	24990.04
735.999	24938.74
736.339	24898.06
736.68	24953.65
737.021	24835.24
737.361	24761.34
737.702	24860.77
738.042	24738.29
738.383	24716.82
738.723	24784.39
739.063	24674.56
739.404	24693.09
739.744	24657.39
740.084	24534.45
740.424	24567.22
740.764	24439.54
741.104	24496.94
741.444	24385.53
741.784	24331.75
742.124	24365.42
742.464	24243.84
742.804	24296.27
743.143	24199.77
743.483	24339.66
743.823	24134.46
744.162	24159.1
744.502	24186.44
744.841	24008.14
745.181	24117.52
745.52	23962.94
745.86	24014.47
746.199	23985.32
746.538	23864.64
746.877	24067.8
747.216	23922.04
747.556	23950.97
747.895	23823.29
748.234	23779.67
748.573	23729.5
748.911	23717.75
749.25	23648.38
749.589	23643.63
749.928	23663.74
750.267	23658.77
750.605	23465.33
750.944	23496.29
751.283	23445.67
751.621	23428.04
751.96	23275.28
752.298	23279.12
752.636	23253.13
752.975	23057.2
753.313	23084.55
753.651	23148.95
753.989	23019.69
754.327	23008.17
754.666	22807.49
755.004	22887.04
755.342	22884.78
755.679	22815.18
756.017	22666.93
756.355	22748.51
756.693	22656.31
757.031	22627.16
757.368	22560.95
757.706	22555.75
758.044	22429.88
758.381	22467.39
758.719	22366.15
759.056	22376.09
759.394	22307.62
759.731	22102.65
760.068	22230.79
760.405	22075.99
760.743	21917.8
761.08	22064.69
761.417	21854.75
761.754	21755.32
762.091	21919.16
762.428	21701.31
762.765	21512.16
763.102	21621.54
763.438	21512.16
763.775	21444.59
764.112	21473.52
764.449	21430.81
764.785	21271.71
765.122	21218.16
765.458	21122.79
765.795	21052.96
766.131	21019.74
766.467	20951.27
766.804	20892.74
767.14	20798.96
767.476	20742.69
767.812	20793.31
768.148	20718.51
768.485	20588.57
768.821	20487.33
769.157	20417.73
769.492	20393.09
769.828	20410.04
770.164	20196.49
770.5	20111.29
770.836	20069.71
771.171	20039.43
771.507	19904.74
771.842	19836.27
772.178	19804.86
772.513	19772.55
772.849	19656.16
773.184	19620.68
773.519	19675.82
773.855	19476.73
774.19	19465.89
774.525	19451.88
774.86	19407.58
775.195	19342.27
775.53	19269.06
775.865	19048.5
776.2	18987.03
776.535	18888.27
776.87	18951.55
777.205	18840.59
777.539	18791.55
777.874	18747.71
778.209	18640.37
778.543	18601.73
778.878	18387.72
779.212	18382.07
779.547	18278.8
779.881	18408.74
780.215	18215.3
780.55	18250.1
780.884	18110.22
781.218	18029.77
781.552	18060.73
781.886	17894.4
782.22	17900.96
782.554	17790.9
782.888	17618.25
783.222	17556.33
783.556	17570.57
783.889	17474.07
784.223	17292.38
784.557	17409.67
784.89	17421.87
785.224	17297.13
785.557	17218.94
785.891	17129.9
786.224	17026.18
786.558	17046.06
786.891	16913.19
787.224	16799.29
787.557	16879.97
787.891	16726.52
788.224	16785.73
788.557	16774.43
788.89	16651.72
789.223	16672.74
789.556	16454.21
789.888	16426.19
790.221	16366.98
790.554	16289.02
790.887	16246.08
791.219	16178.06
791.552	16164.96
791.884	16131.96
792.217	16176.93
792.549	15985.3
792.882	15911.86
793.214	15840.45
793.546	15837.96
793.879	15776.04
794.211	15629.15
794.543	15680.9
794.875	15636.38
795.207	15569.72
795.539	15587.34
795.871	15560.45
796.203	15489.95
796.535	15369.05
796.867	15281.59
797.198	15251.53
797.53	15300.12
797.862	15090.86
798.193	15193
798.525	15087.92
798.856	15007.25
799.188	14876.18
799.519	14863.52
799.85	14727.03
800.182	14770.19
800.513	14814.26
800.844	14710.98
801.175	14656.97
801.506	14698.55
801.837	14578.33
802.168	14472.35
802.499	14473.02
802.83	14477.32
803.161	14395.51
803.491	14376.3
803.822	14419.47
804.153	14260.37
804.483	14138.57
804.814	14181.51
805.145	14161.85
805.475	14059.47
805.805	14133.15
806.136	14037.55
806.466	14034.84
806.796	13983.54
807.126	13880.72
807.457	13856.99
807.787	13779.03
808.117	13763.89
808.447	13725.47
808.777	13806.15
809.107	13697.9
809.436	13635.53
809.766	13630.79
810.096	13509.43
810.426	13579.71
810.755	13591.01
811.085	13530.9
811.414	13450.9
811.744	13366.84
812.073	13351.7
812.403	13239.84
812.732	13290.46
813.061	13258.82
813.39	13203.68
813.719	13146.05
814.049	13250.23
814.378	13071.25
814.707	12993.29
815.036	13033.06
815.365	12974.31
815.693	12803.24
816.022	12872.39
816.351	12935.66
816.68	12734.09
817.008	12894.08
817.337	12707.87
817.665	12690.47
817.994	12706.97
818.322	12709
818.651	12691.15
818.979	12645.5
819.307	12696.8
819.636	12681.21
819.964	12549.68
820.292	12525.5
820.62	12582.23
820.948	12512.4
821.276	12546.07
821.604	12478.27
821.932	12537.48
822.259	12461.78
822.587	12437.82
822.915	12440.53
823.243	12401.67
823.57	12466.3
823.898	12476.01
824.225	12410.03
824.553	12474.66
824.88	12497.93
825.207	12485.51
825.535	12445.96
825.862	12383.59
826.189	12386.98
826.516	12476.01
826.843	12505.84
827.17	12505.39
827.497	12405.06
827.824	12455.68
828.151	12530.48
828.478	12459.52
828.805	12519.4
829.131	12364.6
829.458	12377.71
829.785	12385.39
830.111	12384.94
830.438	12458.39
830.764	12358.05
831.09	12420.2
831.417	12282.35
831.743	12414.77
832.069	12365.51
832.395	12336.36
832.722	12392.17
833.048	12342.68
833.374	12308.79
833.7	12228.11
834.026	12292.29
834.351	12330.03
834.677	12256.81
835.003	12303.81
835.329	12247.55
835.654	12240.77
835.98	12245.96
836.306	12208.45
836.631	12132.52
836.956	12175.68
837.282	12157.83
837.607	12100.66
837.932	12114.67
838.258	12119.41
838.583	12078.96
838.908	12016.59
839.233	12085.52
839.558	11961.45
839.883	11980.21
840.208	11884.62
840.533	11972.07
840.858	11891.62
841.182	11892.75
841.507	11897.5
841.832	11820.44
842.156	11761.23
842.481	11749.48
842.805	11745.41
843.13	11628.58
843.454	11679.42
843.778	11596.26
844.103	11635.13
844.427	11609.14
844.751	11622.93
845.075	11516.04
845.399	11511.52
845.723	11371.86
846.047	11433.33
846.371	11363.27
846.695	11431.07
847.019	11271.75
847.343	11179.55
847.666	11205.76
847.99	11156.27
848.313	11172.55
848.637	11030.18
848.96	11134.35
849.284	10992.66
849.607	10890.29
849.931	10913.12
850.254	10820.69
850.577	10874.25
850.9	10729.62
851.223	10771.43
851.546	10687.36
851.869	10648.72
852.192	10650.3
852.515	10527.14
852.838	10581.15
853.161	10552
853.483	10470.64
853.806	10455.28
854.129	10382.74
854.451	10378.22
854.774	10254.83
855.096	10205.56
855.419	10265.68
855.741	10281.5
856.063	10134.15
856.385	10173.25
856.708	10055.51
857.03	10127.83
857.352	10067.72
857.674	10019.81
857.996	10019.13
858.318	9939.58
858.64	9991.33
858.961	9946.81
859.283	9895.29
859.605	9833.6
859.926	9828.63
860.248	9768.06
860.57	9730.32
860.891	9773.94
861.212	9715.18
861.534	9667.27
861.855	9679.93
862.176	9655.3
862.498	9642.64
862.819	9652.13
863.14	9560.84
863.461	9560.16
863.782	9569.88
864.103	9543.66
864.424	9514.51
864.745	9561.29
865.065	9547.5
865.386	9457.11
865.707	9494.4
866.027	9467.28
866.348	9453.72
866.668	9342.99
866.989	9359.03
867.309	9341.86
867.63	9341.41
867.95	9327.17
868.27	9275.19
868.59	9371.24
868.91	9278.81
869.23	9251.92
869.55	9197.68
869.87	9318.36
870.19	9267.06
870.51	9193.16
870.83	9220.05
871.15	9136.44
871.469	9215.99
871.789	9158.59
872.109	9091.47
872.428	9121.98
872.748	9189.32
873.067	9059.38
873.386	9105.93
873.706	9040.62
874.025	9039.04
874.344	8999.72
874.663	8941.42
874.982	8966.73
875.301	8993.85
875.62	8930.34
875.939	8933.51
876.258	8889.89
876.577	8888.76
876.896	8917.01
877.214	8776.9
877.533	8883.34
877.852	8769.67
878.17	8819.61
878.489	8801.31
878.807	8845.37
879.125	8828.43
879.444	8856.22
879.762	8773.06
880.08	8769.9
880.398	8695.55
880.716	8717.92
881.034	8672.72
881.352	8731.48
881.67	8706.4
881.988	8670.46
882.306	8646.51
882.624	8589.79
882.941	8603.8
883.259	8561.99
883.577	8554.31
883.894	8505.27
884.212	8570.58
884.529	8525.38
884.846	8466.63
885.164	8465.95
885.481	8493.97
885.798	8454.2
886.115	8393.18
886.432	8391.83
886.75	8407.42
887.067	8362
887.383	8333.07
887.7	8249.23
888.017	8338.27
888.334	8251.72
888.651	8245.39
888.967	8185.05
889.284	8185.05
889.6	8192.74
889.917	8129.24
890.233	8171.04
890.55	8042.01
890.866	8168.33
891.182	8046.75
891.498	8054.89
891.815	8030.25
892.131	7997.26
892.447	7947.55
892.763	7966.08
893.079	7935.57
893.395	7877.72
893.71	7875.23
894.026	7878.62
894.342	7784.61
894.657	7818.96
894.973	7773.09
895.289	7796.36
895.604	7787.1
895.92	7663.94
896.235	7643.37
896.55	7672.3
896.865	7656.03
897.181	7614.67
897.496	7550.27
897.811	7536.26
898.126	7520.66
898.441	7508.69
898.756	7527.67
899.071	7442.7
899.386	7428.69
899.7	7383.27
900.015	7359.09
900.33	7298.52
900.644	7268.47
900.959	7289.26
901.273	7259.88
901.588	7218.98
901.902	7234.34
902.216	7188.47
902.531	7216.27
902.845	7145.31
903.159	7036.83
903.473	7037.96
903.787	7012.88
904.101	7035.48
904.415	6968.81
904.729	6984.63
905.042	6929.04
905.356	6906.89
905.67	6891.53
905.984	6889.95
906.297	6855.37
906.611	6817.18
906.924	6849.95
907.237	6793.9
907.551	6753.68
907.864	6764.75
908.177	6713.68
908.491	6706.9
908.804	6666.22
909.117	6625.77
909.43	6559.33
909.743	6630.74
910.056	6580.8
910.368	6540.58
910.681	6467.13
910.994	6480.69
911.307	6433.23
911.619	6404.99
911.932	6384.2
912.244	6288.61
912.557	6356.4
912.869	6273.46
913.181	6305.33
913.494	6272.11
913.806	6277.53
914.118	6187.37
914.43	6200.7
914.742	6151.89
915.054	6118.44
915.366	6082.74
915.678	6087.48
915.99	6090.87
916.302	6007.26
916.613	5987.82
916.925	5939.01
917.236	5927.71
917.548	5923.87
917.859	5939.46
918.171	5872.57
918.482	5865.79
918.794	5815.62
919.105	5822.63
919.416	5796.64
919.727	5784.66
920.038	5761.16
920.349	5684.1
920.66	5676.19
920.971	5659.92
921.282	5639.58
921.593	5640.49
921.903	5609.98
922.214	5602.97
922.525	5557.1
922.835	5498.12
923.146	5506.25
923.456	5487.04
923.767	5501.28
924.077	5414.96
924.387	5454.96
924.697	5427.61
925.008	5336.31
925.318	5332.02
925.628	5355.75
925.938	5314.85
926.248	5284.34
926.558	5251.57
926.867	5269.88
927.177	5227.84
927.487	5175.87
927.796	5159.14
928.106	5172.48
928.416	5101.29
928.725	5133.16
929.034	5087.28
929.344	5068.98
929.653	5097.45
929.962	4999.6
930.271	5001.41
930.581	5019.94
930.89	4927.74
931.199	4950.34
931.508	4934.97
931.817	4964.35
932.125	4888.42
932.434	4872.15
932.743	4840.73
933.051	4859.26
933.36	4800.96
933.669	4721.87
933.977	4733.84
934.286	4723.68
934.594	4712.6
934.902	4675.77
935.21	4650.68
935.519	4664.02
935.827	4629.21
936.135	4609.33
936.443	4635.77
936.751	4586.5
937.059	4507.64
937.367	4565.94
937.674	4482.1
937.982	4510.57
938.29	4503.79
938.597	4443.68
938.905	4435.55
939.213	4427.86
939.52	4406.4
939.827	4402.33
940.135	4337.24
940.442	4372.72
940.749	4345.83
941.056	4337.92
941.363	4285.72
941.67	4333.18
941.977	4209.34
942.284	4242.33
942.591	4283.69
942.898	4239.17
943.205	4186.74
943.511	4167.76
943.818	4151.71
944.125	4117.14
944.431	4077.14
944.738	4072.84
945.044	4068.33
945.35	4049.12
945.657	4043.24
945.963	4068.55
946.269	3978.84
946.575	4025.84
946.881	3968.89
947.187	4000.98
947.493	3948.33
947.799	3920.53
948.105	3922.34
948.41	3928.89
948.716	3860.42
949.022	3908.1
949.327	3858.16
949.633	3796.47
949.938	3783.36
950.244	3772.74
950.549	3742.91
950.854	3741.33
951.16	3709.46
951.465	3753.31
951.77	3696.13
952.075	3701.56
952.38	3673.76
952.685	3682.8
952.99	3673.31
953.294	3640.31
953.599	3588.34
953.904	3686.64
954.209	3592.86
954.513	3590.82
954.818	3585.4
955.122	3571.39
955.426	3557.38
955.731	3520.54
956.035	3463.6
956.339	3497.49
956.643	3481.45
956.948	3438.06
957.252	3445.06
957.556	3443.93
957.86	3459.3
958.163	3364.84
958.467	3382.92
958.771	3407.1
959.075	3392.86
959.378	3361
959.682	3355.12
959.985	3346.76
960.289	3300.21
960.592	3260.21
960.896	3278.06
961.199	3284.62
961.502	3252.3
961.805	3274.67
962.108	3235.13
962.411	3194.22
962.714	3165.3
963.017	3164.39
963.32	3135.92
963.623	3098.86
963.926	3134.34
964.228	3142.47
964.531	3082.36
964.833	3108.8
965.136	3069.71
965.438	3072.19
965.741	3034.91
966.043	3037.84
966.345	3048.92
966.648	3043.49
966.95	3018.86
967.252	2973.44
967.554	2987
967.856	2987.68
968.158	2939.77
968.46	2937.06
968.761	2945.19
969.063	2910.84
969.365	2901.12
969.666	2871.52
969.968	2884.85
970.269	2862.26
970.571	2858.87
970.872	2829.94
971.174	2794.23
971.475	2807.79
971.776	2817.96
972.077	2780.22
972.378	2791.07
972.679	2769.38
972.98	2774.8
973.281	2722.6
973.582	2719.43
973.883	2715.82
974.183	2739.32
974.484	2707.23
974.785	2692.54
975.085	2655.93
975.386	2709.49
975.686	2676.5
975.986	2630.62
976.287	2618.65
976.587	2596.27
976.887	2597.86
977.187	2604.63
977.487	2553.34
977.787	2565.99
978.087	2573
978.387	2563.73
978.687	2538.2
978.987	2515.15
979.286	2541.59
979.586	2481.25
979.885	2514.92
980.185	2476.95
980.484	2468.82
980.784	2494.81
981.083	2434.24
981.382	2448.03
981.682	2415.49
981.981	2427.46
982.28	2439.44
982.579	2407.58
982.878	2391.76
983.177	2366.22
983.475	2386.11
983.774	2338.43
984.073	2304.08
984.372	2333.23
984.67	2329.84
984.969	2290.97
985.267	2364.87
985.566	2318.99
985.864	2262.5
986.162	2270.63
986.461	2246.9
986.759	2241.71
987.057	2253.68
987.355	2252.78
987.653	2243.29
987.951	2233.12
988.249	2208.04
988.547	2233.57
988.844	2180.24
989.142	2169.62
989.44	2163.06
989.737	2166.23
990.035	2141.14
990.332	2132.33
990.63	2126.68
990.927	2085.33
991.224	2096.63
991.521	2089.85
991.819	2081.71
992.116	2079.45
992.413	2094.82
992.71	2081.03
993.006	2060.69
993.303	2061.37
993.6	2017.76
993.897	2025.22
994.193	2026.8
994.49	2014.59
994.787	1998.1
995.083	1987.48
995.379	2003.52
995.676	1983.63
995.972	1958.32
996.268	1925.33
996.565	1959.68
996.861	1932.56
997.157	1942.28
997.453	1930.53
997.749	1923.07
998.044	1921.94
998.34	1899.12
998.636	1880.59
998.932	1870.64
999.227	1874.03
999.523	1822.51
999.818	1837.65
1000.114	1858.44
1000.409	1839.68
1000.704	1839.23
1001	1810.08
1001.295	1813.24
1001.59	1798.33
1001.885	1764.21
1002.18	1745.45
1002.475	1762.85
1002.77	1757.2
1003.065	1771.66
1003.359	1754.49
1003.654	1725.79
1003.949	1737.09
1004.243	1712.91
1004.538	1713.81
1004.832	1691.89
1005.127	1655.51
1005.421	1660.25
1005.715	1658.9
1006.009	1630.88
1006.304	1628.39
1006.598	1645.79
1006.892	1624.32
1007.186	1607.37
1007.48	1586.36
1007.773	1590.2
1008.067	1596.53
1008.361	1571.22
1008.655	1569.18
1008.948	1573.93
1009.242	1569.86
1009.535	1512.23
1009.829	1537.77
1010.122	1527.83
1010.415	1506.13
1010.708	1505
1011.001	1510.2
1011.295	1503.19
1011.588	1467.94
1011.881	1465.91
1012.173	1468.39
1012.466	1455.51
1012.759	1432.46
1013.052	1461.61
1013.344	1444.67
1013.637	1427.04
1013.93	1436.08
1014.222	1420.71
1014.514	1421.39
1014.807	1411.22
1015.099	1392.69
1015.391	1408.28
1015.683	1373.48
1015.976	1359.92
1016.268	1363.54
1016.56	1359.92
1016.851	1345.23
1017.143	1352.92
1017.435	1358.57
1017.727	1333.03
1018.018	1329.19
1018.31	1292.13
1018.602	1300.26
1018.893	1298.23
1019.185	1284.44
1019.476	1271.34
1019.767	1296.19
1020.058	1260.49
1020.35	1253.48
1020.641	1249.19
1020.932	1230.43
1021.223	1236.99
1021.514	1199.93
1021.804	1235.63
1022.095	1197.44
1022.386	1185.24
1022.677	1177.78
1022.967	1165.58
1023.258	1175.29
1023.548	1171.68
1023.839	1164.67
1024.129	1134.39
1024.419	1134.17
1024.709	1119.48
1025	1145.01
1025.29	1126.93
1025.58	1114.5
1025.87	1125.8
1026.16	1113.83
1026.449	1106.82
1026.739	1076.77
1027.029	1092.81
1027.319	1093.49
1027.608	1076.77
1027.898	1062.53
1028.187	1039.25
1028.477	1039.7
1028.766	1069.08
1029.055	1045.35
1029.344	1042.87
1029.634	1032.25
1029.923	1037.9
1030.212	1004.23
1030.501	1034.73
1030.79	997.45
1031.078	979.82
1031.367	994.51
1031.656	1000.16
1031.945	953.15
1032.233	967.39
1032.522	953.6
1032.81	945.92
1033.099	945.7
1033.387	956.99
1033.675	933.04
1033.963	948.18
1034.251	925.13
1034.54	924.68
1034.828	923.78
1035.116	892.36
1035.403	895.53
1035.691	902.53
1035.979	908.63
1036.267	898.69
1036.554	896.88
1036.842	879.71
1037.129	892.82
1037.417	855.08
1037.704	864.57
1037.992	862.76
1038.279	848.3
1038.566	840.16
1038.853	840.16
1039.14	840.16
