Data from hue_200_FLMS001491_00002.txt Node
Date: Tue Feb 07 16:42:43 GMT 2017
User: dcchb
Spectrometer: FLMS00149
Trigger mode: 0
Integration Time (sec): 2.000000E-2
Scans to average: 10
Electric dark correction enabled: true
Nonlinearity correction enabled: false
Boxcar width: 0
XAxis mode: Wavelengths
Number of Pixels in Spectrum: 2048
>>>>>Begin Spectral Data<<<<<
341.393	-26.2
341.776	-26.2
342.16	-26.2
342.543	-79.08
342.927	-66.88
343.31	-59.65
343.693	-55.13
344.077	-67.1
344.46	-75.46
344.843	-57.16
345.226	-59.42
345.61	-39.31
345.993	-5.86
346.376	-23.49
346.759	9.73
347.142	27.81
347.525	41.14
347.908	65.1
348.291	89.28
348.674	105.77
349.057	103.74
349.44	120.91
349.823	162.27
350.206	174.92
350.588	211.08
350.971	218.31
351.354	235.94
351.737	223.29
352.119	252.21
352.502	267.8
352.884	275.26
353.267	273.68
353.65	287.01
354.032	297.41
354.414	294.92
354.797	306.22
355.179	305.32
355.562	330.17
355.944	340.8
356.326	320.68
356.709	340.34
357.091	334.92
357.473	353.23
357.855	339.44
358.238	336.73
358.62	350.06
359.002	335.6
359.384	344.86
359.766	354.81
360.148	337.18
360.53	321.36
360.912	336.05
361.294	337.63
361.676	341.47
362.057	330.17
362.439	320.91
362.821	310.51
363.203	345.99
363.584	322.94
363.966	344.41
364.348	337.86
364.729	321.36
365.111	317.97
365.493	301.02
365.874	324.98
366.256	311.42
366.637	335.37
367.019	320.91
367.4	301.7
367.781	337.18
368.163	317.52
368.544	320.23
368.925	304.19
369.306	325.66
369.688	315.49
370.069	315.26
370.45	306.9
370.831	310.97
371.212	303.96
371.593	314.58
371.974	308.48
372.355	348.48
372.736	310.06
373.117	337.86
373.498	336.95
373.879	313
374.26	309.61
374.641	309.38
375.021	310.06
375.402	334.47
375.783	309.84
376.163	338.99
376.544	330.17
376.925	336.73
377.305	354.36
377.686	329.95
378.066	308.03
378.447	331.53
378.827	344.19
379.208	329.05
379.588	334.47
379.968	320.01
380.349	339.21
380.729	322.04
381.109	352.1
381.489	331.76
381.87	350.06
382.25	323.85
382.63	346.45
383.01	345.32
383.39	345.54
383.77	345.77
384.15	337.18
384.53	346.67
384.91	366.78
385.29	358.2
385.67	367.91
386.049	372.66
386.429	366.78
386.809	347.35
387.189	380.34
387.568	369.95
387.948	374.02
388.328	368.14
388.707	371.76
389.087	372.66
389.466	371.98
389.846	365.88
390.225	382.38
390.605	346.9
390.984	395.26
391.363	376.73
391.743	390.06
392.122	386.67
392.501	415.82
392.881	398.42
393.26	390.74
393.639	413.34
394.018	371.98
394.397	385.99
394.776	400.91
395.155	388.48
395.534	402.26
395.913	410.4
396.292	417.18
396.671	398.2
397.05	388.25
397.429	437.97
397.808	421.02
398.186	417.63
398.565	397.97
398.944	446.78
399.323	434.8
399.701	426.9
400.08	428.7
400.458	431.19
400.837	436.84
401.215	431.87
401.594	430.29
401.972	419.21
402.351	442.26
402.729	454.92
403.107	450.4
403.486	467.57
403.864	454.69
404.242	447.91
404.62	470.74
404.999	478.65
405.377	465.09
405.755	480.91
406.133	497.4
406.511	503.05
406.889	501.02
407.267	520.23
407.645	510.28
408.023	538.31
408.401	521.13
408.779	522.49
409.156	525.65
409.534	550.96
409.912	562.26
410.29	575.82
410.667	556.84
411.045	594.57
411.422	589.38
411.8	602.03
412.178	598.64
412.555	604.52
412.933	644.52
413.31	653.56
413.687	646.32
414.065	642.03
414.442	674.12
414.819	684.29
415.197	693.56
415.574	704.85
415.951	704.18
416.328	739.2
416.705	752.54
417.082	754.34
417.46	728.13
417.837	742.59
418.214	749.37
418.591	784.63
418.967	795.47
419.344	821.46
419.721	800.45
420.098	814.91
420.475	816.72
420.852	847.68
421.228	886.77
421.605	858.07
421.982	906.43
422.358	914.11
422.735	920.44
423.111	920.22
423.488	969.03
423.864	995.69
424.241	1005.64
424.617	996.15
424.994	976.94
425.37	1035.92
425.746	1056.03
426.123	1077.95
426.499	1077.5
426.875	1096.03
427.251	1146.65
427.627	1159.53
428.003	1138.97
428.379	1162.02
428.756	1178.97
429.132	1207.89
429.507	1206.31
429.883	1220.55
430.259	1205.86
430.635	1249.02
431.011	1270.04
431.387	1300.09
431.763	1327.21
432.138	1342.58
432.514	1360.88
432.89	1359.98
433.265	1393.65
433.641	1421.45
434.016	1439.3
434.392	1470.48
434.767	1519.52
435.143	1539.18
435.518	1558.39
435.894	1568.56
436.269	1614.89
436.644	1658.28
437.02	1678.61
437.395	1702.79
437.77	1731.95
438.145	1742.79
438.52	1811.27
438.895	1817.59
439.271	1855.11
439.646	1876.35
440.021	1917.25
440.395	1965.39
440.77	1936.91
441.145	1942.79
441.52	1980.53
441.895	2030.7
442.27	2043.12
442.645	2072.73
443.019	2116.57
443.394	2112.05
443.769	2162.44
444.143	2124.93
444.518	2185.04
444.892	2213.29
445.267	2239.28
445.641	2244.7
446.016	2278.37
446.39	2294.64
446.764	2315.43
447.139	2293.97
447.513	2347.3
447.887	2354.3
448.262	2360.4
448.636	2405.37
449.01	2409.44
449.384	2461.19
449.758	2443.11
450.132	2463
450.506	2487.63
450.88	2527.86
451.254	2520.17
451.628	2553.39
452.002	2571.47
452.376	2610.79
452.75	2674.07
453.123	2650.57
453.497	2710.45
453.871	2744.8
454.244	2790
454.618	2792.48
454.992	2857.11
455.365	2849.88
455.739	2924.01
456.112	2921.07
456.486	2946.38
456.859	2995.87
457.232	3053.95
457.606	3068.41
457.979	3091.68
458.352	3136.43
458.725	3202.42
459.099	3181.63
459.472	3277.89
459.845	3277.89
460.218	3305.92
460.591	3347.95
460.964	3376.2
461.337	3435.86
461.71	3465.91
462.083	3573.93
462.456	3548.17
462.829	3584.78
463.201	3648.51
463.574	3631.78
463.947	3706.13
464.32	3747.03
464.692	3822.51
465.065	3878.78
465.438	3905.45
465.81	3936.63
466.183	3986.8
466.555	4114.93
466.928	4084.2
467.3	4108.83
467.672	4170.75
468.045	4293.23
468.417	4281.94
468.789	4349.73
469.161	4364.42
469.534	4425.43
469.906	4526.45
470.278	4550.63
470.65	4598.99
471.022	4700.91
471.394	4781.36
471.766	4775.03
472.138	4848.93
472.51	4949.49
472.882	5003.27
473.253	5081.46
473.625	5134.57
473.997	5225.87
474.369	5252.76
474.74	5345.18
475.112	5420.21
475.484	5516.25
475.855	5592.41
476.227	5606.42
476.598	5819.52
476.97	5813.19
477.341	5911.5
477.713	6017.26
478.084	6066.75
478.455	6194.2
478.827	6297.25
479.198	6453.18
479.569	6385.16
479.94	6593.97
480.311	6671.7
480.682	6774.53
481.053	6906.05
481.424	6962.77
481.795	7019.72
482.166	7164.8
482.537	7272.59
482.908	7363.89
483.279	7496.77
483.65	7539.7
484.021	7642.3
484.391	7769.3
484.762	7874.61
485.133	7844.1
485.503	7961.39
485.874	8187.14
486.244	8172.91
486.615	8402.73
486.985	8435.72
487.356	8634.82
487.726	8657.19
488.097	8798.65
488.467	8741.25
488.837	8969.04
489.207	9154.35
489.578	9134.24
489.948	9290.39
490.318	9323.38
490.688	9375.36
491.058	9498.75
491.428	9591.85
491.798	9724.5
492.168	9830.72
492.538	9926.08
492.908	9984.38
493.278	10102.57
493.648	10109.13
494.017	10237.26
494.387	10302.79
494.757	10356.58
495.126	10461.66
495.496	10446.29
495.866	10548.89
496.235	10604.03
496.605	10740.3
496.974	10717.92
497.344	10883.8
497.713	10894.42
498.082	10908.65
498.452	11017.58
498.821	11100.51
499.19	11059.16
499.559	11124.24
499.928	11216.22
500.298	11280.4
500.667	11257.35
501.036	11271.58
501.405	11326.04
501.774	11352.03
502.143	11364.91
502.512	11453.72
502.88	11551.12
503.249	11534.4
503.618	11576.88
503.987	11580.95
504.356	11668.41
504.724	11742.76
505.093	11717.67
505.462	11665.24
505.83	11781.4
506.199	11857.78
506.567	11929.64
506.936	12014.61
507.304	12010.55
507.672	11945.01
508.041	11986.59
508.409	12107.94
508.777	12156.76
509.145	12226.36
509.514	12144.33
509.882	12266.13
510.25	12238.56
510.618	12360.59
510.986	12273.82
511.354	12306.58
511.722	12370.99
512.09	12526.69
512.458	12419.8
512.826	12584.54
513.193	12536.41
513.561	12535.73
513.929	12518.33
514.297	12685.78
514.664	12666.35
515.032	12678.1
515.4	12725.1
515.767	12712
516.135	12793.8
516.502	12732.56
516.869	12850.52
517.237	12763.29
517.604	12754.26
517.972	12867.47
518.339	12829.96
518.706	12792.22
519.073	12849.85
519.44	12870.86
519.808	12941.14
520.175	12872.22
520.542	12977.98
520.909	13020.46
521.276	12973.91
521.643	13018.2
522.009	13155.15
522.376	13109.5
522.743	13098.88
523.11	13152.44
523.477	13144.53
523.843	13138.65
524.21	13268.37
524.577	13262.26
524.943	13210.29
525.31	13289.38
525.676	13342.04
526.043	13306.56
526.409	13375.26
526.776	13401.7
527.142	13357.4
527.508	13386.1
527.874	13302.49
528.241	13424.97
528.607	13420.68
528.973	13397.4
529.339	13385.88
529.705	13472.65
530.071	13449.6
530.437	13423.39
530.803	13435.37
531.169	13437.85
531.535	13446.67
531.901	13403.96
532.267	13403.28
532.632	13325.99
532.998	13387.91
533.364	13259.1
533.73	13340.91
534.095	13408.93
534.461	13288.7
534.826	13302.26
535.192	13266.78
535.557	13289.61
535.923	13227.01
536.288	13203.06
536.653	13198.54
537.019	13130.52
537.384	13091.42
537.749	13037.41
538.114	13011.88
538.479	12906.79
538.845	13007.81
539.21	12886.45
539.575	12888.49
539.94	12891.65
540.305	12789.96
540.67	12792.45
541.034	12724.43
541.399	12805.1
541.764	12627.48
542.129	12666.12
542.494	12561.27
542.858	12572.11
543.223	12557.65
543.587	12514.49
543.952	12426.13
544.316	12365.79
544.681	12369.63
545.045	12415.28
545.41	12374.38
545.774	12296.87
546.138	12313.14
546.503	12262.06
546.867	12134.16
547.231	12074.95
547.595	12118.79
547.959	12060.26
548.324	12014.39
548.688	11916.31
549.052	11963.99
549.416	11860.72
549.779	11841.96
550.143	11785.92
550.507	11803.32
550.871	11751.8
551.235	11654.4
551.599	11764.45
551.962	11646.71
552.326	11595.42
552.689	11646.49
553.053	11555.87
553.417	11506.6
553.78	11583.89
554.143	11469.54
554.507	11487.4
554.87	11408.98
555.234	11477.68
555.597	11380.96
555.96	11398.36
556.323	11418.47
556.686	11298.25
557.05	11289.66
557.413	11252.15
557.776	11270
558.139	11168.53
558.502	11273.39
558.865	11230.23
559.228	11224.13
559.59	11223.67
559.953	11161.98
560.316	11255.09
560.679	11202.43
561.041	11214.63
561.404	11172.83
561.767	11224.8
562.129	11150.46
562.492	11221.19
562.854	11134.18
563.217	11144.13
563.579	11077.01
563.941	11167.4
564.304	11149.55
564.666	11163.11
565.028	11229.32
565.39	11174.41
565.753	11190.91
566.115	11160.4
566.477	11164.92
566.839	11163.56
567.201	11193.39
567.563	11148.65
567.925	11278.81
568.287	11286.72
568.648	11272.03
569.01	11204.47
569.372	11273.39
569.734	11204.01
570.095	11219.15
570.457	11380.51
570.819	11263.22
571.18	11210.57
571.542	11330.34
571.903	11359.94
572.265	11315.42
572.626	11330.11
572.987	11333.05
573.349	11342.09
573.71	11374.4
574.071	11421.86
574.432	11384.57
574.794	11406.49
575.155	11387.74
575.516	11315.42
575.877	11385.03
576.238	11362.2
576.599	11386.38
576.96	11331.47
577.32	11408.75
577.681	11461.63
578.042	11364.01
578.403	11437.91
578.763	11426.61
579.124	11469.54
579.485	11447.4
579.845	11456.44
580.206	11348.42
580.566	11431.8
580.927	11420.05
581.287	11413.5
581.648	11333.05
582.008	11481.97
582.368	11394.97
582.728	11509.77
583.089	11432.26
583.449	11463.22
583.809	11449.88
584.169	11403.78
584.529	11383.67
584.889	11409.66
585.249	11445.14
585.609	11411.01
585.969	11437.91
586.329	11383.9
586.688	11464.35
587.048	11379.38
587.408	11411.69
587.768	11373.73
588.127	11329.43
588.487	11300.28
588.846	11411.47
589.206	11280.17
589.565	11326.04
589.925	11440.62
590.284	11337.12
590.643	11356.1
591.003	11347.06
591.362	11380.96
591.721	11306.16
592.08	11328.53
592.44	11314.52
592.799	11353.84
593.158	11298.02
593.517	11304.35
593.876	11286.72
594.235	11309.32
594.593	11324.91
594.952	11288.98
595.311	11259.61
595.67	11273.16
596.029	11308.87
596.387	11215.31
596.746	11326.95
597.104	11239.04
597.463	11333.05
597.822	11255.99
598.18	11185.26
598.538	11127.18
598.897	11265.71
599.255	11171.7
599.613	11316.1
599.972	11289.66
600.33	11300.51
600.688	11252.83
601.046	11264.58
601.404	11291.69
601.762	11215.31
602.12	11319.04
602.478	11369.88
602.836	11271.58
603.194	11245.82
603.552	11231.13
603.91	11190.23
604.268	11277.01
604.625	11195.2
604.983	11253.28
605.341	11213.96
605.698	11209.66
606.056	11234.97
606.413	11277.23
606.771	11322.43
607.128	11307.29
607.485	11163.11
607.843	11218.7
608.2	11303.22
608.557	11262.99
608.914	11231.58
609.272	11213.05
609.629	11319.04
609.986	11325.59
610.343	11315.42
610.7	11397
611.057	11298.25
611.414	11210.11
611.771	11329.43
612.127	11408.53
612.484	11398.81
612.841	11364.46
613.198	11340.96
613.554	11353.39
613.911	11461.18
614.267	11393.61
614.624	11359.04
614.98	11352.03
615.337	11448.07
615.693	11443.56
616.05	11451.92
616.406	11503.44
616.762	11439.94
617.118	11437.68
617.475	11386.83
617.831	11490.33
618.187	11465.7
618.543	11468.87
618.899	11527.62
619.255	11509.32
619.611	11416.89
619.967	11522.87
620.323	11448.07
620.678	11491.46
621.034	11441.75
621.39	11462.54
621.746	11526.94
622.101	11598.58
622.457	11519.49
622.812	11478.36
623.168	11505.93
623.523	11449.66
623.879	11551.8
624.234	11452.59
624.589	11541.41
624.945	11574.63
625.3	11533.27
625.655	11489.66
626.01	11561.74
626.365	11555.64
626.72	11477.45
627.075	11501.41
627.43	11454.63
627.785	11423.67
628.14	11519.03
628.495	11501.63
628.85	11472.93
629.205	11390
629.559	11471.58
629.914	11344.8
630.269	11361.07
630.623	11405.59
630.978	11324.01
631.332	11344.57
631.687	11408.75
632.041	11412.14
632.396	11357.46
632.75	11298.93
633.104	11363.11
633.459	11240.62
633.813	11270.45
634.167	11237.01
634.521	11306.84
634.875	11275.42
635.229	11194.52
635.583	11233.17
635.937	11154.52
636.291	11153.17
636.645	11136.44
636.999	11172.83
637.352	11131.25
637.706	11218.02
638.06	11095.32
638.413	11113.39
638.767	11099.84
639.121	11077.46
639.474	11025.71
639.828	11005.83
640.181	11066.62
640.534	11056.45
640.888	10972.61
641.241	10926.51
641.594	10948.88
641.947	10955.66
642.301	10953.62
642.654	11004.47
643.007	10940.29
643.36	10947.52
643.713	10915.66
644.066	10937.81
644.419	10967.41
644.771	10792.27
645.124	10806.28
645.477	10733.52
645.83	10691.03
646.182	10586.18
646.535	10539.17
646.888	10612.84
647.24	10552.05
647.593	10581.43
647.945	10534.43
648.298	10494.65
648.65	10521.55
649.002	10486.07
649.355	10461.21
649.707	10544.6
650.059	10616.68
650.411	10747.75
650.763	10688.09
651.115	10791.82
651.467	10770.58
651.819	10796.79
652.171	10784.36
652.523	10779.84
652.875	10759.51
653.227	10758.38
653.578	10767.64
653.93	10783.01
654.282	10728.77
654.633	10674.54
654.985	10711.37
655.337	10648.1
655.688	10714.08
656.039	10786.62
656.391	10727.64
656.742	10732.84
657.094	10708.43
657.445	10798.83
657.796	10733.74
658.147	10740.07
658.498	10707.3
658.849	10768.32
659.2	10756.12
659.551	10752.5
659.902	10757.92
660.253	10752.5
660.604	10790.92
660.955	10733.97
661.306	10758.15
661.656	10786.62
662.007	10790.46
662.358	10783.01
662.708	10843.8
663.059	10774.19
663.409	10720.86
663.76	10819.84
664.11	10749.56
664.461	10804.93
664.811	10851.25
665.161	10768.77
665.511	10769.45
665.862	10792.95
666.212	10854.19
666.562	10833.4
666.912	10843.8
667.262	10760.86
667.612	10756.34
667.962	10821.88
668.312	10751.82
668.662	10842.21
669.011	10778.26
669.361	10723.12
669.711	10773.52
670.06	10752.27
670.41	10783.23
670.76	10690.81
671.109	10782.78
671.459	10784.36
671.808	10777.81
672.157	10778.94
672.507	10664.82
672.856	10673.41
673.205	10671.15
673.554	10723.8
673.904	10688.55
674.253	10725.38
674.602	10653.52
674.951	10612.39
675.3	10483.13
675.649	10640.86
675.998	10602.22
676.346	10615.78
676.695	10702.78
677.044	10493.98
677.393	10535.33
677.741	10570.36
678.09	10565.16
678.438	10538.49
678.787	10591.6
679.135	10573.97
679.484	10448.78
679.832	10464.6
680.181	10436.58
680.529	10427.31
680.877	10415.79
681.225	10405.84
681.573	10516.57
681.922	10394.32
682.27	10351.61
682.618	10347.09
682.966	10331.95
683.314	10259.18
683.661	10284.26
684.009	10184.83
684.357	10169.69
684.705	10220.99
685.053	10119.52
685.4	10187.77
685.748	10108
686.095	10143.93
686.443	10077.49
686.79	10095.79
687.138	10091.73
687.485	10072.07
687.832	9975.35
688.18	9994.55
688.527	9936.02
688.874	9935.57
689.221	9929.47
689.568	9896.93
689.915	9786.88
690.262	9795.91
690.609	9766.99
690.956	9797.04
691.303	9715.46
691.65	9720.66
691.997	9683.38
692.344	9630.04
692.69	9615.81
693.037	9624.62
693.383	9514.79
693.73	9582.14
694.077	9485.87
694.423	9484.51
694.769	9391.63
695.116	9359.77
695.462	9390.28
695.808	9337.17
696.155	9340.33
696.501	9292.88
696.847	9253.1
697.193	9131.3
697.539	9169.49
697.885	9108.25
698.231	9105.54
698.577	9026.9
698.923	9061.02
699.269	9042.71
699.614	8909.84
699.96	8910.51
700.306	8891.98
700.651	8897.41
700.997	8840.01
701.342	8770.18
701.688	8739.67
702.033	8846.79
702.379	8731.76
702.724	8694.47
703.069	8686.11
703.415	8570.86
703.76	8603.63
704.105	8627.81
704.45	8663.74
704.795	8501.26
705.14	8442.28
705.485	8579.45
705.83	8439.57
706.175	8494.93
706.52	8389.62
706.865	8382.17
707.209	8372.68
707.554	8269.18
707.899	8324.09
708.243	8249.97
708.588	8322.06
708.932	8213.81
709.277	8189.18
709.621	8244.77
709.966	8186.47
710.31	8162.51
710.654	8078.22
710.998	8051.33
711.342	8096.52
711.687	8023.76
712.031	8021.27
712.375	8063.3
712.719	7986.92
713.063	7954.83
713.407	7988.73
713.75	7976.08
714.094	7958.22
714.438	7961.84
714.782	7967.04
715.125	7868.96
715.469	7875.74
715.812	7851.79
716.156	7849.3
716.499	7784.22
716.843	7848.17
717.186	7775.63
717.53	7842.75
717.873	7799.13
718.216	7798.45
718.559	7732.24
718.902	7648.63
719.246	7713.48
719.589	7685.91
719.932	7635.75
720.275	7715.29
720.617	7712.35
720.96	7624.67
721.303	7649.53
721.646	7679.59
721.989	7588.29
722.331	7626.03
722.674	7631.23
723.016	7611.34
723.359	7579.02
723.701	7610.89
724.044	7522.75
724.386	7520.72
724.729	7585.8
725.071	7594.16
725.413	7570.66
725.755	7542.64
726.097	7494.73
726.439	7483.21
726.782	7475.07
727.124	7573.83
727.465	7466.26
727.807	7468.29
728.149	7451.8
728.491	7437.78
728.833	7540.83
729.175	7420.16
729.516	7509.2
729.858	7492.25
730.199	7467.39
730.541	7367.05
730.882	7493.6
731.224	7443.89
731.565	7461.51
731.906	7460.61
732.248	7457.67
732.589	7404.11
732.93	7461.29
733.271	7444.56
733.612	7441.63
733.953	7435.52
734.294	7398.46
734.635	7436.65
734.976	7462.64
735.317	7448.86
735.658	7456.99
735.999	7477.33
736.339	7461.29
736.68	7517.56
737.021	7438.01
737.361	7430.55
737.702	7513.71
738.042	7488.86
738.383	7429.88
738.723	7507.16
739.063	7479.59
739.404	7522.08
739.744	7511.46
740.084	7564.56
740.424	7525.01
740.764	7605.69
741.104	7643.65
741.444	7523.43
741.784	7528.4
742.124	7555.07
742.464	7639.14
742.804	7642.98
743.143	7633.71
743.483	7655.63
743.823	7671
744.162	7681.62
744.502	7776.53
744.841	7742.18
745.181	7846.36
745.52	7777.66
745.86	7831.45
746.199	7886.13
746.538	7992.35
746.877	7940.14
747.216	8014.04
747.556	8033.7
747.895	8143.75
748.234	8107.15
748.573	8195.5
748.911	8199.8
749.25	8252.9
749.589	8350.98
749.928	8451.32
750.267	8498.55
750.605	8576.06
750.944	8635.49
751.283	8719.78
751.621	8849.5
751.96	8864.19
752.298	8964.07
752.636	9065.76
752.975	9137.18
753.313	9185.08
753.651	9412.65
753.989	9450.61
754.327	9535.81
754.666	9632.3
755.004	9783.49
755.342	9935.8
755.679	10000.66
756.017	10112.74
756.355	10379.85
756.693	10419.4
757.031	10627.98
757.368	10751.14
757.706	10877.24
758.044	11037.46
758.381	11245.59
758.719	11350
759.056	11553.16
759.394	11667.05
759.731	11805.13
760.068	12006.7
760.405	12250.54
760.743	12364.43
761.08	12536.41
761.417	12742.05
761.754	12970.97
762.091	13069.5
762.428	13218.88
762.765	13338.87
763.102	13681.01
763.438	13816.37
763.775	13925.75
764.112	14196.03
764.449	14404.61
764.785	14513.76
765.122	14627.43
765.458	14743.58
765.795	14934.76
766.131	15178.82
766.467	15287.75
766.804	15489.55
767.14	15617.68
767.476	15706.04
767.812	15986.94
768.148	16175.63
768.485	16150.1
768.821	16387.15
769.157	16446.14
769.492	16698.56
769.828	16769.74
770.164	16859.23
770.5	16958.21
770.836	17126.8
771.171	17193.46
771.507	17376.05
771.842	17398.2
772.178	17578.31
772.513	17706.44
772.849	17797.06
773.184	17722.26
773.519	17948.02
773.855	18112.98
774.19	18131.74
774.525	18245.41
774.86	18322.47
775.195	18445.4
775.53	18526.31
775.865	18556.59
776.2	18498.28
776.535	18468
776.87	18641.56
777.205	18655.57
777.539	18657.6
777.874	18778.5
778.209	18775.11
778.543	18825.06
778.878	18793.87
779.212	18818.28
779.547	18833.19
779.881	19038.16
780.215	19018.95
780.55	19049.68
780.884	18954.32
781.218	19027.31
781.552	19132.17
781.886	19121.77
782.22	19031.6
782.554	19121.77
782.888	19007.65
783.222	19045.84
783.556	19007.88
783.889	19092.39
784.223	18912.51
784.557	18987.99
784.89	19116.12
785.224	18975.33
785.557	19031.6
785.891	18990.48
786.224	19033.64
786.558	19087.2
786.891	18907.99
787.224	18833.64
787.557	18778.73
787.891	18975.79
788.224	18900.99
788.557	18955.22
788.89	18860.76
789.223	18930.82
789.556	18875.22
789.888	18808.11
790.221	18771.72
790.554	18755.91
790.887	18862.34
791.219	18609.92
791.552	18731.27
791.884	18539.64
792.217	18612.63
792.549	18596.59
792.882	18561.11
793.214	18436.14
793.546	18525.18
793.879	18329.02
794.211	18296.71
794.543	18439.53
794.875	18481.11
795.207	18432.52
795.539	18355.69
795.871	18317.05
796.203	18246.09
796.535	18203.38
796.867	18039.31
797.198	18081.12
797.53	18144.62
797.862	18089.48
798.193	18061.91
798.525	17914.12
798.856	17946.89
799.188	17813.78
799.519	17847.68
799.85	17689.04
800.182	17781.02
800.513	17724.07
800.844	17604.07
801.175	17715.03
801.506	17667.57
801.837	17629.61
802.168	17477.29
802.499	17491.31
802.83	17407.69
803.161	17491.53
803.491	17472.78
803.822	17483.85
804.153	17353.46
804.483	17247.47
804.814	17160.24
805.145	17183.29
805.475	17060.13
805.805	17168.38
806.136	17088.15
806.466	17094.71
806.796	17070.75
807.126	16873.92
807.457	16894.26
807.787	16880.7
808.117	16801.38
808.447	16822.17
808.777	16802.74
809.107	16760.48
809.436	16737.65
809.766	16672.57
810.096	16612.01
810.426	16511.44
810.755	16527.04
811.085	16568.39
811.414	16436.42
811.744	16465.34
812.073	16438.45
812.403	16394.39
812.732	16367.72
813.061	16396.42
813.39	16271
813.719	16115.07
814.049	16265.8
814.378	16255.41
814.707	16145.35
815.036	16218.12
815.365	16074.39
815.693	15983.1
816.022	15938.8
816.351	15883.21
816.68	15915.98
817.008	16027.62
817.337	15817.23
817.665	15770.67
817.994	15871.69
818.322	15821.29
818.651	15765.02
818.979	15677.12
819.307	15726.83
819.636	15747.4
819.964	15688.64
820.292	15759.15
820.62	15675.08
820.948	15708.08
821.276	15690.9
821.604	15666.27
821.932	15693.16
822.259	15711.47
822.587	15654.97
822.915	15517.35
823.243	15619.04
823.57	15541.3
823.898	15553.73
824.225	15506.27
824.553	15591.92
824.88	15661.3
825.207	15630.79
825.535	15698.13
825.862	15730.9
826.189	15607.97
826.516	15699.49
826.843	15642.54
827.17	15584.92
827.497	15713.27
827.824	15682.77
828.151	15605.03
828.478	15613.16
828.805	15714.18
829.131	15666.95
829.458	15722.31
829.785	15613.16
830.111	15644.8
830.438	15658.59
830.764	15689.32
831.09	15779.71
831.417	15757.57
831.743	15672.37
832.069	15652.94
832.395	15600.28
832.722	15696.78
833.048	15556.22
833.374	15607.97
833.7	15532.26
834.026	15596.67
834.351	15532.71
834.677	15616.55
835.003	15565.25
835.329	15551.47
835.654	15564.58
835.98	15485.03
836.306	15470.79
836.631	15419.04
836.956	15471.47
837.282	15490.23
837.607	15363.23
837.932	15310.57
838.258	15291.14
838.583	15311.7
838.908	15209.78
839.233	15308.76
839.558	15208.2
839.883	15214.98
840.208	15203.23
840.533	15181.99
840.858	15172.04
841.182	15054.76
841.507	15135.21
841.832	15053.4
842.156	15012.27
842.481	15108.09
842.805	15012.5
843.13	14962.56
843.454	15008.66
843.778	14832.62
844.103	14862.45
844.427	14841.66
844.751	14821.55
845.075	14824.03
845.399	14705.39
845.723	14671.72
846.047	14639.63
846.371	14460.2
846.695	14542
847.019	14372.74
847.343	14360.54
847.666	14262.24
847.99	14220.66
848.313	14172.07
848.637	14092.52
848.96	14169.36
849.284	14074.67
849.607	13953.09
849.931	13924.39
850.254	13884.85
850.577	13780.89
850.9	13690.05
851.223	13694.8
851.546	13704.74
851.869	13530.73
852.192	13590.17
852.515	13537.51
852.838	13453.45
853.161	13408.93
853.483	13355.82
853.806	13279.66
854.129	13255.48
854.451	13184.98
854.774	13130.97
855.096	13139.78
855.419	13042.38
855.741	13069.73
856.063	12984.76
856.385	12893.91
856.708	12850.07
857.03	12861.14
857.352	12848.94
857.674	12835.83
857.996	12741.6
858.318	12766.46
858.64	12705.89
858.961	12699.57
859.283	12598.78
859.605	12525.79
859.926	12575.05
860.248	12521.27
860.57	12526.69
860.891	12382.74
861.212	12443.3
861.534	12362.63
861.855	12333.25
862.176	12312.46
862.498	12344.32
862.819	12316.75
863.14	12235.62
863.461	12231.33
863.782	12213.48
864.103	12220.48
864.424	12214.16
864.745	12200.6
865.065	12098.45
865.386	12093.48
865.707	12039.7
866.027	12091.45
866.348	12021.84
866.668	12064.1
866.989	12027.49
867.309	11916.76
867.63	11960.83
867.95	11905.01
868.27	11900.94
868.59	11875.41
868.91	11830.44
869.23	11831.34
869.55	11816.43
869.87	11921.28
870.19	11779.59
870.51	11801.74
870.83	11803.77
871.15	11743.21
871.469	11740.27
871.789	11770.78
872.109	11740.72
872.428	11682.42
872.748	11648.07
873.067	11634.28
873.386	11669.09
873.706	11588.86
874.025	11597.22
874.344	11527.17
874.663	11557.9
874.982	11505.7
875.301	11493.5
875.62	11478.58
875.939	11462.31
876.258	11439.26
876.577	11408.75
876.896	11442.43
877.214	11377.57
877.533	11390.68
877.852	11342.09
878.17	11377.12
878.489	11390.45
878.807	11342.99
879.125	11252.37
879.444	11218.25
879.762	11260.96
880.08	11231.13
880.398	11189.1
880.716	11200.17
881.034	11131.92
881.352	11065.03
881.67	11086.5
881.988	11081.08
882.306	11089.67
882.624	11032.72
882.941	10922.66
883.259	10943.91
883.577	10907.52
883.894	10932.61
884.212	10926.05
884.529	10864.81
884.846	10869.78
885.164	10763.57
885.481	10658.94
885.798	10745.04
886.115	10758.6
886.432	10707.53
886.75	10694.2
887.067	10755.44
887.383	10570.81
887.7	10621.43
888.017	10604.71
888.334	10622.33
888.651	10534.2
888.967	10650.36
889.284	10501.21
889.6	10478.83
889.917	10383.7
890.233	10395.9
890.55	10355.9
890.866	10423.24
891.182	10307.77
891.498	10336.24
891.815	10285.39
892.131	10203.81
892.447	10203.36
892.763	10195.9
893.079	10111.84
893.395	10115.23
893.71	10086.75
894.026	10030.03
894.342	10009.47
894.657	9907.55
894.973	9928.11
895.289	9907.55
895.604	9900.77
895.92	9828.46
896.235	9762.92
896.55	9852.64
896.865	9714.11
897.181	9728.57
897.496	9722.7
897.811	9651.06
898.126	9599.31
898.441	9554.79
898.756	9548.69
899.071	9496.26
899.386	9479.99
899.7	9354.34
900.015	9357.73
900.33	9326.77
900.644	9284.97
900.959	9321.35
901.273	9251.3
901.588	9192.77
901.902	9180.56
902.216	9152.54
902.531	9186.21
902.845	9120.9
903.159	9065.99
903.473	9003.85
903.787	9018.99
904.101	8871.19
904.415	8924.75
904.729	8881.36
905.042	8830.52
905.356	8839.78
905.67	8764.76
905.984	8796.62
906.297	8737.64
906.611	8654.25
906.924	8650.41
907.237	8606.79
907.551	8632.78
907.864	8543.74
908.177	8543.97
908.491	8527.25
908.804	8423.97
909.117	8367.93
909.43	8360.7
909.743	8234.83
910.056	8291.1
910.368	8268.05
910.681	8236.41
910.994	8209.06
911.307	8284.09
911.619	8089.97
911.932	8084.77
912.244	8045
912.557	8052.23
912.869	7976.75
913.181	7932.91
913.494	7911.9
913.806	7877.55
914.118	7893.37
914.43	7801.16
914.742	7851.11
915.054	7802.75
915.366	7758.68
915.678	7673.03
915.99	7679.13
916.302	7609.53
916.613	7651.11
916.925	7534.73
917.236	7558.23
917.548	7477.56
917.859	7487.5
918.171	7435.98
918.482	7395.53
918.794	7394.62
919.105	7409.08
919.416	7315.3
919.727	7363.89
920.038	7283.44
920.349	7224.46
920.66	7189.66
920.971	7190.56
921.282	7185.81
921.593	7093.84
921.903	7103.33
922.214	7062.88
922.525	7091.35
922.835	7052.26
923.146	6969.32
923.456	6960.51
923.767	6941.98
924.077	6901.75
924.387	6913.73
924.697	6795.99
925.008	6829.44
925.318	6800.06
925.628	6784.69
925.938	6741.31
926.248	6658.14
926.558	6690.46
926.867	6667.41
927.177	6661.08
927.487	6612.95
927.796	6562.33
928.106	6539.73
928.416	6511.93
928.725	6500.63
929.034	6479.84
929.344	6489.56
929.653	6404.82
929.962	6362.78
930.271	6337.7
930.581	6313.07
930.89	6278.95
931.199	6245.95
931.508	6228.55
931.817	6299.06
932.125	6237.36
932.434	6163.47
932.743	6111.94
933.051	6094.77
933.36	6138.84
933.669	6016.81
933.977	6033.98
934.286	6024.04
934.594	5981.55
934.902	5930.48
935.21	5897.94
935.519	5900.65
935.827	5933.19
936.135	5878.05
936.443	5868.33
936.751	5833.53
937.059	5798.73
937.367	5764.38
937.674	5794.44
937.982	5726.42
938.29	5689.36
938.597	5704.95
938.905	5619.3
939.213	5583.14
939.52	5621.56
939.827	5582.01
940.135	5550.83
940.442	5487.1
940.749	5472.64
941.056	5501.79
941.363	5406.43
941.67	5427.67
941.977	5404.17
942.284	5381.12
942.591	5410.04
942.898	5304.73
943.205	5324.39
943.511	5339.31
943.818	5285.98
944.125	5254.57
944.431	5197.84
944.738	5220.22
945.044	5158.3
945.35	5129.82
945.657	5156.04
945.963	5093.21
946.269	5077.62
946.575	5111.97
946.881	5050.5
947.187	5078.98
947.493	5009.6
947.799	5009.37
948.105	4975.48
948.41	4959.21
948.716	4906.1
949.022	4940
949.327	4939.55
949.633	4866.33
949.938	4853.45
950.244	4852.09
950.549	4811.41
950.854	4764.86
951.16	4785.43
951.465	4748.14
951.77	4701.36
952.075	4715.14
952.38	4675.6
952.685	4669.27
952.99	4617.07
953.294	4651.87
953.599	4625.2
953.904	4600.12
954.209	4523.06
954.513	4574.81
954.818	4531.42
955.122	4525.32
955.426	4446.22
955.731	4466.11
956.035	4454.81
956.339	4408.49
956.643	4432.21
956.948	4415.94
957.252	4334.59
957.556	4391.31
957.86	4306.57
958.163	4335.27
958.467	4350.41
958.771	4281.71
959.075	4271.31
959.378	4230.41
959.682	4216.85
959.985	4210.75
960.289	4202.16
960.592	4174.59
960.896	4136.4
961.199	4149.74
961.502	4131.43
961.805	4113.8
962.108	4100.92
962.411	4048.04
962.714	4005.33
963.017	4028.61
963.32	4026.12
963.623	3954.71
963.926	3983.41
964.228	3978.89
964.531	3952.45
964.833	3949.97
965.136	3883.08
965.438	3864.77
965.741	3852.79
966.043	3856.41
966.345	3838.78
966.648	3843.98
966.95	3812.12
967.252	3789.52
967.554	3772.8
967.856	3716.07
968.158	3696.87
968.46	3683.53
968.761	3716.07
969.063	3676.53
969.365	3671.78
969.666	3651.9
969.968	3612.8
970.269	3627.04
970.571	3601.28
970.872	3600.6
971.174	3581.39
971.475	3576.42
971.776	3565.12
972.077	3533.48
972.378	3522.18
972.679	3543.42
972.98	3492.58
973.281	3449.19
973.582	3461.17
973.883	3422.75
974.183	3448.74
974.484	3452.8
974.785	3392.47
975.085	3382.3
975.386	3396.53
975.686	3357.21
975.986	3356.76
976.287	3321.51
976.587	3330.55
976.887	3265.01
977.187	3300.72
977.487	3242.41
977.787	3239.7
978.087	3222.98
978.387	3234.05
978.687	3203.09
978.987	3203.09
979.286	3165.58
979.586	3181.63
979.885	3120.16
980.185	3136.2
980.484	3081.29
980.784	3097.33
981.083	3108.86
981.382	3080.61
981.682	3089.65
981.981	3039.71
982.28	3059.82
982.579	3060.05
982.878	3009.2
983.177	2989.31
983.475	3002.42
983.774	2937.79
984.073	2929.65
984.372	2921.52
984.67	2915.19
984.969	2926.72
985.267	2904.34
985.566	2902.54
985.864	2903.21
986.162	2867.96
986.461	2854.85
986.759	2815.31
987.057	2808.98
987.355	2793.84
987.653	2794.29
987.951	2782.54
988.249	2783.67
988.547	2738.93
988.844	2754.29
989.142	2702.54
989.44	2721.52
989.737	2731.24
990.035	2742.77
990.332	2639.04
990.63	2654.86
990.927	2676.1
991.224	2649.44
991.521	2631.58
991.819	2624.58
992.116	2627.74
992.413	2564.01
992.71	2532.6
993.006	2561.08
993.303	2545.71
993.6	2545.71
993.897	2529.21
994.193	2515.43
994.49	2491.93
994.787	2478.82
995.083	2465.71
995.379	2495.09
995.676	2470.23
995.972	2457.58
996.268	2469.55
996.565	2427.52
996.861	2402.89
997.157	2420.29
997.453	2378.48
997.749	2362.44
998.044	2371.25
998.34	2421.65
998.636	2340.29
998.932	2348.65
999.227	2290.35
999.523	2304.81
999.818	2307.52
1000.114	2269.78
1000.409	2265.94
1000.704	2255.77
1001	2266.17
1001.295	2239.28
1001.59	2227.75
1001.885	2248.99
1002.18	2202.89
1002.475	2193.85
1002.77	2160.18
1003.065	2155.66
1003.359	2147.3
1003.654	2155.44
1003.949	2105.5
1004.243	2098.72
1004.538	2092.84
1004.832	2059.85
1005.127	2051.49
1005.421	2083.12
1005.715	2047.19
1006.009	2043.58
1006.304	2012.62
1006.598	2026.85
1006.892	2013.97
1007.186	1994.76
1007.48	2001.77
1007.773	1999.96
1008.067	1952.05
1008.361	1950.25
1008.655	1937.82
1008.948	1932.17
1009.242	1922
1009.535	1895.33
1009.829	1871.15
1010.122	1884.03
1010.415	1859.4
1010.708	1870.02
1011.001	1836.12
1011.295	1816.92
1011.588	1809.46
1011.881	1790.02
1012.173	1796.13
1012.466	1771.49
1012.759	1780.31
1013.052	1767.2
1013.344	1762.91
1013.637	1771.94
1013.93	1737.14
1014.222	1717.48
1014.514	1711.38
1014.807	1689.91
1015.099	1693.3
1015.391	1685.39
1015.683	1672.06
1015.976	1691.72
1016.268	1651.04
1016.56	1646.98
1016.851	1640.87
1017.143	1636.81
1017.435	1623.47
1017.727	1622.57
1018.018	1593.64
1018.31	1602.68
1018.602	1592.74
1018.893	1544.38
1019.185	1559.52
1019.476	1566.53
1019.767	1558.39
1020.058	1517.49
1020.35	1518.84
1020.641	1514.78
1020.932	1484.27
1021.223	1468.22
1021.514	1470.94
1021.804	1485.85
1022.095	1495.79
1022.386	1436.59
1022.677	1468.45
1022.967	1427.1
1023.258	1427.1
1023.548	1387.32
1023.839	1398.85
1024.129	1428.45
1024.419	1376.02
1024.709	1362.24
1025	1370.83
1025.29	1341.9
1025.58	1359.75
1025.87	1300.32
1026.16	1312.52
1026.449	1330.6
1026.739	1335.8
1027.029	1317.27
1027.319	1294.22
1027.608	1290.83
1027.898	1279.08
1028.187	1286.99
1028.477	1265.97
1028.766	1265.52
1029.055	1250.38
1029.344	1240.21
1029.634	1247.89
1029.923	1208.8
1030.212	1216.03
1030.501	1210.83
1030.79	1209.93
1031.078	1192.3
1031.367	1200.21
1031.656	1192.53
1031.945	1181.68
1032.233	1165.63
1032.522	1157.05
1032.81	1130.61
1033.099	1116.14
1033.387	1153.2
1033.675	1120.66
1033.963	1096.71
1034.251	1115.69
1034.54	1106.43
1034.828	1086.09
1035.116	1092.41
1035.403	1102.81
1035.691	1084.28
1035.979	1077.95
1036.267	1082.92
1036.554	1044.73
1036.842	1008.8
1037.129	1026.2
1037.417	1027.56
1037.704	1049.7
1037.992	1016.26
1038.279	1021.23
1038.566	981.46
1038.853	981.46
1039.14	981.46
