Data from hue_250_FLMS001491_00026.txt Node
Date: Tue Feb 07 16:00:45 GMT 2017
User: dcchb
Spectrometer: FLMS00149
Trigger mode: 0
Integration Time (sec): 2.000000E-2
Scans to average: 10
Electric dark correction enabled: true
Nonlinearity correction enabled: false
Boxcar width: 0
XAxis mode: Wavelengths
Number of Pixels in Spectrum: 2048
>>>>>Begin Spectral Data<<<<<
341.393	-4.84
341.776	-4.84
342.16	-4.84
342.543	-45.97
342.927	-74.67
343.31	-74.45
343.693	-76.71
344.077	-54.11
344.46	-71.28
344.843	-22.02
345.226	-42.58
345.61	-43.49
345.993	-5.75
346.376	-11.85
346.759	0.35
347.142	14.36
347.525	53.46
347.908	48.49
348.291	90.97
348.674	92.55
349.057	102.05
349.44	103.63
349.823	146.34
350.206	168.03
350.588	162.38
350.971	197.86
351.354	221.36
351.737	221.82
352.119	231.76
352.502	247.35
352.884	266.11
353.267	249.84
353.65	278.54
354.032	276.73
354.414	297.75
354.797	290.06
355.179	296.39
355.562	310.63
355.944	319.67
356.326	323.73
356.709	328.71
357.091	312.44
357.473	337.75
357.855	343.85
358.238	330.29
358.62	347.46
359.002	322.6
359.384	318.54
359.766	339.33
360.148	327.8
360.53	337.07
360.912	320.57
361.294	322.6
361.676	337.52
362.057	312.66
362.439	321.47
362.821	296.84
363.203	319.21
363.584	321.02
363.966	318.31
364.348	315.6
364.729	311.53
365.111	323.96
365.493	309.5
365.874	305.43
366.256	310.18
366.637	314.7
367.019	315.15
367.4	286
367.781	300.91
368.163	297.29
368.544	295.26
368.925	292.77
369.306	311.53
369.688	308.37
370.069	290.06
370.45	307.46
370.831	310.63
371.212	283.28
371.593	328.71
371.974	323.06
372.355	302.94
372.736	308.59
373.117	318.08
373.498	327.35
373.879	295.71
374.26	294.36
374.641	316.05
375.021	302.04
375.402	308.37
375.783	300.23
376.163	302.49
376.544	318.76
376.925	303.85
377.305	323.96
377.686	299.33
378.066	321.25
378.447	291.42
378.827	338.88
379.208	347.01
379.588	337.07
379.968	320.8
380.349	341.36
380.729	317.41
381.109	327.35
381.489	336.16
381.87	320.34
382.25	298.42
382.63	315.6
383.01	334.36
383.39	326.67
383.77	333
384.15	339.78
384.53	352.43
384.91	350.17
385.29	322.6
385.67	343.17
386.049	344.3
386.429	353.11
386.809	357.41
387.189	352.21
387.568	360.12
387.948	344.75
388.328	328.93
388.707	367.58
389.087	349.95
389.466	359.44
389.846	355.82
390.225	333.68
390.605	362.83
390.984	374.81
391.363	352.43
391.743	360.8
392.122	378.87
392.501	376.39
392.881	378.65
393.26	353.79
393.639	378.65
394.018	382.04
394.397	385.88
394.776	394.24
395.155	401.47
395.534	393.34
395.913	382.04
396.292	390.4
396.671	409.61
397.05	391.98
397.429	392.89
397.808	380.23
398.186	370.51
398.565	403.51
398.944	421.36
399.323	413.45
399.701	398.76
400.08	407.35
400.458	423.39
400.837	411.19
401.215	413.68
401.594	417.29
401.972	419.33
402.351	404.18
402.729	434.69
403.107	429.04
403.486	444.18
403.864	443.51
404.242	437.86
404.62	434.92
404.999	414.81
405.377	442.83
405.755	438.99
406.133	456.39
406.511	446.22
406.889	461.58
407.267	450.96
407.645	493.45
408.023	470.17
408.401	493
408.779	484.41
409.156	491.87
409.534	496.61
409.912	494.13
410.29	479.44
410.667	517.85
411.045	534.8
411.422	541.13
411.8	518.98
412.178	530.73
412.555	534.35
412.933	569.15
413.31	566.44
413.687	576.16
414.065	572.99
414.442	581.13
414.819	576.84
415.197	578.87
415.574	609.15
415.951	599.43
416.328	613.22
416.705	629.49
417.082	616.83
417.46	628.59
417.837	646.66
418.214	622.48
418.591	646.44
418.967	646.66
419.344	643.5
419.721	639.21
420.098	680.79
420.475	676.04
420.852	684.18
421.228	676.49
421.605	681.47
421.982	718.75
422.358	739.54
422.735	737.73
423.111	738.19
423.488	742.03
423.864	778.19
424.241	795.81
424.617	788.13
424.994	787.68
425.37	799.2
425.746	795.36
426.123	813.44
426.499	809.6
426.875	813.67
427.251	845.98
427.627	873.78
428.003	855.47
428.379	863.38
428.756	850.95
429.132	886.88
429.507	915.81
429.883	928.69
430.259	925.75
430.635	945.19
431.011	956.49
431.387	980.21
431.763	973.21
432.138	993.55
432.514	1016.15
432.89	1014.11
433.265	1032.19
433.641	1041
434.016	1056.6
434.392	1075.13
434.767	1102.7
435.143	1094.34
435.518	1116.26
435.894	1122.58
436.269	1134.56
436.644	1160.32
437.02	1174.79
437.395	1194.22
437.77	1188.12
438.145	1210.26
438.52	1222.02
438.895	1247.33
439.271	1264.73
439.646	1272.41
440.021	1307.44
440.395	1302.47
440.77	1313.09
441.145	1344.27
441.52	1346.98
441.895	1351.73
442.27	1361.22
442.645	1368.45
443.019	1392.18
443.394	1409.36
443.769	1450.71
444.143	1398.28
444.518	1440.32
444.892	1438.28
445.267	1447.32
445.641	1467.43
446.016	1473.08
446.39	1480.31
446.764	1497.49
447.139	1530.26
447.513	1531.84
447.887	1518.28
448.262	1541.56
448.636	1534.1
449.01	1554.21
449.384	1560.76
449.758	1566.19
450.132	1588.33
450.506	1603.7
450.88	1633.08
451.254	1636.24
451.628	1650.71
452.002	1668.11
452.376	1680.99
452.75	1722.12
453.123	1690.93
453.497	1709.91
453.871	1739.97
454.244	1730.48
454.618	1780.65
454.992	1792.62
455.365	1808.44
455.739	1814.09
456.112	1870.59
456.486	1873.75
456.859	1895.44
457.232	1919.62
457.606	1912.39
457.979	1976.8
458.352	1985.61
458.725	1995.33
459.099	1989.91
459.472	2053.18
459.845	2047.76
460.218	2076.46
460.591	2095.67
460.964	2098.38
461.337	2132.5
461.71	2175.21
462.083	2184.48
462.456	2200.3
462.829	2166.4
463.201	2259.5
463.574	2255.89
463.947	2287.75
464.32	2326.39
464.692	2372.04
465.065	2366.84
465.438	2388.76
465.81	2421.31
466.183	2432.83
466.555	2499.27
466.928	2481.87
467.3	2491.14
467.672	2570.91
468.045	2595.54
468.417	2600.74
468.789	2587.4
469.161	2635.31
469.534	2666.95
469.906	2728.87
470.278	2765.7
470.65	2766.38
471.022	2843.89
471.394	2895.19
471.766	2914.63
472.138	2934.74
472.51	2979.71
472.882	3026.26
473.253	3034.85
473.625	3052.93
473.997	3157.33
474.369	3148.74
474.74	3191.91
475.112	3257.67
475.484	3302.87
475.855	3277.78
476.227	3392.13
476.598	3441.84
476.97	3482.52
477.341	3554.16
477.713	3585.57
478.084	3613.37
478.455	3654.27
478.827	3682.52
479.198	3771.33
479.569	3811.1
479.94	3886.35
480.311	3943.3
480.682	4007.03
481.053	4087.93
481.424	4157.31
481.795	4158.89
482.166	4182.84
482.537	4220.81
482.908	4285.66
483.279	4349.62
483.65	4444.98
484.021	4498.77
484.391	4539.67
484.762	4576.28
485.133	4614.47
485.503	4670.74
485.874	4754.58
486.244	4814.01
486.615	4857.85
486.985	4946.89
487.356	5002.03
487.726	5003.61
488.097	5117.05
488.467	5140.78
488.837	5218.52
489.207	5266.66
489.578	5405.18
489.948	5322.7
490.318	5396.82
490.688	5435.01
491.058	5516.37
491.428	5649.02
491.798	5613.76
492.168	5707.55
492.538	5751.39
492.908	5868
493.278	5880.42
493.648	5862.8
494.017	5935.79
494.387	5965.17
494.757	6025.96
495.126	6076.8
495.496	6128.55
495.866	6157.71
496.235	6139.17
496.605	6185.5
496.974	6218.72
497.344	6227.53
497.713	6333.29
498.082	6395.89
498.452	6440.86
498.821	6415.1
499.19	6400.86
499.559	6493.29
499.928	6554.08
500.298	6574.19
500.667	6560.86
501.036	6565.83
501.405	6605.6
501.774	6635.88
502.143	6708.43
502.512	6730.35
502.88	6759.05
503.249	6771.25
503.618	6746.62
503.987	6825.71
504.356	6952.94
504.724	6900.96
505.093	6857.12
505.462	6962.66
505.83	6917.69
506.199	6971.92
506.567	7051.02
506.936	7027.51
507.304	7115.65
507.672	7121.52
508.041	7115.42
508.409	7183.22
508.777	7241.07
509.145	7238.13
509.514	7227.96
509.882	7275.64
510.25	7320.61
510.618	7251.69
510.986	7333.72
511.354	7343.89
511.722	7437.9
512.09	7478.8
512.458	7455.52
512.826	7547.5
513.193	7507.27
513.561	7512.25
513.929	7523.77
514.297	7606.48
514.664	7573.71
515.032	7630.89
515.4	7691
515.767	7659.36
516.135	7712.92
516.502	7696.65
516.869	7742.75
517.237	7751.79
517.604	7766.48
517.972	7835.4
518.339	7858.45
518.706	7828.17
519.073	7799.7
519.44	7878.79
519.808	7924.66
520.175	7874.5
520.542	7973.48
520.909	8013.93
521.276	7972.57
521.643	7989.07
522.009	8017.54
522.376	8079.46
522.743	8076.07
523.11	8152
523.477	8205.34
523.843	8195.17
524.21	8262.96
524.577	8270.19
524.943	8285.56
525.31	8260.47
525.676	8319.91
526.043	8365.33
526.409	8329.63
526.776	8507.47
527.142	8425.89
527.508	8444.42
527.874	8425.67
528.241	8430.19
528.607	8506.12
528.973	8545.89
529.339	8498.66
529.705	8606.45
530.071	8626.11
530.437	8670.18
530.803	8651.2
531.169	8650.3
531.535	8594.7
531.901	8630.86
532.267	8681.03
532.632	8704.98
532.998	8687.58
533.364	8747.92
533.73	8669.96
534.095	8771.87
534.461	8772.1
534.826	8782.5
535.192	8795.6
535.557	8787.92
535.923	8820.01
536.288	8801.25
536.653	8771.42
537.019	8795.15
537.384	8715.38
537.749	8755.83
538.114	8757.41
538.479	8760.12
538.845	8781.14
539.21	8752.44
539.575	8843.51
539.94	8812.78
540.305	8874.7
540.67	8765.32
541.034	8788.6
541.399	8822.27
541.764	8794.92
542.129	8776.85
542.494	8830.18
542.858	8796.51
543.223	8764.64
543.587	8806.9
543.952	8840.8
544.316	8813.91
544.681	8820.69
545.045	8823.17
545.41	8815.49
545.774	8835.15
546.138	8838.31
546.503	8855.71
546.867	8804.19
547.231	8906.33
547.595	8798.99
547.959	8824.98
548.324	8798.99
548.688	8808.71
549.052	8810.74
549.416	8797.86
549.779	8833.34
550.143	8896.39
550.507	8817.52
550.871	8836.05
551.235	8854.81
551.599	8899.33
551.962	8873.34
552.326	8875.6
552.689	8871.76
553.053	8891.87
553.417	8868.14
553.78	8933.9
554.143	8956.73
554.507	8889.16
554.87	8896.62
555.234	9015.94
555.597	8929.16
555.96	8985.88
556.323	8999.66
556.686	8962.15
557.05	8990.17
557.413	9071.53
557.776	8999.66
558.139	9062.04
558.502	9005.09
558.865	9064.52
559.228	9093.9
559.59	9093.9
559.953	9067.46
560.316	9183.84
560.679	9140.9
561.041	9164.41
561.404	9207.12
561.767	9222.03
562.129	9199.89
562.492	9247.79
562.854	9236.04
563.217	9263.39
563.579	9288.92
563.941	9304.29
564.304	9311.29
564.666	9358.75
565.028	9401.91
565.39	9374.57
565.753	9441.91
566.115	9524.62
566.477	9541.8
566.839	9506.32
567.201	9535.24
567.563	9541.12
567.925	9594.9
568.287	9616.37
568.648	9613.21
569.01	9579.54
569.372	9740.89
569.734	9694.34
570.095	9689.82
570.457	9807.1
570.819	9810.72
571.18	9787.44
571.542	9837.83
571.903	9769.14
572.265	9859.53
572.626	9914.89
572.987	9903.37
573.349	9938.62
573.71	9961.67
574.071	9975.91
574.432	10011.84
574.794	10059.07
575.155	10084.38
575.516	10110.14
575.877	10103.59
576.238	10169.35
576.599	10232.63
576.96	10222.01
577.32	10248.9
577.681	10257.03
578.042	10231.95
578.403	10249.8
578.763	10229.01
579.124	10358.5
579.485	10377.93
579.845	10336.8
580.206	10380.87
580.566	10375.9
580.927	10424.03
581.287	10413.64
581.648	10414.77
582.008	10450.02
582.368	10398.27
582.728	10479.4
583.089	10504.03
583.449	10464.03
583.809	10508.33
584.169	10565.5
584.529	10523.01
584.889	10606.18
585.249	10551.94
585.609	10555.1
585.969	10595.78
586.329	10663.12
586.688	10569.57
587.048	10637.36
587.408	10694.99
587.768	10643.01
588.127	10690.92
588.487	10625.38
588.846	10743.12
589.206	10589.68
589.565	10719.62
589.925	10720.75
590.284	10812.72
590.643	10706.96
591.003	10789
591.362	10733.4
591.721	10805.94
592.08	10795.55
592.44	10757.36
592.799	10841.42
593.158	10827.19
593.517	10871.03
593.876	10833.51
594.235	10840.75
594.593	10810.46
594.952	10851.59
595.311	10807.07
595.67	10824.7
596.029	10916
596.387	10908.54
596.746	10949.44
597.104	10903.12
597.463	10881.65
597.822	10963.45
598.18	10874.87
598.538	10890.01
598.897	10935.21
599.255	10838.71
599.613	11002.55
599.972	10972.04
600.33	11039.61
600.688	10994.19
601.046	11003.45
601.404	11065.15
601.762	11021.76
602.12	11112.83
602.478	11061.31
602.836	11077.12
603.194	10967.52
603.552	11119.38
603.91	10977.92
604.268	11021.76
604.625	11043.68
604.983	11109.89
605.341	11069.21
605.698	11115.09
606.056	11164.58
606.413	11114.41
606.771	11116.22
607.128	11152.15
607.485	11151.7
607.843	11162.32
608.2	11125.71
608.557	11259.04
608.914	11161.87
609.272	11241.87
609.629	11226.72
609.986	11283.22
610.343	11225.59
610.7	11215.2
611.057	11194.41
611.414	11232.37
611.771	11278.02
612.127	11368.64
612.484	11339.94
612.841	11351.02
613.198	11225.37
613.554	11351.47
613.911	11324.35
614.267	11336.55
614.624	11389.66
614.98	11385.59
615.337	11417.23
615.693	11383.1
616.05	11359.83
616.406	11474.63
616.762	11402.54
617.118	11384.46
617.475	11470.56
617.831	11404.57
618.187	11464.91
618.543	11519.82
618.899	11461.07
619.255	11461.75
619.611	11497.9
619.967	11480.96
620.323	11600.95
620.678	11492.71
621.034	11494.74
621.39	11501.75
621.746	11453.16
622.101	11605.47
622.457	11557.79
622.812	11550.56
623.168	11550.11
623.523	11601.18
623.879	11588.3
624.234	11494.74
624.589	11555.76
624.945	11552.37
625.3	11533.16
625.655	11461.52
626.01	11514.17
626.365	11517.79
626.72	11478.92
627.075	11513.72
627.43	11487.73
627.785	11510.11
628.14	11440.05
628.495	11495.87
628.85	11519.82
629.205	11433.05
629.559	11517.11
629.914	11416.1
630.269	11431.01
630.623	11340.85
630.978	11341.3
631.332	11423.78
631.687	11461.52
632.041	11360.28
632.396	11400.96
632.75	11346.27
633.104	11252.49
633.459	11333.61
633.813	11264.46
634.167	11361.86
634.521	11249.55
634.875	11298.59
635.229	11278.02
635.583	11191.02
635.937	11221.3
636.291	11260.17
636.645	11181.75
636.999	11226.5
637.352	11210
637.706	11141.08
638.06	11150.57
638.413	11194.18
638.767	11146.95
639.121	11134.07
639.474	11094.3
639.828	11068.99
640.181	11087.29
640.534	11089.33
640.888	11057.01
641.241	11025.6
641.594	10977.69
641.947	11046.39
642.301	10960.52
642.654	11060.63
643.007	11031.25
643.36	10999.61
643.713	10947.86
644.066	10987.86
644.419	10964.81
644.771	10923.68
645.124	10783.8
645.477	10738.6
645.83	10747.19
646.182	10600.3
646.535	10608.44
646.888	10605.95
647.24	10537.93
647.593	10613.63
647.945	10640.3
648.298	10519.85
648.65	10533.64
649.002	10556.69
649.355	10559.17
649.707	10541.77
650.059	10607.98
650.411	10758.71
650.763	10678.72
651.115	10839.62
651.467	10797.58
651.819	10810.92
652.171	10830.35
652.523	10668.32
652.875	10715.33
653.227	10721.2
653.578	10730.69
653.93	10731.37
654.282	10695.21
654.633	10762.78
654.985	10649.56
655.337	10745.61
655.688	10732.73
656.039	10720.98
656.391	10631.49
656.742	10687.08
657.094	10647.3
657.445	10731.82
657.796	10679.17
658.147	10694.08
658.498	10696.12
658.849	10712.61
659.2	10699.28
659.551	10647.98
659.902	10662.45
660.253	10700.64
660.604	10746.06
660.955	10723.46
661.306	10715.1
661.656	10705.38
662.007	10756.91
662.358	10732.27
662.708	10684.37
663.059	10681.43
663.409	10706.74
663.76	10706.96
664.11	10711.26
664.461	10713.29
664.811	10730.47
665.161	10717.36
665.511	10680.07
665.862	10740.18
666.212	10694.31
666.562	10699.73
666.912	10671.48
667.262	10657.02
667.612	10644.59
667.962	10718.26
668.312	10640.98
668.662	10687.53
669.011	10739.05
669.361	10654.99
669.711	10678.94
670.06	10695.21
670.41	10696.8
670.76	10659.51
671.109	10605.05
671.459	10628.32
671.808	10647.76
672.157	10660.64
672.507	10532.05
672.856	10607.31
673.205	10620.86
673.554	10559.4
673.904	10496.8
674.253	10559.85
674.602	10542.45
674.951	10387.65
675.3	10371.61
675.649	10512.85
675.998	10472.17
676.346	10509
676.695	10533.41
677.044	10431.27
677.393	10434.43
677.741	10459.74
678.09	10411.15
678.438	10435.33
678.787	10398.5
679.135	10460.87
679.484	10392.4
679.832	10372.96
680.181	10307.88
680.529	10332.51
680.877	10230.59
681.225	10325.73
681.573	10313.98
681.922	10268.56
682.27	10268.78
682.618	10237.15
682.966	10216.36
683.314	10247.54
683.661	10195.79
684.009	10105.4
684.357	10126.87
684.705	10083.03
685.053	10132.52
685.4	10187.2
685.748	10077.6
686.095	10027.66
686.443	9997.15
686.79	10000.99
687.138	10013.65
687.485	9960.09
687.832	9972.75
688.18	9998.96
688.527	9886.19
688.874	9918.96
689.221	9851.85
689.568	9817.95
689.915	9799.87
690.262	9824.73
690.609	9805.07
690.956	9775.01
691.303	9710.15
691.65	9633.77
691.997	9709.48
692.344	9643.72
692.69	9541.35
693.037	9613.43
693.383	9545.41
693.73	9544.96
694.077	9498.18
694.423	9445.75
694.769	9485.75
695.116	9348.36
695.462	9414.12
695.808	9335.93
696.155	9390.16
696.501	9290.5
696.847	9336.38
697.193	9218.19
697.539	9174.58
697.885	9230.84
698.231	9130.28
698.577	9107.01
698.923	9146.55
699.269	9060.45
699.614	9011.64
699.96	8950.63
700.306	9000.57
700.651	8935.49
700.997	8923.73
701.342	8888.71
701.688	8824.98
702.033	8833.79
702.379	8862.04
702.724	8770.52
703.069	8766.68
703.415	8706.79
703.76	8663.4
704.105	8667.02
704.45	8649.62
704.795	8614.59
705.14	8574.82
705.485	8599.22
705.83	8563.52
706.175	8568.49
706.52	8500.24
706.865	8388.16
707.209	8460.24
707.554	8379.57
707.899	8414.82
708.243	8322.62
708.588	8379.57
708.932	8344.31
709.277	8299.57
709.621	8321.04
709.966	8219.35
710.31	8213.24
710.654	8164.43
710.998	8192.91
711.342	8174.6
711.687	8178.44
712.031	8177.09
712.375	8114.49
712.719	8142.06
713.063	8089.41
713.407	8069.29
713.75	8087.82
714.094	8056.64
714.438	7970.31
714.782	8004.44
715.125	7992.46
715.469	8016.87
715.812	7920.82
716.156	7985.68
716.499	7959.01
716.843	7902.97
717.186	7882.86
717.53	7913.59
717.873	7897.55
718.216	7905.91
718.559	7899.13
718.902	7821.84
719.246	7829.3
719.589	7782.3
719.932	7791.33
720.275	7790.66
720.617	7816.64
720.96	7677.44
721.303	7740.71
721.646	7739.58
721.989	7739.81
722.331	7735.97
722.674	7689.64
723.016	7767.38
723.359	7684.22
723.701	7653.49
724.044	7636.76
724.386	7653.26
724.729	7648.29
725.071	7637.89
725.413	7591.57
725.755	7611.45
726.097	7630.89
726.439	7538.91
726.782	7576.43
727.124	7680.38
727.465	7552.47
727.807	7514.51
728.149	7496.65
728.491	7513.38
728.833	7552.92
729.175	7537.1
729.516	7527.39
729.858	7487.84
730.199	7513.6
730.541	7455.98
730.882	7475.18
731.224	7535.97
731.565	7449.2
731.906	7510.44
732.248	7477.9
732.589	7393.38
732.93	7468.41
733.271	7424.56
733.612	7469.76
733.953	7467.05
734.294	7481.06
734.635	7372.59
734.976	7446.03
735.317	7458.24
735.658	7462.08
735.999	7446.71
736.339	7427.95
736.68	7476.99
737.021	7424.34
737.361	7398.58
737.702	7472.7
738.042	7428.86
738.383	7441.51
738.723	7461.63
739.063	7460.04
739.404	7413.94
739.744	7460.27
740.084	7388.41
740.424	7457.33
740.764	7445.58
741.104	7476.31
741.444	7451
741.784	7398.58
742.124	7439.25
742.464	7473.83
742.804	7530.32
743.143	7490.78
743.483	7505.01
743.823	7489.87
744.162	7495.3
744.502	7508.18
744.841	7578.91
745.181	7532.13
745.52	7573.94
745.86	7624.11
746.199	7642.41
746.538	7574.39
746.877	7726.25
747.216	7707.72
747.556	7679.47
747.895	7711.34
748.234	7723.77
748.573	7791.56
748.911	7789.53
749.25	7869.52
749.589	7855.97
749.928	7886.02
750.267	7983.19
750.605	7963.53
750.944	8062.51
751.283	8085.34
751.621	8104.09
751.96	8156.07
752.298	8199.46
752.636	8259.8
752.975	8305.9
753.313	8334.6
753.651	8446.68
753.989	8520.36
754.327	8521.26
754.666	8590.18
755.004	8698.2
755.342	8728.26
755.679	8873.57
756.017	8865.66
756.355	8994.47
756.693	9084.18
757.031	9260.45
757.368	9218.87
757.706	9288.02
758.044	9505.19
758.381	9537.96
758.719	9586.54
759.056	9771.4
759.394	9792.64
759.731	9914.89
760.068	9963.71
760.405	10094.32
760.743	10118.51
761.08	10299.07
761.417	10374.09
761.754	10425.39
762.091	10563.01
762.428	10644.82
762.765	10721.88
763.102	10838.94
763.438	10942.66
763.775	10971.82
764.112	11130.91
764.449	11231.02
764.785	11372.94
765.122	11374.07
765.458	11455.65
765.795	11567.96
766.131	11699.71
766.467	11722.08
766.804	11788.74
767.14	11875.07
767.476	11958.68
767.812	12039.58
768.148	12161.16
768.485	12141.95
768.821	12169.98
769.157	12311.89
769.492	12384.66
769.828	12462.85
770.164	12405.45
770.5	12573.36
770.836	12633.69
771.171	12609.74
771.507	12705.1
771.842	12677.53
772.178	12731.09
772.513	12819.45
772.849	12838.43
773.184	12792.11
773.519	13008.6
773.855	12941.26
774.19	13042.5
774.525	13114.13
774.86	13087.24
775.195	13149.39
775.53	13167.01
775.865	13135.15
776.2	13169.95
776.535	13111.65
776.87	13094.7
777.205	13118.2
777.539	13147.13
777.874	13250.85
778.209	13181.02
778.543	13220.8
778.878	13160.46
779.212	13242.94
779.547	13155.94
779.881	13253.79
780.215	13189.16
780.55	13269.61
780.884	13239.55
781.218	13262.15
781.552	13157.52
781.886	13210.18
782.22	13093.34
782.554	13130.63
782.888	13104.19
783.222	13019.22
783.556	13131.99
783.889	13079.11
784.223	12981.03
784.557	13020.35
784.89	13012.21
785.224	12990.52
785.557	13000.24
785.891	12987.13
786.224	12925.21
786.558	12983.51
786.891	12868.94
787.224	12856.29
787.557	12786.91
787.891	12856.74
788.224	12858.55
788.557	12804.31
788.89	12774.71
789.223	12851.99
789.556	12814.71
789.888	12755.5
790.221	12718.44
790.554	12607.48
790.887	12610.64
791.219	12642.05
791.552	12609.06
791.884	12606.58
792.217	12539.23
792.549	12571.77
792.882	12401.16
793.214	12379.01
793.546	12535.39
793.879	12325
794.211	12362.29
794.543	12395.28
794.875	12296.98
795.207	12355.73
795.539	12311.44
795.871	12288.17
796.203	12213.59
796.535	12191.44
796.867	12141.95
797.198	12118.23
797.53	12096.98
797.862	12107.38
798.193	12031.45
798.525	12035.74
798.856	12018.34
799.188	11906.03
799.519	11895.86
799.85	11891.79
800.182	11854.28
800.513	11857.89
800.844	11724.11
801.175	11735.41
801.506	11831.91
801.837	11701.74
802.168	11711.68
802.499	11645.02
802.83	11620.61
803.161	11628.3
803.491	11531.12
803.822	11668.07
804.153	11497.23
804.483	11477.11
804.814	11443.22
805.145	11372.03
805.475	11408.41
805.805	11413.16
806.136	11394.86
806.466	11362.09
806.796	11378.36
807.126	11312.6
807.457	11306.04
807.787	11266.5
808.117	11181.98
808.447	11219.04
808.777	11260.4
809.107	11138.82
809.436	11149.66
809.766	11122.55
810.096	11056.56
810.426	11039.38
810.755	10956.9
811.085	10975.43
811.414	10991.7
811.744	10951.25
812.073	10878.94
812.403	10941.99
812.732	10882.33
813.061	10892.95
813.39	10792.16
813.719	10743.35
814.049	10851.14
814.378	10879.16
814.707	10759.39
815.036	10705.83
815.365	10719.17
815.693	10657.02
816.022	10642.56
816.351	10576.57
816.68	10496.12
817.008	10611.15
817.337	10562.79
817.665	10526.18
817.994	10529.57
818.322	10520.08
818.651	10465.84
818.979	10426.52
819.307	10467.65
819.636	10461.09
819.964	10341.55
820.292	10463.81
820.62	10446.86
820.948	10425.62
821.276	10412.96
821.604	10358.27
821.932	10353.75
822.259	10410.25
822.587	10329.57
822.915	10309.91
823.243	10388.33
823.57	10350.59
823.898	10337.26
824.225	10245.28
824.553	10306.75
824.88	10330.25
825.207	10346.07
825.535	10313.98
825.862	10393.07
826.189	10345.84
826.516	10390.59
826.843	10393.98
827.17	10399.18
827.497	10397.59
827.824	10407.54
828.151	10466.97
828.478	10371.38
828.805	10353.98
829.131	10400.98
829.458	10327.31
829.785	10312.62
830.111	10333.19
830.438	10356.01
830.764	10321.21
831.09	10364.6
831.417	10360.98
831.743	10415.45
832.069	10297.71
832.395	10279.86
832.722	10333.19
833.048	10310.14
833.374	10306.3
833.7	10274.66
834.026	10330.02
834.351	10378.39
834.677	10312.62
835.003	10400.53
835.329	10247.77
835.654	10314.21
835.98	10255.22
836.306	10242.8
836.631	10254.32
836.956	10283.7
837.282	10191.27
837.607	10128.67
837.932	10191.27
838.258	10158.5
838.583	10151.5
838.908	10143.59
839.233	10033.54
839.558	10106.98
839.883	10112.63
840.208	9994.44
840.533	9975.46
840.858	9999.41
841.182	10046.64
841.507	9975.01
841.832	9957.61
842.156	9896.59
842.481	9937.27
842.805	9931.62
843.13	9928.45
843.454	9862.24
843.778	9850.72
844.103	9779.08
844.427	9801.68
844.751	9745.18
845.075	9711.06
845.399	9722.81
845.723	9686.2
846.047	9663.15
846.371	9579.54
846.695	9626.99
847.019	9470.16
847.343	9509.93
847.666	9406.21
847.99	9434.46
848.313	9379.77
848.637	9331.18
848.96	9386.1
849.284	9278.3
849.607	9267.68
849.931	9277.17
850.254	9228.36
850.577	9154.46
850.9	9062.71
851.223	9054.35
851.546	9025.65
851.869	9036.27
852.192	8998.31
852.515	8911.08
852.838	8925.99
853.161	8907.69
853.483	8818.2
853.806	8740.46
854.129	8826.34
854.451	8781.14
854.774	8716.73
855.096	8683.97
855.419	8668.15
855.741	8685.32
856.063	8598.09
856.385	8625.44
856.708	8584.31
857.03	8571.88
857.352	8544.99
857.674	8531.43
857.996	8451.43
858.318	8458.44
858.64	8491.88
858.961	8371.88
859.283	8373.92
859.605	8331.21
859.926	8376.18
860.248	8323.98
860.57	8300.93
860.891	8331.21
861.212	8232.45
861.534	8228.39
861.855	8265.22
862.176	8215.73
862.498	8262.73
862.819	8272
863.14	8149.29
863.461	8155.39
863.782	8165.79
864.103	8133.02
864.424	8183.64
864.745	8131.21
865.065	8005.79
865.386	8073.59
865.707	8007.15
866.027	8080.59
866.348	8067.94
866.668	8063.19
866.989	7987.71
867.309	7961.95
867.63	7995.62
867.95	7947.94
868.27	7914.04
868.59	7917.21
868.91	7939.13
869.23	7902.52
869.55	7848.28
869.87	7893.93
870.19	7938.22
870.51	7864.78
870.83	7844.21
871.15	7854.16
871.469	7785.69
871.789	7828.62
872.109	7794.72
872.428	7751.79
872.748	7786.59
873.067	7763.09
873.386	7754.95
873.706	7798.11
874.025	7668.63
874.344	7708.85
874.663	7720.6
874.982	7643.99
875.301	7715.86
875.62	7627.05
875.939	7613.03
876.258	7646.93
876.577	7566.48
876.896	7635.41
877.214	7569.87
877.533	7644.67
877.852	7522.42
878.17	7561.74
878.489	7562.64
878.807	7535.75
879.125	7632.02
879.444	7561.28
879.762	7471.34
880.08	7526.48
880.398	7471.34
880.716	7485.13
881.034	7417.56
881.352	7454.17
881.67	7404.23
881.988	7358.13
882.306	7361.29
882.624	7307.73
882.941	7325.58
883.259	7339.6
883.577	7311.8
883.894	7337.34
884.212	7279.48
884.529	7334.85
884.846	7271.12
885.164	7247.62
885.481	7184.12
885.798	7246.94
886.115	7161.07
886.432	7201.52
886.75	7140.73
887.067	7128.53
887.383	7198.81
887.7	7138.47
888.017	7031.58
888.334	7116.55
888.651	7160.39
888.967	7082.88
889.284	7049.43
889.6	7025.93
889.917	6971.02
890.233	7029.32
890.55	6980.51
890.866	6969.66
891.182	6895.99
891.498	6944.8
891.815	6888.99
892.131	6880.85
892.447	6846.05
892.763	6790.91
893.079	6798.59
893.395	6709.56
893.71	6875.65
894.026	6743.23
894.342	6761.31
894.657	6701.19
894.973	6643.12
895.289	6652.38
895.604	6672.49
895.92	6663.91
896.235	6580.75
896.55	6589.78
896.865	6544.14
897.181	6532.38
897.496	6556.34
897.811	6481.99
898.126	6426.85
898.441	6446.74
898.756	6432.05
899.071	6387.3
899.386	6349.79
899.7	6342.79
900.015	6354.99
900.33	6303.92
900.644	6273.86
900.959	6267.53
901.273	6212.85
901.588	6218.04
901.902	6158.16
902.216	6152.51
902.531	6132.85
902.845	6138.04
903.159	6083.13
903.473	6055.79
903.787	6013.3
904.101	6061.21
904.415	6065.73
904.729	5980.99
905.042	5971.04
905.356	5936.69
905.67	5912.74
905.984	5920.42
906.297	5897.37
906.611	5862.57
906.924	5822.8
907.237	5839.97
907.551	5824.15
907.864	5750.48
908.177	5715.68
908.491	5751.84
908.804	5735.34
909.117	5689.02
909.43	5624.84
909.743	5610.83
910.056	5598.62
910.368	5603.14
910.681	5606.53
910.994	5570.15
911.307	5504.39
911.619	5447.22
911.932	5532.64
912.244	5477.95
912.557	5452.41
912.869	5417.61
913.181	5435.69
913.494	5408.12
913.806	5367.9
914.118	5304.62
914.43	5303.26
914.742	5317.28
915.054	5296.94
915.366	5257.62
915.678	5231.18
915.99	5233.21
916.302	5117.51
916.613	5156.15
916.925	5159.54
917.236	5165.42
917.548	5145.3
917.859	5178.97
918.171	5058.53
918.482	5013.78
918.794	5038.86
919.105	4981.24
919.416	5038.19
919.727	4951.41
920.038	4984.85
920.349	4941.69
920.66	4929.94
920.971	4948.92
921.282	4905.99
921.593	4879.32
921.903	4850.85
922.214	4869.38
922.525	4854.24
922.835	4768.14
923.146	4789.38
923.456	4766.33
923.767	4749.61
924.077	4751.41
924.387	4719.78
924.697	4694.47
925.008	4624.64
925.318	4683.17
925.628	4642.94
925.938	4616.28
926.248	4579.67
926.558	4578.54
926.867	4564.75
927.177	4559.56
927.487	4482.27
927.796	4476.39
928.106	4505.09
928.416	4447.69
928.725	4440.91
929.034	4380.8
929.344	4394.59
929.653	4383.97
929.962	4327.92
930.271	4348.94
930.581	4317.98
930.89	4312.1
931.199	4296.29
931.508	4264.65
931.817	4258.09
932.125	4250.18
932.434	4267.81
932.743	4219.68
933.051	4192.79
933.36	4174.48
933.669	4169.28
933.977	4104.43
934.286	4132.67
934.594	4163.63
934.902	4099.91
935.21	4066.01
935.519	4076.4
935.827	4056.74
936.135	4027.14
936.443	3993.92
936.751	3997.99
937.059	3960.47
937.367	3969.06
937.674	3944.2
937.982	3956.18
938.29	3897.65
938.597	3920.48
938.905	3871.89
939.213	3840.25
939.52	3821.27
939.827	3875.05
940.135	3828.73
940.442	3808.39
940.749	3793.02
941.056	3768.16
941.363	3738.33
941.67	3745.79
941.977	3739.69
942.284	3684.32
942.591	3697.66
942.898	3686.13
943.205	3657.88
943.511	3643.2
943.818	3611.33
944.125	3576.76
944.431	3593.48
944.738	3570.2
945.044	3555.51
945.35	3545.34
945.657	3508.28
945.963	3527.49
946.269	3494.72
946.575	3488.62
946.881	3444.1
947.187	3433.71
947.493	3454.5
947.799	3429.87
948.105	3428.96
948.41	3425.57
948.716	3407.72
949.022	3382.64
949.327	3360.04
949.633	3344.67
949.938	3328.4
950.244	3313.94
950.549	3313.49
950.854	3305.35
951.16	3265.35
951.465	3276.65
951.77	3284.33
952.075	3242.53
952.38	3217.9
952.685	3232.81
952.99	3199.37
953.294	3192.81
953.599	3181.51
953.904	3157.33
954.209	3144.9
954.513	3146.26
954.818	3153.04
955.122	3117.56
955.426	3077.33
955.731	3082.08
956.035	3063.78
956.339	3051.35
956.643	3045.7
956.948	3033.95
957.252	3016.77
957.556	3000.5
957.86	2991.69
958.163	2993.95
958.467	2984.91
958.771	2961.86
959.075	2946.72
959.378	2940.39
959.682	2959.15
959.985	2942.42
960.289	2901.29
960.592	2891.58
960.896	2891.58
961.199	2863.1
961.502	2850.67
961.805	2852.03
962.108	2837.11
962.411	2836.44
962.714	2806.61
963.017	2772.94
963.32	2825.82
963.623	2802.09
963.926	2750.79
964.228	2765.03
964.531	2739.04
964.833	2754.4
965.136	2715.08
965.438	2673.73
965.741	2679.83
966.043	2673.05
966.345	2661.07
966.648	2665.82
966.95	2645.03
967.252	2620.17
967.554	2630.57
967.856	2618.82
968.158	2601.64
968.46	2575.43
968.761	2542.43
969.063	2572.26
969.365	2552.38
969.666	2549.44
969.968	2530.23
970.269	2547.18
970.571	2494.75
970.872	2500.4
971.174	2508.99
971.475	2482.55
971.776	2486.84
972.077	2440.74
972.378	2441.42
972.679	2477.12
972.98	2429.22
973.281	2440.97
973.582	2429.67
973.883	2367.07
974.183	2387.63
974.484	2413.85
974.785	2377.24
975.085	2384.47
975.386	2388.99
975.686	2398.93
975.986	2353.74
976.287	2313.74
976.587	2319.39
976.887	2312.83
977.187	2318.94
977.487	2292.27
977.787	2271.71
978.087	2268.77
978.387	2239.84
978.687	2248.43
978.987	2234.87
979.286	2221.99
979.586	2236.45
979.885	2213.18
980.185	2206.4
980.484	2207.07
980.784	2190.13
981.083	2158.49
981.382	2156
981.682	2170.24
981.981	2136.34
982.28	2151.71
982.579	2106.51
982.878	2100.41
983.177	2137.25
983.475	2112.61
983.774	2108.09
984.073	2074.42
984.372	2095.21
984.67	2064.93
984.969	2067.64
985.267	2031.71
985.566	2042.79
985.864	2013.63
986.162	2042.11
986.461	2015.22
986.759	2012.73
987.057	2012.5
987.355	1984.03
987.653	1987.19
987.951	1958.27
988.249	1979.06
988.547	1953.75
988.844	1954.43
989.142	1927.53
989.44	1929.12
989.737	1907.2
990.035	1910.13
990.332	1913.52
990.63	1903.13
990.927	1878.04
991.224	1866.74
991.521	1858.84
991.819	1854.09
992.116	1871.49
992.413	1853.19
992.71	1806.41
993.006	1822.68
993.303	1814.54
993.6	1827.42
993.897	1822.68
994.193	1777.26
994.49	1772.51
994.787	1780.19
995.083	1767.54
995.379	1758.72
995.676	1761.21
995.972	1726.64
996.268	1759.63
996.565	1719.86
996.861	1695
997.157	1718.73
997.453	1687.99
997.749	1679.63
998.044	1666.75
998.34	1675.79
998.636	1651.61
998.932	1663.81
999.227	1667.88
999.523	1655.45
999.818	1630.82
1000.114	1612.29
1000.409	1611.16
1000.704	1596.92
1001	1608.67
1001.295	1593.53
1001.59	1593.76
1001.885	1580.65
1002.18	1584.49
1002.475	1597.37
1002.77	1562.8
1003.065	1532.29
1003.359	1575
1003.654	1531.39
1003.949	1552.63
1004.243	1516.7
1004.538	1536.58
1004.832	1531.61
1005.127	1500.43
1005.421	1469.02
1005.715	1491.61
1006.009	1482.57
1006.304	1466.98
1006.598	1454.78
1006.892	1462.01
1007.186	1443.93
1007.48	1433.08
1007.773	1472.86
1008.067	1424.95
1008.361	1424.5
1008.655	1429.47
1008.948	1385.63
1009.242	1386.76
1009.535	1371.39
1009.829	1386.76
1010.122	1384.5
1010.415	1349.92
1010.708	1352.18
1011.001	1339.75
1011.295	1345.18
1011.588	1354.89
1011.881	1332.97
1012.173	1297.72
1012.466	1294.1
1012.759	1305.4
1013.052	1274.22
1013.344	1284.61
1013.637	1287.55
1013.93	1279.42
1014.222	1275.35
1014.514	1257.72
1014.807	1253.2
1015.099	1227.89
1015.391	1207.1
1015.683	1219.08
1015.976	1237.16
1016.268	1202.36
1016.56	1201.23
1016.851	1176.59
1017.143	1186.99
1017.435	1221.56
1017.727	1182.02
1018.018	1176.82
1018.31	1179.08
1018.602	1172.75
1018.893	1138.18
1019.185	1176.82
1019.476	1159.64
1019.767	1134.33
1020.058	1117.84
1020.35	1117.84
1020.641	1116.03
1020.932	1140.66
1021.223	1079.65
1021.514	1108.12
1021.804	1069.7
1022.095	1079.87
1022.386	1073.55
1022.677	1035.58
1022.967	1088.01
1023.258	1046.2
1023.548	1046.65
1023.839	1034
1024.129	1028.12
1024.419	1038.74
1024.709	1045.3
1025	1008.91
1025.29	1009.37
1025.58	1005.52
1025.87	1001
1026.16	1009.82
1026.449	996.71
1026.739	996.71
1027.029	1010.27
1027.319	977.73
1027.608	969.14
1027.898	980.44
1028.187	942.7
1028.477	964.17
1028.766	967.33
1029.055	944.74
1029.344	911.52
1029.634	948.8
1029.923	932.53
1030.212	947.9
1030.501	916.49
1030.79	895.47
1031.078	922.36
1031.367	885.53
1031.656	906.54
1031.945	885.3
1032.233	893.21
1032.522	857.28
1032.81	868.8
1033.099	880.56
1033.387	861.35
1033.675	857.73
1033.963	847.79
1034.251	845.53
1034.54	846.66
1034.828	831.97
1035.116	829.71
1035.403	824.06
1035.691	839.88
1035.979	818.86
1036.267	816.6
1036.554	821.8
1036.842	805.98
1037.129	805.3
1037.417	790.16
1037.704	812.31
1037.992	781.58
1038.279	783.16
1038.566	789.48
1038.853	789.48
1039.14	789.48
