Data from hue_330_FLMS001491_27.txt Node
Date: Mon Feb 06 15:45:10 GMT 2017
User: dcchb
Spectrometer: FLMS00149
Trigger mode: 0
Integration Time (sec): 2.000000E-2
Scans to average: 10
Electric dark correction enabled: true
Nonlinearity correction enabled: false
Boxcar width: 0
XAxis mode: Wavelengths
Number of Pixels in Spectrum: 2048
>>>>>Begin Spectral Data<<<<<
341.393	-25.28
341.776	-25.28
342.16	-25.28
342.543	-41.55
342.927	-65.96
343.31	-67.77
343.693	-69.8
344.077	-57.37
344.46	-70.03
344.843	-41.33
345.226	-53.98
345.61	-18.05
345.993	-14.21
346.376	4.32
346.759	-12.17
347.142	27.37
347.525	32.12
347.908	54.26
348.291	80.03
348.674	101.95
349.057	104.66
349.44	117.54
349.823	124.54
350.206	163.64
350.588	195.28
350.971	193.02
351.354	231.43
351.737	230.53
352.119	253.81
352.502	267.59
352.884	256.74
353.267	286.57
353.65	292.68
354.032	310.98
354.414	296.97
354.797	302.85
355.179	326.35
355.562	312.34
355.944	321.6
356.326	324.99
356.709	332.9
357.091	333.8
357.473	359.57
357.855	336.29
358.238	349.85
358.62	380.81
359.002	347.59
359.384	332.45
359.766	340.81
360.148	347.14
360.53	354.6
360.912	348.04
361.294	327.25
361.676	341.49
362.057	325.22
362.439	317.31
362.821	331.32
363.203	329.29
363.584	331.32
363.966	323.64
364.348	311.21
364.729	314.6
365.111	312.11
365.493	325.44
365.874	332.9
366.256	299.46
366.637	323.86
367.019	305.1
367.4	315.5
367.781	323.41
368.163	302.17
368.544	312.79
368.925	321.83
369.306	310.53
369.688	299.68
370.069	317.31
370.45	298.55
370.831	302.39
371.212	317.08
371.593	315.05
371.974	315.05
372.355	297.87
372.736	315.05
373.117	315.5
373.498	323.41
373.879	331.54
374.26	322.05
374.641	318.66
375.021	322.05
375.402	333.8
375.783	327.03
376.163	334.93
376.544	330.19
376.925	326.8
377.305	325.22
377.686	334.71
378.066	334.48
378.447	306.91
378.827	319.34
379.208	331.32
379.588	303.98
379.968	324.77
380.349	316.4
380.729	327.93
381.109	325.9
381.489	338.55
381.87	341.94
382.25	327.48
382.63	328.83
383.01	345.56
383.39	334.93
383.77	337.19
384.15	325.22
384.53	343.3
384.91	347.14
385.29	340.58
385.67	330.64
386.049	328.16
386.429	336.29
386.809	357.31
387.189	364.76
387.568	329.06
387.948	372.67
388.328	355.73
388.707	334.03
389.087	344.88
389.466	351.43
389.846	358.44
390.225	353.92
390.605	346.01
390.984	351.43
391.363	332.22
391.743	361.83
392.122	334.26
392.501	382.39
392.881	365.44
393.26	358.44
393.639	358.89
394.018	370.19
394.397	367.02
394.776	370.87
395.155	397.76
395.534	363.86
395.913	375.61
396.292	366.57
396.671	351.66
397.05	380.13
397.429	380.36
397.808	394.37
398.186	380.58
398.565	389.17
398.944	395.5
399.323	377.65
399.701	393.69
400.08	384.2
400.458	397.76
400.837	387.36
401.215	386.46
401.594	406.57
401.972	404.09
402.351	410.64
402.729	397.76
403.107	398.89
403.486	386.01
403.864	393.69
404.242	416.06
404.62	410.86
404.999	388.72
405.377	423.52
405.755	418.77
406.133	430.98
406.511	431.66
406.889	426.01
407.267	446.34
407.645	416.51
408.023	423.52
408.401	456.06
408.779	432.33
409.156	459.68
409.534	447.02
409.912	455.84
410.29	446.12
410.667	455.38
411.045	478.89
411.422	458.55
411.8	515.04
412.178	484.54
412.555	493.12
412.933	510.75
413.31	509.85
413.687	498.32
414.065	514.14
414.442	506.91
414.819	510.3
415.197	521.14
415.574	536.06
415.951	530.86
416.328	561.6
416.705	533.12
417.082	560.92
417.46	542.39
417.837	588.04
418.214	598.88
418.591	587.58
418.967	580.13
419.344	580.8
419.721	591.43
420.098	594.36
420.475	602.72
420.852	619
421.228	619.9
421.605	610.63
421.982	650.18
422.358	637.53
422.735	652.89
423.111	657.41
423.488	654.25
423.864	656.96
424.241	658.32
424.617	680.01
424.994	670.97
425.37	678.2
425.746	703.96
426.123	669.62
426.499	691.99
426.875	706.9
427.251	722.04
427.627	734.47
428.003	722.5
428.379	723.85
428.756	743.29
429.132	749.84
429.507	736.96
429.883	770.4
430.259	773.34
430.635	789.61
431.011	760.91
431.387	801.82
431.763	818.54
432.138	804.07
432.514	816.73
432.89	822.61
433.265	843.85
433.641	842.04
434.016	848.37
434.392	844.3
434.767	876.62
435.143	865.77
435.518	912.09
435.894	875.03
436.269	908.25
436.644	922.94
437.02	916.84
437.395	914.58
437.77	934.69
438.145	955.48
438.52	934.69
438.895	960.23
439.271	959.1
439.646	964.52
440.021	966.33
440.395	986.44
440.77	980.34
441.145	990.74
441.52	1024.63
441.895	1012.43
442.27	1028.25
442.645	1016.05
443.019	1003.17
443.394	1003.62
443.769	1037.74
444.143	1028.02
444.518	1035.93
444.892	1047.68
445.267	1042.94
445.641	1048.59
446.016	1095.59
446.39	1065.08
446.764	1061.47
447.139	1072.77
447.513	1041.81
447.887	1070.73
448.262	1069.15
448.636	1057.85
449.01	1107.34
449.384	1096.5
449.758	1093.11
450.132	1099.66
450.506	1115.93
450.88	1119.55
451.254	1134.69
451.628	1155.03
452.002	1115.93
452.376	1143.95
452.75	1152.77
453.123	1177.4
453.497	1155.7
453.871	1196.38
454.244	1164.29
454.618	1200.45
454.992	1209.26
455.365	1209.71
455.739	1232.31
456.112	1250.39
456.486	1252.42
456.859	1265.76
457.232	1241.13
457.606	1235.48
457.979	1250.62
458.352	1307.56
458.725	1315.25
459.099	1321.35
459.472	1304.63
459.845	1335.81
460.218	1322.93
460.591	1357.05
460.964	1345.08
461.337	1386.21
461.71	1371.29
462.083	1423.49
462.456	1408.35
462.829	1393.44
463.201	1440.67
463.574	1439.31
463.947	1436.15
464.32	1461.68
464.692	1482.25
465.065	1481.12
465.438	1495.36
465.81	1512.98
466.183	1528.8
466.555	1528.58
466.928	1548.69
467.3	1562.25
467.672	1570.38
468.045	1599.31
468.417	1600.21
468.789	1644.73
469.161	1632.3
469.534	1642.02
469.906	1668.01
470.278	1701.45
470.65	1684.5
471.022	1736.03
471.394	1735.12
471.766	1766.54
472.138	1763.82
472.51	1817.61
472.882	1830.49
473.253	1851.5
473.625	1842.01
473.997	1869.81
474.369	1902.13
474.74	1903.48
475.112	1932.18
475.484	1953.88
475.855	1999.3
476.227	1990.94
476.598	2058.73
476.97	2053.99
477.341	2102.57
477.713	2135.34
478.084	2111.39
478.455	2154.1
478.827	2178.5
479.198	2257.82
479.569	2208.11
479.94	2307.99
480.311	2298.5
480.682	2341.89
481.053	2385.73
481.424	2420.76
481.795	2413.52
482.166	2478.16
482.537	2503.47
482.908	2518.38
483.279	2536.01
483.65	2588.66
484.021	2593.86
484.391	2672.5
484.762	2674.76
485.133	2668.88
485.503	2683.35
485.874	2761.31
486.244	2780.07
486.615	2839.28
486.985	2847.19
487.356	2937.8
487.726	2926.28
488.097	2980.51
488.467	3014.19
488.837	3033.17
489.207	3053.51
489.578	3072.26
489.948	3117.01
490.318	3167.63
490.688	3188.19
491.058	3237.46
491.428	3223.45
491.798	3237.23
492.168	3325.59
492.538	3345.48
492.908	3331.24
493.278	3400.62
493.648	3402.88
494.017	3448.3
494.387	3426.38
494.757	3463.44
495.126	3522.65
495.496	3533.04
495.866	3522.42
496.235	3558.8
496.605	3626.6
496.974	3582.53
497.344	3642.19
497.713	3667.5
498.082	3677.9
498.452	3695.07
498.821	3709.54
499.19	3732.59
499.559	3733.94
499.928	3756.54
500.298	3723.77
500.667	3809.19
501.036	3813.26
501.405	3842.64
501.774	3844.9
502.143	3866.14
502.512	3882.41
502.88	3902.3
503.249	3941.39
503.618	3963.77
503.987	3977.1
504.356	3987.72
504.724	3980.94
505.093	4009.41
505.462	4003.31
505.83	4035.85
506.199	4053.71
506.567	4124.67
506.936	4088.96
507.304	4114.27
507.672	4092.58
508.041	4125.57
508.409	4156.08
508.777	4198.11
509.145	4187.71
509.514	4226.81
509.882	4234.04
510.25	4236.3
510.618	4293.25
510.986	4239.92
511.354	4311.1
511.722	4328.95
512.09	4312.91
512.458	4324.66
512.826	4300.03
513.193	4345
513.561	4347.71
513.929	4434.94
514.297	4397.65
514.664	4440.36
515.032	4431.78
515.4	4464.09
515.767	4466.8
516.135	4501.15
516.502	4417.77
516.869	4510.87
517.237	4551.1
517.604	4526.24
517.972	4538.89
518.339	4531.66
518.706	4555.39
519.073	4553.58
519.44	4575.5
519.808	4615.05
520.175	4668.15
520.542	4653.01
520.909	4670.19
521.276	4669.74
521.643	4741.15
522.009	4683.52
522.376	4702.5
522.743	4754.71
523.11	4776.4
523.477	4852.78
523.843	4815.49
524.21	4886.45
524.577	4915.83
524.943	4864.76
525.31	4951.99
525.676	4933.68
526.043	4976.62
526.409	4983.4
526.776	5052.32
527.142	5017.98
527.508	5057.97
527.874	5082.38
528.241	5079.44
528.607	5133.23
528.973	5171.87
529.339	5172.55
529.705	5193.11
530.071	5198.76
530.437	5254.81
530.803	5260.91
531.169	5323.5
531.535	5314.46
531.901	5343.39
532.267	5378.19
532.632	5382.26
532.998	5382.94
533.364	5430.39
533.73	5428.36
534.095	5490.73
534.461	5530.96
534.826	5563.05
535.192	5526.89
535.557	5616.15
535.923	5569.83
536.288	5588.13
536.653	5634.46
537.019	5648.24
537.384	5656.83
537.749	5669.26
538.114	5693.21
538.479	5735.02
538.845	5744.96
539.21	5738.18
539.575	5806.43
539.94	5831.97
540.305	5855.69
540.67	5811.85
541.034	5865.41
541.399	5878.07
541.764	5927.56
542.129	5945.41
542.494	5988.8
542.858	5991.28
543.223	5999.42
543.587	6022.69
543.952	6015.69
544.316	6082.81
544.681	6115.8
545.045	6160.54
545.41	6111.51
545.774	6163.03
546.138	6186.76
546.503	6223.59
546.867	6223.82
547.231	6291.61
547.595	6290.94
547.959	6300.65
548.324	6348.79
548.688	6337.04
549.052	6342.91
549.416	6387.43
549.779	6426.07
550.143	6431.95
550.507	6409.35
550.871	6491.16
551.235	6484.15
551.599	6541.33
551.962	6530.48
552.326	6617.93
552.689	6628.55
553.053	6579.97
553.417	6596.24
553.78	6729.57
554.143	6677.82
554.507	6673.3
554.87	6708.78
555.234	6749.68
555.597	6685.05
555.96	6778.61
556.323	6765.73
556.686	6758.27
557.05	6819.51
557.413	6817.25
557.776	6866.29
558.139	6891.6
558.502	6935.67
558.865	6877.14
559.228	6978.6
559.59	6969.79
559.953	6984.25
560.316	7050.69
560.679	7000.97
561.041	7063.12
561.404	7104.47
561.767	7127.75
562.129	7117.36
562.492	7172.95
562.854	7127.52
563.217	7186.73
563.579	7218.82
563.941	7241.65
564.304	7244.36
564.666	7316.9
565.028	7360.06
565.39	7343.56
565.753	7296.56
566.115	7412.04
566.477	7438.02
566.839	7384.24
567.201	7450.91
567.563	7498.36
567.925	7557.8
568.287	7529.55
568.648	7576.78
569.01	7550.79
569.372	7671.24
569.734	7638.47
570.095	7678.47
570.457	7739.26
570.819	7793.04
571.18	7815.19
571.542	7831.01
571.903	7899.26
572.265	7925.02
572.626	7955.07
572.987	7958.24
573.349	8052.92
573.71	8120.04
574.071	8147.16
574.432	8206.37
574.794	8281.84
575.155	8257.44
575.516	8322.75
575.877	8376.31
576.238	8425.12
576.599	8470.54
576.96	8551.44
577.32	8627.37
577.681	8749.4
578.042	8811.32
578.403	8865.11
578.763	8958.44
579.124	9049.96
579.485	9153.23
579.845	9290.18
580.206	9367.01
580.566	9503.73
580.927	9586.89
581.287	9735.82
581.648	9778.3
582.008	9963.16
582.368	10061.46
582.728	10282.7
583.089	10469.36
583.449	10565.85
583.809	10665.06
584.169	10926.29
584.529	11001.77
584.889	11308.43
585.249	11393.4
585.609	11591.14
585.969	11799.04
586.329	11973.05
586.688	12243.55
587.048	12393.83
587.408	12653.03
587.768	12810.99
588.127	13010.08
588.487	13216.18
588.846	13479.22
589.206	13741.59
589.565	14045.53
589.925	14253.89
590.284	14476.71
590.643	14814.55
591.003	14999.86
591.362	15370.47
591.721	15577.47
592.08	15837.8
592.44	16162.99
592.799	16407.05
593.158	16694.5
593.517	16957.32
593.876	17273.92
594.235	17466.91
594.593	17829.39
594.952	18053.34
595.311	18355.93
595.67	18668.69
596.029	19028.45
596.387	19265.06
596.746	19654.88
597.104	19715.89
597.463	20110.69
597.822	20408.08
598.18	20591.35
598.538	20890.1
598.897	21334.83
599.255	21407.15
599.613	21993.12
599.972	22100.69
600.33	22480.12
600.688	22634.69
601.046	23076.26
601.404	23351.5
601.762	23456.59
602.12	23988.55
602.478	24174.53
602.836	24390.57
603.194	24602.32
603.552	24853.61
603.91	25092.48
604.268	25479.81
604.625	25587.6
604.983	25936.97
605.341	25943.75
605.698	26424.87
606.056	26660.57
606.413	27003.39
606.771	27140.78
607.128	27358.4
607.485	27534.45
607.843	27794.33
608.2	28126.75
608.557	28373.29
608.914	28501.2
609.272	28797.92
609.629	29035.87
609.986	29256.89
610.343	29416.66
610.7	29669.53
611.057	29820.26
611.414	30015.28
611.771	30215.28
612.127	30529.17
612.484	30744.53
612.841	30962.15
613.198	30916.5
613.554	31003.28
613.911	31452.76
614.267	31632.87
614.624	31763.26
614.98	31889.81
615.337	32022.69
615.693	32188.56
616.05	32384.26
616.406	32715.55
616.762	32576.8
617.118	32794.65
617.475	32906.28
617.831	33302.2
618.187	33308.53
618.543	33428.3
618.899	33744
619.255	33689.31
619.611	33821.74
619.967	34104.67
620.323	34091.56
620.678	34127.27
621.034	34164.1
621.39	34209.98
621.746	34402.06
622.101	34854.25
622.457	34654.71
622.812	34807.25
623.168	34909.17
623.523	35138.09
623.879	35277.74
624.234	35070.29
624.589	35326.11
624.945	35458.08
625.3	35500.11
625.655	35510.51
626.01	35587.79
626.365	35826.88
626.72	35779.2
627.075	35867.33
627.43	35954.56
627.785	35864.85
628.14	35977.39
628.495	36183.94
628.85	36086.09
629.205	36022.13
629.559	36426.64
629.914	36220.54
630.269	36306.42
630.623	36311.16
630.978	36342.8
631.332	36514.55
631.687	36668.89
632.041	36407.43
632.396	36701.44
632.75	36444.27
633.104	36580.31
633.459	36521.1
633.813	36441.1
634.167	36568.11
634.521	36580.08
634.875	36720.64
635.229	36559.74
635.583	36554.32
635.937	36406.53
636.291	36554.77
636.645	36677.71
636.999	36540.08
637.352	36747.08
637.706	36586.41
638.06	36856.91
638.413	36600.42
638.767	36553.87
639.121	36564.26
639.474	36503.7
639.828	36348.45
640.181	36486.53
640.534	36671.61
640.888	36438.62
641.241	36425.74
641.594	36465.96
641.947	36615.11
642.301	36420.99
642.654	36440.88
643.007	36532.63
643.36	36538.73
643.713	36389.13
644.066	36512.51
644.419	36375.57
644.771	36251.05
645.124	35850.16
645.477	35673.21
645.83	35698.07
646.182	35460.56
646.535	35341.02
646.888	35398.19
647.24	35242.94
647.593	35453.79
647.945	35416.05
648.298	35228.25
648.65	35136.96
649.002	35289.72
649.355	35339.66
649.707	35238.2
650.059	35489.49
650.411	35911.17
650.763	35979.42
651.115	36201.34
651.467	36152.52
651.819	36180.09
652.171	36140.55
652.523	35970.38
652.875	36037.27
653.227	35860.78
653.578	36142.13
653.93	36131.51
654.282	36011.74
654.633	35786.43
654.985	36003.38
655.337	36089.25
655.688	36067.55
656.039	36084.73
656.391	35793.44
656.742	35871.4
657.094	36008.8
657.445	36071.85
657.796	35863.94
658.147	35794.57
658.498	35860.78
658.849	35955.24
659.2	35638.87
659.551	35750.05
659.902	35903.94
660.253	35861.23
660.604	35851.29
660.955	35572.88
661.306	35821.46
661.656	35599.32
662.007	35791.18
662.358	35704.4
662.708	35603.39
663.059	35670.73
663.409	35409.72
663.76	35821.01
664.11	35710.05
664.461	35759.54
664.811	35728.35
665.161	35741.01
665.511	35641.8
665.862	35761.35
666.212	35783.49
666.562	35842.25
666.912	35862.36
667.262	35672.76
667.612	35634.12
667.962	35723.38
668.312	35679.09
668.662	35691.07
669.011	35738.3
669.361	35597.51
669.711	35610.39
670.06	35487.46
670.41	35666.89
670.76	35494.01
671.109	35540.79
671.459	35550.96
671.808	35482.03
672.157	35569.26
672.507	35369.95
672.856	35567.23
673.205	35324.52
673.554	35527.23
673.904	35465.76
674.253	35603.39
674.602	35462.82
674.951	34942.39
675.3	34633.02
675.649	35357.52
675.998	35358.65
676.346	35310.29
676.695	35485.65
677.044	35140.12
677.393	35326.33
677.741	35308.03
678.09	35191.19
678.438	34995.94
678.787	35129.5
679.135	35199.78
679.484	34934.48
679.832	35055.83
680.181	34882.95
680.529	35093.57
680.877	34894.25
681.225	34824.88
681.573	35161.36
681.922	34768.83
682.27	34687.7
682.618	34739
682.966	34564.54
683.314	34699.68
683.661	34644.54
684.009	34544.43
684.357	34501.95
684.705	34421.5
685.053	34386.69
685.4	34492.23
685.748	34302.4
686.095	34134.72
686.443	34129.3
686.79	34114.84
687.138	34113.93
687.485	34068.74
687.832	33957.55
688.18	33919.59
688.527	33764.79
688.874	33734.96
689.221	33652.93
689.568	33643.21
689.915	33551.46
690.262	33593.5
690.609	33389.88
690.956	33443.89
691.303	33341.52
691.65	33222.43
691.997	33194.41
692.344	32996.45
692.69	33163.45
693.037	32934.98
693.383	32755.55
693.73	32886.17
694.077	32676.68
694.423	32712.84
694.769	32560.98
695.116	32563.69
695.462	32464.26
695.808	32284.83
696.155	32366.86
696.501	32178.39
696.847	32192.18
697.193	31988.34
697.539	32092.74
697.885	31891.39
698.231	31727.78
698.577	31778.18
698.923	31755.8
699.269	31523.49
699.614	31382.25
699.96	31394.68
700.306	31393.33
700.651	31332.54
700.997	31165.76
701.342	31214.35
701.688	31076.05
702.033	30977.07
702.379	30884.41
702.724	30865.21
703.069	31014.35
703.415	30569.62
703.76	30644.42
704.105	30562.61
704.45	30589.51
704.795	30318.55
705.14	30340.7
705.485	30303.19
705.83	30052.35
706.175	30182.29
706.52	29956.3
706.865	29963.53
707.209	29970.31
707.554	29897.55
707.899	29860.03
708.243	29684.22
708.588	29745.46
708.932	29601.96
709.277	29411.91
709.621	29540.27
709.966	29282.42
710.31	29385.7
710.654	29044.01
710.998	29163.78
711.342	29164.69
711.687	29122.65
712.031	28933.05
712.375	28925.82
712.719	28951.13
713.063	28776.9
713.407	28947.97
713.75	28702.32
714.094	28643.57
714.438	28595.21
714.782	28581.42
715.125	28390.69
715.469	28470.69
715.812	28455.78
716.156	28397.25
716.499	28295.78
716.843	28216.46
717.186	28105.05
717.53	28254.2
717.873	28235.22
718.216	28152.51
718.559	27993.19
718.902	27903.48
719.246	27937.37
719.589	27685.4
719.932	27722.46
720.275	27783.03
720.617	27605.86
720.96	27643.6
721.303	27622.58
721.646	27702.8
721.989	27465.75
722.331	27532.19
722.674	27477.95
723.016	27518.17
723.359	27461.91
723.701	27420.55
724.044	27226.88
724.386	27110.95
724.729	27322.47
725.071	27114.34
725.413	27105.98
725.755	27137.39
726.097	26965.87
726.439	26916.38
726.782	26962.48
727.124	26960.22
727.465	26842.49
727.807	26949.15
728.149	26738.76
728.491	26698.31
728.833	26795.71
729.175	26704.18
729.516	26465.1
729.858	26536.28
730.199	26554.13
730.541	26626.67
730.882	26415.38
731.224	26499.22
731.565	26348.94
731.906	26244.08
732.248	26317.08
732.589	26166.57
732.93	26150.75
733.271	26175.84
733.612	26089.51
733.953	26106.69
734.294	25954.6
734.635	25900.14
734.976	25956.63
735.317	25874.83
735.658	25854.72
735.999	25889.52
736.339	25797.99
736.68	25862.63
737.021	25652.69
737.361	25680.26
737.702	25727.26
738.042	25741.05
738.383	25583.31
738.723	25564.78
739.063	25566.14
739.404	25513.03
739.744	25540.15
740.084	25355.07
740.424	25466.7
740.764	25408.85
741.104	25478.91
741.444	25346.93
741.784	25202.3
742.124	25256.31
742.464	25247.27
742.804	25162.98
743.143	24992.14
743.483	25178.8
743.823	24986.04
744.162	24926.6
744.502	24998.69
744.841	24924.8
745.181	24909.88
745.52	24936.1
745.86	24932.48
746.199	24860.62
746.538	24817
746.877	24800.51
747.216	24730
747.556	24728.87
747.895	24602.55
748.234	24519.38
748.573	24582.88
748.911	24533.62
749.25	24446.84
749.589	24438.48
749.928	24498.14
750.267	24416.11
750.605	24209.79
750.944	24220.18
751.283	24193.52
751.621	24242.55
751.96	24081.88
752.298	24014.09
752.636	24075.78
752.975	23889.8
753.313	23908.1
753.651	23989.45
753.989	23843.7
754.327	23788.33
754.666	23706.98
755.004	23609.8
755.342	23816.8
755.679	23685.73
756.017	23579.97
756.355	23582.01
756.693	23409.81
757.031	23441.45
757.368	23440.99
757.706	23403.25
758.044	23273.54
758.381	23296.59
758.719	23192.41
759.056	23179.31
759.394	22982.93
759.731	22993.77
760.068	22937.28
760.405	22768.7
760.743	22754.01
761.08	22756.94
761.417	22741.58
761.754	22545.88
762.091	22554.46
762.428	22438.08
762.765	22352.89
763.102	22422.94
763.438	22342.04
763.775	22176.85
764.112	22195.83
764.449	22236.51
764.785	22078.54
765.122	22016.85
765.458	21881.26
765.795	21735.28
766.131	21868.61
766.467	21719.91
766.804	21589.97
767.14	21394.49
767.476	21533.7
767.812	21377.09
768.148	21406.25
768.485	21271.33
768.821	21102.3
769.157	21185.69
769.492	21017.33
769.828	21063.2
770.164	20791.35
770.5	20867.28
770.836	20807.39
771.171	20717.9
771.507	20577.79
771.842	20454.86
772.178	20496.44
772.513	20439.72
772.849	20392.71
773.184	20223
773.519	20280.17
773.855	20125.6
774.19	20104.58
774.525	19988.2
774.86	19996.34
775.195	19980.07
775.53	19852.61
775.865	19809
776.2	19651.94
776.535	19535.33
776.87	19576.91
777.205	19436.13
777.539	19377.82
777.874	19454.88
778.209	19193.65
778.543	19149.58
778.878	19046.99
779.212	19044.5
779.547	18834.79
779.881	18947.55
780.215	18794.79
780.55	18787.33
780.884	18760.21
781.218	18577.62
781.552	18700.1
781.886	18488.58
782.22	18479.54
782.554	18328.36
782.888	18258.98
783.222	18086.56
783.556	18115.26
783.889	18102.6
784.223	17846.11
784.557	17852.89
784.89	17852.89
785.224	17841.37
785.557	17662.61
785.891	17697.19
786.224	17699.22
786.558	17611.77
786.891	17452.45
787.224	17434.6
787.557	17349.85
787.891	17336.07
788.224	17299.69
788.557	17346.69
788.89	17261.95
789.223	17231.21
789.556	16959.58
789.888	17048.85
790.221	17016.53
790.554	16891.56
790.887	16864.44
791.219	16755.75
791.552	16739.02
791.884	16576.54
792.217	16582.87
792.549	16520.95
792.882	16390.56
793.214	16363.67
793.546	16383.1
793.879	16253.84
794.211	16248.41
794.543	16228.53
794.875	16100.62
795.207	16181.52
795.539	16050.45
795.871	16062.43
796.203	15934.98
796.535	15785.15
796.867	15810.01
797.198	15740.86
797.53	15707.19
797.862	15616.11
798.193	15662.44
798.525	15437.36
798.856	15563.69
799.188	15415.67
799.519	15316.46
799.85	15222
800.182	15271.72
800.513	15328.89
800.844	15111.5
801.175	15155.56
801.506	15124.6
801.837	15009.35
802.168	14998.05
802.499	15059.52
802.83	14876.02
803.161	14848.68
803.491	14816.14
803.822	14868.34
804.153	14736.59
804.483	14653.43
804.814	14687.33
805.145	14622.02
805.475	14620.43
805.805	14605.29
806.136	14529.36
806.466	14566.42
806.796	14517.39
807.126	14390.16
807.457	14330.72
807.787	14318.52
808.117	14158.07
808.447	14208.02
808.777	14215.7
809.107	14137.06
809.436	14159.43
809.766	14102.26
810.096	14024.52
810.426	13986.78
810.755	14047.34
811.085	13925.09
811.414	13859.1
811.744	13858.65
812.073	13805.99
812.403	13738.65
812.732	13771.87
813.061	13721.93
813.39	13600.57
813.719	13617.52
814.049	13638.31
814.378	13596.51
814.707	13555.15
815.036	13455.04
815.365	13389.73
815.693	13344.54
816.022	13310.64
816.351	13281.26
816.68	13210.3
817.008	13267.93
817.337	13129.17
817.665	13089.4
817.994	13099.12
818.322	13124.2
818.651	12994.71
818.979	12966.69
819.307	13056.63
819.636	12958.56
819.964	12898.67
820.292	13006.24
820.62	12955.85
820.948	12908.39
821.276	12904.1
821.604	12893.7
821.932	12921.72
822.259	12927.82
822.587	12794.04
822.915	12848.5
823.243	12759.69
823.57	12843.53
823.898	12898.22
824.225	12825.23
824.553	12786.36
824.88	12818.45
825.207	12812.12
825.535	12783.42
825.862	12820.71
826.189	12792.01
826.516	12822.52
826.843	12814.61
827.17	12865.9
827.497	12793.14
827.824	12752.69
828.151	12897.09
828.478	12780.26
828.805	12861.84
829.131	12848.28
829.458	12789.97
829.785	12807.15
830.111	12782.07
830.438	12811.89
830.764	12722.18
831.09	12764.44
831.417	12723.76
831.743	12809.41
832.069	12752.01
832.395	12678.11
832.722	12760.6
833.048	12686.25
833.374	12704.55
833.7	12651.67
834.026	12680.6
834.351	12669.75
834.677	12642.86
835.003	12696.64
835.329	12694.84
835.654	12677.89
835.98	12629.07
836.306	12528.06
836.631	12578.45
836.956	12660.49
837.282	12571.68
837.607	12573.48
837.932	12483.32
838.258	12454.39
838.583	12396.09
838.908	12352.25
839.233	12459.59
839.558	12370.32
839.883	12325.58
840.208	12274.73
840.533	12265.69
840.858	12262.76
841.182	12342.98
841.507	12214.4
841.832	12256.66
842.156	12201.06
842.481	12172.59
842.805	12141.4
843.13	12091.24
843.454	12084.68
843.778	11989.77
844.103	11952.93
844.427	12046.49
844.751	12000.62
845.075	11894.4
845.399	11811.02
845.723	11866.16
846.047	11864.12
846.371	11792.49
846.695	11653.51
847.019	11648.99
847.343	11560.85
847.666	11545.26
847.99	11538.26
848.313	11496.22
848.637	11428.65
848.96	11415.1
849.284	11387.3
849.607	11274.53
849.931	11247.64
850.254	11153.63
850.577	11104.6
850.9	11068.44
851.223	11062.79
851.546	11040.87
851.869	10933.98
852.192	10942.79
852.515	10877.03
852.838	10837.94
853.161	10750.48
853.483	10769.46
853.806	10722.68
854.129	10693.98
854.451	10758.84
854.774	10674.78
855.096	10628.9
855.419	10541.22
855.741	10578.73
856.063	10470.94
856.385	10477.49
856.708	10441.34
857.03	10339.87
857.352	10438.17
857.674	10383.03
857.996	10273.43
858.318	10257.84
858.64	10293.09
858.961	10200.21
859.283	10151.85
859.605	10148.69
859.926	10238.63
860.248	10095.36
860.57	10143.94
860.891	10098.29
861.212	10015.13
861.534	10045.19
861.855	9972.2
862.176	10045.41
862.498	9990.95
862.819	10020.78
863.14	9916.83
863.461	9848.81
863.782	9799.54
864.103	9900.33
864.424	9795.02
864.745	9849.26
865.065	9804.52
865.386	9769.71
865.707	9808.13
866.027	9770.17
866.348	9757.74
866.668	9713.9
866.989	9728.59
867.309	9635.48
867.63	9621.7
867.95	9623.05
868.27	9572.43
868.59	9582.83
868.91	9620.57
869.23	9579.44
869.55	9544.64
869.87	9538.08
870.19	9507.8
870.51	9543.96
870.83	9562.04
871.15	9408.82
871.469	9472.77
871.789	9480.91
872.109	9434.36
872.428	9444.3
872.748	9349.39
873.067	9402.72
873.386	9345.09
873.706	9271.42
874.025	9326.79
874.344	9296.73
874.663	9320.46
874.982	9269.62
875.301	9302.61
875.62	9219.67
875.939	9173.35
876.258	9237.07
876.577	9171.99
876.896	9157.08
877.214	9139
877.533	9176.96
877.852	9148.71
878.17	9169.5
878.489	9148.94
878.807	9110.98
879.125	9124.08
879.444	9160.47
879.762	9058.77
880.08	9018.1
880.398	8996.63
880.716	9031.88
881.034	9009.51
881.352	8992.33
881.67	9002.5
881.988	8955.05
882.306	8926.35
882.624	8890.64
882.941	8873.92
883.259	8844.54
883.577	8804.99
883.894	8772.23
884.212	8724.77
884.529	8825.11
884.846	8767.48
885.164	8759.35
885.481	8690.42
885.798	8705.56
886.115	8643.64
886.432	8592.57
886.75	8616.98
887.067	8607.94
887.383	8499.47
887.7	8566.36
888.017	8555.74
888.334	8518
888.651	8513.7
888.967	8472.8
889.284	8445.91
889.6	8476.87
889.917	8416.76
890.233	8454.5
890.55	8370.66
890.866	8387.6
891.182	8305.35
891.498	8329.98
891.815	8259.92
892.131	8264.9
892.447	8216.31
892.763	8197.33
893.079	8228.06
893.395	8189.87
893.71	8146.71
894.026	8138.12
894.342	8116.43
894.657	8074.39
894.973	8102.64
895.289	7975.86
895.604	8011.34
895.92	7928.18
896.235	7870.33
896.55	7883.44
896.865	7903.1
897.181	7811.35
897.496	7832.59
897.811	7786.72
898.126	7802.31
898.441	7661.3
898.756	7708.98
899.071	7772.71
899.386	7665.14
899.7	7624.91
900.015	7601.41
900.33	7543.11
900.644	7604.35
900.959	7525.71
901.273	7472.6
901.588	7447.06
901.902	7408.87
902.216	7348.08
902.531	7452.26
902.845	7335.43
903.159	7310.34
903.473	7287.97
903.787	7301.76
904.101	7200.97
904.415	7243.91
904.729	7209.1
905.042	7184.92
905.356	7141.08
905.67	7069.22
905.984	7086.62
906.297	7097.02
906.611	7100.86
906.924	7052.05
907.237	6966.62
907.551	6981.77
907.864	6948.77
908.177	6898.38
908.491	6878.49
908.804	6866.51
909.117	6824.03
909.43	6823.58
909.743	6745.84
910.056	6742.68
910.368	6711.94
910.681	6669.91
910.994	6674.2
911.307	6632.4
911.619	6578.84
911.932	6603.02
912.244	6538.39
912.557	6500.42
912.869	6510.37
913.181	6472.85
913.494	6417.03
913.806	6405.06
914.118	6429.46
914.43	6391.5
914.742	6312.86
915.054	6341.1
915.366	6261.33
915.678	6234.44
915.99	6278.51
916.302	6286.64
916.613	6171.62
916.925	6174.78
917.236	6184.72
917.548	6088.46
917.859	6099.53
918.171	6085.74
918.482	6056.14
918.794	6056.14
919.105	6018.85
919.416	5979.31
919.727	5941.11
920.038	5935.24
920.349	5887.11
920.66	5851.17
920.971	5873.32
921.282	5857.73
921.593	5765.3
921.903	5766.43
922.214	5742.7
922.525	5726.66
922.835	5723.95
923.146	5691.18
923.456	5653.66
923.767	5631.29
924.077	5623.16
924.387	5577.73
924.697	5610.05
925.008	5513.56
925.318	5509.26
925.628	5495.03
925.938	5492.31
926.248	5456.61
926.558	5411.19
926.867	5378.42
927.177	5332.32
927.487	5369.83
927.796	5330.51
928.106	5352.2
928.416	5272.66
928.725	5285.99
929.034	5217.74
929.344	5279.66
929.653	5245.99
929.962	5156.05
930.271	5138.65
930.581	5134.36
930.89	5096.17
931.199	5090.97
931.508	5022.27
931.817	5122.38
932.125	5026.56
932.434	5045.55
932.743	4943.63
933.051	4960.58
933.36	4929.39
933.669	4930.52
933.977	4911.09
934.286	4876.51
934.594	4871.76
934.902	4834.7
935.21	4824.76
935.519	4835.83
935.827	4767.13
936.135	4751.77
936.443	4699.79
936.751	4711.09
937.059	4662.5
937.367	4686.01
937.674	4666.8
937.982	4649.17
938.29	4634.93
938.597	4667.02
938.905	4570.53
939.213	4570.98
939.52	4524.88
939.827	4551.77
940.135	4520.59
940.442	4516.07
940.749	4461.61
941.056	4484.43
941.363	4421.15
941.67	4419.35
941.977	4347.26
942.284	4366.24
942.591	4363.53
942.898	4354.49
943.205	4344.77
943.511	4262.06
943.818	4275.4
944.125	4256.87
944.431	4241.72
944.738	4254.61
945.044	4216.41
945.35	4220.71
945.657	4149.52
945.963	4125.8
946.269	4142.07
946.575	4149.3
946.881	4073.37
947.187	4119.47
947.493	4053.93
947.799	4051.9
948.105	4015.29
948.41	4028.17
948.716	4033.14
949.022	3957.21
949.327	3978.91
949.633	3926.25
949.938	3943.65
950.244	3958.12
950.549	3904.56
950.854	3897.55
951.16	3863.43
951.465	3846.71
951.77	3856.88
952.075	3786.82
952.38	3783.66
952.685	3810.32
952.99	3729.2
953.294	3758.8
953.599	3745.92
953.904	3688.97
954.209	3695.3
954.513	3692.36
954.818	3699.14
955.122	3610.78
955.426	3635.41
955.731	3645.36
956.035	3631.12
956.339	3570.33
956.643	3590.89
956.948	3548.86
957.252	3539.82
957.556	3544.79
957.86	3500.73
958.163	3523.1
958.467	3513.61
958.771	3495.3
959.075	3472.71
959.378	3455.76
959.682	3443.33
959.985	3438.13
960.289	3404.01
960.592	3390.67
960.896	3348.41
961.199	3351.13
961.502	3361.07
961.805	3356.32
962.108	3308.87
962.411	3297.12
962.714	3321.07
963.017	3281.3
963.32	3266.61
963.623	3216.67
963.926	3251.24
964.228	3219.83
964.531	3172.6
964.833	3180.51
965.136	3179.15
965.438	3166.05
965.741	3161.75
966.043	3156.1
966.345	3105.48
966.648	3118.36
966.95	3089.44
967.252	3097.57
967.554	3084.01
967.856	3057.57
968.158	3025.71
968.46	3032.49
968.761	3023.45
969.063	2988.2
969.365	2973.06
969.666	2968.99
969.968	2963.34
970.269	2938.71
970.571	2941.19
970.872	2947.97
971.174	2914.53
971.475	2934.87
971.776	2899.39
972.077	2891.03
972.378	2849.44
972.679	2830.69
972.98	2852.83
973.281	2805.83
973.582	2801.99
973.883	2783.46
974.183	2769.22
974.484	2789.79
974.785	2771.93
975.085	2761.54
975.386	2758.15
975.686	2722.67
975.986	2714.31
976.287	2743.68
976.587	2681.09
976.887	2676.57
977.187	2676.79
977.487	2626.85
977.787	2632.05
978.087	2650.81
978.387	2637.47
978.687	2608.32
978.987	2599.28
979.286	2593.41
979.586	2606.29
979.885	2598.6
980.185	2563.35
980.484	2505.95
980.784	2549.57
981.083	2542.79
981.382	2520.41
981.682	2513.86
981.981	2489
982.28	2510.24
982.579	2496.01
982.878	2495.78
983.177	2438.83
983.475	2458.95
983.774	2454.65
984.073	2366.97
984.372	2409.68
984.67	2414.2
984.969	2411.94
985.267	2373.98
985.566	2374.66
985.864	2349.12
986.162	2345.5
986.461	2294.88
986.759	2302.11
987.057	2272.06
987.355	2299.85
987.653	2287.2
987.951	2295.11
988.249	2253.08
988.547	2248.56
988.844	2243.81
989.142	2236.13
989.44	2220.08
989.737	2223.25
990.035	2185.28
990.332	2207.43
990.63	2201.1
990.927	2182.12
991.224	2174.21
991.521	2150.25
991.819	2139.18
992.116	2169.24
992.413	2147.77
992.71	2123.81
993.006	2082.46
993.303	2130.14
993.6	2107.32
993.897	2098.96
994.193	2103.93
994.49	2054.66
994.787	2079.3
995.083	2044.95
995.379	2039.97
995.676	2013.31
995.972	2018.05
996.268	1986.19
996.565	1995.68
996.861	1983.25
997.157	1998.62
997.453	1973.31
997.749	1983.03
998.044	1959.07
998.34	1932.63
998.636	1948.45
998.932	1952.29
999.227	1921.33
999.523	1917.27
999.818	1877.49
1000.114	1846.99
1000.409	1891.28
1000.704	1868
1001	1876.82
1001.295	1861.45
1001.59	1848.79
1001.885	1837.04
1002.18	1807.44
1002.475	1839.75
1002.77	1823.26
1003.065	1770.83
1003.359	1769.02
1003.654	1791.85
1003.949	1763.82
1004.243	1739.87
1004.538	1740.32
1004.832	1762.24
1005.127	1722.24
1005.421	1716.59
1005.715	1701.68
1006.009	1713.43
1006.304	1673.43
1006.598	1694.67
1006.892	1685.63
1007.186	1676.82
1007.48	1661.45
1007.773	1623.94
1008.067	1626.43
1008.361	1633.43
1008.655	1611.51
1008.948	1642.92
1009.242	1580.78
1009.535	1595.92
1009.829	1597.5
1010.122	1570.38
1010.415	1588.46
1010.708	1578.97
1011.001	1569.25
1011.295	1546.43
1011.588	1515.02
1011.881	1540.1
1012.173	1532.19
1012.466	1532.87
1012.759	1501.68
1013.052	1481.35
1013.344	1471.85
1013.637	1479.99
1013.93	1483.15
1014.222	1475.02
1014.514	1463.27
1014.807	1455.81
1015.099	1446.09
1015.391	1405.42
1015.683	1392.31
1015.976	1403.16
1016.268	1428.92
1016.56	1392.08
1016.851	1356.15
1017.143	1374
1017.435	1383.27
1017.727	1363.61
1018.018	1364.29
1018.31	1335.36
1018.602	1354.79
1018.893	1345.76
1019.185	1307.11
1019.476	1286.1
1019.767	1274.12
1020.058	1279.99
1020.35	1312.08
1020.641	1279.09
1020.932	1291.29
1021.223	1298.3
1021.514	1266.89
1021.804	1243.84
1022.095	1248.58
1022.386	1226.21
1022.677	1219.43
1022.967	1213.33
1023.258	1208.58
1023.548	1202.03
1023.839	1189.38
1024.129	1190.73
1024.419	1171.75
1024.709	1179.21
1025	1159.55
1025.29	1167.46
1025.58	1153.67
1025.87	1157.51
1026.16	1129.72
1026.449	1125.87
1026.739	1137.4
1027.029	1130.39
1027.319	1117.29
1027.608	1103.05
1027.898	1101.47
1028.187	1080.23
1028.477	1090.62
1028.766	1027.35
1029.055	1076.61
1029.344	1078.87
1029.634	1042.26
1029.923	1046.1
1030.212	1036.84
1030.501	1039.77
1030.79	1042.26
1031.078	1040.68
1031.367	1026.89
1031.656	1015.82
1031.945	999.1
1032.233	997.29
1032.522	990.06
1032.81	1008.14
1033.099	991.87
1033.387	971.98
1033.675	960.91
1033.963	972.21
1034.251	960
1034.54	932.89
1034.828	951.64
1035.116	962.26
1035.403	945.54
1035.691	933.34
1035.979	924.3
1036.267	911.87
1036.554	917.97
1036.842	906.9
1037.129	895.6
1037.417	904.19
1037.704	880.23
1037.992	894.24
1038.279	884.52
1038.566	867.58
1038.853	867.58
1039.14	867.58
