Data from hue_220_FLMS001491_00067.txt Node
Date: Tue Feb 07 16:39:48 GMT 2017
User: dcchb
Spectrometer: FLMS00149
Trigger mode: 0
Integration Time (sec): 2.000000E-2
Scans to average: 10
Electric dark correction enabled: true
Nonlinearity correction enabled: false
Boxcar width: 0
XAxis mode: Wavelengths
Number of Pixels in Spectrum: 2048
>>>>>Begin Spectral Data<<<<<
341.393	-23.49
341.776	-23.49
342.16	-23.49
342.543	-59.87
342.927	-65.75
343.31	-59.87
343.693	-75.46
344.077	-75.46
344.46	-55.13
344.843	-43.15
345.226	-23.04
345.61	-45.86
345.993	-4.73
346.376	-5.18
346.759	10.86
347.142	33.01
347.525	51.09
347.908	40.92
348.291	59.67
348.674	94.02
349.057	98.32
349.44	129.5
349.823	161.14
350.206	190.52
350.588	190.74
350.971	202.27
351.354	230.06
351.737	238.65
352.119	269.16
352.502	272.78
352.884	290.4
353.267	273.23
353.65	277.07
354.032	290.4
354.414	282.49
354.797	294.02
355.179	294.92
355.562	308.48
355.944	340.12
356.326	335.15
356.709	359.33
357.091	352.1
357.473	322.27
357.855	323.85
358.238	341.02
358.62	338.54
359.002	341.93
359.384	346.22
359.766	357.29
360.148	349.84
360.53	347.58
360.912	345.09
361.294	317.97
361.676	314.13
362.057	320.23
362.439	336.73
362.821	347.35
363.203	333.79
363.584	323.17
363.966	342.38
364.348	320.01
364.729	323.62
365.111	330.17
365.493	316.62
365.874	312.1
366.256	318.88
366.637	326.11
367.019	325.88
367.4	315.94
367.781	303.51
368.163	297.63
368.544	298.99
368.925	305.54
369.306	310.51
369.688	315.71
370.069	324.98
370.45	335.37
370.831	303.96
371.212	313.45
371.593	321.81
371.974	309.61
372.355	318.2
372.736	317.52
373.117	288.37
373.498	305.54
373.879	281.36
374.26	315.26
374.641	334.47
375.021	312.32
375.402	303.96
375.783	320.68
376.163	329.05
376.544	327.46
376.925	322.04
377.305	325.2
377.686	329.27
378.066	334.02
378.447	310.06
378.827	324.98
379.208	331.76
379.588	345.09
379.968	319.55
380.349	340.12
380.729	331.53
381.109	322.49
381.489	328.59
381.87	328.59
382.25	324.07
382.63	328.82
383.01	326.33
383.39	344.64
383.77	319.1
384.15	364.07
384.53	367.01
384.91	338.08
385.29	344.41
385.67	360.46
386.049	354.36
386.429	339.21
386.809	364.07
387.189	364.52
387.568	347.12
387.948	345.54
388.328	356.61
388.707	360.46
389.087	338.08
389.466	346.9
389.846	357.74
390.225	366.78
390.605	379.89
390.984	353.68
391.363	354.81
391.743	361.36
392.122	367.24
392.501	372.66
392.881	384.41
393.26	377.41
393.639	388.03
394.018	349.61
394.397	382.38
394.776	372.66
395.155	371.53
395.534	386.67
395.913	388.03
396.292	390.51
396.671	388.48
397.05	403.85
397.429	383.51
397.808	390.29
398.186	389.61
398.565	392.09
398.944	382.38
399.323	396.84
399.701	414.69
400.08	415.82
400.458	408.59
400.837	401.13
401.215	418.53
401.594	414.69
401.972	422.15
402.351	408.14
402.729	419.89
403.107	428.93
403.486	411.08
403.864	421.47
404.242	436.61
404.62	429.83
404.999	415.37
405.377	441.58
405.755	457.18
406.133	446.1
406.511	449.49
406.889	459.21
407.267	454.47
407.645	441.13
408.023	464.18
408.401	467.35
408.779	482.71
409.156	475.93
409.534	494.46
409.912	501.02
410.29	508.7
410.667	523.84
411.045	510.51
411.422	516.61
411.8	538.98
412.178	545.76
412.555	538.76
412.933	548.02
413.31	569.72
413.687	555.03
414.065	584.18
414.442	592.54
414.819	615.82
415.197	592.77
415.574	622.14
415.951	608.13
416.328	625.08
416.705	630.73
417.082	635.93
417.46	642.26
417.837	646.32
418.214	651.97
418.591	681.8
418.967	654.46
419.344	671.63
419.721	705.31
420.098	691.75
420.475	730.84
420.852	738.53
421.228	728.13
421.605	743.05
421.982	754.8
422.358	754.8
422.735	761.35
423.111	802.48
423.488	792.31
423.864	815.13
424.241	815.81
424.617	845.42
424.994	833.89
425.37	855.81
425.746	879.09
426.123	877.05
426.499	916.37
426.875	900.56
427.251	919.76
427.627	935.81
428.003	955.02
428.379	949.82
428.756	959.54
429.132	983.27
429.507	993.66
429.883	994.34
430.259	1007.9
430.635	1003.83
431.011	1019.87
431.387	1030.72
431.763	1058.97
432.138	1060.78
432.514	1089.03
432.89	1099.42
433.265	1129.25
433.641	1151.85
434.016	1158.63
434.392	1179.42
434.767	1206.76
435.143	1208.34
435.518	1216.48
435.894	1284.05
436.269	1277.49
436.644	1326.31
437.02	1327.21
437.395	1335.8
437.77	1350.04
438.145	1411.05
438.52	1396.36
438.895	1438.85
439.271	1426.19
439.646	1486.3
440.021	1498.73
440.395	1487.66
440.77	1515.45
441.145	1531.05
441.52	1562.23
441.895	1580.99
442.27	1571.95
442.645	1568.33
443.019	1644.04
443.394	1621.67
443.769	1634.32
444.143	1625.28
444.518	1690.82
444.892	1694.88
445.267	1696.47
445.641	1713.87
446.016	1762.91
446.39	1751.15
446.764	1730.14
447.139	1778.27
447.513	1755.67
447.887	1797.03
448.262	1792.28
448.636	1796.58
449.01	1840.19
449.384	1851.04
449.758	1867.54
450.132	1875.22
450.506	1873.19
450.88	1917.03
451.254	1873.19
451.628	1968.78
452.002	1947.99
452.376	1934.65
452.75	1989.57
453.123	1982.33
453.497	2021.43
453.871	2020.75
454.244	2059.85
454.618	2097.59
454.992	2147.75
455.365	2117.47
455.739	2183.01
456.112	2185.27
456.486	2213.29
456.859	2203.57
457.232	2262.33
457.606	2217.81
457.979	2246.28
458.352	2323.34
458.725	2317.69
459.099	2338.71
459.472	2389.78
459.845	2410.12
460.218	2415.54
460.591	2456.9
460.964	2468.65
461.337	2531.02
461.71	2533.73
462.083	2555.43
462.456	2563.79
462.829	2598.14
463.201	2640.4
463.574	2632.94
463.947	2672.03
464.32	2719.04
464.692	2738.47
465.065	2769.88
465.438	2792.03
465.81	2828.87
466.183	2857.11
466.555	2908.86
466.928	2900.28
467.3	2903.67
467.672	2990.22
468.045	3037.45
468.417	3016.43
468.789	3067.28
469.161	3099.82
469.534	3162.19
469.906	3210.78
470.278	3217.56
470.65	3295.97
471.022	3300.49
471.394	3359.02
471.766	3387.5
472.138	3394.95
472.51	3458
472.882	3535.97
473.253	3523.76
473.625	3574.84
473.997	3673.59
474.369	3704.32
474.74	3705
475.112	3754.94
475.484	3820.03
475.855	3867.48
476.227	3913.81
476.598	3987.03
476.97	4032.22
477.341	4084.43
477.713	4106.35
478.084	4136.63
478.455	4245.1
478.827	4303.18
479.198	4412.33
479.569	4404.87
479.94	4457.07
480.311	4554.02
480.682	4596.05
481.053	4694.35
481.424	4787.68
481.795	4790.17
482.166	4856.16
482.537	4905.87
482.908	4999.66
483.279	5072.88
483.65	5145.19
484.021	5177.05
484.391	5224.51
484.762	5294.11
485.133	5327.11
485.503	5401.68
485.874	5542.92
486.244	5479.64
486.615	5601.45
486.985	5651.62
487.356	5735
487.726	5777.72
488.097	5870.82
488.467	5857.71
488.837	5989.46
489.207	6022.45
489.578	6064.94
489.948	6146.97
490.318	6224.48
490.688	6261.77
491.058	6310.58
491.428	6376.57
491.798	6421.31
492.168	6555.1
492.538	6603.91
492.908	6621.08
493.278	6661.08
493.648	6701.31
494.017	6735.88
494.387	6769.78
494.757	6829.21
495.126	6901.3
495.496	6921.87
495.866	6971.58
496.235	6964.8
496.605	7030.56
496.974	7030.11
497.344	7114.18
497.713	7125.93
498.082	7161.18
498.452	7246.83
498.821	7242.54
499.19	7217.45
499.559	7328.86
499.928	7300.16
500.298	7369.31
500.667	7499.93
501.036	7395.53
501.405	7469.42
501.774	7420.61
502.143	7438.01
502.512	7481.63
502.88	7543.32
503.249	7489.99
503.618	7595.52
503.987	7578.12
504.356	7633.94
504.724	7646.14
505.093	7707.61
505.462	7689.98
505.83	7713.26
506.199	7739.02
506.567	7829.64
506.936	7796.87
507.304	7846.81
507.672	7849.53
508.041	7855.4
508.409	7913.03
508.777	7908.28
509.145	7985.34
509.514	8002.29
509.882	8034.83
510.25	8010.2
510.618	7970.43
510.986	8014.04
511.354	8071.21
511.722	8074.38
512.09	8137.2
512.458	8094.94
512.826	8146.69
513.193	8137.43
513.561	8213.13
513.929	8159.12
514.297	8165
514.664	8254.71
515.032	8261.49
515.4	8235.5
515.767	8215.84
516.135	8254.03
516.502	8192.12
516.869	8322.51
517.237	8318.21
517.604	8256.75
517.972	8281.83
518.339	8349.17
518.706	8276.63
519.073	8242.06
519.44	8263.3
519.808	8371.32
520.175	8306.01
520.542	8379.23
520.909	8335.61
521.276	8345.33
521.643	8370.64
522.009	8396.4
522.376	8407.48
522.743	8375.39
523.11	8474.14
523.477	8473.92
523.843	8435.05
524.21	8542.84
524.577	8481.6
524.943	8461.26
525.31	8504.2
525.676	8524.99
526.043	8546.23
526.409	8564.53
526.776	8581.48
527.142	8518.21
527.508	8562.95
527.874	8577.64
528.241	8613.35
528.607	8552.78
528.973	8551.2
529.339	8518.21
529.705	8646.11
530.071	8576.29
530.437	8580.35
530.803	8604.31
531.169	8531.32
531.535	8480.7
531.901	8513.24
532.267	8482.5
532.632	8485.21
532.998	8543.07
533.364	8508.94
533.73	8495.61
534.095	8549.39
534.461	8494.03
534.826	8451.77
535.192	8485.67
535.557	8419
535.923	8382.84
536.288	8427.14
536.653	8449.28
537.019	8346.24
537.384	8353.01
537.749	8368.83
538.114	8302.39
538.479	8312.34
538.845	8282.06
539.21	8204.77
539.575	8216.07
539.94	8247.71
540.305	8194.6
540.67	8195.96
541.034	8121.38
541.399	8059.24
541.764	8090.2
542.129	8066.24
542.494	8080.71
542.858	8035.96
543.223	8007.49
543.587	7988.96
543.952	7973.82
544.316	8011.78
544.681	7886.81
545.045	7911.67
545.41	7905.79
545.774	7926.59
546.138	7876.42
546.503	7901.28
546.867	7813.59
547.231	7797.78
547.595	7800.04
547.959	7710.55
548.324	7741.96
548.688	7700.38
549.052	7681.85
549.416	7659.7
549.779	7604.79
550.143	7621.06
550.507	7594.16
550.871	7551
551.235	7573.15
551.599	7471.91
551.962	7536.31
552.326	7495.18
552.689	7488.63
553.053	7406.6
553.417	7445.02
553.78	7452.47
554.143	7415.41
554.507	7382.87
554.87	7393.27
555.234	7403.21
555.597	7395.98
555.96	7358.01
556.323	7348.3
556.686	7339.26
557.05	7444.11
557.413	7290.22
557.776	7336.54
558.139	7357.33
558.502	7298.81
558.865	7243.67
559.228	7285.7
559.59	7298.58
559.953	7287.73
560.316	7325.7
560.679	7293.83
561.041	7270.33
561.404	7279.82
561.767	7292.93
562.129	7229.88
562.492	7340.61
562.854	7273.5
563.217	7265.36
563.579	7223.78
563.941	7289.77
564.304	7317.11
564.666	7327.96
565.028	7296.32
565.39	7270.11
565.753	7307.39
566.115	7346.26
566.477	7348.52
566.839	7359.59
567.201	7342.42
567.563	7292.7
567.925	7386.26
568.287	7398.01
568.648	7374.51
569.01	7411.57
569.372	7436.43
569.734	7366.15
570.095	7415.19
570.457	7371.35
570.819	7443.89
571.18	7508.74
571.542	7432.36
571.903	7438.91
572.265	7485.69
572.626	7544.9
572.987	7459.93
573.349	7462.87
573.71	7469.42
574.071	7553.94
574.432	7474.85
574.794	7603.66
575.155	7587.84
575.516	7516.88
575.877	7553.26
576.238	7584.9
576.599	7618.8
576.96	7566.82
577.32	7667.16
577.681	7630.77
578.042	7669.42
578.403	7612.92
578.763	7699.7
579.124	7670.32
579.485	7769.3
579.845	7745.8
580.206	7796.42
580.566	7763.88
580.927	7788.51
581.287	7816.08
581.648	7752.13
582.008	7822.18
582.368	7840.03
582.728	7833.48
583.089	7801.39
583.449	7875.06
583.809	7854.5
584.169	7902.86
584.529	7893.37
584.889	7934.72
585.249	7883.65
585.609	7883.87
585.969	7992.12
586.329	7962.29
586.688	8050.65
587.048	7953.7
587.408	7981.27
587.768	7989.86
588.127	7997.09
588.487	8009.3
588.846	8063.3
589.206	8015.4
589.565	8057.66
589.925	8107.6
590.284	8019.69
590.643	8046.36
591.003	8096.07
591.362	8164.55
591.721	8103.53
592.08	8122.96
592.44	8163.64
592.799	8085.45
593.158	8165.45
593.517	8157.99
593.876	8155.73
594.235	8116.86
594.593	8151.66
594.952	8204.09
595.311	8150.76
595.67	8206.58
596.029	8176.52
596.387	8268.72
596.746	8246.35
597.104	8259.91
597.463	8227.59
597.822	8244.77
598.18	8247.71
598.538	8195.96
598.897	8289.29
599.255	8244.54
599.613	8315.05
599.972	8298.33
600.33	8298.1
600.688	8274.15
601.046	8295.84
601.404	8390.98
601.762	8317.31
602.12	8367.03
602.478	8376.74
602.836	8369.06
603.194	8321.15
603.552	8354.82
603.91	8319.34
604.268	8369.96
604.625	8293.13
604.983	8387.82
605.341	8275.5
605.698	8309.17
606.056	8379.45
606.413	8439.57
606.771	8449.28
607.128	8379.91
607.485	8439.34
607.843	8477.08
608.2	8407.25
608.557	8481.37
608.914	8463.75
609.272	8529.28
609.629	8463.75
609.986	8480.47
610.343	8424.43
610.7	8552.78
611.057	8545.55
611.414	8517.98
611.771	8619
612.127	8599.56
612.484	8549.17
612.841	8547.36
613.198	8506.01
613.554	8565.44
613.911	8588.94
614.267	8569.73
614.624	8577.87
614.98	8581.03
615.337	8602.5
615.693	8576.74
616.05	8559.11
616.406	8623.52
616.762	8560.92
617.118	8615.83
617.475	8636.17
617.831	8670.52
618.187	8649.73
618.543	8594.14
618.899	8727.47
619.255	8713.01
619.611	8685.21
619.967	8714.14
620.323	8811.53
620.678	8679.33
621.034	8703.06
621.39	8694.93
621.746	8658.77
622.101	8762.72
622.457	8668.49
622.812	8679.79
623.168	8734.02
623.523	8719.56
623.879	8753
624.234	8706.45
624.589	8677.3
624.945	8664.42
625.3	8747.81
625.655	8682.5
626.01	8726.56
626.365	8641.14
626.72	8689.96
627.075	8661.48
627.43	8676.62
627.785	8624.65
628.14	8752.78
628.495	8673.68
628.85	8643.18
629.205	8701.71
629.559	8659.9
629.914	8628.04
630.269	8698.77
630.623	8632.33
630.978	8638.21
631.332	8563.4
631.687	8694.47
632.041	8594.14
632.396	8585.33
632.75	8543.07
633.104	8619.67
633.459	8557.3
633.813	8571.31
634.167	8561.6
634.521	8482.73
634.875	8582.84
635.229	8559.56
635.583	8419.45
635.937	8476.18
636.291	8446.12
636.645	8465.33
636.999	8493.8
637.352	8447.02
637.706	8408.61
638.06	8481.37
638.413	8425.1
638.767	8404.09
639.121	8440.7
639.474	8364.31
639.828	8417.65
640.181	8383.3
640.534	8405.22
640.888	8351.66
641.241	8416.06
641.594	8389.17
641.947	8368.83
642.301	8331.09
642.654	8317.76
643.007	8409.96
643.36	8358.21
643.713	8366.35
644.066	8384.43
644.419	8280.7
644.771	8237.99
645.124	8205
645.477	8250.42
645.83	8128.39
646.182	8136.07
646.535	8074.38
646.888	8092.46
647.24	8039.35
647.593	8050.42
647.945	8085.68
648.298	8077.32
648.65	8035.06
649.002	8038.45
649.355	8088.62
649.707	8047.71
650.059	8085.68
650.411	8176.97
650.763	8147.6
651.115	8266.92
651.467	8199.35
651.819	8270.31
652.171	8221.49
652.523	8266.46
652.875	8205
653.227	8187.82
653.578	8234.6
653.93	8267.14
654.282	8213.36
654.633	8216.97
654.985	8163.42
655.337	8223.53
655.688	8200.48
656.039	8231.66
656.391	8205.45
656.742	8216.97
657.094	8190.99
657.445	8280.47
657.796	8216.52
658.147	8236.41
658.498	8242.96
658.849	8241.15
659.2	8263.53
659.551	8289.74
659.902	8290.19
660.253	8220.59
660.604	8306.01
660.955	8175.84
661.306	8271.66
661.656	8249.97
662.007	8263.98
662.358	8282.28
662.708	8264.43
663.059	8250.42
663.409	8276.18
663.76	8315.73
664.11	8347.37
664.461	8256.29
664.811	8335.16
665.161	8308.5
665.511	8223.53
665.862	8308.27
666.212	8341.49
666.562	8287.93
666.912	8322.51
667.262	8315.05
667.612	8400.47
667.962	8337.42
668.312	8294.03
668.662	8391.21
669.011	8266.92
669.361	8366.8
669.711	8304.43
670.06	8269.85
670.41	8311.21
670.76	8311.66
671.109	8269.4
671.459	8254.03
671.808	8250.87
672.157	8366.35
672.507	8243.41
672.856	8261.94
673.205	8197.99
673.554	8325.9
673.904	8216.3
674.253	8239.57
674.602	8208.39
674.951	8139.24
675.3	8102.85
675.649	8248.84
675.998	8189.4
676.346	8216.97
676.695	8209.97
677.044	8169.29
677.393	8195.96
677.741	8155.05
678.09	8168.39
678.438	8135.85
678.787	8153.47
679.135	8188.95
679.484	8053.81
679.832	8072.8
680.181	8040.25
680.529	8109.86
680.877	8040.71
681.225	8028.96
681.573	8109.18
681.922	8014.72
682.27	7962.74
682.618	8019.01
682.966	7937.66
683.314	7970.65
683.661	7917.55
684.009	7847.27
684.357	7921.16
684.705	7891.11
685.053	7853.59
685.4	7857.66
685.748	7802.29
686.095	7842.07
686.443	7788.51
686.79	7804.33
687.138	7835.06
687.485	7721.17
687.832	7787.83
688.18	7809.53
688.527	7650.89
688.874	7726.36
689.221	7615.86
689.568	7589.65
689.915	7603.66
690.262	7600.49
690.609	7540.83
690.956	7581.51
691.303	7543.09
691.65	7536.99
691.997	7501.96
692.344	7490.21
692.69	7397.33
693.037	7431.46
693.383	7345.13
693.73	7388.07
694.077	7331.8
694.423	7315.75
694.769	7314.4
695.116	7210.22
695.462	7302.2
695.808	7196.44
696.155	7197.79
696.501	7179.49
696.847	7159.37
697.193	7097.45
697.539	7162.99
697.885	7071.01
698.231	7040.73
698.577	7094.52
698.923	7031.69
699.269	6946.95
699.614	6914.18
699.96	6953.96
700.306	6890.68
700.651	6861.75
700.997	6887.97
701.342	6836.67
701.688	6871.02
702.033	6769.1
702.379	6870.34
702.724	6786.73
703.069	6723.45
703.415	6646.17
703.76	6650.01
704.105	6663.57
704.45	6620.41
704.795	6595.55
705.14	6623.79
705.485	6550.12
705.83	6552.84
706.175	6536.11
706.52	6519.62
706.865	6457.02
707.209	6500.63
707.554	6428.32
707.899	6484.14
708.243	6383.12
708.588	6403.91
708.932	6416.79
709.277	6274.43
709.621	6347.42
709.966	6352.16
710.31	6316.01
710.654	6264.71
710.998	6236.23
711.342	6275.78
711.687	6219.29
712.031	6221.77
712.375	6211.15
712.719	6232.17
713.063	6179.06
713.407	6159.63
713.75	6164.37
714.094	6117.59
714.438	6109.68
714.782	6156.46
715.125	6144.94
715.469	6113.3
715.812	6069.91
716.156	6081.66
716.499	6045.96
716.843	6053.87
717.186	6006.18
717.53	6064.04
717.873	6068.1
718.216	6036.47
718.559	5982.91
718.902	5959.63
719.246	6033.98
719.589	5995.34
719.932	6014.32
720.275	5972.06
720.617	5928.22
720.96	5962.8
721.303	5945.62
721.646	5938.84
721.989	5911.95
722.331	5940.42
722.674	5925.51
723.016	5945.62
723.359	5933.19
723.701	5865.17
724.044	5894.1
724.386	5865.4
724.729	5889.58
725.071	5902.23
725.413	5858.17
725.755	5912.63
726.097	5851.39
726.439	5887.77
726.782	5831.95
727.124	5844.15
727.465	5850.26
727.807	5872.4
728.149	5828.79
728.491	5809.13
728.833	5863.14
729.175	5784.95
729.516	5784.04
729.858	5876.24
730.199	5880.76
730.541	5830.14
730.882	5837.15
731.224	5814.32
731.565	5841.22
731.906	5804.61
732.248	5826.75
732.589	5833.08
732.93	5761.22
733.271	5823.59
733.612	5814.32
733.953	5875.79
734.294	5859.07
734.635	5819.52
734.976	5837.15
735.317	5858.62
735.658	5819.07
735.999	5828.11
736.339	5838.28
736.68	5813.65
737.021	5885.74
737.361	5806.87
737.702	5842.12
738.042	5883.25
738.383	5863.14
738.723	5910.37
739.063	5872.63
739.404	5905.4
739.744	5916.92
740.084	5957.37
740.424	5925.73
740.764	5903.14
741.104	5996.47
741.444	5955.34
741.784	5949.91
742.124	5955.79
742.464	5957.6
742.804	5986.3
743.143	5970.48
743.483	6035.11
743.823	6020.19
744.162	6061.78
744.502	6137.03
744.841	6110.36
745.181	6164.37
745.52	6145.16
745.86	6207.08
746.199	6276.01
746.538	6284.37
746.877	6330.47
747.216	6393.29
747.556	6398.26
747.895	6483.46
748.234	6479.17
748.573	6517.13
748.911	6604.36
749.25	6647.75
749.589	6630.35
749.928	6787.63
750.267	6810.91
750.605	6902.21
750.944	6974.07
751.283	6990.11
751.621	7078.7
751.96	7141.3
752.298	7228.98
752.636	7357.56
752.975	7397.33
753.313	7428.52
753.651	7579.02
753.989	7650.43
754.327	7805.46
754.666	7922.74
755.004	8026.02
755.342	8146.47
755.679	8250.64
756.017	8383.07
756.355	8494.93
756.693	8543.52
757.031	8844.75
757.368	8842.49
757.706	9036.61
758.044	9124.07
758.381	9380.78
758.719	9454
759.056	9660.55
759.394	9756.14
759.731	9901
760.068	10045.4
760.405	10143.25
760.743	10320.42
761.08	10553.86
761.417	10667.3
761.754	10811.48
762.091	11007.86
762.428	11157.69
762.765	11315.65
763.102	11575.98
763.438	11641.29
763.775	11801.74
764.112	11979.36
764.449	12231.78
764.785	12363.98
765.122	12467.93
765.458	12595.84
765.795	12834.03
766.131	12958.54
766.467	13038.77
766.804	13215.26
767.14	13324.86
767.476	13483.28
767.812	13642.82
768.148	13781.35
768.485	13995.58
768.821	14025.18
769.157	14177.49
769.492	14322.58
769.828	14422.69
770.164	14504.27
770.5	14622.45
770.836	14801.88
771.171	14932.73
771.507	14963.46
771.842	14943.58
772.178	15200.52
772.513	15299.5
772.849	15367.97
773.184	15478.93
773.519	15577.68
773.855	15560.28
774.19	15634.63
774.525	15715.08
774.86	15872.37
775.195	15932.25
775.53	15985.58
775.865	15999.82
776.2	16003.21
776.535	16009.31
776.87	16185.58
777.205	16172.47
777.539	16239.59
777.874	16294.95
778.209	16208.85
778.543	16297.44
778.878	16274.61
779.212	16437.32
779.547	16383.09
779.881	16553.03
780.215	16475.06
780.55	16624.66
780.884	16537.66
781.218	16593.25
781.552	16575.62
781.886	16613.81
782.22	16527.72
782.554	16536.75
782.888	16554.38
783.222	16542.4
783.556	16574.04
783.889	16447.27
784.223	16476.42
784.557	16468.51
784.89	16587.37
785.224	16588.96
785.557	16466.7
785.891	16500.82
786.224	16548.73
786.558	16504.21
786.891	16475.74
787.224	16482.29
787.557	16304.44
787.891	16474.84
788.224	16517.09
788.557	16510.09
788.89	16449.53
789.223	16535.85
789.556	16394.16
789.888	16345.8
790.221	16267.83
790.554	16289.98
790.887	16338.79
791.219	16232.36
791.552	16283.88
791.884	16213.6
792.217	16202.07
792.549	16279.36
792.882	16088.63
793.214	16073.04
793.546	16120.27
793.879	16056.09
794.211	15996.2
794.543	16080.5
794.875	16054.28
795.207	16047.5
795.539	15967.5
795.871	16069.2
796.203	15939.03
796.535	15805.93
796.867	15848.41
797.198	15792.37
797.53	15770.45
797.862	15721.41
798.193	15723.22
798.525	15645.03
798.856	15659.94
799.188	15532.26
799.519	15581.53
799.85	15450.46
800.182	15381.08
800.513	15458.82
800.844	15327.07
801.175	15468.53
801.506	15383.56
801.837	15361.42
802.168	15331.14
802.499	15284.36
802.83	15143.57
803.161	15200.07
803.491	15104.7
803.822	15132.05
804.153	15170.01
804.483	15069.22
804.814	15030.35
805.145	14979.96
805.475	14985.83
805.805	14882.56
806.136	14973.63
806.466	14919.62
806.796	14871.26
807.126	14804.37
807.457	14703.58
807.787	14728.44
808.117	14644.6
808.447	14619.06
808.777	14744.26
809.107	14640.08
809.436	14509.46
809.766	14536.81
810.096	14564.15
810.426	14518.05
810.755	14441.89
811.085	14421.1
811.414	14379.07
811.744	14309.47
812.073	14344.04
812.403	14323.03
812.732	14304.04
813.061	14336.81
813.39	14138.85
813.719	14173.88
814.049	14177.27
814.378	14152.18
814.707	14142.92
815.036	14174.56
815.365	14069.47
815.693	13911.06
816.022	13963.04
816.351	13996.93
816.68	13846.2
817.008	13922.81
817.337	13839.2
817.665	13829.26
817.994	13863.15
818.322	13824.51
818.651	13777.05
818.979	13750.61
819.307	13806.43
819.636	13792.65
819.964	13688.24
820.292	13725.3
820.62	13770.27
820.948	13676.04
821.276	13695.47
821.604	13682.14
821.932	13674
822.259	13661.12
822.587	13660.22
822.915	13723.04
823.243	13686.43
823.57	13634.68
823.898	13632.88
824.225	13594.68
824.553	13638.98
824.88	13650.5
825.207	13746.55
825.535	13704.29
825.862	13754.91
826.189	13574.8
826.516	13693.67
826.843	13682.59
827.17	13673.78
827.497	13675.36
827.824	13761.69
828.151	13717.62
828.478	13644.85
828.805	13794.45
829.131	13698.86
829.458	13690.05
829.785	13556.49
830.111	13636.94
830.438	13687.34
830.764	13722.37
831.09	13707
831.417	13610.5
831.743	13693.89
832.069	13648.02
832.395	13669.26
832.722	13673.55
833.048	13566.66
833.374	13634.01
833.7	13616.61
834.026	13599.66
834.351	13680.11
834.677	13542.03
835.003	13629.94
835.329	13638.98
835.654	13595.81
835.98	13522.14
836.306	13578.19
836.631	13470.85
836.956	13568.7
837.282	13495.25
837.607	13485.76
837.932	13456.84
838.258	13436.05
838.583	13387.23
838.908	13220.46
839.233	13471.07
839.558	13322.6
839.883	13291.42
840.208	13220.46
840.533	13236.73
840.858	13196.96
841.182	13229.5
841.507	13239.44
841.832	13177.52
842.156	13179.78
842.481	13105.21
842.805	13159.89
843.13	13052.1
843.454	13118.54
843.778	13030.41
844.103	13021.59
844.427	12959
844.751	13001.25
845.075	12925.55
845.399	12831.77
845.723	12841.26
846.047	12779.34
846.371	12695.05
846.695	12693.47
847.019	12615.28
847.343	12539.12
847.666	12478.33
847.99	12495.96
848.313	12459.35
848.637	12333.7
848.96	12360.82
849.284	12354.94
849.607	12222.97
849.931	12247.38
850.254	12132.35
850.577	11994.5
850.9	11966.03
851.223	11986.37
851.546	11932.81
851.869	11824.56
852.192	11929.87
852.515	11787.95
852.838	11732.59
853.161	11743.66
853.483	11680.84
853.806	11573.95
854.129	11516.55
854.451	11560.39
854.774	11502.54
855.096	11485.81
855.419	11441.75
855.741	11431.58
856.063	11291.47
856.385	11311.81
856.708	11231.81
857.03	11203.34
857.352	11302.99
857.674	11179.61
857.996	11205.37
858.318	11078.14
858.64	11106.84
858.961	11135.09
859.283	11014.41
859.605	10973.51
859.926	11027.29
860.248	10915.43
860.57	10996.79
860.891	10929.44
861.212	10940.52
861.534	10841.99
861.855	10806.06
862.176	10818.26
862.498	10847.41
862.819	10822.78
863.14	10808.77
863.461	10762.89
863.782	10720.64
864.103	10685.38
864.424	10727.19
864.745	10733.07
865.065	10613.29
865.386	10594.76
865.707	10621.2
866.027	10570.81
866.348	10513.64
866.668	10552.05
866.989	10539.62
867.309	10467.08
867.63	10530.13
867.95	10537.36
868.27	10379.18
868.59	10421.66
868.91	10457.59
869.23	10363.81
869.55	10286.3
869.87	10367.65
870.19	10334.21
870.51	10381.21
870.83	10301.21
871.15	10292.17
871.469	10317.03
871.789	10344.83
872.109	10245.85
872.428	10285.39
872.748	10247.2
873.067	10289.46
873.386	10263.02
873.706	10181.44
874.025	10141.67
874.344	10118.17
874.663	10182.57
874.982	10186.86
875.301	10145.51
875.62	10091.05
875.939	10044.27
876.258	10119.97
876.577	9978.28
876.896	10023.71
877.214	10023.03
877.533	9949.58
877.852	9980.77
878.17	9950.94
878.489	9975.35
878.807	9889.25
879.125	9880.66
879.444	9915.69
879.762	9804.5
880.08	9835.01
880.398	9812.86
880.716	9791.62
881.034	9796.37
881.352	9735.13
881.67	9743.26
881.988	9762.02
882.306	9705.3
882.624	9640.66
882.941	9601.34
883.259	9582.36
883.577	9635.24
883.894	9610.38
884.212	9597.73
884.529	9609.93
884.846	9572.19
885.164	9577.39
885.481	9489.48
885.798	9474.79
886.115	9405.19
886.432	9399.54
886.75	9351.41
887.067	9370.62
887.383	9389.37
887.7	9369.94
888.017	9281.8
888.334	9324.97
888.651	9240.9
888.967	9267.57
889.284	9193.9
889.6	9244.52
889.917	9176.04
890.233	9103.96
890.55	9072.32
890.866	9154.12
891.182	9101.24
891.498	9055.14
891.815	8992.55
892.131	8940.34
892.447	8944.19
892.763	8888.59
893.079	8859.89
893.395	8915.49
893.71	8910.06
894.026	8824.87
894.342	8841.59
894.657	8722.95
894.973	8700.58
895.289	8739.45
895.604	8657.64
895.92	8582.61
896.235	8611.31
896.55	8569.28
896.865	8564.99
897.181	8552.11
897.496	8563.86
897.811	8528.38
898.126	8478.89
898.441	8434.59
898.756	8452.45
899.071	8357.31
899.386	8341.72
899.7	8279.12
900.015	8269.18
900.33	8216.07
900.644	8172.68
900.959	8173.13
901.273	8180.36
901.588	8123.64
901.902	8037.32
902.216	8043.64
902.531	7977.43
902.845	8038.67
903.159	7920.48
903.473	7936.3
903.787	7876.87
904.101	7885.91
904.415	7792.35
904.729	7758.45
905.042	7775.18
905.356	7732.24
905.67	7658.57
905.984	7693.37
906.297	7694.05
906.611	7605.92
906.924	7606.14
907.237	7543.32
907.551	7531.34
907.864	7574.28
908.177	7483.66
908.491	7465.81
908.804	7364.11
909.117	7392.14
909.43	7337
909.743	7293.38
910.056	7227.17
910.368	7292.03
910.681	7226.04
910.994	7248.86
911.307	7172.93
911.619	7104.01
911.932	7089.55
912.244	7061.07
912.557	7022.65
912.869	7000.51
913.181	6997.57
913.494	6979.94
913.806	6921.87
914.118	6965.48
914.43	6843.68
914.742	6836.67
915.054	6798.03
915.366	6798.03
915.678	6787.18
915.99	6718.26
916.302	6711.7
916.613	6686.17
916.925	6652.04
917.236	6721.42
917.548	6639.84
917.859	6635.32
918.171	6559.16
918.482	6516
918.794	6511.26
919.105	6499.96
919.416	6412.95
919.727	6412.05
920.038	6372.5
920.349	6348.55
920.66	6401.2
920.971	6365.04
921.282	6301.54
921.593	6283.01
921.903	6258.61
922.214	6248.89
922.525	6157.82
922.835	6231.04
923.146	6143.58
923.456	6121.21
923.767	6085.5
924.077	6107.2
924.387	6088.67
924.697	6006.18
925.008	5980.42
925.318	5983.13
925.628	6016.81
925.938	5929.35
926.248	5913.98
926.558	5859.52
926.867	5897.71
927.177	5864.94
927.487	5822.69
927.796	5777.26
928.106	5792.86
928.416	5757.38
928.725	5705.85
929.034	5660.66
929.344	5731.39
929.653	5641.9
929.962	5630.15
930.271	5576.36
930.581	5595.8
930.89	5564.39
931.199	5543.82
931.508	5498.85
931.817	5538.63
932.125	5454.56
932.434	5437.84
932.743	5401.91
933.051	5422.7
933.36	5387.9
933.669	5378.4
933.977	5313.09
934.286	5288.24
934.594	5333.89
934.902	5306.77
935.21	5238.07
935.519	5245.53
935.827	5200.1
936.135	5182.48
936.443	5129.14
936.751	5175.7
937.059	5138.41
937.367	5122.14
937.674	5113.33
937.982	5091.41
938.29	4984.97
938.597	5052.54
938.905	4981.35
939.213	4944.97
939.52	4942.48
939.827	4918.98
940.135	4884.63
940.442	4920.56
940.749	4876.95
941.056	4916.72
941.363	4833.11
941.67	4825.65
941.977	4816.16
942.284	4740
942.591	4716.27
942.898	4724.86
943.205	4733.22
943.511	4692.32
943.818	4627.01
944.125	4624.3
944.431	4624.53
944.738	4637.63
945.044	4600.35
945.35	4562.38
945.657	4514.92
945.963	4575.04
946.269	4556.05
946.575	4503.85
946.881	4472.89
947.187	4465.21
947.493	4411.65
947.799	4427.92
948.105	4401.03
948.41	4368.03
948.716	4353.57
949.022	4359.22
949.327	4323.52
949.633	4266.12
949.938	4305.89
950.244	4293.69
950.549	4273.12
950.854	4222.28
951.16	4235.38
951.465	4203.07
951.77	4156.74
952.075	4159.68
952.38	4119.45
952.685	4118.32
952.99	4099.34
953.294	4094.14
953.599	4059.12
953.904	4019.8
954.209	4052.34
954.513	4045.33
954.818	4027.48
955.122	3990.64
955.426	3983.86
955.731	3938.22
956.035	3930.08
956.339	3950.87
956.643	3900.93
956.948	3876.97
957.252	3846.47
957.556	3846.69
957.86	3853.47
958.163	3823.64
958.467	3817.31
958.771	3790.87
959.075	3746.81
959.378	3745.45
959.682	3732.57
959.985	3731.44
960.289	3730.99
960.592	3681.73
960.896	3700.03
961.199	3644.44
961.502	3678.56
961.805	3629.52
962.108	3612.12
962.411	3620.48
962.714	3588.62
963.017	3578.68
963.32	3524.67
963.623	3532.8
963.926	3542.97
964.228	3525.35
964.531	3492.35
964.833	3490.77
965.136	3488.28
965.438	3458.68
965.741	3458.45
966.043	3411.9
966.345	3424.56
966.648	3405.57
966.95	3411.9
967.252	3383.65
967.554	3337.55
967.856	3328.51
968.158	3326.03
968.46	3277.67
968.761	3301.85
969.063	3288.74
969.365	3250.32
969.666	3266.82
969.968	3215.3
970.269	3212.36
970.571	3197.67
970.872	3249.42
971.174	3178.91
971.475	3164
971.776	3150.21
972.077	3124.23
972.378	3155.86
972.679	3109.08
972.98	3132.36
973.281	3058.01
973.582	3045.81
973.883	3049.2
974.183	3038.8
974.484	3042.42
974.785	3012.59
975.085	3008.97
975.386	3035.87
975.686	2964.68
975.986	2959.71
976.287	2965.59
976.587	2947.51
976.887	2938.24
977.187	2912.48
977.487	2917.23
977.787	2922.42
978.087	2899.6
978.387	2849.43
978.687	2835.19
978.987	2856.44
979.286	2810.34
979.586	2833.39
979.885	2759.49
980.185	2785.03
980.484	2805.36
980.784	2771.69
981.083	2725.14
981.382	2750.22
981.682	2766.95
981.981	2697.12
982.28	2703.22
982.579	2705.03
982.878	2687.63
983.177	2687.4
983.475	2657.8
983.774	2637.01
984.073	2630.91
984.372	2614.63
984.67	2637.46
984.969	2600.17
985.267	2623.67
985.566	2600.85
985.864	2586.84
986.162	2539.16
986.461	2532.15
986.759	2514.3
987.057	2486.73
987.355	2509.33
987.653	2502.32
987.951	2455.99
988.249	2480.17
988.547	2457.35
988.844	2463.23
989.142	2429.78
989.44	2426.62
989.737	2415.77
990.035	2397.47
990.332	2399.5
990.63	2374.64
990.927	2364.02
991.224	2374.64
991.521	2365.6
991.819	2323.12
992.116	2361.08
992.413	2350.46
992.71	2316.79
993.006	2316.79
993.303	2298.03
993.6	2271.14
993.897	2260.52
994.193	2256
994.49	2239.05
994.787	2256.9
995.083	2215.32
995.379	2236.34
995.676	2223.91
995.972	2197.02
996.268	2181.2
996.565	2180.07
996.861	2175.78
997.157	2141.88
997.453	2117.92
997.749	2128.32
998.044	2117.92
998.34	2072.5
998.636	2109.34
998.932	2074.31
999.227	2098.04
999.523	2060.98
999.818	2033.41
1000.114	2025.27
1000.409	2033.63
1000.704	2014.42
1001	2002.67
1001.295	1998.61
1001.59	2023.46
1001.885	2005.84
1002.18	1961.09
1002.475	1965.84
1002.77	1976.46
1003.065	1935.33
1003.359	1923.58
1003.654	1930.81
1003.949	1907.08
1004.243	1852.17
1004.538	1872.96
1004.832	1899.4
1005.127	1867.99
1005.421	1820.31
1005.715	1835.67
1006.009	1821.89
1006.304	1813.07
1006.598	1829.12
1006.892	1803.13
1007.186	1791.15
1007.48	1804.71
1007.773	1770.14
1008.067	1759.06
1008.361	1739.63
1008.655	1753.19
1008.948	1761.55
1009.242	1759.52
1009.535	1691.72
1009.829	1712.74
1010.122	1695.79
1010.415	1675.68
1010.708	1665.06
1011.001	1655.56
1011.295	1637.49
1011.588	1659.63
1011.881	1652.17
1012.173	1613.53
1012.466	1611.27
1012.759	1605.4
1013.052	1610.14
1013.344	1561.78
1013.637	1567.2
1013.93	1567.88
1014.222	1562.46
1014.514	1558.84
1014.807	1558.39
1015.099	1531.95
1015.391	1491.73
1015.683	1507.32
1015.976	1488.79
1016.268	1512.29
1016.56	1471.61
1016.851	1487.21
1017.143	1469.13
1017.435	1464.38
1017.727	1421.22
1018.018	1442.24
1018.31	1431.16
1018.602	1409.69
1018.893	1443.59
1019.185	1400.88
1019.476	1394.55
1019.767	1413.99
1020.058	1402.69
1020.35	1391.84
1020.641	1371.96
1020.932	1375.12
1021.223	1352.75
1021.514	1343.48
1021.804	1312.75
1022.095	1349.58
1022.386	1298.74
1022.677	1286.53
1022.967	1282.69
1023.258	1282.92
1023.548	1248.57
1023.839	1266.42
1024.129	1289.92
1024.419	1272.98
1024.709	1229.59
1025	1263.94
1025.29	1237.04
1025.58	1246.99
1025.87	1225.52
1026.16	1212.86
1026.449	1209.02
1026.739	1207.21
1027.029	1189.59
1027.319	1175.58
1027.608	1166.76
1027.898	1162.92
1028.187	1152.98
1028.477	1169.7
1028.766	1143.49
1029.055	1134.45
1029.344	1136.71
1029.634	1123.6
1029.923	1122.24
1030.212	1102.36
1030.501	1087.22
1030.79	1090.61
1031.078	1083.6
1031.367	1065.07
1031.656	1093.54
1031.945	1067.33
1032.233	1067.56
1032.522	1041.57
1032.81	1041.79
1033.099	1046.09
1033.387	1033.89
1033.675	1029.14
1033.963	1024.85
1034.251	1019.2
1034.54	1002.47
1034.828	1010.84
1035.116	1002.93
1035.403	983.94
1035.691	969.93
1035.979	971.29
1036.267	990.27
1036.554	950.05
1036.842	944.4
1037.129	956.83
1037.417	928.13
1037.704	923.83
1037.992	929.03
1038.279	931.06
1038.566	928.58
1038.853	928.58
1039.14	928.58
