Data from hue_40_FLMS001491_12.txt Node
Date: Mon Feb 06 15:07:30 GMT 2017
User: dcchb
Spectrometer: FLMS00149
Trigger mode: 0
Integration Time (sec): 2.000000E-2
Scans to average: 10
Electric dark correction enabled: true
Nonlinearity correction enabled: false
Boxcar width: 0
XAxis mode: Wavelengths
Number of Pixels in Spectrum: 2048
>>>>>Begin Spectral Data<<<<<
341.393	3.47
341.776	3.47
342.16	3.47
342.543	-54.83
342.927	-56.86
343.31	-72
343.693	-54.83
344.077	-62.74
344.46	-70.87
344.843	-53.25
345.226	-59.8
345.61	-28.84
345.993	-3.76
346.376	4.38
346.759	22.46
347.142	23.81
347.525	42.12
347.908	55.22
348.291	55
348.674	80.08
349.057	123.02
349.44	142.68
349.823	138.84
350.206	171.38
350.588	190.81
350.971	194.66
351.354	236.46
351.737	236.24
352.119	236.69
352.502	267.42
352.884	285.27
353.267	280.76
353.65	305.61
354.032	298.61
354.414	325.05
354.797	314.88
355.179	316.46
355.562	303.58
355.944	346.29
356.326	346.29
356.709	336.57
357.091	324.37
357.473	362.34
357.855	320.3
358.238	336.57
358.62	350.58
359.002	352.17
359.384	348.1
359.766	347.87
360.148	361.21
360.53	357.36
360.912	337.25
361.294	333.18
361.676	317.82
362.057	337.7
362.439	344.93
362.821	322.56
363.203	311.94
363.584	325.5
363.966	302.45
364.348	316.91
364.729	332.51
365.111	341.09
365.493	336.35
365.874	316.46
366.256	334.77
366.637	321.21
367.019	323.47
367.4	304.71
367.781	344.03
368.163	330.25
368.544	311.26
368.925	304.71
369.306	312.84
369.688	305.84
370.069	306.07
370.45	317.14
370.831	307.65
371.212	340.87
371.593	308.1
371.974	297.7
372.355	325.5
372.736	299.96
373.117	305.16
373.498	323.69
373.879	321.66
374.26	323.69
374.641	308.55
375.021	325.05
375.402	311.49
375.783	311.49
376.163	326.86
376.544	320.3
376.925	322.34
377.305	320.75
377.686	322.34
378.066	330.25
378.447	342
378.827	350.81
379.208	345.61
379.588	327.08
379.968	326.63
380.349	353.3
380.729	354.65
381.109	331.6
381.489	331.38
381.87	331.6
382.25	346.52
382.63	358.72
383.01	352.62
383.39	345.39
383.77	341.54
384.15	342.22
384.53	342.45
384.91	332.28
385.29	341.09
385.67	340.87
386.049	363.01
386.429	377.02
386.809	370.47
387.189	371.37
387.568	352.39
387.948	364.59
388.328	358.04
388.707	365.5
389.087	344.71
389.466	356.01
389.846	363.01
390.225	361.43
390.605	346.06
390.984	370.24
391.363	376.12
391.743	351.26
392.122	381.77
392.501	381.77
392.881	361.21
393.26	372.05
393.639	379.74
394.018	368.44
394.397	366.85
394.776	375.67
395.155	396.01
395.534	362.11
395.913	364.82
396.292	380.41
396.671	382
397.05	403.01
397.429	382.22
397.808	384.26
398.186	389.23
398.565	383.58
398.944	385.84
399.323	392.62
399.701	411.37
400.08	396.46
400.458	397.81
400.837	407.31
401.215	398.04
401.594	405.05
401.972	388.78
402.351	401.2
402.729	394.2
403.107	406.18
403.486	409.34
403.864	403.24
404.242	416.12
404.62	412.73
404.999	408.89
405.377	410.02
405.755	429.23
406.133	414.31
406.511	417.7
406.889	409.34
407.267	443.46
407.645	429
408.023	435.33
408.401	439.4
408.779	424.48
409.156	443.24
409.534	432.62
409.912	462.22
410.29	436.01
410.667	458.6
411.045	444.59
411.422	431.26
411.8	440.98
412.178	465.84
412.555	479.39
412.933	462.9
413.31	471.03
413.687	459.73
414.065	490.92
414.442	458.15
414.819	471.71
415.197	502.9
415.574	492.28
415.951	485.27
416.328	473.29
416.705	479.85
417.082	511.03
417.46	494.99
417.837	505.61
418.214	497.7
418.591	515.1
418.967	501.77
419.344	495.66
419.721	482.78
420.098	501.54
420.475	533.63
420.852	490.02
421.228	533.86
421.605	524.36
421.982	516.23
422.358	534.99
422.735	536.57
423.111	537.02
423.488	543.35
423.864	551.03
424.241	544.93
424.617	548.32
424.994	528.43
425.37	535.89
425.746	561.2
426.123	552.16
426.499	563.69
426.875	575.89
427.251	596.68
427.627	602.1
428.003	577.24
428.379	606.62
428.756	592.39
429.132	597.81
429.507	618.37
429.883	606.17
430.259	624.93
430.635	612.5
431.011	611.82
431.387	623.57
431.763	614.31
432.138	606.4
432.514	627.86
432.89	663.8
433.265	661.08
433.641	664.7
434.016	657.69
434.392	668.99
434.767	661.76
435.143	667.64
435.518	661.76
435.894	667.86
436.269	681.42
436.644	676.45
437.02	700.63
437.395	701.08
437.77	708.09
438.145	697.02
438.52	727.52
438.895	727.98
439.271	717.81
439.646	744.25
440.021	756.45
440.395	727.07
440.77	738.14
441.145	753.96
441.52	744.7
441.895	755.77
442.27	776.11
442.645	776.56
443.019	767.52
443.394	755.09
443.769	780.86
444.143	763
444.518	810.91
444.892	780.63
445.267	806.39
445.641	809.55
446.016	784.02
446.39	805.71
446.764	786.96
447.139	784.47
447.513	819.72
447.887	815.66
448.262	803.91
448.636	823.11
449.01	837.12
449.384	844.81
449.758	845.94
450.132	845.03
450.506	841.42
450.88	819.95
451.254	847.75
451.628	894.98
452.002	879.16
452.376	883
452.75	916.67
453.123	891.81
453.497	906.5
453.871	907.41
454.244	907.18
454.618	925.71
454.992	941.75
455.365	944.47
455.739	964.35
456.112	953.73
456.486	966.61
456.859	999.83
457.232	1036.44
457.606	1001.64
457.979	1026.05
458.352	1036.44
458.725	1057.68
459.099	1045.03
459.472	1074.18
459.845	1068.08
460.218	1082.77
460.591	1077.34
460.964	1075.54
461.337	1104.91
461.71	1130.68
462.083	1126.38
462.456	1141.52
462.829	1144.01
463.201	1161.41
463.574	1177.91
463.947	1209.54
464.32	1213.16
464.692	1198.02
465.065	1226.72
465.438	1238.7
465.81	1276.44
466.183	1287.96
466.555	1304.23
466.928	1323.21
467.3	1331.8
467.672	1345.59
468.045	1345.81
468.417	1390.78
468.789	1411.35
469.161	1393.04
469.534	1447.5
469.906	1478.24
470.278	1477.56
470.65	1500.38
471.022	1544.9
471.394	1543.1
471.766	1586.03
472.138	1633.26
472.51	1647.95
472.882	1694.5
473.253	1717.33
473.625	1720.72
473.997	1766.37
474.369	1813.37
474.74	1855.18
475.112	1871.67
475.484	1965.91
475.855	1960.26
476.227	1981.73
476.598	2065.57
476.97	2094.49
477.341	2149.63
477.713	2158.67
478.084	2209.52
478.455	2338.78
478.827	2303.98
479.198	2440.7
479.569	2480.7
479.94	2514.37
480.311	2572.67
480.682	2694.03
481.053	2740.13
481.424	2812.44
481.795	2870.74
482.166	2948.48
482.537	3010.18
482.908	3097.86
483.279	3188.02
483.65	3257.4
484.021	3371.75
484.391	3430.05
484.762	3501.01
485.133	3565.87
485.503	3614
485.874	3824.39
486.244	3872.07
486.615	3964.73
486.985	4065.97
487.356	4168.11
487.726	4242.91
488.097	4372.85
488.467	4450.36
488.837	4597.7
489.207	4662.56
489.578	4719.96
489.948	4902.33
490.318	4968.32
490.688	5028.65
491.058	5224.81
491.428	5298.7
491.798	5440.17
492.168	5558.13
492.538	5622.99
492.908	5716.77
493.278	5871.12
493.648	5968.52
494.017	6055.97
494.387	6135.97
494.757	6212.12
495.126	6330.31
495.496	6459.8
495.866	6533.7
496.235	6643.75
496.605	6744.77
496.974	6843.07
497.344	6932.56
497.713	7048.94
498.082	7154.47
498.452	7311.08
498.821	7333
499.19	7437.63
499.559	7529.6
499.928	7622.03
500.298	7685.31
500.667	7829.94
501.036	7856.38
501.405	7948.35
501.774	8039.65
502.143	8178.85
502.512	8226.54
502.88	8311.05
503.249	8360.77
503.618	8481.67
503.987	8508.34
504.356	8544.04
504.724	8718.95
505.093	8762.79
505.462	8928.44
505.83	8913.97
506.199	9009.34
506.567	9124.36
506.936	9158.26
507.304	9284.81
507.672	9380.18
508.041	9476.45
508.409	9502.89
508.777	9569.55
509.145	9709.66
509.514	9754.18
509.882	9786.27
510.25	9860.62
510.618	10009.31
510.986	10029.2
511.354	10078.92
511.722	10228.52
512.09	10328.4
512.458	10332.47
512.826	10449.75
513.193	10491.79
513.561	10607.72
513.929	10611.78
514.297	10705.79
514.664	10788.95
515.032	10853.13
515.4	10918.67
515.767	10994.37
516.135	11092.9
516.502	10986.01
516.869	11261.94
517.237	11317.53
517.604	11243.86
517.972	11376.06
518.339	11472.55
518.706	11441.59
519.073	11533.34
519.44	11618.99
519.808	11781.24
520.175	11877.96
520.542	12028.02
520.909	12000.22
521.276	12007.9
521.643	12121.57
522.009	12205.41
522.376	12306.65
522.743	12395.47
523.11	12434.33
523.477	12622.8
523.843	12623.48
524.21	12782.57
524.577	12836.58
524.943	12965.39
525.31	12940.08
525.676	13160.42
526.043	13151.38
526.409	13189.12
526.776	13423.01
527.142	13251.04
527.508	13534.42
527.874	13629.56
528.241	13616.9
528.607	13748.2
528.973	13863.68
529.339	13896.67
529.705	13963.33
530.071	14061.86
530.437	14185.7
530.803	14196.1
531.169	14317
531.535	14262.31
531.901	14336.43
532.267	14509.99
532.632	14531
532.998	14636.99
533.364	14665.01
533.73	14683.09
534.095	14938.9
534.461	14776.87
534.826	14927.83
535.192	15027.03
535.557	15122.62
535.923	15089.18
536.288	15233.58
536.653	15304.77
537.019	15294.37
537.384	15356.29
537.749	15460.24
538.114	15478.1
538.479	15532.78
538.845	15608.94
539.21	15535.04
539.575	15649.84
539.94	15766.9
540.305	15824.08
540.67	15965.77
541.034	15917.18
541.399	15965.54
541.764	16077.85
542.129	16143.62
542.494	16224.29
542.858	16240.11
543.223	16257.51
543.587	16387.22
543.952	16345.19
544.316	16535.92
544.681	16521.01
545.045	16600.55
545.41	16715.13
545.774	16765.52
546.138	16795.12
546.503	16876.03
546.867	16838.74
547.231	16953.54
547.595	17037.6
547.959	16991.73
548.324	17032.86
548.688	17242.8
549.052	17188.33
549.416	17242.8
549.779	17174.1
550.143	17413.19
550.507	17376.35
550.871	17459.29
551.235	17474.65
551.599	17612.73
551.962	17692.73
552.326	17691.15
552.689	17882.78
553.053	17731.37
553.417	17816.11
553.78	18126.84
554.143	18043
554.507	18120.51
554.87	18140.4
555.234	18353.05
555.597	18219.27
555.96	18315.54
556.323	18430.79
556.686	18403.44
557.05	18530.44
557.413	18616.54
557.776	18594.62
558.139	18803.66
558.502	18772.02
558.865	18879.81
559.228	19029.87
559.59	18944.45
559.953	19003.88
560.316	19249.52
560.679	19162.97
561.041	19370.87
561.404	19478.89
561.767	19532.9
562.129	19465.34
562.492	19642.96
562.854	19671.21
563.217	19595.28
563.579	19788.04
563.941	19871.2
564.304	19948.71
564.666	20023.06
565.028	20195.71
565.39	20231.64
565.753	20360
566.115	20404.52
566.477	20464.86
566.839	20497.4
567.201	20647.23
567.563	20650.39
567.925	20790.05
568.287	20759.99
568.648	20934.68
569.01	20957.5
569.372	21077.04
569.734	20953.21
570.095	21190.26
570.457	21303.25
570.819	21370.6
571.18	21449.01
571.542	21502.57
571.903	21657.37
572.265	21714.99
572.626	21782.34
572.987	21850.58
573.349	21824.82
573.71	22010.81
574.071	22125.38
574.432	22225.72
574.794	22471.58
575.155	22350.91
575.516	22479.95
575.877	22544.58
576.238	22677
576.599	22853.95
576.96	22942.31
577.32	22991.57
577.681	23232.24
578.042	23207.84
578.403	23343.2
578.763	23519.92
579.124	23570.09
579.485	23714.49
579.845	23998.1
580.206	23947.03
580.566	24108.6
580.927	24204.19
581.287	24425.43
581.648	24468.59
582.008	24711.07
582.368	24699.77
582.728	24998.75
583.089	25044.62
583.449	25291.62
583.809	25389.7
584.169	25622.91
584.529	25751.27
584.889	25990.14
585.249	25991.04
585.609	26162.33
585.969	26360.97
586.329	26565.49
586.688	26612.72
587.048	26910.11
587.408	26990.56
587.768	27140.39
588.127	27461.28
588.487	27520.04
588.846	27840.03
589.206	27865.57
589.565	28045.9
589.925	28451.77
590.284	28416.74
590.643	28743.51
591.003	29009.72
591.362	29149.15
591.721	29247.45
592.08	29477.28
592.44	29827.78
592.799	29795.46
593.158	30141.67
593.517	30218.5
593.876	30335.56
594.235	30644.48
594.593	30653.74
594.952	30892.15
595.311	31103.45
595.67	31280.17
596.029	31726.26
596.387	31794.5
596.746	32100.71
597.104	32076.08
597.463	32195.4
597.822	32486.46
598.18	32404.66
598.538	32780.69
598.897	32956.05
599.255	32928.03
599.613	33495.93
599.972	33315.82
600.33	33753.77
600.688	33746.09
601.046	33844.39
601.404	34228.34
601.762	34242.57
602.12	34500.87
602.478	34543.58
602.836	34784.71
603.194	34670.81
603.552	34942.67
603.91	34868.32
604.268	35160.97
604.625	35332.94
604.983	35411.36
605.341	35415.42
605.698	35774.06
606.056	35957.78
606.413	35966.37
606.771	36099.7
607.128	36288.17
607.485	36276.19
607.843	36349.19
608.2	36654.26
608.557	36877.76
608.914	36852
609.272	37074.14
609.629	37291.76
609.986	37383.96
610.343	37267.35
610.7	37656.04
611.057	37677.96
611.414	37821.24
611.771	37879.99
612.127	38033.89
612.484	38141
612.841	38329.02
613.198	38192.3
613.554	38354.1
613.911	38534.89
614.267	38582.35
614.624	38649.46
614.98	38847.65
615.337	38924.71
615.693	39156.8
616.05	38853.07
616.406	39349.33
616.762	39147.53
617.118	39239.96
617.475	39278.83
617.831	39426.17
618.187	39588.2
618.543	39675.65
618.899	40044.23
619.255	39850.79
619.611	39905.93
619.967	40096.66
620.323	40208.75
620.678	40193.38
621.034	40074.96
621.39	40135.98
621.746	40208.29
622.101	40607.6
622.457	40319.02
622.812	40446.25
623.168	40590.2
623.523	40491.68
623.879	40800.14
624.234	40552.24
624.589	40655.29
624.945	40676.3
625.3	40813.7
625.655	40829.29
626.01	41007.37
626.365	41043.75
626.72	41013.24
627.075	40972.79
627.43	40920.59
627.785	40958.33
628.14	41107.93
628.495	41092.11
628.85	41112
629.205	40893.7
629.559	41297.3
629.914	41143.41
630.269	41125.11
630.623	41112.22
630.978	41123.07
631.332	41164.88
631.687	41275.16
632.041	41117.87
632.396	41107.03
632.75	41013.47
633.104	41110.42
633.459	40919.46
633.813	41133.01
634.167	41135.05
634.521	41095.28
634.875	41059.34
635.229	40955.39
635.583	40908.39
635.937	40960.14
636.291	40957.2
636.645	40984.54
636.999	40770.76
637.352	40936.64
637.706	40823.42
638.06	40966.92
638.413	40755.17
638.767	40900.93
639.121	40823.64
639.474	40667.94
639.828	40629.52
640.181	40768.5
640.534	40685.34
640.888	40643.99
641.241	40608.96
641.594	40624.1
641.947	40708.62
642.301	40565.57
642.654	40505.91
643.007	40685.57
643.36	40683.31
643.713	40474.5
644.066	40657.32
644.419	40264.79
644.771	40198.58
645.124	39859.83
645.477	39722.43
645.83	39524.7
646.182	39309.79
646.535	39323.34
646.888	39251.26
647.24	39102.11
647.593	39394.76
647.945	39230.01
648.298	39093.29
648.65	39180.3
649.002	38867.99
649.355	39097.36
649.707	39039.74
650.059	39065.5
650.411	39723.79
650.763	39795.87
651.115	40247.61
651.467	39886.95
651.819	39986.38
652.171	39858.25
652.523	39906.83
652.875	39860.73
653.227	39718.59
653.578	39910.67
653.93	39837
654.282	39721.3
654.633	39591.59
654.985	39850.34
655.337	39698.25
655.688	39677.46
656.039	39753.62
656.391	39378.48
656.742	39478.59
657.094	39573.06
657.445	39670.68
657.796	39392.72
658.147	39407.18
658.498	39503.9
658.849	39492.38
659.2	39512.04
659.551	39482.89
659.902	39556.56
660.253	39568.08
660.604	39429.33
660.955	39248.54
661.306	39494.19
661.656	39472.04
662.007	39458.26
662.358	39461.42
662.708	39382.55
663.059	39395.43
663.409	39148.66
663.76	39458.26
664.11	39292.16
664.461	39399.95
664.811	39453.51
665.161	39247.87
665.511	39149.56
665.862	39226.4
666.212	39481.76
666.562	39491.02
666.912	39385.94
667.262	39380.29
667.612	39294.64
667.962	39273.4
668.312	39210.81
668.662	39380.74
669.011	39329.22
669.361	39119.51
669.711	39084.03
670.06	39085.16
670.41	39107.98
670.76	38931.26
671.109	39153.18
671.459	39133.97
671.808	39025.5
672.157	39093.52
672.507	38898.95
672.856	38850.36
673.205	38962
673.554	39046.29
673.904	38951.83
674.253	39016.01
674.602	38865.28
674.951	38421.22
675.3	38174
675.649	38740.99
675.998	38671.84
676.346	38690.14
676.695	38941.89
677.044	38613.53
677.393	38664.38
677.741	38754.55
678.09	38552.74
678.438	38594.55
678.787	38648.11
679.135	38609.69
679.484	38484.95
679.832	38556.59
680.181	38300.32
680.529	38459.64
680.877	38444.5
681.225	38312.07
681.573	38510.71
681.922	38359.3
682.27	38120.21
682.618	38293.09
682.966	38059.42
683.314	38183.26
683.661	38109.37
684.009	38025.07
684.357	37915.92
684.705	37721.8
685.053	37789.15
685.4	37688.59
685.748	37508.7
686.095	37564.75
686.443	37448.14
686.79	37408.59
687.138	37510.06
687.485	37422.83
687.832	37290.4
688.18	37347.58
688.527	37124.31
688.874	37123.4
689.221	37014.93
689.568	36861.04
689.915	36907.14
690.262	36728.16
690.609	36659.01
690.956	36682.51
691.303	36501.72
691.65	36287.72
691.997	36477.77
692.344	36218.34
692.69	36218.57
693.037	36168.85
693.383	35869.88
693.73	35973.83
694.077	35937.44
694.423	35863.1
694.769	35720.5
695.116	35696.55
695.462	35591.47
695.808	35463.11
696.155	35534.97
696.501	35332.04
696.847	35363.9
697.193	35028.32
697.539	35149.44
697.885	34886.4
698.231	34873.97
698.577	34860.86
698.923	34690.02
699.269	34504.04
699.614	34421.1
699.96	34359.18
700.306	34428.33
700.651	34187.21
700.997	34103.82
701.342	34131.62
701.688	34001.22
702.033	33920.77
702.379	33947.67
702.724	33880.55
703.069	33875.58
703.415	33545.42
703.76	33427
704.105	33592.2
704.45	33338.87
704.795	33260.45
705.14	33227.46
705.485	33196.95
705.83	33006.67
706.175	33140
706.52	32919.45
706.865	32767.13
707.209	32869.05
707.554	32636.29
707.899	32773.01
708.243	32551.55
708.588	32572.56
708.932	32378.89
709.277	32313.36
709.621	32305.9
709.966	32192.01
710.31	32202.4
710.654	31952.46
710.998	32050.54
711.342	32041.73
711.687	31821.85
712.031	31800.15
712.375	31719.93
712.719	31797.44
713.063	31662.76
713.407	31713.15
713.75	31410.78
714.094	31580.05
714.438	31367.17
714.782	31345.7
715.125	31281.97
715.469	31194.52
715.812	31187.51
716.156	30871.36
716.499	30954.53
716.843	30951.81
717.186	30808.09
717.53	30877.01
717.873	30935.77
718.216	30739.39
718.559	30696.45
718.902	30418.27
719.246	30598.83
719.589	30489.9
719.932	30361.55
720.275	30367.87
720.617	30271.61
720.96	30251.72
721.303	30181.89
721.646	30267.99
721.989	29991.61
722.331	30122.91
722.674	30104.15
723.016	30083.59
723.359	29920.88
723.701	30078.39
724.044	29783.03
724.386	29744.84
724.729	29907.77
725.071	29653.09
725.413	29645.86
725.755	29685.41
726.097	29623.71
726.439	29241.58
726.782	29292.2
727.124	29571.51
727.465	29291.97
727.807	29268.69
728.149	29286.32
728.491	29134.01
728.833	29199.77
729.175	29158.87
729.516	29155.48
729.858	29003.62
730.199	29122.93
730.541	28959.78
730.882	28933.79
731.224	28972.2
731.565	28835.26
731.906	28850.4
732.248	28742.38
732.589	28733.34
732.93	28713.23
733.271	28604.76
733.612	28573.12
733.953	28586.9
734.294	28532.89
734.635	28437.76
734.976	28349.62
735.317	28397.3
735.658	28350.3
735.999	28317.53
736.339	28224.43
736.68	28409.96
737.021	28097.88
737.361	28105.33
737.702	28222.62
738.042	28038.44
738.383	28079.35
738.723	28043.64
739.063	27955.06
739.404	27972.68
739.744	27940.59
740.084	27776.53
740.424	27894.49
740.764	27830.31
741.104	27889.52
741.444	27809.97
741.784	27623.99
742.124	27662.63
742.464	27586.48
742.804	27478.91
743.143	27386.48
743.483	27382.64
743.823	27292.47
744.162	27348.29
744.502	27351
744.841	27226.04
745.181	27344.45
745.52	27165.02
745.86	27315.52
746.199	27147.62
746.538	27004.12
746.877	27101.97
747.216	26994.86
747.556	26947.4
747.895	27028.75
748.234	26999.37
748.573	26881.41
748.911	26831.7
749.25	26795.76
749.589	26629.22
749.928	26609.1
750.267	26596.22
750.605	26578.59
750.944	26416.34
751.283	26370.01
751.621	26528.2
751.96	26339.96
752.298	26292.5
752.636	26306.29
752.975	26197.36
753.313	25994.66
753.651	26269.22
753.989	26041.66
754.327	26032.85
754.666	25925.5
755.004	25927.54
755.342	25904.26
755.679	25939.97
756.017	25655.68
756.355	25804.38
756.693	25647.32
757.031	25692.29
757.368	25437.16
757.706	25533.42
758.044	25416.14
758.381	25366.65
758.719	25268.57
759.056	25225.18
759.394	25295.46
759.731	24997.39
760.068	24973.21
760.405	25002.82
760.743	24994.91
761.08	24883.72
761.417	24756.04
761.754	24682.83
762.091	24752.43
762.428	24611.87
762.765	24420.69
763.102	24577.74
763.438	24355.15
763.775	24195.38
764.112	24284.19
764.449	24193.57
764.785	24149.96
765.122	23919.68
765.458	23874.03
765.795	23864.54
766.131	23715.39
766.467	23749.06
766.804	23589.07
767.14	23544.55
767.476	23536.64
767.812	23338.68
768.148	23468.39
768.485	23203.77
768.821	23125.13
769.157	23085.13
769.492	22992.47
769.828	22963.77
770.164	22698.02
770.5	22853.72
770.836	22787.51
771.171	22588.87
771.507	22553.16
771.842	22449.66
772.178	22381.87
772.513	22283.34
772.849	22223
773.184	22119.28
773.519	22257.35
773.855	22013.07
774.19	21979.17
774.525	21821.21
774.86	21960.41
775.195	21802.22
775.53	21707.08
775.865	21564.72
776.2	21447.2
776.535	21408.11
776.87	21299.41
777.205	21205.18
777.539	21068.01
777.874	21165.86
778.209	20962.92
778.543	20984.39
778.878	20788.46
779.212	20874.11
779.547	20689.03
779.881	20700.33
780.215	20572.2
780.55	20595.93
780.884	20313.22
781.218	20404.97
781.552	20337.4
781.886	20175.6
782.22	20155.94
782.554	20141.02
782.888	19929.5
783.222	19808.83
783.556	19844.53
783.889	19723.41
784.223	19575.39
784.557	19550.31
784.89	19590.98
785.224	19398.9
785.557	19439.35
785.891	19304.66
786.224	19296.53
786.558	19260.14
786.891	19026.48
787.224	18943.99
787.557	18999.13
787.891	18925.46
788.224	18817.67
788.557	18916.88
788.89	18745.58
789.223	18760.27
789.556	18597.79
789.888	18548.75
790.221	18592.59
790.554	18422.88
790.887	18345.59
791.219	18248.87
791.552	18249.1
791.884	18122.77
792.217	18060.85
792.549	18085.03
792.882	17880.74
793.214	17852.27
793.546	17947.18
793.879	17746.51
794.211	17616.34
794.543	17701.09
794.875	17657.93
795.207	17601.88
795.539	17642.11
795.871	17527.99
796.203	17342.23
796.535	17300.65
796.867	17292.51
797.198	17167.09
797.53	17104.95
797.862	17026.3
798.193	17108.34
798.525	16986.3
798.856	17036.92
799.188	16797.61
799.519	16776.37
799.85	16597.84
800.182	16785.63
800.513	16667.22
800.844	16511.52
801.175	16589.71
801.506	16606.88
801.837	16427.68
802.168	16449.14
802.499	16450.05
802.83	16329.15
803.161	16238.3
803.491	16236.95
803.822	16158.76
804.153	16128.25
804.483	15947.24
804.814	15981.36
805.145	15968.25
805.475	15929.84
805.805	15861.36
806.136	15828.82
806.466	15838.31
806.796	15896.16
807.126	15685.1
807.457	15604.19
807.787	15609.17
808.117	15558.77
808.447	15531.88
808.777	15505.67
809.107	15440.58
809.436	15456.63
809.766	15403.75
810.096	15347.25
810.426	15279.23
810.755	15363.75
811.085	15236.97
811.414	15225.9
811.744	15050.76
812.073	15065.9
812.403	15083.76
812.732	14930.77
813.061	14876.98
813.39	14803.31
813.719	14895.06
814.049	14873.14
814.378	14834.72
814.707	14780.04
815.036	14775.52
815.365	14689.87
815.693	14561.28
816.022	14635.86
816.351	14458.91
816.68	14396.99
817.008	14418.69
817.337	14298.92
817.665	14335.53
817.994	14379.82
818.322	14316.32
818.651	14245.81
818.979	14202.2
819.307	14303.44
819.636	14175.98
819.964	14106.38
820.292	14192.93
820.62	14119.49
820.948	14046.95
821.276	14130.79
821.604	14081.52
821.932	14133.95
822.259	14094.86
822.587	14024.12
822.915	14100.73
823.243	14063.22
823.57	14036.1
823.898	14059.83
824.225	13966.27
824.553	14015.31
824.88	13906.39
825.207	14021.64
825.535	14030
825.862	14002.88
826.189	14007.63
826.516	13992.49
826.843	14062.99
827.17	14067.29
827.497	14050.79
827.824	14041.07
828.151	14047.17
828.478	13945.48
828.805	13973.73
829.131	13928.76
829.458	13984.35
829.785	13883.34
830.111	13927.4
830.438	13989.55
830.764	13973.05
831.09	14036.78
831.417	13933.73
831.743	13965.59
832.069	13969.43
832.395	13876.78
832.722	13823.45
833.048	13840.62
833.374	13895.54
833.7	13813.73
834.026	13836.78
834.351	13919.49
834.677	13774.86
835.003	13832.49
835.329	13768.31
835.654	13782.55
835.98	13737.8
836.306	13722.44
836.631	13703.91
836.956	13717.92
837.282	13695.77
837.607	13585.26
837.932	13551.37
838.258	13631.14
838.583	13582.55
838.908	13456
839.233	13550.69
839.558	13497.36
839.883	13393.18
840.208	13358.6
840.533	13363.35
840.858	13441.54
841.182	13362.9
841.507	13301.2
841.832	13303.46
842.156	13283.35
842.481	13284.26
842.805	13211.26
843.13	13154.54
843.454	13120.19
843.778	13143.02
844.103	13076.58
844.427	13083.36
844.751	13037.93
845.075	13030.7
845.399	13031.83
845.723	12898.05
846.047	12936.47
846.371	12804.95
846.695	12849.92
847.019	12752.07
847.343	12706.42
847.666	12640.66
847.99	12576.25
848.313	12658.73
848.637	12483.82
848.96	12454.45
849.284	12387.78
849.607	12303.49
849.931	12237.28
850.254	12231.85
850.577	12174
850.9	12082.25
851.223	12068.92
851.546	11983.05
851.869	11958.19
852.192	11977.17
852.515	11927.68
852.838	11796.38
853.161	11809.94
853.483	11771.3
853.806	11644.07
854.129	11690.85
854.451	11580.57
854.774	11611.3
855.096	11546.67
855.419	11608.82
855.741	11490.18
856.063	11451.08
856.385	11457.86
856.708	11392.55
857.03	11299.67
857.352	11374.93
857.674	11235.04
857.996	11218.55
858.318	11085.89
858.64	11154.59
858.961	11109.4
859.283	11031.89
859.605	11002.73
859.926	11099.23
860.248	10998.44
860.57	10925.22
860.891	10995.73
861.212	11000.02
861.534	10899.01
861.855	10836.41
862.176	10862.4
862.498	10910.53
862.819	10817.65
863.14	10732.91
863.461	10717.77
863.782	10753.02
864.103	10740.82
864.424	10645.68
864.745	10720.71
865.065	10652.91
865.386	10633.48
865.707	10678.9
866.027	10572.01
866.348	10580.6
866.668	10558.23
866.989	10544.44
867.309	10525.23
867.63	10482.07
867.95	10503.99
868.27	10436.42
868.59	10494.5
868.91	10435.97
869.23	10501.96
869.55	10375.86
869.87	10507.83
870.19	10362.75
870.51	10320.72
870.83	10364.78
871.15	10205.92
871.469	10271.45
871.789	10317.55
872.109	10334.73
872.428	10282.98
872.748	10303.54
873.067	10306.03
873.386	10227.84
873.706	10243.66
874.025	10196.2
874.344	10169.76
874.663	10284.56
874.982	10157.11
875.301	10124.11
875.62	10057.22
875.939	10021.06
876.258	10087.73
876.577	10029.2
876.896	10012.7
877.214	9954.85
877.533	10052.93
877.852	9963.21
878.17	9976.55
878.489	9930.45
878.807	9924.34
879.125	9907.85
879.444	9877.79
879.762	9894.29
880.08	9847.51
880.398	9821.07
880.716	9711.02
881.034	9787.17
881.352	9763.9
881.67	9739.49
881.988	9767.06
882.306	9729.77
882.624	9740.17
882.941	9646.16
883.259	9575.88
883.577	9699.04
883.894	9619.27
884.212	9532.72
884.529	9607.06
884.846	9527.07
885.164	9544.47
885.481	9456.79
885.798	9458.59
886.115	9490.68
886.432	9404.58
886.75	9406.84
887.067	9477.35
887.383	9359.84
887.7	9348.54
888.017	9348.54
888.334	9321.87
888.651	9267.86
888.967	9238.26
889.284	9232.38
889.6	9186.28
889.917	9126.17
890.233	9116.23
890.55	9070.81
890.866	9073.29
891.182	8992.84
891.498	9005.05
891.815	9014.76
892.131	8894.99
892.447	8940.87
892.763	8932.73
893.079	8929.79
893.395	8868.55
893.71	8823.81
894.026	8827.88
894.342	8797.82
894.657	8804.15
894.973	8735.9
895.289	8704.26
895.604	8688.67
895.92	8617.03
896.235	8658.16
896.55	8544.94
896.865	8540.2
897.181	8520.76
897.496	8541.78
897.811	8479.18
898.126	8443.48
898.441	8385.4
898.756	8384.5
899.071	8421.11
899.386	8398.73
899.7	8348.79
900.015	8277.61
900.33	8222.47
900.644	8200.32
900.959	8256.14
901.273	8174.33
901.588	8182.02
901.902	8157.16
902.216	8108.12
902.531	8065.86
902.845	8066.54
903.159	7968.01
903.473	7952.64
903.787	7911.52
904.101	7880.33
904.415	7848.69
904.729	7818.41
905.042	7797.62
905.356	7810.27
905.67	7778.41
905.984	7728.24
906.297	7741.8
906.611	7664.74
906.924	7644.63
907.237	7615.93
907.551	7641.47
907.864	7565.54
908.177	7535.71
908.491	7560.56
908.804	7471.75
909.117	7432.21
909.43	7352.43
909.743	7370.74
910.056	7385.43
910.368	7313.79
910.681	7333.9
910.994	7274.24
911.307	7224.98
911.619	7150.86
911.932	7176.62
912.244	7083.97
912.557	7070.18
912.869	7102.27
913.181	7076.06
913.494	7004.19
913.806	6981.37
914.118	6915.61
914.43	6938.66
914.742	6941.15
915.054	6856.4
915.366	6855.27
915.678	6775.95
915.99	6812.34
916.302	6744.31
916.613	6724.88
916.925	6727.59
917.236	6724.88
917.548	6629.06
917.859	6643.3
918.171	6549.52
918.482	6570.99
918.794	6547.03
919.105	6497.32
919.416	6451.44
919.727	6496.64
920.038	6513.36
920.349	6406.92
920.66	6378.22
920.971	6407.83
921.282	6353.14
921.593	6321.95
921.903	6278.56
922.214	6243.99
922.525	6254.84
922.835	6216.87
923.146	6144.56
923.456	6133.93
923.767	6106.14
924.077	6100.94
924.387	6093.26
924.697	6012.13
925.008	5978.91
925.318	6017.55
925.628	5975.75
925.938	5967.39
926.248	5898.69
926.558	5898.23
926.867	5895.52
927.177	5831.34
927.487	5793.6
927.796	5755.41
928.106	5761.97
928.416	5722.87
928.725	5727.17
929.034	5731.01
929.344	5690.33
929.653	5720.16
929.962	5643.55
930.271	5644.23
930.581	5580.28
930.89	5563.78
931.199	5474.52
931.508	5566.72
931.817	5469.55
932.125	5534.4
932.434	5467.96
932.743	5426.38
933.051	5399.04
933.36	5360.85
933.669	5304.13
933.977	5354.75
934.286	5296.67
934.594	5285.14
934.902	5231.13
935.21	5229.78
935.519	5203.11
935.827	5165.15
936.135	5180.29
936.443	5110.01
936.751	5095.09
937.059	5086.73
937.367	5025.04
937.674	5049.9
937.982	5058.93
938.29	5037.47
938.597	5036.34
938.905	4983.46
939.213	4911.59
939.52	4934.19
939.827	4885.83
940.135	4844.03
940.442	4857.36
940.749	4852.16
941.056	4820.07
941.363	4766.29
941.67	4795.44
941.977	4791.6
942.284	4691.03
942.591	4696.23
942.898	4706.85
943.205	4674.09
943.511	4690.81
943.818	4605.84
944.125	4607.2
944.431	4630.7
944.738	4609.23
945.044	4514.32
945.35	4534.43
945.657	4551.6
945.963	4509.8
946.269	4496.01
946.575	4486.07
946.881	4446.97
947.187	4436.35
947.493	4382.34
947.799	4399.29
948.105	4380.53
948.41	4378.27
948.716	4364.94
949.022	4343.47
949.327	4327.65
949.633	4277.49
949.938	4279.75
950.244	4265.96
950.549	4245.85
950.854	4173.76
951.16	4193.19
951.465	4135.57
951.77	4146.42
952.075	4138.51
952.38	4116.13
952.685	4103.71
952.99	4069.81
953.294	4065.29
953.599	4035.01
953.904	4009.24
954.209	3977.83
954.513	4012.18
954.818	3949.81
955.122	3935.57
955.426	3976.7
955.731	3893.99
956.035	3914.78
956.339	3889.7
956.643	3838.4
956.948	3825.07
957.252	3853.77
957.556	3836.37
957.86	3785.07
958.163	3766.54
958.467	3747.33
958.771	3788.23
959.075	3723.15
959.378	3686.77
959.682	3705.52
959.985	3703.49
960.289	3704.62
960.592	3677.05
960.896	3661.91
961.199	3628.01
961.502	3614.45
961.805	3588.24
962.108	3585.98
962.411	3565.64
962.714	3539.2
963.017	3524.06
963.32	3566.77
963.623	3511.86
963.926	3499.65
964.228	3471.18
964.531	3488.35
964.833	3420.79
965.136	3417.17
965.438	3401.8
965.741	3402.26
966.043	3381.92
966.345	3349.83
966.648	3352.31
966.95	3348.25
967.252	3331.75
967.554	3336.27
967.856	3298.98
968.158	3267.34
968.46	3245.42
968.761	3289.26
969.063	3233.67
969.365	3222.6
969.666	3217.85
969.968	3194.58
970.269	3186.44
970.571	3142.38
970.872	3176.5
971.174	3156.84
971.475	3139.44
971.776	3130.85
972.077	3110.06
972.378	3096.27
972.679	3065.54
972.98	3041.13
973.281	3008.82
973.582	3007.92
973.883	3020.8
974.183	3048.14
974.484	2997.29
974.785	2955.94
975.085	2973.79
975.386	3023.28
975.686	2942.83
975.986	2922.49
976.287	2931.31
976.587	2880.46
976.887	2866.68
977.187	2896.05
977.487	2849.5
977.787	2889.05
978.087	2842.5
978.387	2834.13
978.687	2837.07
978.987	2788.71
979.286	2807.24
979.586	2784.64
979.885	2771.99
980.185	2774.7
980.484	2711.2
980.784	2718.43
981.083	2706.91
981.382	2723.18
981.682	2715.04
981.981	2691.09
982.28	2695.38
982.579	2661.71
982.878	2683.4
983.177	2654.25
983.475	2671.65
983.774	2637.53
984.073	2579.9
984.372	2612.45
984.67	2590.3
984.969	2604.08
985.267	2567.47
985.566	2569.28
985.864	2555.95
986.162	2534.93
986.461	2515.95
986.759	2511.43
987.057	2487.7
987.355	2489.96
987.653	2473.47
987.951	2450.19
988.249	2433.02
988.547	2416.97
988.844	2440.7
989.142	2407.93
989.44	2407.03
989.737	2383.07
990.035	2386.24
990.332	2390.08
990.63	2344.43
990.927	2358.21
991.224	2352.11
991.521	2327.71
991.819	2339.01
992.116	2307.82
992.413	2292.91
992.71	2284.54
993.006	2299.91
993.303	2274.38
993.6	2264.43
993.897	2244.55
994.193	2230.76
994.49	2233.02
994.787	2240.25
995.083	2180.59
995.379	2180.14
995.676	2200.7
995.972	2167.94
996.268	2157.77
996.565	2168.39
996.861	2107.6
997.157	2141.5
997.453	2110.54
997.749	2114.61
998.044	2099.69
998.34	2101.27
998.636	2096.07
998.932	2037.77
999.227	2045.68
999.523	2031.67
999.818	2019.69
1000.114	1998.22
1000.409	1996.87
1000.704	1986.93
1001	1961.62
1001.295	1976.98
1001.59	1965
1001.885	1959.58
1002.18	1946.25
1002.475	1933.37
1002.77	1948.96
1003.065	1908.74
1003.359	1893.82
1003.654	1888.17
1003.949	1918.9
1004.243	1883.88
1004.538	1864.44
1004.832	1857.66
1005.127	1856.08
1005.421	1847.49
1005.715	1819.02
1006.009	1834.16
1006.304	1825.35
1006.598	1795.97
1006.892	1796.42
1007.186	1779.92
1007.48	1753.03
1007.773	1750.77
1008.067	1737.89
1008.361	1719.81
1008.655	1729.98
1008.948	1711.9
1009.242	1698.12
1009.535	1687.95
1009.829	1713.94
1010.122	1677.33
1010.415	1696.31
1010.708	1660.38
1011.001	1659.7
1011.295	1638.01
1011.588	1627.16
1011.881	1602.75
1012.173	1620.38
1012.466	1638.46
1012.759	1608.86
1013.052	1585.81
1013.344	1615.86
1013.637	1593.26
1013.93	1555.98
1014.222	1546.03
1014.514	1564.11
1014.807	1549.87
1015.099	1544.68
1015.391	1530.89
1015.683	1527.5
1015.976	1516.66
1016.268	1515.07
1016.56	1468.75
1016.851	1474.4
1017.143	1457.67
1017.435	1474.17
1017.727	1476.43
1018.018	1454.06
1018.31	1449.76
1018.602	1428.97
1018.893	1404.57
1019.185	1418.35
1019.476	1405.25
1019.767	1380.61
1020.058	1378.58
1020.35	1368.86
1020.641	1364.57
1020.932	1350.11
1021.223	1343.33
1021.514	1329.99
1021.804	1334.74
1022.095	1327.96
1022.386	1311.46
1022.677	1297
1022.967	1305.14
1023.258	1275.53
1023.548	1286.15
1023.839	1242.31
1024.129	1266.94
1024.419	1253.16
1024.709	1236.89
1025	1230.56
1025.29	1227.62
1025.58	1208.64
1025.87	1226.72
1026.16	1207.06
1026.449	1209.32
1026.739	1224.46
1027.029	1188.75
1027.319	1188.08
1027.608	1164.8
1027.898	1161.18
1028.187	1173.61
1028.477	1144.69
1028.766	1142.43
1029.055	1130.45
1029.344	1139.04
1029.634	1114.18
1029.923	1100.85
1030.212	1094.97
1030.501	1100.85
1030.79	1090
1031.078	1118.93
1031.367	1116.44
1031.656	1059.04
1031.945	1058.59
1032.233	1065.37
1032.522	1056.33
1032.81	1060.85
1033.099	1021.75
1033.387	1043.67
1033.675	1017.69
1033.963	1016.33
1034.251	1020.4
1034.54	1001.87
1034.828	984.92
1035.116	982.21
1035.403	974.07
1035.691	956.9
1035.979	961.87
1036.267	974.97
1036.554	965.48
1036.842	980.85
1037.129	946.73
1037.417	934.98
1037.704	938.82
1037.992	900.85
1038.279	932.94
1038.566	916.9
1038.853	916.9
1039.14	916.9
