Data from hue_24_FLMS001491_00067.txt Node
Date: Tue Feb 07 17:12:36 GMT 2017
User: dcchb
Spectrometer: FLMS00149
Trigger mode: 0
Integration Time (sec): 2.000000E-2
Scans to average: 10
Electric dark correction enabled: true
Nonlinearity correction enabled: false
Boxcar width: 0
XAxis mode: Wavelengths
Number of Pixels in Spectrum: 2048
>>>>>Begin Spectral Data<<<<<
341.393	-5.52
341.776	-5.52
342.16	-5.52
342.543	-65.41
342.927	-78.97
343.31	-85.52
343.693	-78.97
344.077	-68.35
344.46	-64.73
344.843	-51.85
345.226	-41
345.61	-33.54
345.993	-14.34
346.376	21.82
346.759	8.94
347.142	32.89
347.525	39.22
347.908	51.88
348.291	66.79
348.674	92.78
349.057	123.97
349.44	120.12
349.823	141.82
350.206	177.75
350.588	206
350.971	202.61
351.354	239.89
351.737	243.51
352.119	266.11
352.502	251.87
352.884	285.54
353.267	305.88
353.65	299.78
354.032	295.94
354.414	334.81
354.797	320.8
355.179	328.93
355.562	322.38
355.944	325.54
356.326	310.85
356.709	357.41
357.091	346.33
357.473	378.87
357.855	348.37
358.238	344.98
358.62	351.53
359.002	360.12
359.384	349.04
359.766	341.36
360.148	342.49
360.53	330.06
360.912	356.73
361.294	351.53
361.676	339.33
362.057	353.34
362.439	334.81
362.821	343.39
363.203	317.86
363.584	334.36
363.966	337.29
364.348	349.04
364.729	347.46
365.111	331.87
365.493	318.99
365.874	328.71
366.256	335.71
366.637	321.7
367.019	325.09
367.4	339.78
367.781	321.25
368.163	330.51
368.544	342.49
368.925	341.59
369.306	332.1
369.688	319.89
370.069	316.95
370.45	313.79
370.831	324.86
371.212	319.44
371.593	325.54
371.974	330.74
372.355	336.84
372.736	337.97
373.117	323.51
373.498	321.25
373.879	324.64
374.26	325.99
374.641	335.03
375.021	331.64
375.402	345.65
375.783	335.71
376.163	342.94
376.544	347.91
376.925	328.48
377.305	336.62
377.686	336.39
378.066	344.75
378.447	345.43
378.827	342.72
379.208	353.79
379.588	347.69
379.968	350.63
380.349	358.76
380.729	335.49
381.109	335.94
381.489	347.46
381.87	354.92
382.25	359.89
382.63	365.77
383.01	379.78
383.39	352.21
383.77	356.73
384.15	373
384.53	361.93
384.91	366.45
385.29	395.37
385.67	381.81
386.049	376.16
386.429	375.03
386.809	361.25
387.189	389.04
387.568	379.1
387.948	377.29
388.328	388.82
388.707	391.3
389.087	397.18
389.466	407.35
389.846	411.19
390.225	375.48
390.605	379.55
390.984	394.69
391.363	378.65
391.743	403.96
392.122	413.45
392.501	427.91
392.881	417.29
393.26	406.44
393.639	413.22
394.018	392.21
394.397	403.28
394.776	424.3
395.155	425.88
395.534	405.09
395.913	408.48
396.292	444.86
396.671	430.4
397.05	428.36
397.429	422.94
397.808	444.18
398.186	427.46
398.565	436.95
398.944	426.33
399.323	450.28
399.701	448.25
400.08	436.05
400.458	448.48
400.837	425.2
401.215	443.96
401.594	454.35
401.972	452.54
402.351	448.02
402.729	436.05
403.107	459.78
403.486	471.08
403.864	439.21
404.242	462.26
404.62	466.33
404.999	464.52
405.377	479.89
405.755	465.2
406.133	471.53
406.511	501.58
406.889	490.74
407.267	489.61
407.645	472.43
408.023	505.2
408.401	485.99
408.779	525.09
409.156	494.8
409.534	508.14
409.912	507.91
410.29	486.44
410.667	530.96
411.045	503.62
411.422	557.63
411.8	534.58
412.178	530.96
412.555	537.06
412.933	540.23
413.31	562.15
413.687	561.69
414.065	545.2
414.442	578.64
414.819	560.79
415.197	570.06
415.574	576.61
415.951	555.14
416.328	582.94
416.705	587.91
417.082	570.51
417.46	606.89
417.837	590.62
418.214	577.51
418.591	579.55
418.967	605.31
419.344	590.85
419.721	611.18
420.098	621.35
420.475	611.64
420.852	613.9
421.228	627.91
421.605	618.64
421.982	624.74
422.358	649.83
422.735	638.75
423.111	656.16
423.488	646.21
423.864	646.44
424.241	661.35
424.617	680.34
424.994	669.26
425.37	682.82
425.746	695.48
426.123	704.06
426.499	695.25
426.875	696.61
427.251	707.45
427.627	714.68
428.003	729.83
428.379	721.46
428.756	719.43
429.132	731.18
429.507	758.07
429.883	736.83
430.259	735.7
430.635	742.25
431.011	779.77
431.387	772.99
431.763	800.33
432.138	771.41
432.514	797.85
432.89	812.76
433.265	844.85
433.641	816.38
434.016	816.83
434.392	848.24
434.767	843.04
435.143	840.78
435.518	829.94
435.894	858.64
436.269	877.39
436.644	869.93
437.02	913.55
437.395	907.9
437.77	916.04
438.145	892.31
438.52	932.31
438.895	913.32
439.271	902.93
439.646	929.82
440.021	953.32
440.395	960.1
440.77	951.74
441.145	945.19
441.52	975.02
441.895	971.63
442.27	972.08
442.645	999.42
443.019	998.29
443.394	968.01
443.769	979.99
444.143	986.77
444.518	1003.26
444.892	1014.34
445.267	1031.06
445.641	1033.32
446.016	1016.37
446.39	1043.94
446.764	1037.61
447.139	1058.86
447.513	1092.08
447.887	1058.18
448.262	1046.43
448.636	1069.93
449.01	1064.51
449.384	1095.92
449.758	1084.17
450.132	1110.83
450.506	1128.69
450.88	1137.95
451.254	1126.2
451.628	1159.19
452.002	1165.07
452.376	1150.38
452.75	1184.95
453.123	1188.57
453.497	1192.64
453.871	1184.28
454.244	1191.51
454.618	1220.43
454.992	1235.35
455.365	1265.4
455.739	1259.3
456.112	1280.55
456.486	1291.39
456.859	1314.67
457.232	1325.97
457.606	1337.95
457.979	1341.56
458.352	1351.05
458.725	1381.33
459.099	1372.97
459.472	1381.56
459.845	1411.16
460.218	1440.77
460.591	1458.17
460.964	1471.95
461.337	1489.58
461.71	1478.05
462.083	1534.55
462.456	1535.45
462.829	1511.5
463.201	1552.85
463.574	1549.92
463.947	1585.4
464.32	1611.16
464.692	1599.18
465.065	1630.37
465.438	1683.25
465.81	1682.12
466.183	1727.99
466.555	1730.7
466.928	1761.21
467.3	1778.61
467.672	1807.09
468.045	1816.8
468.417	1840.3
468.789	1828.78
469.161	1859.97
469.534	1925.73
469.906	1941.09
470.278	1953.97
470.65	1985.16
471.022	2058.6
471.394	2041.66
471.766	2084.82
472.138	2093.18
472.51	2169.79
472.882	2188.77
473.253	2220.18
473.625	2236.45
473.997	2292.04
474.369	2321.2
474.74	2324.36
475.112	2393.06
475.484	2443.68
475.855	2483.9
476.227	2505.6
476.598	2596.22
476.97	2588.76
477.341	2651.81
477.713	2698.14
478.084	2711.02
478.455	2814.29
478.827	2800.51
479.198	2915.08
479.569	2887.51
479.94	2981.74
480.311	3021.06
480.682	3133.6
481.053	3186.71
481.424	3230.1
481.795	3279.59
482.166	3330.66
482.537	3388.51
482.908	3487.49
483.279	3539.92
483.65	3610.2
484.021	3699.24
484.391	3751.67
484.762	3792.57
485.133	3844.77
485.503	3883.87
485.874	3991.89
486.244	4020.81
486.615	4114.82
486.985	4189.85
487.356	4306.45
487.726	4288.6
488.097	4384.87
488.467	4458.77
488.837	4571.31
489.207	4611.98
489.578	4679.33
489.948	4669.61
490.318	4783.73
490.688	4819.44
491.058	4935.82
491.428	5020.33
491.798	5071.63
492.168	5116.38
492.538	5170.16
492.908	5246.99
493.278	5298.74
493.648	5371.74
494.017	5463.71
494.387	5466.2
494.757	5570.38
495.126	5630.94
495.496	5632.75
495.866	5731.95
496.235	5740.99
496.605	5840.65
496.974	5828.67
497.344	5901.89
497.713	5991.61
498.082	5984.6
498.452	6117.71
498.821	6114.09
499.19	6154.32
499.559	6268.89
499.928	6262.34
500.298	6308.21
500.667	6356.57
501.036	6360.41
501.405	6435.66
501.774	6491.48
502.143	6522.44
502.512	6548.2
502.88	6598.82
503.249	6661.87
503.618	6663.91
503.987	6707.3
504.356	6756.56
504.724	6799.27
505.093	6889.21
505.462	6923.56
505.83	6840.85
506.199	6956.55
506.567	7017.34
506.936	7022.99
507.304	7160.16
507.672	7132.59
508.041	7168.98
508.409	7189.09
508.777	7301.4
509.145	7382.31
509.514	7297.34
509.882	7409.2
510.25	7388.41
510.618	7460.95
510.986	7470.21
511.354	7497.33
511.722	7577.55
512.09	7683.77
512.458	7683.09
512.826	7694.39
513.193	7770.32
513.561	7769.41
513.929	7910.65
514.297	7904.33
514.664	7947.94
515.032	7959.92
515.4	8104.77
515.767	8085.11
516.135	8123.98
516.502	8058.9
516.869	8206.01
517.237	8232
517.604	8169.86
517.972	8264.32
518.339	8312.68
518.706	8298.44
519.073	8348.16
519.44	8425.89
519.808	8535.27
520.175	8518.77
520.542	8561.48
520.909	8647.13
521.276	8639
521.643	8687.58
522.009	8774.13
522.376	8797.18
522.743	8824.98
523.11	8982.72
523.477	8955.37
523.843	9033.11
524.21	9124.18
524.577	9142.94
524.943	9131.64
525.31	9220.9
525.676	9290.73
526.043	9358.75
526.409	9411.41
526.776	9489.6
527.142	9496.83
527.508	9587.22
527.874	9610.95
528.241	9693.43
528.607	9671.06
528.973	9800.55
529.339	9855.01
529.705	9882.58
530.071	9971.62
530.437	9987.44
530.803	10080.54
531.169	10106.98
531.535	10107.66
531.901	10181.1
532.267	10116.7
532.632	10225.17
532.998	10313.3
533.364	10367.09
533.73	10424.49
534.095	10462.68
534.461	10483.02
534.826	10525.27
535.192	10669.68
535.557	10679.39
535.923	10652.5
536.288	10747.19
536.653	10764.59
537.019	10801.2
537.384	10830.12
537.749	10956.45
538.114	10898.82
538.479	10918.03
538.845	11037.8
539.21	10984.25
539.575	11040.97
539.94	11169.1
540.305	11233.73
540.67	11201.87
541.034	11234.18
541.399	11267.85
541.764	11339.26
542.129	11360.73
542.494	11446.61
542.858	11458.58
543.223	11446.83
543.587	11565.92
543.952	11543.33
544.316	11704.68
544.681	11659.03
545.045	11760.04
545.41	11843.43
545.774	11858.35
546.138	11849.53
546.503	11886.37
546.867	11870.32
547.231	12070.09
547.595	12015.4
547.959	12027.38
548.324	12017.21
548.688	12157.77
549.052	12248.17
549.416	12197.32
549.779	12296.53
550.143	12355.28
550.507	12326.58
550.871	12449.74
551.235	12449.97
551.599	12487.26
551.962	12497.43
552.326	12598.67
552.689	12659
553.053	12608.61
553.417	12683.86
553.78	12813.58
554.143	12753.01
554.507	12831.65
554.87	12845.89
555.234	12973.12
555.597	12863.97
555.96	13026.68
556.323	13009.28
556.686	13044.98
557.05	13230.06
557.413	13146
557.776	13167.46
558.139	13257.86
558.502	13317.07
558.865	13369.04
559.228	13514.35
559.59	13473.67
559.953	13529.26
560.316	13668.69
560.679	13637.96
561.041	13698.52
561.404	13733.55
561.767	13796.15
562.129	13734.46
562.492	13923.15
562.854	13944.17
563.217	13861.68
563.579	13964.05
563.941	14081.34
564.304	14108
564.666	14236.59
565.028	14240.43
565.39	14304.84
565.753	14291.95
566.115	14353.65
566.477	14430.48
566.839	14475.9
567.201	14629.8
567.563	14522.68
567.925	14690.36
568.287	14692.62
568.648	14744.15
569.01	14789.34
569.372	14877.48
569.734	14964.03
570.095	14933.52
570.457	15072.73
570.819	15062.78
571.18	15211.03
571.542	15247.18
571.903	15290.12
572.265	15345.49
572.626	15367.18
572.987	15471.13
573.349	15521.07
573.71	15644.01
574.071	15696.44
574.432	15763.55
574.794	15818.24
575.155	15872.03
575.516	15880.16
575.877	16075.64
576.238	16130.1
576.599	16284.67
576.96	16309.98
577.32	16414.84
577.681	16640.59
578.042	16737.09
578.403	16734.83
578.763	16879.23
579.124	17014.59
579.485	17058.89
579.845	17322.38
580.206	17325.77
580.566	17526.45
580.927	17676.05
581.287	17886.66
581.648	17910.16
582.008	18141.12
582.368	18286.2
582.728	18512.18
583.089	18514.44
583.449	18775.9
583.809	19028.33
584.169	19249.56
584.529	19440.29
584.889	19819.72
585.249	19740.85
585.609	19880.73
585.969	20252.48
586.329	20456.76
586.688	20760.49
587.048	20909.63
587.408	21192.56
587.768	21465.78
588.127	21721.59
588.487	21886.11
588.846	22414.9
589.206	22512.76
589.565	22780.77
589.925	23286.52
590.284	23390.02
590.643	23815.77
591.003	24079.72
591.362	24468.64
591.721	24711.12
592.08	24960.37
592.44	25375.96
592.799	25682.84
593.158	26030.4
593.517	26363.28
593.876	26733.89
594.235	26901.34
594.593	27306.53
594.952	27652.06
595.311	27952.61
595.67	28195.09
596.029	28797.56
596.387	29054.28
596.746	29440.93
597.104	29576.75
597.463	29935.16
597.822	30303.06
598.18	30583.05
598.538	30960.89
598.897	31459.86
599.255	31564.95
599.613	32220.52
599.972	32330.58
600.33	32788.42
600.688	32987.06
601.046	33365.58
601.404	33807.15
601.762	34019.57
602.12	34373.23
602.478	34697.29
602.836	35013.9
603.194	35283.95
603.552	35593.09
603.91	35689.13
604.268	36214.32
604.625	36364.82
604.983	36828.76
605.341	36925.03
605.698	37420.61
606.056	37673.26
606.413	37925.91
606.771	38287.48
607.128	38665.78
607.485	38737.87
607.843	38916.62
608.2	39404.06
608.557	39613.32
608.914	39831.62
609.272	40237.04
609.629	40491.27
609.986	40854.65
610.343	40889
610.7	41304.13
611.057	41396.78
611.414	41549.54
611.771	41926.93
612.127	42131.9
612.484	42256.64
612.841	42613.24
613.198	42698.67
613.554	42806.46
613.911	43186.79
614.267	43415.03
614.624	43480.79
614.98	43679.2
615.337	44064.51
615.693	44121.68
616.05	44316.25
616.406	44604.38
616.762	44455.91
617.118	44793.75
617.475	44934.09
617.831	45061.54
618.187	45429.44
618.543	45524.35
618.899	45622.43
619.255	45805.93
619.611	46048.86
619.967	46172.92
620.323	46454.05
620.678	46339.25
621.034	46121.17
621.39	46473.48
621.746	46488.17
622.101	46946.46
622.457	46678.9
622.812	47002.28
623.168	47202.28
623.523	47300.8
623.879	47454.25
624.234	47298.77
624.589	47503.96
624.945	47489.5
625.3	47654.02
625.655	47656.05
626.01	47674.81
626.365	47880.22
626.72	47875.25
627.075	47785.31
627.43	47934.23
627.785	47877.51
628.14	48042.93
628.495	48232.53
628.85	48147.11
629.205	48079.09
629.559	48358.63
629.914	48280.67
630.269	48251.97
630.623	48236.15
630.978	48275.24
631.332	48365.64
631.687	48517.04
632.041	48280.89
632.396	48540.32
632.75	48450.6
633.104	48523.37
633.459	48412.41
633.813	48546.87
634.167	48512.75
634.521	48456.93
634.875	48514.56
635.229	48642.92
635.583	48401.34
635.937	48496.71
636.291	48478.63
636.645	48469.36
636.999	48476.82
637.352	48598.85
637.706	48359.53
638.06	48510.04
638.413	48487.67
638.767	48446.54
639.121	48527.66
639.474	48264.17
639.828	48309.37
640.181	48413.32
640.534	48256.26
640.888	48343.71
641.241	48132.87
641.594	48208.8
641.947	48467.55
642.301	48192.76
642.654	48353.21
643.007	48384.17
643.36	48346.2
643.713	48279.54
644.066	48434.11
644.419	48016.94
644.771	47943.95
645.124	47601.36
645.477	47531.31
645.83	47322.72
646.182	47340.13
646.535	47133.8
646.888	47236.17
647.24	46993.24
647.593	47312.33
647.945	47168.38
648.298	47033.01
648.65	47005.67
649.002	46906.92
649.355	47088.83
649.707	47016.52
650.059	47348.94
650.411	47658.08
650.763	47646.33
651.115	48020.56
651.467	47851.3
651.819	47887.23
652.171	47797.74
652.523	47757.52
652.875	47671.64
653.227	47608.82
653.578	47972.2
653.93	47830.06
654.282	47684.3
654.633	47480.91
654.985	47542.38
655.337	47624.86
655.688	47571.98
656.039	47847.23
656.391	47465.09
656.742	47550.97
657.094	47489.5
657.445	47673.68
657.796	47639.33
658.147	47495.83
658.498	47558.65
658.849	47612.66
659.2	47484.98
659.551	47443.63
659.902	47647.46
660.253	47381.03
660.604	47566.11
660.955	47339.22
661.306	47527.24
661.656	47317.3
662.007	47530.4
662.358	47468.03
662.708	47460.12
663.059	47452.44
663.409	47207.02
663.76	47583.96
664.11	47558.2
664.461	47439.33
664.811	47511.65
665.161	47450.18
665.511	47215.61
665.862	47384.87
666.212	47406.79
666.562	47426.9
666.912	47377.64
667.262	47342.61
667.612	47338.32
667.962	47383.97
668.312	47369.5
668.662	47476.17
669.011	47342.16
669.361	47282.95
669.711	47209.06
670.06	47084.76
670.41	47179.68
670.76	47080.02
671.109	47287.02
671.459	47126.35
671.808	47125.89
672.157	47189.62
672.507	46922.06
672.856	46987.59
673.205	47171.99
673.554	47191.65
673.904	47034.6
674.253	47242.27
674.602	47171.09
674.951	46589.41
675.3	46477.32
675.649	47041.38
675.998	46869.86
676.346	46944.66
676.695	47075.5
677.044	46775.39
677.393	46941.04
677.741	46985.56
678.09	46793.92
678.438	46788.05
678.787	46818.78
679.135	46851.1
679.484	46546.25
679.832	46780.37
680.181	46317.33
680.529	46614.72
680.877	46500.83
681.225	46353.26
681.573	46629.64
681.922	46333.82
682.27	46144.45
682.618	46261.28
682.966	46238.01
683.314	46123.43
683.661	46134.51
684.009	45875.31
684.357	45932.03
684.705	45880.28
685.053	45920.95
685.4	45787.17
685.748	45609.55
686.095	45636.44
686.443	45372.27
686.79	45462.43
687.138	45386.28
687.485	45468.99
687.832	45381.31
688.18	45324.13
688.527	45146.51
688.874	45105.83
689.221	45048.66
689.568	45078.26
689.915	44827.2
690.262	44913.07
690.609	44702.45
690.956	44554.44
691.303	44601.44
691.65	44427.43
691.997	44434.21
692.344	44153.99
692.69	44127.55
693.037	44254.33
693.383	43816.6
693.73	44055.47
694.077	43725.31
694.423	43682.14
694.769	43537.51
695.116	43567.12
695.462	43439.89
695.808	43207.13
696.155	43475.14
696.501	43098.2
696.847	43037.19
697.193	42819.11
697.539	42964.87
697.885	42698.44
698.231	42643.98
698.577	42499.8
698.923	42631.32
699.269	42375.51
699.614	42148.4
699.96	42091.9
700.306	42024.78
700.651	41978.01
700.997	41777.56
701.342	41789.76
701.688	41782.98
702.033	41745.92
702.379	41604.23
702.724	41433.84
703.069	41465.93
703.415	41056
703.76	41076.56
704.105	41015.32
704.45	40916.79
704.795	40812.61
705.14	40653.3
705.485	40576.24
705.83	40382.79
706.175	40435.9
706.52	40371.95
706.865	40262.8
707.209	40294.66
707.554	40043.82
707.899	40181.9
708.243	39871.85
708.588	39996.82
708.932	39686.09
709.277	39727.44
709.621	39760.21
709.966	39363.16
710.31	39598.63
710.654	39276.38
710.998	39340.34
711.342	39426.44
711.687	39201.58
712.031	38981.48
712.375	38943.96
712.719	39007.69
713.063	38927.01
713.407	39143.28
713.75	38702.16
714.094	38783.51
714.438	38608.83
714.782	38639.56
715.125	38425.11
715.469	38429.63
715.812	38331.77
716.156	38135.4
716.499	38222.17
716.843	38189.41
717.186	37986.47
717.53	38151.89
717.873	37986.25
718.216	37948.96
718.559	37740.15
718.902	37494.96
719.246	37531.8
719.589	37367.51
719.932	37314.85
720.275	37396.88
720.617	37252.03
720.96	37221.07
721.303	37320.95
721.646	37262.88
721.989	36998.48
722.331	37055.42
722.674	37072.82
723.016	37061.75
723.359	36939.49
723.701	36982.43
724.044	36682.33
724.386	36574.76
724.729	36853.85
725.071	36580.86
725.413	36631.93
725.755	36604.14
726.097	36377.7
726.439	36298.16
726.782	36277.37
727.124	36268.55
727.465	36015.9
727.807	36152.4
728.149	36178.16
728.491	36059.74
728.833	36033.3
729.175	35860.65
729.516	35773.65
729.858	35952.18
730.199	35749.24
730.541	35789.69
730.882	35601.45
731.224	35783.82
731.565	35450.04
731.906	35579.53
732.248	35537.27
732.589	35394.45
732.93	35246.66
733.271	35334.34
733.612	35280.1
733.953	35313.55
734.294	35274
734.635	34949.26
734.976	35160.78
735.317	34932.09
735.658	34982.48
735.999	34973.44
736.339	34900.45
736.68	35019.32
737.021	34759.21
737.361	34659.55
737.702	34836.73
738.042	34707.46
738.383	34635.83
738.723	34721.02
739.063	34460.69
739.404	34646.45
739.744	34549.28
740.084	34390.41
740.424	34440.8
740.764	34274.71
741.104	34507.47
741.444	34092.56
741.784	34039.46
742.124	34134.6
742.464	34039.68
742.804	33995.62
743.143	34046.24
743.483	34007.82
743.823	33845.34
744.162	33809.41
744.502	33818.22
744.841	33662.29
745.181	33815.51
745.52	33490.77
745.86	33745.68
746.199	33568.74
746.538	33538
746.877	33579.36
747.216	33582.75
747.556	33530.54
747.895	33494.16
748.234	33341.17
748.573	33250.1
748.911	33223.21
749.25	33336.65
749.589	33129.88
749.928	33137.56
750.267	33162.42
750.605	33149.99
750.944	33025.25
751.283	32901.86
751.621	33074.29
751.96	32981.41
752.298	32733.5
752.636	32788.42
752.975	32620.74
753.313	32527.63
753.651	32651.25
753.989	32522.66
754.327	32460.06
754.666	32239.51
755.004	32342.78
755.342	32278.15
755.679	32187.3
756.017	32112.28
756.355	32123.58
756.693	31926.29
757.031	32160.86
757.368	31853.3
757.706	31766.52
758.044	31776.01
758.381	31650.37
758.719	31545.96
759.056	31622.8
759.394	31490.15
759.731	31336.25
760.068	31261.68
760.405	31163.83
760.743	31038.41
761.08	31023.49
761.417	30985.3
761.754	30950.73
762.091	30879.09
762.428	30671.64
762.765	30537.63
763.102	30656.5
763.438	30580.34
763.775	30399.55
764.112	30313.91
764.449	30449.95
764.785	30220.58
765.122	30013.35
765.458	29946.91
765.795	29952.11
766.131	29939.9
766.467	29792.56
766.804	29581.72
767.14	29481.16
767.476	29486.58
767.812	29252.47
768.148	29261.05
768.485	29148.51
768.821	28964.11
769.157	28980.38
769.492	28831.91
769.828	28869.2
770.164	28518.93
770.5	28426.95
770.836	28644.12
771.171	28398.93
771.507	28265.37
771.842	28063.12
772.178	28168.65
772.513	28049.79
772.849	27868.09
773.184	27755.1
773.519	27724.6
773.855	27667.2
774.19	27595.79
774.525	27469.91
774.86	27445.06
775.195	27333.65
775.53	27298.62
775.865	27163.93
776.2	26962.81
776.535	26841.68
776.87	26775.47
777.205	26677.62
777.539	26536.6
777.874	26510.39
778.209	26415.93
778.543	26224.52
778.878	26238.08
779.212	26149.95
779.547	25963.74
779.881	26115.82
780.215	25977.3
780.55	25945.89
780.884	25694.82
781.218	25627.48
781.552	25650.53
781.886	25434.94
782.22	25368.95
782.554	25305.45
782.888	25123.31
783.222	24961.05
783.556	24826.59
783.889	24873.37
784.223	24644.45
784.557	24645.58
784.89	24545.24
785.224	24547.73
785.557	24311.58
785.891	24410.78
786.224	24242.2
786.558	24171.69
786.891	24044.47
787.224	23893.74
787.557	23839.27
787.891	23944.81
788.224	23738.71
788.557	23775.55
788.89	23717.47
789.223	23603.8
789.556	23340.76
789.888	23400.19
790.221	23306.18
790.554	23094.21
790.887	23120.88
791.219	23035.23
791.552	22983.03
791.884	22780.55
792.217	22802.92
792.549	22783.48
792.882	22519.08
793.214	22380.1
793.546	22498.74
793.879	22360.67
794.211	22237.28
794.543	22337.84
794.875	22189.37
795.207	22255.36
795.539	22155.25
795.871	22139.88
796.203	21791.42
796.535	21809.72
796.867	21799.55
797.198	21705.09
797.53	21664.19
797.862	21473.01
798.193	21549.17
798.525	21407.02
798.856	21417.64
799.188	21250.87
799.519	21093.13
799.85	20988.05
800.182	21041.38
800.513	21087.48
800.844	20842.74
801.175	20913.02
801.506	20943.98
801.837	20750.09
802.168	20647.49
802.499	20534.95
802.83	20522.75
803.161	20437.56
803.491	20472.36
803.822	20460.15
804.153	20300.84
804.483	20077.11
804.814	20130.45
805.145	20138.81
805.475	20096.55
805.805	19967.29
806.136	20000.51
806.466	19942.43
806.796	19902.88
807.126	19681.42
807.457	19788.53
807.787	19818.36
808.117	19703.11
808.447	19569.56
808.777	19528.65
809.107	19423.12
809.436	19478.49
809.766	19445.27
810.096	19293.41
810.426	19298.6
810.755	19220.86
811.085	19138.61
811.414	19179.28
811.744	19046.41
812.073	18961.44
812.403	18998.95
812.732	18871.72
813.061	18792.18
813.39	18677.83
813.719	18664.27
814.049	18765.28
814.378	18624.95
814.707	18638.73
815.036	18576.59
815.365	18474.9
815.693	18247.78
816.022	18281.45
816.351	18358.06
816.68	18268.57
817.008	18358.97
817.337	18167.56
817.665	18072.19
817.994	18099.54
818.322	18007.34
818.651	17925.76
818.979	18022.48
819.307	18034.23
819.636	17963.27
819.964	17911.07
820.292	17932.31
820.62	17879.43
820.948	17786.55
821.276	17836.49
821.604	17782.03
821.932	17869.49
822.259	17765.54
822.587	17787.91
822.915	17738.64
823.243	17754.46
823.57	17702.71
823.898	17655.03
824.225	17657.97
824.553	17688.7
824.88	17662.94
825.207	17698.87
825.535	17646.22
825.862	17793.78
826.189	17582.94
826.516	17739.32
826.843	17688.02
827.17	17663.84
827.497	17696.84
827.824	17700.45
828.151	17728.93
828.478	17706.1
828.805	17774.58
829.131	17736.16
829.458	17655.48
829.785	17501.36
830.111	17505.2
830.438	17675.14
830.764	17549.5
831.09	17555.6
831.417	17485.32
831.743	17613.9
832.069	17580.23
832.395	17503.4
832.722	17614.35
833.048	17455.04
833.374	17492.55
833.7	17420.91
834.026	17424.53
834.351	17411.87
834.677	17340.46
835.003	17471.76
835.329	17340.46
835.654	17357.41
835.98	17333.68
836.306	17375.26
836.631	17349.05
836.956	17333.91
837.282	17384.75
837.607	17247.13
837.932	17207.81
838.258	17232.22
838.583	17273.12
838.908	17101.15
839.233	17190.64
839.558	17071.54
839.883	16973.01
840.208	16977.53
840.533	16934.6
840.858	16923.3
841.182	16956.07
841.507	16888.72
841.832	16850.98
842.156	16806.46
842.481	16782.28
842.805	16689.86
843.13	16721.04
843.454	16604.21
843.778	16546.58
844.103	16550.65
844.427	16475.85
844.751	16520.37
845.075	16449.19
845.399	16360.83
845.723	16254.61
846.047	16284.67
846.371	16107.05
846.695	16204.67
847.019	16137.56
847.343	16072.47
847.666	15897.79
847.99	15815.53
848.313	15858.69
848.637	15749.77
848.96	15707.51
849.284	15643.33
849.607	15565.37
849.931	15456.44
850.254	15469.78
850.577	15289.89
850.9	15261.42
851.223	15121.76
851.546	15128.99
851.869	15014.65
852.192	15071.37
852.515	14955.21
852.838	14840.64
853.161	14910.7
853.483	14702.57
853.806	14735.11
854.129	14637.93
854.451	14705.28
854.774	14586.18
855.096	14618.05
855.419	14482.23
855.741	14499.18
856.063	14404.04
856.385	14363.59
856.708	14365.17
857.03	14299.86
857.352	14295.57
857.674	14303.48
857.996	14217.15
858.318	14117.95
858.64	14133.77
858.961	14101.68
859.283	14025.52
859.605	13977.61
859.926	14008.12
860.248	14001.11
860.57	13863.49
860.891	13941.91
861.212	13763.38
861.534	13752.76
861.855	13672.08
862.176	13724.29
862.498	13743.95
862.819	13671.63
863.14	13600.67
863.461	13571.3
863.782	13494.91
864.103	13568.13
864.424	13509.38
864.745	13585.31
865.065	13429.6
865.386	13370.4
865.707	13404.52
866.027	13490.85
866.348	13304.18
866.668	13363.84
866.989	13234.81
867.309	13351.87
867.63	13237.75
867.95	13262.6
868.27	13174.24
868.59	13197.75
868.91	13120.01
869.23	13169.05
869.55	13092.21
869.87	13160.23
870.19	13059.22
870.51	13157.52
870.83	13091.99
871.15	13059.44
871.469	12984.42
871.789	13001.59
872.109	13028.03
872.428	12888.38
872.748	12920.69
873.067	12923.18
873.386	12897.87
873.706	12860.13
874.025	12733.35
874.344	12740.58
874.663	12803.63
874.982	12789.4
875.301	12750.3
875.62	12686.8
875.939	12722.96
876.258	12694.03
876.577	12617.65
876.896	12588.95
877.214	12588.95
877.533	12600.02
877.852	12573.13
878.17	12585.11
878.489	12487.71
878.807	12595.28
879.125	12484.32
879.444	12462.17
879.762	12425.79
880.08	12435.73
880.398	12366.13
880.716	12461.95
881.034	12280.26
881.352	12390.99
881.67	12361.16
881.988	12230.09
882.306	12138.11
882.624	12192.8
882.941	12134.72
883.259	12093.37
883.577	12080.49
883.894	12067.61
884.212	12016.99
884.529	12091.79
884.846	11981.51
885.164	11993.03
885.481	11950.55
885.798	11996.87
886.115	11822.87
886.432	11810.89
886.75	11852.7
887.067	11772.92
887.383	11818.57
887.7	11868.97
888.017	11786.26
888.334	11756.88
888.651	11675.98
888.967	11677.33
889.284	11664.45
889.6	11529.32
889.917	11447.74
890.233	11536.77
890.55	11562.31
890.866	11502.2
891.182	11374.97
891.498	11337
891.815	11379.71
892.131	11457.23
892.447	11299.72
892.763	11297.23
893.079	11231.92
893.395	11241.64
893.71	11244.35
894.026	11087.29
894.342	11135.43
894.657	11043.23
894.973	11019.95
895.289	11002.32
895.604	11020.63
895.92	10799.62
896.235	10845.94
896.55	10838.71
896.865	10797.81
897.181	10828.32
897.496	10844.81
897.811	10744.7
898.126	10689.79
898.441	10693.63
898.756	10621.99
899.071	10417.71
899.386	10601.88
899.7	10385.84
900.015	10444.15
900.33	10366.86
900.644	10309.23
900.959	10396.92
901.273	10296.13
901.588	10243.25
901.902	10203.02
902.216	10142.69
902.531	10192.63
902.845	10118.73
903.159	10084.16
903.473	10045.51
903.787	9992.86
904.101	9926.42
904.415	9918.51
904.729	9933.88
905.042	9755.35
905.356	9822.24
905.67	9774.79
905.984	9790.83
906.297	9751.06
906.611	9641.46
906.924	9669.93
907.237	9596.03
907.551	9570.04
907.864	9562.81
908.177	9473.32
908.491	9475.81
908.804	9353.33
909.117	9339.54
909.43	9297.74
909.743	9295.25
910.056	9175.48
910.368	9206.21
910.681	9206.21
910.994	9111.07
911.307	9115.59
911.619	9064.3
911.932	9040.34
912.244	9009.83
912.557	8964.19
912.869	8912.44
913.181	8939.55
913.494	8793.79
913.806	8788.14
914.118	8806.9
914.43	8728.26
914.742	8709.73
915.054	8662.95
915.366	8581.14
915.678	8620.92
915.99	8588.6
916.302	8497.3
916.613	8459.11
916.925	8446.23
917.236	8448.72
917.548	8349.96
917.859	8404.88
918.171	8304.09
918.482	8263.19
918.794	8272.45
919.105	8240.14
919.416	8124.66
919.727	8153.81
920.038	8107.48
920.349	8091.89
920.66	8007.37
920.971	8068.16
921.282	8052.12
921.593	7955.62
921.903	7890.09
922.214	7871.56
922.525	7854.84
922.835	7771.22
923.146	7806.02
923.456	7759.7
923.767	7677.44
924.077	7728.74
924.387	7648.74
924.697	7575.97
925.008	7572.58
925.318	7504.34
925.628	7479.93
925.938	7448.07
926.248	7442.19
926.558	7369.42
926.867	7326.04
927.177	7291.69
927.487	7303.66
927.796	7214.17
928.106	7239.48
928.416	7216.21
928.725	7177.11
929.034	7095.99
929.344	7115.19
929.653	7110.67
929.962	7015.76
930.271	7017.34
930.581	6961.75
930.89	6924.01
931.199	6869.55
931.508	6902.09
931.817	6945.93
932.125	6902.09
932.434	6829.78
932.743	6739.84
933.051	6748.88
933.36	6718.14
933.669	6693.96
933.977	6646.51
934.286	6649.9
934.594	6616.9
934.902	6556.79
935.21	6554.53
935.519	6512.72
935.827	6543.68
936.135	6508.88
936.443	6394.31
936.751	6422.11
937.059	6409.9
937.367	6346.63
937.674	6390.24
937.982	6353.63
938.29	6249.68
938.597	6291.49
938.905	6190.02
939.213	6137.59
939.52	6147.54
939.827	6213.07
940.135	6112.28
940.442	6091.72
940.749	6112.96
941.056	6082.91
941.363	6003.13
941.67	5988.67
941.977	5978.05
942.284	5901.44
942.591	5897.15
942.898	5885.4
943.205	5847.43
943.511	5792.74
943.818	5823.48
944.125	5800.65
944.431	5737.83
944.738	5708.45
945.044	5657.83
945.35	5667.77
945.657	5640.88
945.963	5582.13
946.269	5619.87
946.575	5575.35
946.881	5548.23
947.187	5501.45
947.493	5507.33
947.799	5516.14
948.105	5436.14
948.41	5375.58
948.716	5394.11
949.022	5433.88
949.327	5407.44
949.633	5284.73
949.938	5294.9
950.244	5303.72
950.549	5273.43
950.854	5228.01
951.16	5224.85
951.465	5201.8
951.77	5105.76
952.075	5120.67
952.38	5121.35
952.685	5098.75
952.99	5057.85
953.294	5092.2
953.599	5018.53
953.904	4968.81
954.209	4970.84
954.513	4960.67
954.818	4953.22
955.122	4937.85
955.426	4893.33
955.731	4901.47
956.035	4871.86
956.339	4863.05
956.643	4799.1
956.948	4770.62
957.252	4755.48
957.556	4703.05
957.86	4656.73
958.163	4650.4
958.467	4694.69
958.771	4654.02
959.075	4629.38
959.378	4623.28
959.682	4618.08
959.985	4595.26
960.289	4586.22
960.592	4522.27
960.896	4514.36
961.199	4464.42
961.502	4503.51
961.805	4454.93
962.108	4441.37
962.411	4419.45
962.714	4382.61
963.017	4391.2
963.32	4414.47
963.623	4355.49
963.926	4323.4
964.228	4316.4
964.531	4313.46
964.833	4300.58
965.136	4256.74
965.438	4258.32
965.741	4216.51
966.043	4210.86
966.345	4219.23
966.648	4134.71
966.95	4134.03
967.252	4125.89
967.554	4133.58
967.856	4115.73
968.158	4100.81
968.46	4050.64
968.761	4038.21
969.063	4065.78
969.365	4014.71
969.666	3983.98
969.968	3972.23
970.269	3957.31
970.571	3953.7
970.872	3924.32
971.174	3887.71
971.475	3879.35
971.776	3871.44
972.077	3859.23
972.378	3812.68
972.679	3806.58
972.98	3857.2
973.281	3775.62
973.582	3804.55
973.883	3739.24
974.183	3736.07
974.484	3681.84
974.785	3722.06
975.085	3699.92
975.386	3669.18
975.686	3640.26
975.986	3639.81
976.287	3634.16
976.587	3560.94
976.887	3601.61
977.187	3557.32
977.487	3555.97
977.787	3523.88
978.087	3545.8
978.387	3520.71
978.687	3488.62
978.987	3501.96
979.286	3489.75
979.586	3456.76
979.885	3415.4
980.185	3392.58
980.484	3374.73
980.784	3416.53
981.083	3375.41
981.382	3364.33
981.682	3365.69
981.981	3330.44
982.28	3310.1
982.579	3239.14
982.878	3298.12
983.177	3289.98
983.475	3251.57
983.774	3263.09
984.073	3208.4
984.372	3226.93
984.67	3187.84
984.969	3191.23
985.267	3174.51
985.566	3122.53
985.864	3129.54
986.162	3122.3
986.461	3123.21
986.759	3097.67
987.057	3040.5
987.355	3078.01
987.653	3020.39
987.951	3058.8
988.249	3052.25
988.547	3015.19
988.844	3007.28
989.142	3002.76
989.44	2900.84
989.737	2920.73
990.035	2936.55
990.332	2940.61
990.63	2883.67
990.927	2880.05
991.224	2862.88
991.521	2872.14
991.819	2857.68
992.116	2873.27
992.413	2838.47
992.71	2807.74
993.006	2794.18
993.303	2733.16
993.6	2774.97
993.897	2771.81
994.193	2766.83
994.49	2720.06
994.787	2700.85
995.083	2705.59
995.379	2692.26
995.676	2646.39
995.972	2684.58
996.268	2654.97
996.565	2625.14
996.861	2590.57
997.157	2607.74
997.453	2600.51
997.749	2590.57
998.044	2557.8
998.34	2533.39
998.636	2572.49
998.932	2545.6
999.227	2504.02
999.523	2497.91
999.818	2466.28
1000.114	2466.5
1000.409	2452.94
1000.704	2473.28
1001	2457.46
1001.295	2415.2
1001.59	2433.51
1001.885	2431.7
1002.18	2352.61
1002.475	2389.67
1002.77	2349.44
1003.065	2349.22
1003.359	2329.33
1003.654	2291.59
1003.949	2311.48
1004.243	2294.08
1004.538	2264.47
1004.832	2293.4
1005.127	2277.36
1005.421	2243.46
1005.715	2229.9
1006.009	2229
1006.304	2203.46
1006.598	2190.58
1006.892	2197.58
1007.186	2196.23
1007.48	2152.61
1007.773	2138.38
1008.067	2151.26
1008.361	2132.27
1008.655	2132.05
1008.948	2134.99
1009.242	2073.52
1009.535	2058.38
1009.829	2084.14
1010.122	2049.11
1010.415	2025.84
1010.708	2007.08
1011.001	2015.67
1011.295	1978.61
1011.588	1984.03
1011.881	1956.23
1012.173	1976.57
1012.466	1956.91
1012.759	1939.51
1013.052	1932.51
1013.344	1897.93
1013.637	1927.53
1013.93	1885.05
1014.222	1876.46
1014.514	1911.94
1014.807	1859.29
1015.099	1836.69
1015.391	1821.32
1015.683	1818.61
1015.976	1815.9
1016.268	1817.48
1016.56	1813.19
1016.851	1762.11
1017.143	1762.34
1017.435	1758.5
1017.727	1765.05
1018.018	1738.16
1018.31	1730.25
1018.602	1729.8
1018.893	1682.12
1019.185	1659.52
1019.476	1662.46
1019.767	1671.95
1020.058	1662.46
1020.35	1645.96
1020.641	1611.84
1020.932	1587.88
1021.223	1638.28
1021.514	1615.68
1021.804	1577.03
1022.095	1577.26
1022.386	1556.47
1022.677	1571.16
1022.967	1585.85
1023.258	1535.68
1023.548	1550.59
1023.839	1539.75
1024.129	1510.6
1024.419	1488
1024.709	1502.01
1025	1498.17
1025.29	1476.47
1025.58	1457.72
1025.87	1460.65
1026.16	1422.01
1026.449	1429.69
1026.739	1436.02
1027.029	1389.7
1027.319	1419.07
1027.608	1415.01
1027.898	1392.18
1028.187	1396.02
1028.477	1387.44
1028.766	1392.86
1029.055	1346.76
1029.344	1347.66
1029.634	1326.42
1029.923	1299.53
1030.212	1326.42
1030.501	1313.09
1030.79	1255.24
1031.078	1280.09
1031.367	1271.51
1031.656	1273.31
1031.945	1269.47
1032.233	1252.3
1032.522	1248
1032.81	1222.47
1033.099	1231.28
1033.387	1230.83
1033.675	1220.89
1033.963	1195.12
1034.251	1219.53
1034.54	1187.21
1034.828	1200.77
1035.116	1174.79
1035.403	1157.84
1035.691	1153.32
1035.979	1147.89
1036.267	1130.94
1036.554	1134.33
1036.842	1149.48
1037.129	1133.88
1037.417	1100.21
1037.704	1104.96
1037.992	1073.32
1038.279	1078.52
1038.566	1108.8
1038.853	1108.8
1039.14	1108.8
