Data from hue_320_FLMS001491_99.txt Node
Date: Mon Feb 06 15:48:00 GMT 2017
User: dcchb
Spectrometer: FLMS00149
Trigger mode: 0
Integration Time (sec): 2.000000E-2
Scans to average: 10
Electric dark correction enabled: true
Nonlinearity correction enabled: false
Boxcar width: 0
XAxis mode: Wavelengths
Number of Pixels in Spectrum: 2048
>>>>>Begin Spectral Data<<<<<
341.393	-22.65
341.776	-22.65
342.16	-22.65
342.543	-49.77
342.927	-85.48
343.31	-79.6
343.693	-54.52
344.077	-81.18
344.46	-63.33
344.843	-60.17
345.226	-64.01
345.61	-40.51
345.993	-7.06
346.376	-13.39
346.759	14.86
347.142	46.72
347.525	48.3
347.908	66.38
348.291	78.13
348.674	91.47
349.057	117.91
349.44	124.46
349.823	139.6
350.206	153.84
350.588	170.56
350.971	223.44
351.354	222.54
351.737	214.63
352.119	225.93
352.502	253.5
352.884	274.96
353.267	268.41
353.65	293.95
354.032	271.12
354.414	277.45
354.797	301.63
355.179	307.28
355.562	329.65
355.944	315.87
356.326	317
356.709	311.35
357.091	328.97
357.473	314.29
357.855	320.84
358.238	338.92
358.62	332.59
359.002	326.94
359.384	326.71
359.766	322.42
360.148	320.84
360.53	323.1
360.912	343.89
361.294	303.21
361.676	326.94
362.057	313.61
362.439	318.13
362.821	324.68
363.203	312.48
363.584	335.08
363.966	303.66
364.348	285.13
364.729	312.7
365.111	314.51
365.493	318.35
365.874	301.63
366.256	290.33
366.637	302.53
367.019	301.4
367.4	304.57
367.781	289.88
368.163	328.07
368.544	304.12
368.925	291.24
369.306	340.27
369.688	304.34
370.069	290.11
370.45	319.71
370.831	318.81
371.212	300.27
371.593	289.65
371.974	297.34
372.355	301.4
372.736	304.57
373.117	302.76
373.498	295.3
373.879	287.39
374.26	315.87
374.641	308.18
375.021	301.63
375.402	303.21
375.783	309.99
376.163	312.48
376.544	319.26
376.925	338.69
377.305	313.38
377.686	326.94
378.066	314.51
378.447	334.85
378.827	319.48
379.208	316.55
379.588	294.63
379.968	296.88
380.349	340.73
380.729	302.31
381.109	346.38
381.489	342.31
381.87	324
382.25	321.97
382.63	326.49
383.01	327.17
383.39	346.15
383.77	319.26
384.15	334.17
384.53	344.57
384.91	346.15
385.29	329.88
385.67	326.49
386.049	345.92
386.429	343.44
386.809	328.52
387.189	343.89
387.568	350.67
387.948	349.09
388.328	332.36
388.707	338.92
389.087	346.83
389.466	352.02
389.846	375.98
390.225	365.36
390.605	355.87
390.984	358.58
391.363	361.29
391.743	349.31
392.122	359.03
392.501	366.04
392.881	357
393.26	368.3
393.639	341.63
394.018	361.74
394.397	359.26
394.776	374.4
395.155	342.99
395.534	365.13
395.913	363.55
396.292	375.07
396.671	375.53
397.05	380.72
397.429	369.43
397.808	382.76
398.186	355.41
398.565	373.94
398.944	386.37
399.323	386.37
399.701	404.23
400.08	372.36
400.458	399.71
400.837	402.64
401.215	411.91
401.594	402.19
401.972	372.59
402.351	395.41
402.729	388.41
403.107	404
403.486	434.28
403.864	411.01
404.242	406.94
404.62	414.62
404.999	409.2
405.377	410.1
405.755	431.12
406.133	417.79
406.511	419.59
406.889	431.8
407.267	415.53
407.645	451.46
408.023	430.89
408.401	453.04
408.779	436.09
409.156	452.36
409.534	468.63
409.912	467.73
410.29	459.14
410.667	467.73
411.045	489.42
411.422	473.6
411.8	472.93
412.178	487.39
412.555	489.87
412.933	488.97
413.31	492.81
413.687	505.92
414.065	535.07
414.442	539.82
414.819	539.82
415.197	547.27
415.574	529.87
415.951	556.77
416.328	564.22
416.705	549.76
417.082	557.89
417.46	546.37
417.837	578.46
418.214	575.97
418.591	583.66
418.967	589.53
419.344	606.26
419.721	601.74
420.098	621.4
420.475	625.92
420.852	621.62
421.228	630.44
421.605	632.92
421.982	644.9
422.358	657.33
422.735	652.81
423.111	633.83
423.488	655.97
423.864	680.83
424.241	684.22
424.617	677.44
424.994	707.04
425.37	691.9
425.746	689.64
426.123	691.45
426.499	729.19
426.875	718.12
427.251	727.16
427.627	727.38
428.003	739.59
428.379	749.3
428.756	761.96
429.132	769.41
429.507	776.19
429.883	767.83
430.259	813.93
430.635	785.01
431.011	806.93
431.387	832.92
431.763	819.13
432.138	853.03
432.514	842.41
432.89	841.96
433.265	863.42
433.641	881.5
434.016	886.47
434.392	886.25
434.767	889.86
435.143	899.58
435.518	905.91
435.894	923.08
436.269	956.75
436.644	940.71
437.02	939.58
437.395	972.35
437.77	969.41
438.145	958.79
438.52	970.77
438.895	1013.7
439.271	995.62
439.646	1005.79
440.021	994.27
440.395	1036.98
440.77	996.75
441.145	1029.07
441.52	1019.35
441.895	1038.11
442.27	1042.63
442.645	1040.37
443.019	1049.41
443.394	1060.48
443.769	1047.6
444.143	1036.3
444.518	1065.68
444.892	1057.77
445.267	1050.76
445.641	1085.11
446.016	1071.55
446.39	1097.32
446.764	1083.76
447.139	1071.33
447.513	1102.74
447.887	1083.76
448.262	1113.81
448.636	1078.79
449.01	1110.2
449.384	1111.1
449.758	1153.59
450.132	1132.12
450.506	1173.92
450.88	1137.99
451.254	1148.16
451.628	1149.29
452.002	1148.61
452.376	1169.86
452.75	1184.09
453.123	1166.01
453.497	1212.79
453.871	1182.96
454.244	1193.13
454.618	1220.48
454.992	1235.84
455.365	1236.52
455.739	1235.39
456.112	1236.3
456.486	1257.09
456.859	1253.02
457.232	1292.56
457.606	1282.4
457.979	1285.33
458.352	1293.92
458.725	1319
459.099	1319.23
459.472	1351.77
459.845	1333.24
460.218	1363.52
460.591	1337.99
460.964	1366.46
461.337	1393.81
461.71	1402.17
462.083	1434.93
462.456	1408.49
462.829	1425.22
463.201	1436.06
463.574	1437.87
463.947	1463.63
464.32	1472.67
464.692	1500.92
465.065	1494.82
465.438	1537.53
465.81	1526.46
466.183	1539.79
466.555	1582.5
466.928	1567.13
467.3	1556.29
467.672	1577.98
468.045	1599.45
468.417	1608.71
468.789	1603.07
469.161	1638.77
469.534	1655.27
469.906	1681.48
470.278	1689.39
470.65	1706.57
471.022	1732.55
471.394	1731.88
471.766	1744.76
472.138	1742.95
472.51	1791.31
472.882	1811.42
473.253	1808.03
473.625	1858.43
473.997	1837.18
474.369	1902.72
474.74	1880.12
475.112	1900.23
475.484	1923.96
475.855	1964.41
476.227	1989.5
476.598	1996.05
476.97	2013.9
477.341	2022.26
477.713	2053
478.084	2078.53
478.455	2107.68
478.827	2121.92
479.198	2182.26
479.569	2208.47
479.94	2222.26
480.311	2221.13
480.682	2261.58
481.053	2340.67
481.424	2340.9
481.795	2356.49
482.166	2383.84
482.537	2407.56
482.908	2408.69
483.279	2440.56
483.65	2456.6
484.021	2537.28
484.391	2567.56
484.762	2544.06
485.133	2549.03
485.503	2586.99
485.874	2653.21
486.244	2656.37
486.615	2691.62
486.985	2727.1
487.356	2757.84
487.726	2766.2
488.097	2850.26
488.467	2831.73
488.837	2878.96
489.207	2906.76
489.578	2941.56
489.948	2942.01
490.318	3021.33
490.688	3007.77
491.058	3039.86
491.428	3023.14
491.798	3094.1
492.168	3137.94
492.538	3134.55
492.908	3149.69
493.278	3191.05
493.648	3216.81
494.017	3188.11
494.387	3234.21
494.757	3271.72
495.126	3310.14
495.496	3294.77
495.866	3342.45
496.235	3313.75
496.605	3378.84
496.974	3380.19
497.344	3398.05
497.713	3436.46
498.082	3455.22
498.452	3475.11
498.821	3488.21
499.19	3466.07
499.559	3525.95
499.928	3518.27
500.298	3536.35
500.667	3605.27
501.036	3531.83
501.405	3605.27
501.774	3626.29
502.143	3655.21
502.512	3643.69
502.88	3687.53
503.249	3638.94
503.618	3667.87
503.987	3677.59
504.356	3765.04
504.724	3718.94
505.093	3714.65
505.462	3743.12
505.83	3743.57
506.199	3791.71
506.567	3821.76
506.936	3758.04
507.304	3838.26
507.672	3862.89
508.041	3845.72
508.409	3832.16
508.777	3907.19
509.145	3922.78
509.514	3899.05
509.882	3934.3
510.25	3927.3
510.618	3920.97
510.986	3933.4
511.354	3972.95
511.722	4001.19
512.09	4005.04
512.458	4028.54
512.826	4028.99
513.193	3986.05
513.561	4026.96
513.929	4078.93
514.297	4126.39
514.664	4090.01
515.032	4090.46
515.4	4103.11
515.767	4122.55
516.135	4083.68
516.502	4147.63
516.869	4174.97
517.237	4181.98
517.604	4150.57
517.972	4217.46
518.339	4222.88
518.706	4249.78
519.073	4206.61
519.44	4210.23
519.808	4283.22
520.175	4225.37
520.542	4327.29
520.909	4300.4
521.276	4296.55
521.643	4283.67
522.009	4337.46
522.376	4332.94
522.743	4352.37
523.11	4388.08
523.477	4472.59
523.843	4410
524.21	4444.35
524.577	4508.3
524.943	4494.06
525.31	4538.58
525.676	4568.41
526.043	4560.05
526.409	4599.6
526.776	4613.16
527.142	4621.52
527.508	4676.66
527.874	4664.45
528.241	4709.88
528.607	4719.59
528.973	4729.08
529.339	4705.81
529.705	4808.86
530.071	4829.87
530.437	4839.14
530.803	4869.19
531.169	4836.2
531.535	4858.8
531.901	4872.58
532.267	4900.15
532.632	4963.65
532.998	4941.51
533.364	4969.3
533.73	4997.1
534.095	4968.63
534.461	4974.5
534.826	5087.95
535.192	5123.65
535.557	5113.48
535.923	5098.57
536.288	5130.2
536.653	5162.97
537.019	5138.57
537.384	5183.31
537.749	5220.15
538.114	5218.56
538.479	5260.14
538.845	5215.17
539.21	5232.57
539.575	5272.57
539.94	5308.73
540.305	5382.85
540.67	5365.45
541.034	5390.99
541.399	5383.53
541.764	5443.64
542.129	5426.47
542.494	5435.73
542.858	5527.26
543.223	5509.63
543.587	5579.01
543.952	5562.74
544.316	5587.14
544.681	5580.36
545.045	5607.48
545.41	5674.37
545.774	5710.98
546.138	5677.31
546.503	5672.79
546.867	5741.49
547.231	5749.17
547.595	5786.46
547.959	5826.91
548.324	5815.38
548.688	5834.37
549.052	5851.77
549.416	5821.26
549.779	5875.72
550.143	5947.81
550.507	5939.67
550.871	5934.93
551.235	6000.92
551.599	5968.37
551.962	5997.98
552.326	5990.29
552.689	6038.43
553.053	6040.69
553.417	6046.56
553.78	6106.68
554.143	6107.81
554.507	6143.06
554.87	6123.17
555.234	6186.67
555.597	6197.29
555.96	6179.89
556.323	6192.78
556.686	6200.23
557.05	6230.51
557.413	6303.28
557.776	6276.84
558.139	6295.82
558.502	6316.84
558.865	6325.88
559.228	6425.54
559.59	6413.79
559.953	6391.64
560.316	6457.63
560.679	6436.61
561.041	6502.82
561.404	6463.5
561.767	6547.34
562.129	6487
562.492	6589.6
562.854	6627.11
563.217	6561.58
563.579	6662.59
563.941	6679.99
564.304	6691.74
564.666	6704.4
565.028	6712.76
565.39	6689.03
565.753	6793.44
566.115	6754.57
566.477	6766.09
566.839	6778.52
567.201	6850.16
567.563	6840.44
567.925	6876.6
568.287	6915.24
568.648	6919.08
569.01	6974.9
569.372	7013.77
569.734	6960.44
570.095	7082.92
570.457	7087.89
570.819	7120.21
571.18	7134.45
571.542	7179.87
571.903	7223.93
572.265	7267.78
572.626	7331.73
572.987	7302.8
573.349	7345.06
573.71	7382.12
574.071	7461.44
574.432	7566.75
574.794	7587.31
575.155	7608.78
575.516	7664.83
575.877	7716.12
576.238	7749.57
576.599	7830.02
576.96	7829.34
577.32	7990.47
577.681	8023.69
578.042	8085.38
578.403	8192.5
578.763	8312.95
579.124	8420.29
579.485	8478.36
579.845	8524.92
580.206	8603.79
580.566	8755.65
580.927	8810.11
581.287	9007.84
581.648	9123.32
582.008	9232.92
582.368	9351.56
582.728	9468.85
583.089	9658.67
583.449	9716.98
583.809	10026.12
584.169	10163.29
584.529	10246
584.889	10503.17
585.249	10629.49
585.609	10697.52
585.969	11029.26
586.329	11191.29
586.688	11416.82
587.048	11593.54
587.408	11771.39
587.768	12059.06
588.127	12267.87
588.487	12429.9
588.846	12804.8
589.206	12925.93
589.565	13197.34
589.925	13434.17
590.284	13667.38
590.643	13924.1
591.003	14196.41
591.362	14541.93
591.721	14697.18
592.08	14964.07
592.44	15279.99
592.799	15532.19
593.158	15850.37
593.517	16138.95
593.876	16516.35
594.235	16585.5
594.593	16958.59
594.952	17218.02
595.311	17467.96
595.67	17870.43
596.029	18228.84
596.387	18482.4
596.746	18740.92
597.104	18927.13
597.463	19289.61
597.822	19682.59
598.18	19804.62
598.538	20120.77
598.897	20507.43
599.255	20546.52
599.613	21068.32
599.972	21305.6
600.33	21698.13
600.688	21794.17
601.046	22165.46
601.404	22483.42
601.762	22672.34
602.12	22932.67
602.478	23302.38
602.836	23457.41
603.194	23533.34
603.552	24043.15
603.91	24106.88
604.268	24523.14
604.625	24688.33
604.983	25002
605.341	25190.92
605.698	25432.04
606.056	25770.57
606.413	25973.72
606.771	26123.32
607.128	26474.73
607.485	26525.35
607.843	26831.1
608.2	27157.87
608.557	27423.18
608.914	27610.52
609.272	27869.49
609.629	28234.91
609.986	28403.26
610.343	28425.18
610.7	28849.13
611.057	29046.64
611.414	29115.34
611.771	29248.67
612.127	29583.12
612.484	29712.61
612.841	29939.5
613.198	30026.27
613.554	30183.1
613.911	30513.49
614.267	30520.95
614.624	30616.99
614.98	30995.06
615.337	31182.4
615.693	31356.63
616.05	31484.77
616.406	31811.08
616.762	31682.27
617.118	31902.38
617.475	31949.16
617.831	32261.92
618.187	32296.5
618.543	32455.81
618.899	32847.44
619.255	32722.92
619.611	32904.62
619.967	33096.25
620.323	33531.72
620.678	33339.63
621.034	33315.23
621.39	33283.36
621.746	33593.86
622.101	34041.99
622.457	33734.42
622.812	33788.89
623.168	34069.56
623.523	34198.82
623.879	34415.76
624.234	34344.58
624.589	34346.61
624.945	34495.99
625.3	34552.26
625.655	34636.77
626.01	34767.62
626.365	34792.93
626.72	34803.55
627.075	34836.99
627.43	34995.41
627.785	34945.92
628.14	35167.83
628.495	35057.1
628.85	35245.12
629.205	35067.04
629.559	35412.8
629.914	35164.44
630.269	35454.15
630.623	35325.12
630.978	35257.1
631.332	35511.78
631.687	35698.21
632.041	35456.64
632.396	35540.03
632.75	35496.86
633.104	35585.9
633.459	35375.06
633.813	35541.38
634.167	35622.06
634.521	35567.6
634.875	35666.8
635.229	35587.03
635.583	35537.31
635.937	35610.53
636.291	35558.78
636.645	35505.68
636.999	35534.6
637.352	35691.89
637.706	35483.76
638.06	35729.63
638.413	35561.72
638.767	35507.48
639.121	35641.49
639.474	35347.26
639.828	35490.99
640.181	35679.91
640.534	35560.14
640.888	35384.55
641.241	35255.74
641.594	35494.15
641.947	35586.58
642.301	35495.73
642.654	35478.78
643.007	35503.64
643.36	35418
643.713	35368.05
644.066	35535.73
644.419	35303.65
644.771	35198.79
645.124	34827.5
645.477	34785.47
645.83	34606.49
646.182	34451.24
646.535	34453.73
646.888	34536.66
647.24	34286.05
647.593	34549.54
647.945	34332.83
648.298	34377.57
648.65	34287.86
649.002	34201.08
649.355	34303.45
649.707	34277.23
650.059	34495.08
650.411	34860.72
650.763	34797.67
651.115	35285.57
651.467	35181.17
651.819	35105.69
652.171	35034.73
652.523	34949.53
652.875	35095.74
653.227	34897.56
653.578	35183.65
653.93	35109.53
654.282	34890.55
654.633	34738.47
654.985	34965.8
655.337	34858.46
655.688	34897.33
656.039	35050.32
656.391	34654.17
656.742	34757.9
657.094	34887.84
657.445	35026.82
657.796	34845.13
658.147	34834.51
658.498	34708.18
658.849	34982.75
659.2	34961.51
659.551	34905.69
659.902	34962.87
660.253	34878.57
660.604	34869.76
660.955	34778.24
661.306	34942.98
661.656	34794.51
662.007	34754.74
662.358	34618.02
662.708	34735.98
663.059	34763.55
663.409	34481.3
663.76	34736.43
664.11	34750.44
664.461	34816.66
664.811	34699.6
665.161	34734.85
665.511	34626.6
665.862	34601.29
666.212	34756.32
666.562	34667.96
666.912	34632.03
667.262	34649.65
667.612	34765.81
667.962	34582.99
668.312	34610.56
668.662	34864.56
669.011	34599.26
669.361	34477.68
669.711	34512.71
670.06	34561.52
670.41	34534.18
670.76	34521.52
671.109	34505.25
671.459	34543.89
671.808	34500.05
672.157	34529.43
672.507	34385.93
672.856	34362.43
673.205	34507.51
673.554	34564.46
673.904	34387.29
674.253	34480.84
674.602	34419.6
674.951	33912.95
675.3	33789.34
675.649	34313.17
675.998	34273.39
676.346	34254.86
676.695	34273.17
677.044	34104.13
677.393	34095.77
677.741	34322.66
678.09	34265.94
678.438	34114.3
678.787	34173.96
679.135	34092.15
679.484	33924.02
679.832	34020.74
680.181	33845.83
680.529	33919.5
680.877	33844.48
681.225	33770.13
681.573	33985.26
681.922	33882.67
682.27	33760.86
682.618	33718.38
682.966	33649.45
683.314	33695.33
683.661	33577.82
684.009	33420.76
684.357	33362.68
684.705	33377.14
685.053	33473.19
685.4	33450.36
685.748	33070.03
686.095	33147.32
686.443	33132.41
686.79	33097.83
687.138	33052.41
687.485	33159.07
687.832	32895.12
688.18	33101.22
688.527	32853.99
688.874	32854.67
689.221	32802.24
689.568	32585.75
689.915	32595.7
690.262	32471.86
690.609	32441.8
690.956	32365.87
691.303	32302.15
691.65	32198.19
691.997	32249.27
692.344	31983.51
692.69	31942.83
693.037	32017.86
693.383	31695.38
693.73	31865.55
694.077	31579.23
694.423	31730.18
694.769	31541.94
695.116	31472.34
695.462	31523.63
695.808	31357.09
696.155	31327.26
696.501	31167.94
696.847	31200.48
697.193	30797.33
697.539	31111.67
697.885	30845.01
698.231	30855.63
698.577	30728.63
698.923	30617.9
699.269	30639.36
699.614	30379.48
699.96	30406.6
700.306	30416.54
700.651	30240.28
700.997	30235.08
701.342	30162.54
701.688	30131.13
702.033	30003.45
702.379	29995.76
702.724	29864.02
703.069	29866.95
703.415	29631.93
703.76	29661.31
704.105	29607.53
704.45	29671.48
704.795	29337.03
705.14	29393.07
705.485	29300.42
705.83	29171.38
706.175	29196.01
706.52	29174.77
706.865	29048.67
707.209	28969.13
707.554	28984.94
707.899	28951.27
708.243	28681.9
708.588	28741.79
708.932	28645.29
709.277	28500.44
709.621	28438.52
709.966	28425.18
710.31	28454.11
710.654	28263.38
710.998	28242.59
711.342	28305.64
711.687	28169.37
712.031	28045.76
712.375	28023.16
712.719	27991.52
713.063	27941.58
713.407	28014.57
713.75	27774.81
714.094	27812.32
714.438	27803.05
714.782	27772.55
715.125	27627.92
715.469	27705.88
715.812	27466.34
716.156	27356.74
716.499	27406.91
716.843	27351.09
717.186	27291.66
717.53	27277.19
717.873	27331.2
718.216	27271.09
718.559	27113.13
718.902	26952.91
719.246	26983.41
719.589	26962.85
719.932	26910.2
720.275	26808.73
720.617	26792.01
720.96	26821.61
721.303	26799.24
721.646	26695.96
721.989	26558.57
722.331	26619.58
722.674	26513.37
723.016	26653.48
723.359	26487.38
723.701	26561.28
724.044	26339.14
724.386	26303.21
724.729	26354.73
725.071	26272.93
725.413	26207.39
725.755	26214.85
726.097	26110.67
726.439	26000.39
726.782	25993.84
727.124	26213.04
727.465	25888.53
727.807	25888.08
728.149	25868.42
728.491	25854.86
728.833	25809.21
729.175	25644.92
729.516	25722.88
729.858	25677.91
730.199	25755.42
730.541	25601.76
730.882	25577.58
731.224	25604.92
731.565	25497.13
731.906	25522.44
732.248	25419.61
732.589	25331.71
732.93	25237.47
733.271	25291.93
733.612	25295.32
733.953	25361.76
734.294	25258.71
734.635	25119.73
734.976	25176.23
735.317	25108.21
735.658	25116.57
735.999	25061.43
736.339	24955.67
736.68	25094.88
737.021	25017.36
737.361	24864.37
737.702	24971.04
738.042	24776.02
738.383	24687.88
738.723	24881.78
739.063	24679.97
739.404	24746.19
739.744	24667.09
740.084	24555
740.424	24518.62
740.764	24612.63
741.104	24610.82
741.444	24468.23
741.784	24468
742.124	24419.64
742.464	24376.25
742.804	24339.42
743.143	24174.45
743.483	24338.51
743.823	24202.7
744.162	24164.05
744.502	24194.11
744.841	24010.39
745.181	24127.9
745.52	24043.38
745.86	24180.1
746.199	23967.67
746.538	24084.28
746.877	24006.32
747.216	23983.27
747.556	23872.31
747.895	23948.69
748.234	23844.29
748.573	23856.94
748.911	23875.47
749.25	23731.07
749.589	23672.32
749.928	23670.73
750.267	23637.74
750.605	23660.34
750.944	23583.05
751.283	23412.21
751.621	23470.74
751.96	23291.08
752.298	23440.68
752.636	23246.11
752.975	23203.4
753.313	23266.68
753.651	23239.11
753.989	23099.9
754.327	23057.42
754.666	22978.32
755.004	22955.05
755.342	23039.79
755.679	22874.37
756.017	22682.06
756.355	22781.04
756.693	22625.79
757.031	22703.98
757.368	22593.47
757.706	22536.75
758.044	22352.8
758.381	22547.37
758.719	22333.14
759.056	22439.58
759.394	22276.65
759.731	22191.22
760.068	22218.34
760.405	22016.31
760.743	22016.77
761.08	21990.33
761.417	21882.08
761.754	21781.74
762.091	21835.98
762.428	21760.28
762.765	21647.06
763.102	21700.84
763.438	21511.92
763.775	21366.16
764.112	21533.61
764.449	21381.53
764.785	21251.14
765.122	21259.72
765.458	21159.39
765.795	21155.77
766.131	21179.95
766.467	20971.37
766.804	20865.16
767.14	20699.29
767.476	20745.61
767.812	20744.03
768.148	20688.44
768.485	20566.63
768.821	20496.81
769.157	20411.84
769.492	20358.28
769.828	20358.28
770.164	20167.32
770.5	20165.97
770.836	20115.12
771.171	20050.49
771.507	20006.42
771.842	19925.75
772.178	19828.57
772.513	19828.8
772.849	19729.14
773.184	19687.79
773.519	19611.18
773.855	19545.87
774.19	19417.51
774.525	19399.21
774.86	19219.33
775.195	19353.33
775.53	19245.31
775.865	19075.37
776.2	19020.69
776.535	18894.14
776.87	18834.48
777.205	18876.28
777.539	18759
777.874	18794.03
778.209	18559.68
778.543	18539.57
778.878	18457.09
779.212	18519.91
779.547	18404.21
779.881	18388.84
780.215	18217.09
780.55	18297.32
780.884	18121.5
781.218	18100.71
781.552	18129.41
781.886	17971.67
782.22	17898.23
782.554	17931.45
782.888	17714.73
783.222	17552.02
783.556	17483.55
783.889	17466.83
784.223	17361.52
784.557	17359.94
784.89	17397.68
785.224	17315.19
785.557	17151.58
785.891	17230.22
786.224	17150.68
786.558	17076.33
786.891	16945.49
787.224	16881.99
787.557	16791.59
787.891	16827.07
788.224	16681.09
788.557	16675.66
788.89	16608.77
789.223	16548.66
789.556	16566.06
789.888	16454.88
790.221	16414.88
790.554	16290.36
790.887	16284.94
791.219	16179.41
791.552	16211.49
791.884	16048.34
792.217	16017.38
792.549	15952.07
792.882	15882.24
793.214	15760.43
793.546	15841.56
793.879	15693.54
794.211	15702.36
794.543	15676.37
794.875	15650.38
795.207	15639.98
795.539	15479.76
795.871	15603.6
796.203	15405.87
796.535	15326.32
796.867	15307.56
797.198	15218.07
797.53	15232.76
797.862	15152.77
798.193	15110.73
798.525	14985.99
798.856	15138.53
799.188	14911.19
799.519	14837.97
799.85	14866.22
800.182	14813.57
800.513	14722.72
800.844	14671.2
801.175	14676.17
801.506	14607.02
801.837	14620.12
802.168	14482.73
802.499	14587.36
802.83	14376.74
803.161	14381.03
803.491	14402.95
803.822	14432.11
804.153	14279.57
804.483	14249.51
804.814	14214.49
805.145	14141.04
805.475	14077.77
805.805	14110.08
806.136	14111.66
806.466	14119.35
806.796	14045.22
807.126	13980.59
807.457	13805.46
807.787	13932.01
808.117	13826.47
808.447	13793.25
808.777	13829.41
809.107	13662.64
809.436	13713.71
809.766	13680.49
810.096	13598.68
810.426	13522.53
810.755	13550.1
811.085	13550.77
811.414	13565.24
811.744	13423.77
812.073	13398.01
812.403	13328.86
812.732	13244.57
813.061	13269.43
813.39	13231.46
813.719	13211.57
814.049	13226.26
814.378	13216.09
814.707	13054.52
815.036	13107.85
815.365	12975.2
815.693	12944.46
816.022	12948.08
816.351	12872.83
816.68	12826.95
817.008	12799.15
817.337	12783.79
817.665	12686.84
817.994	12725.03
818.322	12876.67
818.651	12620.63
818.979	12661.76
819.307	12630.35
819.636	12605.04
819.964	12473.29
820.292	12652.72
820.62	12568.65
820.948	12556.68
821.276	12558.71
821.604	12499.73
821.932	12497.69
822.259	12478.94
822.587	12503.8
822.915	12423.12
823.243	12479.62
823.57	12410.46
823.898	12481.65
824.225	12453.85
824.553	12416.11
824.88	12456.34
825.207	12440.97
825.535	12352.16
825.862	12460.63
826.189	12367.3
826.516	12464.47
826.843	12480.07
827.17	12445.49
827.497	12452.5
827.824	12485.94
828.151	12408.66
828.478	12433.29
828.805	12485.94
829.131	12409.56
829.458	12424.02
829.785	12295.89
830.111	12344.7
830.438	12403.23
830.764	12408.66
831.09	12415.89
831.417	12342.44
831.743	12370.69
832.069	12434.19
832.395	12296.57
832.722	12344.93
833.048	12285.72
833.374	12389.9
833.7	12271.71
834.026	12221.32
834.351	12294.99
834.677	12271.26
835.003	12251.6
835.329	12264.03
835.654	12224.71
835.98	12147.65
836.306	12144.48
836.631	12110.36
836.956	12238.27
837.282	12207.53
837.607	12099.29
837.932	12021.32
838.258	12111.72
838.583	12060.19
838.908	11970.02
839.233	12042.56
839.558	12027.65
839.883	11946.97
840.208	11920.08
840.533	11883.02
840.858	11863.81
841.182	11944.94
841.507	11936.58
841.832	11745.4
842.156	11821.33
842.481	11823.81
842.805	11766.64
843.13	11662.69
843.454	11685.06
843.778	11682.57
844.103	11595.57
844.427	11599.64
844.751	11609.58
845.075	11551.05
845.399	11528.91
845.723	11536.36
846.047	11502.47
846.371	11446.2
846.695	11338.18
847.019	11279.42
847.343	11203.49
847.666	11222.47
847.99	11140.67
848.313	11169.59
848.637	11082.14
848.96	11052.99
849.284	11050.05
849.607	10988.58
849.931	10892.99
850.254	10858.19
850.577	10764.63
850.9	10772.32
851.223	10696.61
851.546	10726.22
851.869	10629.72
852.192	10674.01
852.515	10510.4
852.838	10501.14
853.161	10583.17
853.483	10455.04
853.806	10355.38
854.129	10401.48
854.451	10304.98
854.774	10279.67
855.096	10192.9
855.419	10235.83
855.741	10219.34
856.063	10107.02
856.385	10146.57
856.708	10126
857.03	10047.81
857.352	10020.47
857.674	10009.17
857.996	9970.08
858.318	9957.65
858.64	9938.44
858.961	9943.18
859.283	9893.24
859.605	9846.92
859.926	9868.16
860.248	9821.38
860.57	9739.35
860.891	9750.2
861.212	9723.3
861.534	9759.46
861.855	9705
862.176	9675.62
862.498	9709.74
862.819	9671.55
863.14	9610.76
863.461	9613.25
863.782	9576.19
864.103	9511.78
864.424	9531.67
864.745	9560.82
865.065	9560.6
865.386	9488.73
865.707	9441.96
866.027	9466.81
866.348	9393.14
866.668	9420.71
866.989	9372.58
867.309	9355.4
867.63	9398.34
867.95	9395.63
868.27	9242.86
868.59	9282.41
868.91	9297.55
869.23	9282.41
869.55	9222.07
869.87	9262.75
870.19	9263.88
870.51	9225.92
870.83	9273.6
871.15	9166.93
871.469	9245.8
871.789	9188.63
872.109	9128.97
872.428	9041.29
872.748	9104.11
873.067	9119.7
873.386	9154.51
873.706	9048.52
874.025	9033.38
874.344	9008.97
874.663	9065.02
874.982	8959.48
875.301	8979.82
875.62	9033.83
875.939	8939.14
876.258	8996.32
876.577	8900.95
876.896	8911.57
877.214	8855.08
877.533	8876.55
877.852	8865.93
878.17	8844.46
878.489	8887.62
878.807	8871.35
879.125	8855.08
879.444	8839.49
879.762	8751.58
880.08	8751.8
880.398	8759.04
880.716	8758.81
881.034	8706.38
881.352	8747.96
881.67	8698.92
881.988	8735.08
882.306	8633.39
882.624	8698.25
882.941	8655.31
883.259	8590.45
883.577	8542.77
883.894	8581.19
884.212	8574.18
884.529	8527.4
884.846	8499.38
885.164	8444.92
885.481	8427.29
885.798	8501.64
886.115	8334.19
886.432	8384.36
886.75	8356.56
887.067	8358.59
887.383	8323.11
887.7	8258.48
888.017	8291.7
888.334	8323.79
888.651	8202.67
888.967	8239.73
889.284	8216.68
889.6	8218.03
889.917	8113.63
890.233	8131.48
890.55	8119.73
890.866	8150.01
891.182	8074.08
891.498	8096.23
891.815	8074.99
892.131	7965.61
892.447	7964.03
892.763	7974.65
893.079	8017.13
893.395	7943.46
893.71	7888.78
894.026	7894.2
894.342	7856.01
894.657	7773.98
894.973	7841.77
895.289	7731.72
895.604	7745.28
895.92	7671.83
896.235	7650.59
896.55	7651.04
896.865	7660.53
897.181	7578.05
897.496	7642.23
897.811	7585.73
898.126	7520.42
898.441	7491.95
898.756	7429.13
899.071	7496.47
899.386	7432.97
899.7	7339.64
900.015	7384.38
900.33	7362.91
900.644	7258.74
900.959	7325.63
901.273	7243.14
901.588	7200.43
901.902	7227.55
902.216	7192.3
902.531	7183.48
902.845	7113.2
903.159	7087.21
903.473	7055.13
903.787	7087.44
904.101	6997.27
904.415	7013.54
904.729	6971.06
905.042	6882.02
905.356	6904.17
905.67	6910.04
905.984	6882.25
906.297	6877.95
906.611	6807.67
906.924	6834.34
907.237	6812.65
907.551	6791.4
907.864	6779.65
908.177	6714.57
908.491	6687.45
908.804	6673.44
909.117	6554.8
909.43	6591.41
909.743	6598.87
910.056	6568.81
910.368	6554.57
910.681	6454.69
910.994	6456.04
911.307	6399.1
911.619	6369.95
911.932	6436.16
912.244	6358.87
912.557	6360.23
912.869	6300.79
913.181	6315.03
913.494	6309.83
913.806	6265.77
914.118	6236.62
914.43	6242.27
914.742	6195.26
915.054	6107.13
915.366	6104.42
915.678	6071.42
915.99	6081.14
916.302	6030.97
916.613	5995.94
916.925	5992.33
917.236	5939.22
917.548	5999.11
917.859	5986.23
918.171	5900.58
918.482	5872.33
918.794	5804.31
919.105	5881.14
919.416	5800.02
919.727	5773.35
920.038	5741.94
920.349	5726.8
920.66	5669.85
920.971	5727.25
921.282	5719.12
921.593	5603.64
921.903	5616.07
922.214	5574.71
922.525	5574.71
922.835	5572.68
923.146	5530.19
923.456	5497.88
923.767	5485.45
924.077	5483.42
924.387	5450.87
924.697	5449.74
925.008	5427.6
925.318	5353.93
925.628	5329.97
925.938	5321.16
926.248	5313.48
926.558	5243.65
926.867	5298.11
927.177	5236.64
927.487	5221.73
927.796	5172.69
928.106	5157.1
928.416	5168.17
928.725	5099.7
929.034	5094.05
929.344	5093.37
929.653	5089.3
929.962	5010.89
930.271	5002.98
930.581	4974.5
930.89	4954.39
931.199	4999.36
931.508	4887.72
931.817	4929.53
932.125	4950.32
932.434	4927.95
932.743	4851.79
933.051	4817.9
933.36	4816.77
933.669	4765.69
933.977	4762.08
934.286	4786.71
934.594	4717.56
934.902	4689.31
935.21	4722.53
935.519	4683.66
935.827	4639.82
936.135	4663.78
936.443	4560.05
936.751	4570.44
937.059	4589.88
937.367	4528.86
937.674	4510.79
937.982	4522.54
938.29	4507.17
938.597	4512.59
938.905	4448.64
939.213	4398.25
939.52	4392.82
939.827	4395.08
940.135	4382.43
940.442	4316.21
940.749	4358.25
941.056	4310.34
941.363	4308.53
941.67	4276.67
941.977	4231.92
942.284	4221.98
942.591	4263.79
942.898	4206.61
943.205	4207.74
943.511	4190.12
943.818	4176.1
944.125	4125.26
944.431	4121.64
944.738	4077.35
945.044	4071.47
945.35	4045.26
945.657	4056.33
945.963	4046.62
946.269	4027.63
946.575	4010.69
946.881	3988.77
947.187	3993.51
947.493	3985.38
947.799	3952.38
948.105	3928.2
948.41	3888.65
948.716	3882.78
949.022	3904.47
949.327	3880.07
949.633	3790.35
949.938	3841.2
950.244	3833.74
950.549	3796.91
950.854	3734.99
951.16	3784.25
951.465	3729.56
951.77	3701.32
952.075	3687.3
952.38	3708.32
952.685	3665.61
952.99	3644.37
953.294	3673.75
953.599	3619.51
953.904	3579.06
954.209	3567.53
954.513	3555.1
954.818	3583.13
955.122	3582.45
955.426	3515.11
955.731	3506.74
956.035	3504.71
956.339	3489.12
956.643	3483.47
956.948	3424.49
957.252	3469.23
957.556	3407.54
957.86	3384.71
958.163	3428.33
958.467	3429.46
958.771	3372.06
959.075	3354.21
959.378	3365.96
959.682	3325.73
959.985	3280.31
960.289	3305.39
960.592	3292.96
960.896	3299.52
961.199	3233.3
961.502	3230.82
961.805	3207.77
962.108	3204.38
962.411	3220.88
962.714	3210.48
963.017	3193.98
963.32	3174.1
963.623	3131.61
963.926	3129.13
964.228	3127.77
964.531	3109.24
964.833	3087.77
965.136	3079.64
965.438	3082.57
965.741	3068.56
966.043	3023.14
966.345	3003.71
966.648	2980.2
966.95	3003.48
967.252	2940.88
967.554	2943.59
967.856	2981.56
968.158	2944.5
968.46	2936.14
968.761	2946.53
969.063	2959.64
969.365	2899.08
969.666	2894.56
969.968	2882.58
970.269	2863.6
970.571	2847.33
970.872	2859.98
971.174	2798.51
971.475	2803.94
971.776	2825.63
972.077	2801.9
972.378	2816.59
972.679	2777.05
972.98	2728.91
973.281	2744.28
973.582	2745.18
973.883	2725.97
974.183	2731.85
974.484	2758.29
974.785	2701.57
975.085	2713.54
975.386	2666.54
975.686	2676.48
975.986	2586.32
976.287	2639.2
976.587	2606.43
976.887	2619.54
977.187	2604.17
977.487	2594.45
977.787	2599.88
978.087	2562.81
978.387	2532.53
978.687	2557.16
978.987	2532.98
979.286	2502.48
979.586	2509.26
979.885	2501.35
980.185	2503.83
980.484	2462.7
980.784	2507
981.083	2473.32
981.382	2456.6
981.682	2417.51
981.981	2407.34
982.28	2414.8
982.579	2379.09
982.878	2381.8
983.177	2361.24
983.475	2356.94
983.774	2368.69
984.073	2359.2
984.372	2362.82
984.67	2319.88
984.969	2346.32
985.267	2347.9
985.566	2319.2
985.864	2355.59
986.162	2292.99
986.461	2255.48
986.759	2251.41
987.057	2259.55
987.355	2199.21
987.653	2208.25
987.951	2199.21
988.249	2199.43
988.547	2216.16
988.844	2185.65
989.142	2190.39
989.44	2190.62
989.737	2184.74
990.035	2128.02
990.332	2139.32
990.63	2110.17
990.927	2138.42
991.224	2126.22
991.521	2097.52
991.819	2109.04
992.116	2044.18
992.413	2106.1
992.71	2068.59
993.006	2061.13
993.303	2059.55
993.6	2025.88
993.897	2027.46
994.193	2011.64
994.49	2051.87
994.787	1994.02
995.083	1998.99
995.379	1956.28
995.676	1976.61
995.972	1965.99
996.268	1932.32
996.565	1912.44
996.861	1948.82
997.157	1923.28
997.453	1903.85
997.749	1923.73
998.044	1921.93
998.34	1893
998.636	1888.26
998.932	1855.94
999.227	1840.35
999.523	1838.09
999.818	1827.47
1000.114	1843.06
1000.409	1811.87
1000.704	1792.66
1001	1815.49
1001.295	1756.96
1001.59	1764.19
1001.885	1782.5
1002.18	1755.38
1002.475	1772.33
1002.77	1762.84
1003.065	1747.47
1003.359	1748.37
1003.654	1747.02
1003.949	1727.13
1004.243	1706.57
1004.538	1677.41
1004.832	1711.76
1005.127	1669.5
1005.421	1679.67
1005.715	1664.53
1006.009	1653.46
1006.304	1681.03
1006.598	1601.03
1006.892	1615.95
1007.186	1608.71
1007.48	1610.52
1007.773	1590.86
1008.067	1585.66
1008.361	1585.21
1008.655	1581.37
1008.948	1552.67
1009.242	1555.61
1009.535	1526.23
1009.829	1548.15
1010.122	1532.78
1010.415	1543.63
1010.708	1514.48
1011.001	1492.11
1011.295	1500.7
1011.588	1462.28
1011.881	1475.84
1012.173	1466.57
1012.466	1491.88
1012.759	1440.58
1013.052	1455.72
1013.344	1422.05
1013.637	1430.19
1013.93	1426.12
1014.222	1424.09
1014.514	1417.99
1014.807	1382.28
1015.099	1368.72
1015.391	1371.43
1015.683	1376.63
1015.976	1366.46
1016.268	1354.26
1016.56	1344.09
1016.851	1324.65
1017.143	1313.36
1017.435	1350.19
1017.727	1327.59
1018.018	1312.9
1018.31	1297.76
1018.602	1299.8
1018.893	1320.59
1019.185	1273.81
1019.476	1258.44
1019.767	1246.92
1020.058	1255.28
1020.35	1248.27
1020.641	1239.23
1020.932	1257.54
1021.223	1221.83
1021.514	1229.29
1021.804	1197.43
1022.095	1184.55
1022.386	1225.9
1022.677	1197.88
1022.967	1202.4
1023.258	1168.27
1023.548	1171.44
1023.839	1171.89
1024.129	1197.2
1024.419	1155.39
1024.709	1149.52
1025	1150.65
1025.29	1118.33
1025.58	1117.43
1025.87	1091.89
1026.16	1107.49
1026.449	1116.52
1026.739	1091.44
1027.029	1088.5
1027.319	1085.79
1027.608	1061.16
1027.898	1089.41
1028.187	1047.83
1028.477	1034.94
1028.766	1024.55
1029.055	1009.41
1029.344	1037.2
1029.634	1037.66
1029.923	1016.87
1030.212	1029.07
1030.501	1003.98
1030.79	987.04
1031.078	996.53
1031.367	997.21
1031.656	975.06
1031.945	990.88
1032.233	975.96
1032.522	945.68
1032.81	961.5
1033.099	978.22
1033.387	959.69
1033.675	924.89
1033.963	920.37
1034.251	949.3
1034.54	909.52
1034.828	913.14
1035.116	916.08
1035.403	899.13
1035.691	895.97
1035.979	883.31
1036.267	900.71
1036.554	883.76
1036.842	844.67
1037.129	886.47
1037.417	867.94
1037.704	883.31
1037.992	855.51
1038.279	844.67
1038.566	841.28
1038.853	841.28
1039.14	841.28
