Data from hue_120_FLMS001491_00015.txt Node
Date: Tue Feb 07 16:59:00 GMT 2017
User: dcchb
Spectrometer: FLMS00149
Trigger mode: 0
Integration Time (sec): 2.000000E-2
Scans to average: 10
Electric dark correction enabled: true
Nonlinearity correction enabled: false
Boxcar width: 0
XAxis mode: Wavelengths
Number of Pixels in Spectrum: 2048
>>>>>Begin Spectral Data<<<<<
341.393	-20.23
341.776	-20.23
342.16	-20.23
342.543	-82.37
342.927	-66.33
343.31	-61.81
343.693	-79.43
344.077	-44.41
344.46	-73.56
344.843	-63.84
345.226	-32.43
345.61	-35.82
345.993	-31.75
346.376	0.34
346.759	18.87
347.142	24.07
347.525	43.95
347.908	52.54
348.291	62.71
348.674	98.42
349.057	122.14
349.44	121.69
349.823	146.78
350.206	174.57
350.588	202.37
350.971	217.96
351.354	218.86
351.737	221.8
352.119	259.54
352.502	263.61
352.884	270.61
353.267	294.34
353.65	278.52
354.032	313.33
354.414	300.9
354.797	320.56
355.179	300.9
355.562	326.43
355.944	311.07
356.326	329.14
356.709	341.8
357.091	334.57
357.473	344.28
357.855	342.25
358.238	347.45
358.62	341.12
359.002	332.31
359.384	354.45
359.766	329.82
360.148	342.93
360.53	326.66
360.912	350.16
361.294	333.89
361.676	347.9
362.057	323.95
362.439	347.22
362.821	339.99
363.203	344.28
363.584	338.64
363.966	314.68
364.348	313.1
364.729	339.09
365.111	353.32
365.493	331.63
365.874	333.21
366.256	309.48
366.637	323.72
367.019	308.13
367.4	333.89
367.781	302.93
368.163	301.8
368.544	325.53
368.925	321.46
369.306	338.86
369.688	328.92
370.069	323.95
370.45	320.33
370.831	326.43
371.212	305.19
371.593	319.43
371.974	327.11
372.355	318.07
372.736	323.49
373.117	296.83
373.498	321.91
373.879	325.75
374.26	324.85
374.641	326.21
375.021	311.52
375.402	317.39
375.783	325.3
376.163	329.82
376.544	321.69
376.925	344.06
377.305	332.53
377.686	318.52
378.066	326.88
378.447	327.79
378.827	320.33
379.208	330.5
379.588	313.78
379.968	360.1
380.349	327.34
380.729	337.73
381.109	339.31
381.489	348.8
381.87	329.14
382.25	346.54
382.63	355.58
383.01	335.92
383.39	339.54
383.77	362.59
384.15	353.78
384.53	346.77
384.91	334.12
385.29	356.71
385.67	348.8
386.049	352.42
386.429	357.84
386.809	372.08
387.189	348.8
387.568	358.75
387.948	361.01
388.328	372.31
388.707	346.09
389.087	388.13
389.466	366.43
389.846	360.78
390.225	367.79
390.605	397.16
390.984	380.44
391.363	357.84
391.743	374.79
392.122	387.45
392.501	396.03
392.881	379.09
393.26	393.1
393.639	400.55
394.018	393.32
394.397	390.61
394.776	375.24
395.155	403.27
395.534	392.19
395.913	398.52
396.292	389.71
396.671	408.46
397.05	399.42
397.429	400.33
397.808	402.14
398.186	398.75
398.565	412.08
398.944	418.41
399.323	403.72
399.701	415.24
400.08	433.1
400.458	410.95
400.837	411.4
401.215	422.7
401.594	434.45
401.972	410.72
402.351	446.2
402.729	448.46
403.107	424.28
403.486	426.54
403.864	432.19
404.242	438.97
404.62	444.62
404.999	424.28
405.377	430.16
405.755	437.62
406.133	450.95
406.511	453.89
406.889	454.11
407.267	447.78
407.645	456.82
408.023	458.63
408.401	455.69
408.779	471.74
409.156	481
409.534	485.3
409.912	476.26
410.29	490.95
410.667	497.5
411.045	505.64
411.422	496.15
411.8	482.81
412.178	502.92
412.555	501.34
412.933	506.99
413.31	524.84
413.687	504.05
414.065	548.35
414.442	537.73
414.819	526.2
415.197	519.87
415.574	523.72
415.951	535.24
416.328	555.8
416.705	565.97
417.082	530.49
417.46	549.25
417.837	559.65
418.214	545.86
418.591	582.47
418.967	585.18
419.344	562.13
419.721	573.21
420.098	545.64
420.475	583.37
420.852	576.82
421.228	585.86
421.605	609.81
421.982	594.22
422.358	594.9
422.735	595.35
423.111	589.25
423.488	606.42
423.864	610.49
424.241	605.97
424.617	619.76
424.994	633.32
425.37	633.77
425.746	635.58
426.123	620.89
426.499	623.6
426.875	653.2
427.251	657.72
427.627	670.15
428.003	669.93
428.379	647.78
428.756	682.35
429.132	698.17
429.507	678.74
429.883	692.07
430.259	721.9
430.635	728
431.011	702.69
431.387	728.46
431.763	720.55
432.138	746.76
432.514	747.44
432.89	748.12
433.265	744.05
433.641	731.39
434.016	743.82
434.392	766.65
434.767	754.9
435.143	782.24
435.518	785.18
435.894	810.71
436.269	799.87
436.644	810.26
437.02	820.2
437.395	827.66
437.77	865.63
438.145	832.63
438.52	826.76
438.895	831.96
439.271	855.68
439.646	872.86
440.021	880.54
440.395	885.97
440.77	873.99
441.145	897.04
441.52	939.52
441.895	872.41
442.27	904.5
442.645	904.72
443.019	919.18
443.394	899.3
443.769	920.09
444.143	909.92
444.518	943.14
444.892	936.13
445.267	960.77
445.641	944.27
446.016	963.25
446.39	954.66
446.764	973.42
447.139	972.74
447.513	994.66
447.887	992.4
448.262	976.36
448.636	977.49
449.01	1043.25
449.384	1027.43
449.758	1015.23
450.132	1057.26
450.506	1034.66
450.88	1057.49
451.254	1053.64
451.628	1073.53
452.002	1079.63
452.376	1094.32
452.75	1075.11
453.123	1120.99
453.497	1127.31
453.871	1125.06
454.244	1137.48
454.618	1176.58
454.992	1153.08
455.365	1168.22
455.739	1190.14
456.112	1229.69
456.486	1213.41
456.859	1218.84
457.232	1277.82
457.606	1277.59
457.979	1290.93
458.352	1300.19
458.725	1306.97
459.099	1336.58
459.472	1344.94
459.845	1338.61
460.218	1349.46
460.591	1395.1
460.964	1361.43
461.337	1391.26
461.71	1412.28
462.083	1444.59
462.456	1478.49
462.829	1463.8
463.201	1523.46
463.574	1519.85
463.947	1515.33
464.32	1572.95
464.692	1579.96
465.065	1608.21
465.438	1616.34
465.81	1664.93
466.183	1696.34
466.555	1678.71
466.928	1694.31
467.3	1758.48
467.672	1786.05
468.045	1808.65
468.417	1812.95
468.789	1866.05
469.161	1878.03
469.534	1884.36
469.906	1947.41
470.278	1952.83
470.65	1980.85
471.022	2032.38
471.394	2066.95
471.766	2123
472.138	2109.66
472.51	2235.08
472.882	2220.39
473.253	2300.17
473.625	2349.2
473.997	2398.47
474.369	2407.96
474.74	2495.19
475.112	2512.36
475.484	2585.81
475.855	2706.48
476.227	2691.79
476.598	2833.03
476.97	2833.26
477.341	2900.38
477.713	3017.21
478.084	3030.77
478.455	3133.59
478.827	3206.81
479.198	3312.79
479.569	3379.01
479.94	3477.54
480.311	3515.73
480.682	3646.8
481.053	3770.86
481.424	3876.17
481.795	3966.11
482.166	4058.99
482.537	4132.43
482.908	4263.73
483.279	4307.57
483.65	4428.92
484.021	4599.31
484.391	4704.4
484.762	4803.38
485.133	4904.84
485.503	5030.49
485.874	5147.55
486.244	5255.79
486.615	5430.7
486.985	5513.64
487.356	5743.01
487.726	5824.82
488.097	5996.11
488.467	6092.83
488.837	6255.32
489.207	6389.32
489.578	6566.27
489.948	6614.63
490.318	6757
490.688	6917.67
491.058	7085.12
491.428	7217.32
491.798	7372.35
492.168	7610.31
492.538	7699.12
492.908	7903.63
493.278	8018.21
493.648	8092.1
494.017	8289.61
494.387	8481.7
494.757	8588.36
495.126	8694.35
495.496	8741.35
495.866	8876.04
496.235	9062.93
496.605	9237.61
496.974	9337.72
497.344	9447.77
497.713	9528.45
498.082	9715.79
498.452	9876.01
498.821	9909.91
499.19	9966.18
499.559	10138.15
499.928	10259.5
500.298	10321.42
500.667	10465.6
501.036	10511.02
501.405	10707.63
501.774	10738.81
502.143	10917.11
502.512	10981.97
502.88	11073.49
503.249	11171.34
503.618	11298.35
503.987	11333.15
504.356	11426.25
504.724	11569.3
505.093	11574.95
505.462	11669.41
505.83	11712.35
506.199	11813.59
506.567	12047.71
506.936	12012.23
507.304	12171.32
507.672	12237.31
508.041	12255.61
508.409	12288.38
508.777	12481.14
509.145	12518.2
509.514	12505.09
509.882	12665.09
510.25	12742.83
510.618	12814.92
510.986	12849.94
511.354	12982.82
511.722	13086.55
512.09	13089.03
512.458	13103.27
512.826	13292.42
513.193	13237.96
513.561	13331.51
513.929	13371.06
514.297	13503.26
514.664	13587.78
515.032	13547.33
515.4	13698.74
515.767	13678.85
516.135	13763.82
516.502	13623.03
516.869	13875
517.237	13920.42
517.604	13861.9
517.972	13949.35
518.339	13992.29
518.706	13977.6
519.073	13997.26
519.44	14078.16
519.808	14199.74
520.175	14167.2
520.542	14354.09
520.909	14367.64
521.276	14332.84
521.643	14351.15
522.009	14456
522.376	14569.9
522.743	14522.89
523.11	14685.6
523.477	14792.94
523.843	14719.27
524.21	14856.9
524.577	14933.51
524.943	14842.43
525.31	14930.79
525.676	15064.58
526.043	15024.8
526.409	15105.03
526.776	15110.45
527.142	15072.94
527.508	15203.56
527.874	15215.08
528.241	15139.83
528.607	15276.55
528.973	15333.5
529.339	15195.65
529.705	15344.79
530.071	15437.45
530.437	15408.52
530.803	15360.84
531.169	15427.73
531.535	15390.44
531.901	15411.23
532.267	15346.83
532.632	15491.91
532.998	15364.23
533.364	15382.31
533.73	15443.1
534.095	15548.63
534.461	15428.86
534.826	15439.71
535.192	15463.66
535.557	15500.04
535.923	15424.79
536.288	15409.2
536.653	15398.13
537.019	15338.24
537.384	15366.49
537.749	15327.85
538.114	15395.19
538.479	15296.66
538.845	15342.99
539.21	15159.04
539.575	15242.88
539.94	15234.97
540.305	15311.57
540.67	15188.87
541.034	15162.88
541.399	15155.87
541.764	15114.52
542.129	15165.14
542.494	15048.98
542.858	15070.9
543.223	15068.42
543.587	15084.46
543.952	14935.99
544.316	15043.33
544.681	14907.29
545.045	15000.85
545.41	14882.43
545.774	14887.41
546.138	14874.07
546.503	14841.76
546.867	14745.94
547.231	14904.13
547.595	14758.82
547.959	14797.24
548.324	14656.45
548.688	14622.1
549.052	14641.54
549.416	14683.12
549.779	14641.99
550.143	14606.96
550.507	14594.08
550.871	14642.89
551.235	14536.91
551.599	14608.09
551.962	14486.06
552.326	14496
552.689	14554.08
553.053	14436.34
553.417	14459.17
553.78	14553.63
554.143	14435.89
554.507	14329
554.87	14406.74
555.234	14486.06
555.597	14314.76
555.96	14380.75
556.323	14378.27
556.686	14401.54
557.05	14384.37
557.413	14382.79
557.776	14367.42
558.139	14369.45
558.502	14367.87
558.865	14309.12
559.228	14385.5
559.59	14416.23
559.953	14380.98
560.316	14476.12
560.679	14374.42
561.041	14365.16
561.404	14491.03
561.767	14486.74
562.129	14319.06
562.492	14464.59
562.854	14437.93
563.217	14432.05
563.579	14445.83
563.941	14491.48
564.304	14528.09
564.666	14559.96
565.028	14628.2
565.39	14538.26
565.753	14538.94
566.115	14543.69
566.477	14621.42
566.839	14683.79
567.201	14699.84
567.563	14621.88
567.925	14687.41
568.287	14716.11
568.648	14693.06
569.01	14753.85
569.372	14848.31
569.734	14753.17
570.095	14849.67
570.457	14852.15
570.819	14833.85
571.18	14869.55
571.542	14867.97
571.903	14830.46
572.265	14919.49
572.626	14879.27
572.987	14951.58
573.349	15059.15
573.71	14980.96
574.071	14991.13
574.432	15030
574.794	15084.91
575.155	15081.75
575.516	15014.63
575.877	15053.95
576.238	15077.46
576.599	15167.62
576.96	15069.32
577.32	15075.42
577.681	15089.66
578.042	15169.21
578.403	15135.53
578.763	15145.48
579.124	15120.85
579.485	15157.91
579.845	15225.02
580.206	15211.01
580.566	15113.61
580.927	15175.53
581.287	15213.95
581.648	15141.18
582.008	15178.02
582.368	15062.77
582.728	15124.91
583.089	15097.57
583.449	15134.4
583.809	15157.23
584.169	15150.45
584.529	15120.17
584.889	15173.27
585.249	15080.39
585.609	15090.34
585.969	15117.68
586.329	14973.5
586.688	15024.8
587.048	15045.82
587.408	14949.32
587.768	15048.98
588.127	15026.16
588.487	15020.96
588.846	15047.85
589.206	14932.15
589.565	15006.05
589.925	14998.59
590.284	14923.11
590.643	15083.78
591.003	14998.81
591.362	15036.1
591.721	15015.31
592.08	14968.98
592.44	15000.85
592.799	14927.63
593.158	14905.71
593.517	14840.63
593.876	14975.76
594.235	14884.69
594.593	14945.93
594.952	14879.95
595.311	14891.47
595.67	14897.8
596.029	15013.05
596.387	15008.08
596.746	15004.01
597.104	14929.21
597.463	14880.4
597.822	14855.54
598.18	14821.19
598.538	14836.11
598.897	14910.46
599.255	14748.43
599.613	14959.72
599.972	14802.66
600.33	14904.81
600.688	14864.58
601.046	14917.46
601.404	14968.76
601.762	14874.3
602.12	14994.52
602.478	14973.5
602.836	14943.22
603.194	14937.35
603.552	14956.56
603.91	14888.31
604.268	14992.94
604.625	14924.24
604.983	14990.45
605.341	14873.85
605.698	14982.77
606.056	14950.45
606.413	14934.64
606.771	14944.8
607.128	14968.08
607.485	14841.76
607.843	14877.91
608.2	14997.91
608.557	14959.72
608.914	14945.93
609.272	14930.34
609.629	15027.97
609.986	15030.23
610.343	14991.81
610.7	15065.48
611.057	15031.58
611.414	14985.03
611.771	15082.2
612.127	15083.78
612.484	15115.65
612.841	15229.32
613.198	15090.34
613.554	15119.26
613.911	15276.1
614.267	15222.31
614.624	15114.52
614.98	15169.21
615.337	15271.58
615.693	15240.62
616.05	15236.1
616.406	15306.15
616.762	15189.77
617.118	15230.9
617.475	15257.34
617.831	15299.15
618.187	15364.45
618.543	15326.94
618.899	15371.23
619.255	15302.08
619.611	15258.24
619.967	15429.76
620.323	15373.95
620.678	15381.4
621.034	15367.39
621.39	15320.61
621.746	15280.16
622.101	15443.1
622.457	15381.86
622.812	15372.82
623.168	15368.97
623.523	15464.34
623.879	15385.7
624.234	15321.29
624.589	15352.93
624.945	15396.77
625.3	15433.61
625.655	15362.65
626.01	15420.72
626.365	15392.48
626.72	15337.56
627.075	15398.35
627.43	15294.85
627.785	15389.99
628.14	15425.47
628.495	15362.87
628.85	15323.78
629.205	15359.03
629.559	15345.92
629.914	15262.99
630.269	15235.42
630.623	15256.89
630.978	15241.07
631.332	15282.42
631.687	15346.15
632.041	15249.43
632.396	15262.99
632.75	15225.02
633.104	15172.6
633.459	15037.91
633.813	15081.07
634.167	15122.65
634.521	15133.27
634.875	15146.83
635.229	15102.77
635.583	15125.37
635.937	15023.67
636.291	14978.25
636.645	15023.45
636.999	14927.4
637.352	15041.98
637.706	14922.21
638.06	15050.56
638.413	14937.8
638.767	14828.65
639.121	14950.91
639.474	14864.35
639.828	14886.05
640.181	14827.52
640.534	14920.17
640.888	14808.54
641.241	14789.1
641.594	14751.82
641.947	14857.58
642.301	14802.66
642.654	14742.78
643.007	14795.43
643.36	14775.32
643.713	14776.22
644.066	14718.37
644.419	14668.2
644.771	14591.59
645.124	14489.9
645.477	14466.4
645.83	14307.99
646.182	14268.21
646.535	14193.86
646.888	14202.23
647.24	14184.15
647.593	14300.53
647.945	14205.16
648.298	14132.17
648.65	14119.97
649.002	14026.18
649.355	14196.35
649.707	14123.13
650.059	14209.23
650.411	14364.71
650.763	14331.49
651.115	14602.67
651.467	14506.62
651.819	14549.33
652.171	14451.03
652.523	14450.35
652.875	14415.1
653.227	14398.83
653.578	14476.57
653.93	14507.3
654.282	14512.05
654.633	14464.14
654.985	14523.8
655.337	14412.16
655.688	14450.35
656.039	14538.26
656.391	14350.02
656.742	14450.13
657.094	14386.85
657.445	14526.51
657.796	14528.32
658.147	14522.67
658.498	14503.91
658.849	14538.04
659.2	14439.28
659.551	14386.4
659.902	14475.66
660.253	14529
660.604	14469.56
660.955	14376.68
661.306	14484.48
661.656	14437.47
662.007	14505.49
662.358	14417.36
662.708	14502.78
663.059	14516.12
663.409	14424.14
663.76	14597.47
664.11	14431.82
664.461	14606.28
664.811	14535.1
665.161	14421.43
665.511	14509.79
665.862	14441.32
666.212	14540.97
666.562	14618.03
666.912	14580.07
667.262	14463.24
667.612	14512.5
667.962	14537.58
668.312	14431.6
668.662	14658.94
669.011	14533.06
669.361	14513.86
669.711	14415.78
670.06	14458.94
670.41	14490.13
670.76	14481.54
671.109	14520.18
671.459	14453.97
671.808	14447.19
672.157	14566.74
672.507	14422.56
672.856	14492.61
673.205	14466.17
673.554	14454.42
673.904	14421.88
674.253	14449.45
674.602	14380.53
674.951	14183.02
675.3	14152.06
675.649	14273.86
675.998	14321.77
676.346	14251.26
676.695	14330.81
677.044	14223.24
677.393	14265.27
677.741	14354.31
678.09	14213.52
678.438	14154.77
678.787	14133.98
679.135	14178.5
679.484	14131.04
679.832	14161.32
680.181	14085.62
680.529	14143.47
680.877	13991.16
681.225	14020.08
681.573	14135.33
681.922	14053.3
682.27	13895.34
682.618	13923.36
682.966	13873.87
683.314	13920.88
683.661	13909.58
684.009	13904.38
684.357	13811.95
684.705	13725.18
685.053	13799.75
685.4	13779.41
685.748	13670.26
686.095	13737.6
686.443	13639.53
686.79	13609.7
687.138	13630.94
687.485	13678.85
687.832	13530.15
688.18	13507.55
688.527	13439.76
688.874	13473.88
689.221	13329.25
689.568	13390.04
689.915	13352.76
690.262	13295.36
690.609	13323.38
690.956	13200.22
691.303	13277.05
691.65	13149.6
691.997	13194.12
692.344	13027.79
692.69	13020.34
693.037	12959.09
693.383	12888.36
693.73	12968.81
694.077	12891.53
694.423	12851.53
694.769	12780.12
695.116	12756.16
695.462	12758.87
695.808	12703.28
696.155	12697.86
696.501	12535.83
696.847	12618.54
697.193	12427.13
697.539	12543.29
697.885	12390.97
698.231	12355.04
698.577	12280.02
698.923	12399.33
699.269	12241.15
699.614	12255.61
699.96	12054.94
700.306	12101.26
700.651	12066.46
700.997	12077.99
701.342	12032.11
701.688	11978.1
702.033	11872.8
702.379	11903.08
702.724	11856.98
703.069	11858.56
703.415	11735.62
703.76	11672.8
704.105	11780.14
704.45	11656.3
704.795	11597.77
705.14	11596.64
705.485	11612.01
705.83	11442.07
706.175	11535.18
706.52	11448.85
706.865	11433.26
707.209	11366.82
707.554	11334.28
707.899	11332.24
708.243	11228.29
708.588	11265.58
708.932	11139.93
709.277	11183.55
709.621	11135.41
709.966	11114.85
710.31	11092.93
710.654	11026.26
710.998	10977
711.342	10998.69
711.687	10971.12
712.031	10928.19
712.375	10913.5
712.719	10924.35
713.063	10974.97
713.407	10897.91
713.75	10828.53
714.094	10844.8
714.438	10814.29
714.782	10831.47
715.125	10700.85
715.469	10745.59
715.812	10788.53
716.156	10643.67
716.499	10680.51
716.843	10658.59
717.186	10562.77
717.53	10640.74
717.873	10648.42
718.216	10605.94
718.559	10544.24
718.902	10561.64
719.246	10577.69
719.589	10459.27
719.932	10419.73
720.275	10474.87
720.617	10463.57
720.96	10487.07
721.303	10410.91
721.646	10464.7
721.989	10418.14
722.331	10411.59
722.674	10337.92
723.016	10416.34
723.359	10442.55
723.701	10370.46
724.044	10305.15
724.386	10284.14
724.729	10351.25
725.071	10288.43
725.413	10326.62
725.755	10224.48
726.097	10210.47
726.439	10215.21
726.782	10163.01
727.124	10239.62
727.465	10176.34
727.807	10214.08
728.149	10177.92
728.491	10220.64
728.833	10234.42
729.175	10161.65
729.516	10169.79
729.858	10168.43
730.199	10153.52
730.541	10074.2
730.882	10106.06
731.224	10222.44
731.565	10073.75
731.906	10121.43
732.248	10130.02
732.589	10092.73
732.93	10027.19
733.271	10010.25
733.612	10072.16
733.953	10131.37
734.294	10030.81
734.635	10012.05
734.976	10113.52
735.317	10076.91
735.658	10088.44
735.999	10076.01
736.339	10094.99
736.68	10129.34
737.021	10024.26
737.361	9993.3
737.702	10155.55
738.042	10038.72
738.383	10092.28
738.723	10054.99
739.063	10024.93
739.404	10157.36
739.744	10110.13
740.084	10159.62
740.424	10150.81
740.764	10159.17
741.104	10207.3
741.444	10113.75
741.784	10091.15
742.124	10087.76
742.464	10191.03
742.804	10184.93
743.143	10141.54
743.483	10263.57
743.823	10243.23
744.162	10266.51
744.502	10380.41
744.841	10281.2
745.181	10470.12
745.52	10377.47
745.86	10430.35
746.199	10470.8
746.538	10543.11
746.877	10593.05
747.216	10559.16
747.556	10668.99
747.895	10662.88
748.234	10675.54
748.573	10680.51
748.911	10756.21
749.25	10847.74
749.589	10874.4
749.928	10936.1
750.267	10971.58
750.605	11016.55
750.944	11214.28
751.283	11154.85
751.621	11365.69
751.96	11376.99
752.298	11451.79
752.636	11611.11
752.975	11648.62
753.313	11690.88
753.651	11792.8
753.989	11878.67
754.327	12009.97
754.666	12073.02
755.004	12279.56
755.342	12355.49
755.679	12496.51
756.017	12580.57
756.355	12666.45
756.693	12895.82
757.031	13077.51
757.368	13175.59
757.706	13277.28
758.044	13470.49
758.381	13649.92
758.719	13730.83
759.056	13832.52
759.394	14028.44
759.731	14095.34
760.068	14310.47
760.405	14399.51
760.743	14570.35
761.08	14798.14
761.417	14879.95
761.754	15104.12
762.091	15233.38
762.428	15454.4
762.765	15424.34
763.102	15749.08
763.438	15817.78
763.775	15910.43
764.112	16104.1
764.449	16344.99
764.785	16405.56
765.122	16581.15
765.458	16700.69
765.795	16907.69
766.131	16965.99
766.467	17255.48
766.804	17231.75
767.14	17295.03
767.476	17513.78
767.812	17580.89
768.148	17771.17
768.485	17786.99
768.821	17901.79
769.157	18031.05
769.492	18246.19
769.828	18384.04
770.164	18255.9
770.5	18503.81
770.836	18615.89
771.171	18635.1
771.507	18787.87
771.842	18758.94
772.178	18891.82
772.513	18961.42
772.849	19085.03
773.184	19081.42
773.519	19186.05
773.855	19276.89
774.19	19284.35
774.525	19342.66
774.86	19520.96
775.195	19581.07
775.53	19497
775.865	19425.59
776.2	19466.04
776.535	19427.62
776.87	19558.24
777.205	19564.12
777.539	19492.93
777.874	19684.79
778.209	19510.79
778.543	19674.4
778.878	19680.05
779.212	19529.09
779.547	19696.54
779.881	19737.22
780.215	19613.61
780.55	19788.97
780.884	19661.74
781.218	19665.58
781.552	19715.53
781.886	19665.13
782.22	19633.72
782.554	19755.98
782.888	19602.31
783.222	19465.59
783.556	19547.62
783.889	19564.8
784.223	19487.96
784.557	19503.1
784.89	19530.9
785.224	19474.63
785.557	19375.65
785.891	19354.18
786.224	19365.03
786.558	19440.51
786.891	19269.89
787.224	19284.13
787.557	19269.44
787.891	19263.34
788.224	19286.16
788.557	19268.98
788.89	19310.34
789.223	19227.63
789.556	19177.46
789.888	19162.1
790.221	18994.19
790.554	18942.67
790.887	18947.19
791.219	18910.12
791.552	18926.62
791.884	18857.92
792.217	18847.3
792.549	18791.03
792.882	18659.74
793.214	18651.6
793.546	18810.47
793.879	18552.85
794.211	18470.14
794.543	18515.11
794.875	18518.04
795.207	18634.65
795.539	18473.75
795.871	18448.22
796.203	18382.23
796.535	18233.31
796.867	18329.12
797.198	18243.48
797.53	18139.3
797.862	18004.61
798.193	18159.64
798.525	18024.72
798.856	18110.82
799.188	17866.31
799.519	17812.75
799.85	17779.76
800.182	17773.2
800.513	17946.08
800.844	17802.81
801.175	17842.81
801.506	17748.35
801.837	17606.88
802.168	17666.77
802.499	17568.24
802.83	17533.21
803.161	17391.75
803.491	17570.72
803.822	17488.24
804.153	17388.58
804.483	17248.25
804.814	17203.05
805.145	17180.45
805.475	17201.47
805.805	17124.18
806.136	17100
806.466	17057.07
806.796	17090.96
807.126	16921.7
807.457	16822.95
807.787	16895.71
808.117	16921.48
808.447	16766.9
808.777	16920.35
809.107	16811.87
809.436	16697.53
809.766	16656.85
810.096	16542.73
810.426	16517.19
810.755	16572.33
811.085	16561.49
811.414	16577.98
811.744	16394.71
812.073	16348.84
812.403	16403.75
812.732	16312
813.061	16287.14
813.39	16265.67
813.719	16213.47
814.049	16245.11
814.378	16222.06
814.707	16262.96
815.036	16173.93
815.365	16073.81
815.693	15909.98
816.022	16020.03
816.351	15907.94
816.68	15803.99
817.008	15897.77
817.337	15745.24
817.665	15749.08
817.994	15838.11
818.322	15744.78
818.651	15632.24
818.979	15660.94
819.307	15744.33
819.636	15683.32
819.964	15549.76
820.292	15605.58
820.62	15707.27
820.948	15571
821.276	15649.19
821.604	15518.35
821.932	15531.91
822.259	15635.86
822.587	15567.84
822.915	15466.15
823.243	15596.09
823.57	15527.16
823.898	15533.72
824.225	15473.6
824.553	15486.49
824.88	15462.31
825.207	15542.53
825.535	15621.17
825.862	15492.59
826.189	15502.3
826.516	15510.89
826.843	15649.19
827.17	15512.7
827.497	15540.72
827.824	15480.16
828.151	15542.98
828.478	15531.91
828.805	15515.86
829.131	15507.05
829.458	15427.05
829.785	15500.27
830.111	15537.33
830.438	15584.11
830.764	15609.42
831.09	15573.94
831.417	15469.76
831.743	15550.21
832.069	15568.74
832.395	15452.81
832.722	15447.62
833.048	15436.77
833.374	15505.47
833.7	15326.49
834.026	15375.53
834.351	15479.71
834.677	15401.52
835.003	15422.31
835.329	15386.15
835.654	15339.37
835.98	15327.85
836.306	15360.16
836.631	15320.61
836.956	15363.78
837.282	15399.26
837.607	15311.8
837.932	15258.02
838.258	15252.37
838.583	15190.9
838.908	15150.22
839.233	15084.91
839.558	15146.38
839.883	15030.45
840.208	15080.62
840.533	15099.38
840.858	15024.12
841.182	15010.34
841.507	14952.71
841.832	14861.87
842.156	14888.76
842.481	14888.08
842.805	14827.29
843.13	14770.57
843.454	14692.16
843.778	14744.13
844.103	14650.12
844.427	14674.98
844.751	14654.19
845.075	14672.04
845.399	14520.64
845.723	14486.51
846.047	14480.64
846.371	14377.14
846.695	14392.5
847.019	14243.58
847.343	14124.04
847.666	14098.05
847.99	14155.9
848.313	14089.23
848.637	14001.1
848.96	13955.68
849.284	13995
849.607	13850.37
849.931	13847.88
850.254	13721.79
850.577	13673.88
850.9	13597.72
851.223	13574.9
851.546	13415.58
851.869	13400.66
852.192	13451.96
852.515	13346.2
852.838	13313.44
853.161	13294.68
853.483	13207.45
853.806	13071.63
854.129	13118.86
854.451	13067.11
854.774	13020.79
855.096	12973.56
855.419	13004.74
855.741	12936.72
856.063	12852.88
856.385	12824.18
856.708	12764.52
857.03	12742.83
857.352	12763.62
857.674	12653.79
857.996	12623.06
858.318	12527.92
858.64	12600.01
858.961	12563.62
859.283	12504.87
859.605	12458.99
859.926	12409.5
860.248	12454.7
860.57	12458.77
860.891	12386.45
861.212	12247.7
861.534	12247.02
861.855	12211.32
862.176	12228.49
862.498	12230.07
862.819	12194.37
863.14	12080.47
863.461	12184.2
863.782	12040.25
864.103	12148.04
864.424	11993.7
864.745	12046.58
865.065	12007.71
865.386	11969.52
865.707	11910.99
866.027	11875.51
866.348	11909.18
866.668	12012.23
866.989	11890.65
867.309	11859.91
867.63	11875.51
867.95	11822.4
868.27	11737.43
868.59	11820.37
868.91	11833.47
869.23	11715.51
869.55	11674.38
869.87	11788.28
870.19	11729.07
870.51	11620.15
870.83	11699.92
871.15	11598
871.469	11578.11
871.789	11661.05
872.109	11544.67
872.428	11519.81
872.748	11539.47
873.067	11488.17
873.386	11531.11
873.706	11473.94
874.025	11426.71
874.344	11338.8
874.663	11448.85
874.982	11426.93
875.301	11389.42
875.62	11434.61
875.939	11327.72
876.258	11347.61
876.577	11294.51
876.896	11332.02
877.214	11261.96
877.533	11260.61
877.852	11294.73
878.17	11245.69
878.489	11242.98
878.807	11277.33
879.125	11168.86
879.444	11204.11
879.762	11138.13
880.08	11126.37
880.398	11110.56
880.716	11143.55
881.034	11056.77
881.352	11040.73
881.67	10995.08
881.988	11024.91
882.306	10973.61
882.624	10924.12
882.941	10867.17
883.259	10850
883.577	10819.94
883.894	10864.91
884.212	10817.91
884.529	10779.26
884.846	10739.72
885.164	10754.41
885.481	10690.68
885.798	10743.33
886.115	10635.09
886.432	10686.16
886.75	10698.81
887.067	10704.69
887.383	10630.57
887.7	10550.12
888.017	10502.66
888.334	10462.66
888.651	10471.7
888.967	10435.54
889.284	10371.37
889.6	10359.39
889.917	10273.97
890.233	10315.77
890.55	10243.46
890.866	10280.29
891.182	10266.74
891.498	10176.79
891.815	10139.28
892.131	10059.06
892.447	10073.29
892.763	10029
893.079	10035.33
893.395	10053.41
893.71	9989.91
894.026	9923.69
894.342	9814.77
894.657	9871.27
894.973	9816.13
895.289	9793.75
895.604	9801.44
895.92	9745.39
896.235	9648.9
896.55	9736.35
896.865	9707.88
897.181	9592.4
897.496	9617.49
897.811	9529.58
898.126	9531.16
898.441	9498.17
898.756	9484.38
899.071	9421.33
899.386	9427.44
899.7	9347.89
900.015	9254.56
900.33	9228.12
900.644	9288.91
900.959	9210.94
901.273	9181.57
901.588	9179.08
901.902	9103.38
902.216	9099.08
902.531	9023.6
902.845	8972.53
903.159	8994.23
903.473	8866.09
903.787	8887.79
904.101	8836.72
904.415	8827.68
904.729	8830.62
905.042	8800.33
905.356	8763.05
905.67	8674.46
905.984	8680.34
906.297	8630.85
906.611	8633.33
906.924	8618.42
907.237	8525.76
907.551	8469.95
907.864	8508.36
908.177	8515.37
908.491	8459.78
908.804	8357.63
909.117	8297.75
909.43	8256.85
909.743	8257.07
910.056	8256.85
910.368	8191.99
910.681	8166.68
910.994	8199.67
911.307	8162.38
911.619	8073.57
911.932	8060.01
912.244	8001.94
912.557	8000.35
912.869	7960.13
913.181	7921.26
913.494	7878.55
913.806	7831.55
914.118	7836.74
914.43	7755.84
914.742	7786.57
915.054	7708.16
915.366	7712
915.678	7670.42
915.99	7639.23
916.302	7595.62
916.613	7520.37
916.925	7478.33
917.236	7537.09
917.548	7455.06
917.859	7434.95
918.171	7317.89
918.482	7364.67
918.794	7296.87
919.105	7319.47
919.416	7307.27
919.727	7275.63
920.038	7218.45
920.349	7173.71
920.66	7164.67
920.971	7118.34
921.282	7102.75
921.593	7081.96
921.903	6974.84
922.214	7033.83
922.525	7000.38
922.835	6917.45
923.146	6938.24
923.456	6941.63
923.767	6905.92
924.077	6830.67
924.387	6766.94
924.697	6815.53
925.008	6777.11
925.318	6721.07
925.628	6694.63
925.938	6693.72
926.248	6625.7
926.558	6622.09
926.867	6575.31
927.177	6567.62
927.487	6559.04
927.796	6454.18
928.106	6519.49
928.416	6437.23
928.725	6411.7
929.034	6410.79
929.344	6375.54
929.653	6380.74
929.962	6349.32
930.271	6303
930.581	6268.42
930.89	6274.52
931.199	6199.27
931.508	6177.35
931.817	6192.94
932.125	6126.51
932.434	6136
932.743	6023.46
933.051	6070.24
933.36	5994.98
933.669	6033.63
933.977	6009.9
934.286	5944.82
934.594	5930.58
934.902	5924.93
935.21	5874.76
935.519	5904.36
935.827	5858.94
936.135	5792.05
936.443	5787.98
936.751	5755.22
937.059	5739.62
937.367	5666.4
937.674	5729.68
937.982	5678.16
938.29	5612.62
938.597	5660.98
938.905	5531.49
939.213	5567.42
939.52	5564.49
939.827	5558.38
940.135	5487.2
940.442	5459.4
940.749	5483.81
941.056	5413.53
941.363	5417.6
941.67	5390.93
941.977	5322.23
942.284	5357.49
942.591	5342.12
942.898	5297.37
943.205	5286.3
943.511	5228.45
943.818	5218.28
944.125	5230.94
944.431	5199.07
944.738	5177.6
945.044	5149.58
945.35	5119.75
945.657	5101
945.963	5029.36
946.269	5028.23
946.575	5057.16
946.881	5051.28
947.187	4997.95
947.493	4952.07
947.799	4956.14
948.105	4962.69
948.41	4909.81
948.716	4935.8
949.022	4896.48
949.327	4818.29
949.633	4782.13
949.938	4817.16
950.244	4772.42
950.549	4773.09
950.854	4714.11
951.16	4689.03
951.465	4689.48
951.77	4671.85
952.075	4638.18
952.38	4649.03
952.685	4594.12
952.99	4606.55
953.294	4567.45
953.599	4521.12
953.904	4546.66
954.209	4505.76
954.513	4498.53
954.818	4427.79
955.122	4426.66
955.426	4451.75
955.731	4381.01
956.035	4366.1
956.339	4373.11
956.643	4381.92
956.948	4299.21
957.252	4344.18
957.556	4297.18
957.86	4277.97
958.163	4285.88
958.467	4242.26
958.771	4221.02
959.075	4239.1
959.378	4161.13
959.682	4229.83
959.985	4180.79
960.289	4093.56
960.592	4128.82
960.896	4113.9
961.199	4095.6
961.502	4065.32
961.805	4075.26
962.108	4016.28
962.411	4064.64
962.714	3967.69
963.017	3981.7
963.32	3975.83
963.623	3958.65
963.926	3946.9
964.228	3910.07
964.531	3894.93
964.833	3863.74
965.136	3858.09
965.438	3831.2
965.741	3822.84
966.043	3824.65
966.345	3767.7
966.648	3810.86
966.95	3744.2
967.252	3722.05
967.554	3714.59
967.856	3735.61
968.158	3659.23
968.46	3676.4
968.761	3631.66
969.063	3666.91
969.365	3635.05
969.666	3631.2
969.968	3619
970.269	3575.39
970.571	3582.17
970.872	3556.18
971.174	3520.25
971.475	3522.51
971.776	3477.31
972.077	3525.67
972.378	3495.16
972.679	3484.99
972.98	3461.26
973.281	3412.45
973.582	3403.19
973.883	3384.66
974.183	3406.35
974.484	3395.5
974.785	3340.82
975.085	3316.64
975.386	3315.51
975.686	3318.22
975.986	3296.3
976.287	3343.53
976.587	3276.64
976.887	3271.67
977.187	3280.93
977.487	3285.22
977.787	3208.84
978.087	3209.29
978.387	3186.47
978.687	3208.84
978.987	3189.63
979.286	3164.55
979.586	3128.62
979.885	3095.85
980.185	3094.04
980.484	3089.75
980.784	3077.09
981.083	3074.61
981.382	3066.02
981.682	3050.43
981.981	3001.39
982.28	3013.59
982.579	2939.92
982.878	3006.81
983.177	2957.1
983.475	2950.54
983.774	2917.1
984.073	2934.95
984.372	2908.29
984.67	2868.74
984.969	2889.53
985.267	2887.49
985.566	2860.15
985.864	2848.4
986.162	2815.41
986.461	2820.83
986.759	2809.3
987.057	2755.07
987.355	2762.98
987.653	2741.51
987.951	2766.14
988.249	2744.67
988.547	2721.62
988.844	2724.34
989.142	2728.63
989.44	2663.77
989.737	2665.58
990.035	2642.3
990.332	2659.48
990.63	2628.97
990.927	2612.93
991.224	2648.4
991.521	2627.84
991.819	2589.65
992.116	2569.31
992.413	2569.31
992.71	2530.22
993.006	2534.06
993.303	2533.38
993.6	2499.48
993.897	2475.75
994.193	2466.26
994.49	2481.4
994.787	2508.97
995.083	2444.12
995.379	2470.56
995.676	2447.05
995.972	2395.3
996.268	2438.69
996.565	2398.92
996.861	2410.9
997.157	2407.96
997.453	2347.4
997.749	2351.24
998.044	2324.57
998.34	2315.53
998.636	2347.85
998.932	2312.82
999.227	2321.86
999.523	2306.27
999.818	2257.68
1000.114	2269.21
1000.409	2252.03
1000.704	2231.92
1001	2251.58
1001.295	2206.61
1001.59	2179.26
1001.885	2192.37
1002.18	2170.23
1002.475	2163.9
1002.77	2141.53
1003.065	2159.6
1003.359	2121.64
1003.654	2101.07
1003.949	2112.37
1004.243	2116.44
1004.538	2090.91
1004.832	2085.03
1005.127	2090.91
1005.421	2065.37
1005.715	2038.7
1006.009	2014.3
1006.304	1981.3
1006.598	2011.36
1006.892	1982.21
1007.186	1978.14
1007.48	1961.42
1007.773	1952.6
1008.067	1958.03
1008.361	1936.11
1008.655	1944.92
1008.948	1929.78
1009.242	1913.73
1009.535	1877.13
1009.829	1857.69
1010.122	1886.17
1010.415	1849.56
1010.708	1859.5
1011.001	1847.75
1011.295	1823.34
1011.588	1802.55
1011.881	1788.09
1012.173	1788.99
1012.466	1782.66
1012.759	1773.85
1013.052	1774.08
1013.344	1785.15
1013.637	1747.19
1013.93	1730.24
1014.222	1745.15
1014.514	1713.06
1014.807	1705.15
1015.099	1697.02
1015.391	1699.05
1015.683	1651.59
1015.976	1641.88
1016.268	1658.37
1016.56	1650.47
1016.851	1631.03
1017.143	1590.81
1017.435	1621.99
1017.727	1585.83
1018.018	1588.09
1018.31	1580.86
1018.602	1530.69
1018.893	1535.21
1019.185	1528.21
1019.476	1518.49
1019.767	1519.17
1020.058	1503.12
1020.35	1494.09
1020.641	1491.15
1020.932	1490.24
1021.223	1500.19
1021.514	1465.84
1021.804	1449.34
1022.095	1454.54
1022.386	1410.02
1022.677	1450.24
1022.967	1430.13
1023.258	1416.35
1023.548	1396.69
1023.839	1387.42
1024.129	1382.9
1024.419	1372.05
1024.709	1389.23
1025	1352.62
1025.29	1334.09
1025.58	1338.83
1025.87	1322.34
1026.16	1317.59
1026.449	1302.68
1026.739	1325.5
1027.029	1304.26
1027.319	1288.67
1027.608	1264.71
1027.898	1269.46
1028.187	1296.8
1028.477	1285.28
1028.766	1243.47
1029.055	1270.36
1029.344	1259.97
1029.634	1230.14
1029.923	1214.09
1030.212	1227.65
1030.501	1207.09
1030.79	1179.29
1031.078	1176.35
1031.367	1189.01
1031.656	1167.31
1031.945	1161.21
1032.233	1158.27
1032.522	1133.19
1032.81	1141.55
1033.099	1127.54
1033.387	1129.12
1033.675	1113.08
1033.963	1134.09
1034.251	1101.33
1034.54	1096.36
1034.828	1094.77
1035.116	1093.87
1035.403	1077.6
1035.691	1056.58
1035.979	1078.05
1036.267	1045.96
1036.554	1054.1
1036.842	1056.13
1037.129	1045.74
1037.417	1031.95
1037.704	1002.8
1037.992	1015.68
1038.279	986.3
1038.566	1009.13
1038.853	1009.13
1039.14	1009.13
