Data from hue_180_FLMS001491_00052.txt Node
Date: Tue Feb 07 16:47:10 GMT 2017
User: dcchb
Spectrometer: FLMS00149
Trigger mode: 0
Integration Time (sec): 2.000000E-2
Scans to average: 10
Electric dark correction enabled: true
Nonlinearity correction enabled: false
Boxcar width: 0
XAxis mode: Wavelengths
Number of Pixels in Spectrum: 2048
>>>>>Begin Spectral Data<<<<<
341.393	2.32
341.776	2.32
342.16	2.32
342.543	-57.8
342.927	-71.35
343.31	-72.94
343.693	-58.47
344.077	-70.68
344.46	-71.81
344.843	-49.89
345.226	-25.93
345.61	-23.22
345.993	6.61
346.376	-7.17
346.759	11.36
347.142	25.59
347.525	26.27
347.908	59.72
348.291	70.79
348.674	86.38
349.057	93.39
349.44	121.64
349.823	155.98
350.206	167.06
350.588	188.53
350.971	195.08
351.354	218.13
351.737	213.61
352.119	257.22
352.502	244.12
352.884	253.61
353.267	267.39
353.65	299.48
354.032	292.48
354.414	299.03
354.797	315.08
355.179	316.88
355.562	327.05
355.944	331.57
356.326	327.96
356.709	341.06
357.091	336.09
357.473	339.48
357.855	344.45
358.238	337
358.62	338.35
359.002	351.46
359.384	338.13
359.766	331.12
360.148	332.25
360.53	348.07
360.912	336.77
361.294	323.21
361.676	334.96
362.057	325.92
362.439	333.83
362.821	328.41
363.203	313.72
363.584	317.11
363.966	340.61
364.348	334.96
364.729	322.76
365.111	318.47
365.493	304.91
365.874	301.97
366.256	305.13
366.637	298.58
367.019	298.81
367.4	279.37
367.781	306.94
368.163	324.79
368.544	321.4
368.925	310.78
369.306	316.43
369.688	327.96
370.069	313.95
370.45	330.22
370.831	311.91
371.212	324.57
371.593	301.29
371.974	313.04
372.355	306.72
372.736	294.51
373.117	312.82
373.498	309.43
373.879	316.88
374.26	306.72
374.641	315.98
375.021	307.17
375.402	324.34
375.783	324.79
376.163	311.46
376.544	315.98
376.925	303.55
377.305	311.01
377.686	320.05
378.066	318.69
378.447	336.09
378.827	318.24
379.208	329.54
379.588	316.88
379.968	336.54
380.349	317.79
380.729	331.35
381.109	308.52
381.489	335.41
381.87	352.82
382.25	331.35
382.63	317.34
383.01	336.32
383.39	340.39
383.77	320.27
384.15	318.24
384.53	340.39
384.91	338.13
385.29	347.84
385.67	354.17
386.049	347.39
386.429	347.62
386.809	342.19
387.189	348.3
387.568	353.72
387.948	348.07
388.328	366.15
388.707	375.87
389.087	355.08
389.466	353.27
389.846	351.01
390.225	354.85
390.605	352.14
390.984	367.73
391.363	375.64
391.743	375.87
392.122	377.45
392.501	349.65
392.881	380.84
393.26	367.5
393.639	363.89
394.018	365.7
394.397	379.71
394.776	394.62
395.155	373.83
395.534	372.7
395.913	364.79
396.292	374.51
396.671	361.63
397.05	395.75
397.429	382.87
397.808	383.32
398.186	409.31
398.565	391.01
398.944	407.73
399.323	398.92
399.701	398.92
400.08	388.29
400.458	411.35
400.837	422.64
401.215	427.39
401.594	399.82
401.972	385.13
402.351	416.77
402.729	418.8
403.107	406.6
403.486	440.95
403.864	411.8
404.242	443.21
404.62	440.27
404.999	426.26
405.377	419.48
405.755	438.46
406.133	446.37
406.511	459.48
406.889	455.41
407.267	460.38
407.645	492.47
408.023	475.98
408.401	473.04
408.779	500.38
409.156	484.11
409.534	495.86
409.912	485.92
410.29	501.06
410.667	510.78
411.045	504.22
411.422	520.72
411.8	518.91
412.178	536.54
412.555	538.57
412.933	554.17
413.31	572.02
413.687	567.27
414.065	581.06
414.442	559.14
414.819	570.44
415.197	589.87
415.574	607.27
415.951	598.23
416.328	600.27
416.705	593.71
417.082	625.58
417.46	633.49
417.837	653.15
418.214	643.43
418.591	641.85
418.967	647.05
419.344	681.17
419.721	669.42
420.098	675.07
420.475	695.18
420.852	699.7
421.228	697.21
421.605	709.64
421.982	725.46
422.358	749.42
422.735	734.05
423.111	758.68
423.488	764.33
423.864	764.78
424.241	775.63
424.617	779.47
424.994	798.91
425.37	800.04
425.746	814.5
426.123	854.27
426.499	848.4
426.875	858.79
427.251	858.34
427.627	861.05
428.003	897.89
428.379	891.11
428.756	911.44
429.132	887.49
429.507	934.5
429.883	930.88
430.259	965.23
430.635	932.46
431.011	946.7
431.387	971.33
431.763	1006.81
432.138	996.41
432.514	1019.24
432.89	1030.09
433.265	1029.18
433.641	1092.68
434.016	1064.89
434.392	1094.27
434.767	1105.79
435.143	1108.95
435.518	1123.87
435.894	1173.13
436.269	1168.84
436.644	1205
437.02	1234.37
437.395	1207.93
437.77	1230.08
438.145	1271.66
438.52	1297.88
438.895	1304.88
439.271	1320.47
439.646	1339.23
440.021	1346.91
440.395	1364.77
440.77	1346.24
441.145	1416.52
441.52	1405.22
441.895	1402.05
442.27	1434.82
442.645	1465.1
443.019	1488.15
443.394	1457.19
443.769	1477.08
444.143	1514.37
444.518	1539.9
444.892	1531.77
445.267	1520.92
445.641	1567.92
446.016	1577.87
446.39	1583.74
446.764	1584.87
447.139	1569.73
447.513	1594.36
447.887	1634.36
448.262	1618.32
448.636	1642.27
449.01	1674.59
449.384	1660.35
449.758	1691.31
450.132	1729.28
450.506	1694.48
450.88	1752.78
451.254	1743.29
451.628	1763.17
452.002	1807.47
452.376	1822.61
452.75	1816.73
453.123	1841.14
453.497	1852.66
453.871	1908.48
454.244	1898.99
454.618	1931.98
454.992	1992.32
455.365	1954.13
455.739	2015.37
456.112	2036.16
456.486	2048.82
456.859	2077.97
457.232	2090.17
457.606	2109.15
457.979	2152.77
458.352	2179.21
458.725	2211.98
459.099	2194.12
459.472	2256.95
459.845	2282.26
460.218	2319.77
460.591	2319.54
460.964	2353.89
461.337	2421.24
461.71	2417.17
462.083	2484.74
462.456	2514.11
462.829	2513.89
463.201	2533.32
463.574	2561.57
463.947	2557.73
464.32	2664.17
464.692	2652.64
465.065	2697.84
465.438	2778.74
465.81	2766.99
466.183	2826.2
466.555	2881.56
466.928	2893.09
467.3	2882.69
467.672	2970.6
468.045	3041.78
468.417	3064.16
468.789	3073.42
469.161	3091.95
469.534	3176.02
469.906	3251.27
470.278	3292.63
470.65	3323.36
471.022	3421.66
471.394	3421.44
471.766	3498.5
472.138	3537.36
472.51	3617.14
472.882	3714.76
473.253	3713.63
473.625	3810.58
473.997	3877.24
474.369	3873.17
474.74	3990.46
475.112	4066.62
475.484	4118.14
475.855	4199.95
476.227	4245.14
476.598	4388.19
476.97	4372.82
477.341	4537.56
477.713	4614.17
478.084	4652.59
478.455	4748.63
478.827	4832.7
479.198	5020.72
479.569	5006.7
479.94	5167.38
480.311	5201.5
480.682	5362.4
481.053	5438.11
481.424	5561.27
481.795	5591.1
482.166	5734.14
482.537	5817.53
482.908	5974.81
483.279	6043.51
483.65	6184.53
484.021	6256.62
484.391	6391.98
484.762	6428.36
485.133	6494.35
485.503	6626.1
485.874	6797.39
486.244	6897.73
486.615	7049.59
486.985	7044.84
487.356	7252.3
487.726	7289.13
488.097	7473.76
488.467	7494.32
488.837	7654.32
489.207	7766.41
489.578	7864.93
489.948	8005.95
490.318	8159.16
490.688	8162.33
491.058	8325.04
491.428	8412.94
491.798	8532.04
492.168	8699.49
492.538	8691.13
492.908	8776.32
493.278	8951.01
493.648	8994.85
494.017	9069.65
494.387	9157.78
494.757	9252.47
495.126	9332.24
495.496	9326.82
495.866	9435.51
496.235	9559.81
496.605	9629.18
496.974	9696.3
497.344	9752.57
497.713	9855.84
498.082	9887.93
498.452	10010.41
498.821	9972.9
499.19	10016.74
499.559	10169.28
499.928	10245.44
500.298	10269.17
500.667	10395.26
501.036	10353.23
501.405	10419.67
501.774	10404.08
502.143	10498.54
502.512	10553.9
502.88	10678.87
503.249	10573.11
503.618	10686.1
503.987	10716.38
504.356	10775.82
504.724	10818.53
505.093	10835.25
505.462	10836.38
505.83	10894.23
506.199	11005.64
506.567	11099.43
506.936	11067.11
507.304	11177.39
507.672	11180.33
508.041	11260.1
508.409	11243.15
508.777	11256.48
509.145	11422.58
509.514	11296.71
509.882	11390.49
510.25	11398.63
510.618	11359.08
510.986	11408.34
511.354	11466.65
511.722	11542.8
512.09	11615.34
512.458	11546.87
512.826	11590.94
513.193	11658.73
513.561	11728.79
513.929	11733.53
514.297	11768.11
514.664	11882.46
515.032	11870.03
515.4	11948.44
515.767	11915
516.135	11966.52
516.502	11813.08
516.869	11994.77
517.237	11889.01
517.604	11876.35
517.972	11967.2
518.339	12017.59
518.706	11965.17
519.073	12040.42
519.44	12013.75
519.808	12079.74
520.175	11978.27
520.542	12205.39
520.909	12126.29
521.276	12150.47
521.643	12185.05
522.009	12230.24
522.376	12242.67
522.743	12212.39
523.11	12291.94
523.477	12376.45
523.843	12367.87
524.21	12414.19
524.577	12422.33
524.943	12390.69
525.31	12415.55
525.676	12432.05
526.043	12459.62
526.409	12438.6
526.776	12502.33
527.142	12520.63
527.508	12517.69
527.874	12516.34
528.241	12506.39
528.607	12505.72
528.973	12599.27
529.339	12509.78
529.705	12526.96
530.071	12510.69
530.437	12540.07
530.803	12525.83
531.169	12553.85
531.535	12468.2
531.901	12428.43
532.267	12444.48
532.632	12404.25
532.998	12384.82
533.364	12389.56
533.73	12392.5
534.095	12394.76
534.461	12347.53
534.826	12378.94
535.192	12357.02
535.557	12361.54
535.923	12244.48
536.288	12241.99
536.653	12200.87
537.019	12128.1
537.384	12097.82
537.749	12035.67
538.114	12026.63
538.479	12043.36
538.845	11953.19
539.21	11863.25
539.575	11915.45
539.94	11859.18
540.305	11909.12
540.67	11793.19
541.034	11803.14
541.399	11769.69
541.764	11706.19
542.129	11657.38
542.494	11660.54
542.858	11642.46
543.223	11526.99
543.587	11565.18
543.952	11485.86
544.316	11502.13
544.681	11343.94
545.045	11306.43
545.41	11359.08
545.774	11348.46
546.138	11234.11
546.503	11192.08
546.867	11181.23
547.231	11161.8
547.595	11096.49
547.959	11115.92
548.324	11020.78
548.688	10942.59
549.052	10953.21
549.416	10951.63
549.779	10896.04
550.143	10793.9
550.507	10797.51
550.871	10794.57
551.235	10680.45
551.599	10714.13
551.962	10674.58
552.326	10618.31
552.689	10703.5
553.053	10604.3
553.417	10553
553.78	10648.59
554.143	10504.87
554.507	10497.41
554.87	10449.73
555.234	10521.59
555.597	10358.2
555.96	10402.04
556.323	10335.38
556.686	10300.35
557.05	10325.43
557.413	10343.51
557.776	10287.92
558.139	10325.21
558.502	10323.17
558.865	10199.11
559.228	10295.15
559.59	10226.23
559.953	10155.72
560.316	10243.85
560.679	10167.92
561.041	10231.65
561.404	10190.52
561.767	10200.92
562.129	10135.16
562.492	10210.64
562.854	10263.97
563.217	10185.78
563.579	10129.73
563.941	10198.21
564.304	10209.28
564.666	10231.88
565.028	10189.17
565.39	10150.52
565.753	10180.58
566.115	10165.21
566.477	10175.38
566.839	10208.6
567.201	10217.64
567.563	10190.52
567.925	10278.88
568.287	10122.73
568.648	10194.82
569.01	10163.63
569.372	10226
569.734	10191.2
570.095	10237.98
570.457	10216.29
570.819	10211.31
571.18	10279.79
571.542	10186.68
571.903	10225.32
572.265	10284.31
572.626	10313.68
572.987	10254.02
573.349	10264.42
573.71	10310.29
574.071	10252.67
574.432	10254.02
574.794	10271.65
575.155	10305.1
575.516	10248.37
575.877	10200.47
576.238	10277.98
576.599	10276.85
576.96	10245.89
577.32	10278.66
577.681	10269.84
578.042	10303.51
578.403	10307.13
578.763	10319.79
579.124	10202.27
579.485	10252.44
579.845	10292.89
580.206	10199.34
580.566	10221.03
580.927	10227.58
581.287	10259.9
581.648	10200.47
582.008	10306
582.368	10249.05
582.728	10219.9
583.089	10249.05
583.449	10231.2
583.809	10223.06
584.169	10195.72
584.529	10131.09
584.889	10298.99
585.249	10238.43
585.609	10194.59
585.969	10272.78
586.329	10142.39
586.688	10166.57
587.048	10136.06
587.408	10141.48
587.768	10097.87
588.127	10156.17
588.487	10091.54
588.846	10076.63
589.206	10030.75
589.565	10094.25
589.925	9995.73
590.284	10080.02
590.643	10123.41
591.003	10063.75
591.362	10030.08
591.721	10059.68
592.08	9981.04
592.44	10024.65
592.799	10058.78
593.158	10034.14
593.517	9953.69
593.876	10023.97
594.235	9991.21
594.593	10047.93
594.952	9961.38
595.311	9969.29
595.67	9986.46
596.029	10042.73
596.387	9994.37
596.746	10034.82
597.104	9887.25
597.463	9923.19
597.822	9990.08
598.18	9942.62
598.538	9882.28
598.897	9907.59
599.255	9855.62
599.613	9975.16
599.972	9882.51
600.33	9950.3
600.688	9878.89
601.046	9893.13
601.404	9981.04
601.762	9905.11
602.12	9933.13
602.478	9843.87
602.836	9923.86
603.194	9901.27
603.552	9892.45
603.91	9829.63
604.268	9899.46
604.625	9841.38
604.983	9858.55
605.341	9835.28
605.698	9858.1
606.056	9886.35
606.413	9863.75
606.771	9918.44
607.128	9876.86
607.485	9750.76
607.843	9877.76
608.2	9939.23
608.557	9946.24
608.914	9887.25
609.272	9886.12
609.629	9881.6
609.986	9920.7
610.343	9839.8
610.7	9959.12
611.057	9885.45
611.414	9961.83
611.771	9942.85
612.127	10017.65
612.484	9920.02
612.841	9956.18
613.198	9952.11
613.554	9987.82
613.911	9997.53
614.267	10012.67
614.624	9957.76
614.98	9962.96
615.337	10011.77
615.693	10030.3
616.05	9962.05
616.406	10119.56
616.762	10048.38
617.118	9951.89
617.475	10033.46
617.831	10043.86
618.187	10044.54
618.543	10140.81
618.899	10125.21
619.255	10135.61
619.611	10065.55
619.967	10122.28
620.323	10171.54
620.678	10125.44
621.034	10064.65
621.39	10036.63
621.746	10089.73
622.101	10150.07
622.457	10095.61
622.812	10053.13
623.168	10122.95
623.523	10104.65
623.879	10150.52
624.234	10018.32
624.589	10101.26
624.945	10136.74
625.3	10150.3
625.655	10098.55
626.01	10155.95
626.365	10073.46
626.72	10090.41
627.075	10124.08
627.43	10094.25
627.785	10006.57
628.14	10069.85
628.495	10103.75
628.85	10031.43
629.205	10011.54
629.559	10051.54
629.914	10011.32
630.269	10082.05
630.623	10040.24
630.978	9939
631.332	10031.21
631.687	9986.69
632.041	9941.49
632.396	9968.16
632.75	9961.38
633.104	9943.07
633.459	9916.41
633.813	9851.1
634.167	9936.74
634.521	9868.5
634.875	9885.9
635.229	9933.58
635.583	9782.4
635.937	9761.38
636.291	9772.23
636.645	9741.5
636.999	9753.7
637.352	9813.58
637.706	9709.18
638.06	9809.74
638.413	9799.35
638.767	9759.57
639.121	9720.48
639.474	9692.91
639.828	9701.04
640.181	9620.14
640.534	9744.66
640.888	9689.75
641.241	9621.95
641.594	9666.47
641.947	9654.72
642.301	9582.4
642.654	9597.32
643.007	9691.33
643.36	9673.93
643.713	9642.74
644.066	9646.58
644.419	9619.69
644.771	9523.2
645.124	9459.69
645.477	9461.95
645.83	9366.36
646.182	9394.61
646.535	9274.39
646.888	9295.63
647.24	9266.25
647.593	9371.11
647.945	9295.41
648.298	9267.61
648.65	9291.34
649.002	9275.52
649.355	9236.2
649.707	9328.62
650.059	9291.56
650.411	9417.44
650.763	9427.83
651.115	9518
651.467	9544.21
651.819	9461.73
652.171	9445.46
652.523	9445.23
652.875	9432.12
653.227	9501.5
653.578	9517.77
653.93	9432.8
654.282	9464.44
654.633	9484.1
654.985	9437.77
655.337	9502.41
655.688	9577.66
656.039	9468.51
656.391	9423.09
656.742	9491.56
657.094	9491.33
657.445	9555.06
657.796	9508.06
658.147	9516.87
658.498	9468.73
658.849	9446.81
659.2	9525.68
659.551	9494.72
659.902	9492.24
660.253	9561.16
660.604	9525.68
660.955	9475.29
661.306	9529.3
661.656	9481.84
662.007	9551.67
662.358	9500.37
662.708	9537.66
663.059	9519.58
663.409	9437.77
663.76	9541.27
664.11	9502.18
664.461	9504.44
664.811	9571.33
665.161	9567.49
665.511	9478.68
665.862	9589.86
666.212	9506.47
666.562	9496.76
666.912	9592.12
667.262	9508.96
667.612	9512.12
667.962	9531.56
668.312	9523.42
668.662	9526.59
669.011	9625.57
669.361	9525.46
669.711	9515.06
670.06	9561.16
670.41	9516.19
670.76	9511.9
671.109	9511.67
671.459	9477.1
671.808	9461.05
672.157	9527.04
672.507	9429.87
672.856	9448.4
673.205	9393.93
673.554	9522.29
673.904	9458.11
674.253	9520.94
674.602	9371.79
674.951	9347.61
675.3	9302.18
675.649	9358.68
675.998	9457.66
676.346	9404.78
676.695	9447.72
677.044	9369.3
677.393	9428.06
677.741	9405.01
678.09	9396.87
678.438	9362.3
678.787	9304.22
679.135	9254.95
679.484	9250.89
679.832	9279.13
680.181	9249.98
680.529	9256.99
680.877	9190.32
681.225	9227.38
681.573	9294.73
681.922	9179.7
682.27	9125.92
682.618	9163.21
682.966	9083.89
683.314	9171.11
683.661	9089.99
684.009	9048.18
684.357	9029.65
684.705	9039.82
685.053	9002.31
685.4	8997.33
685.748	8958.69
686.095	8958.01
686.443	8894.96
686.79	8923.89
687.138	8957.56
687.485	8906.49
687.832	8876.89
688.18	8923.21
688.527	8725.25
688.874	8772.03
689.221	8741.07
689.568	8721.64
689.915	8734.74
690.262	8725.48
690.609	8695.65
690.956	8623.78
691.303	8626.04
691.65	8614.29
691.997	8531.13
692.344	8517.12
692.69	8531.81
693.037	8519.61
693.383	8365.03
693.73	8462.88
694.077	8342.44
694.423	8365.71
694.769	8327.75
695.116	8290.01
695.462	8352.15
695.808	8236
696.155	8305.6
696.501	8196.68
696.847	8184.93
697.193	8132.05
697.539	8154.87
697.885	8053.63
698.231	8048.66
698.577	8051.82
698.923	8025.38
699.269	7955.78
699.614	7945.38
699.96	7907.87
700.306	7828.55
700.651	7887.76
700.997	7831.71
701.342	7839.85
701.688	7828.78
702.033	7709.68
702.379	7733.86
702.724	7730.7
703.069	7756.01
703.415	7590.14
703.76	7622
704.105	7534.1
704.45	7550.37
704.795	7529.12
705.14	7479.63
705.485	7406.87
705.83	7465.17
706.175	7466.75
706.52	7354.44
706.865	7399.18
707.209	7393.76
707.554	7334.33
707.899	7368
708.243	7293.88
708.588	7334.55
708.932	7219.98
709.277	7198.51
709.621	7203.26
709.966	7221.11
710.31	7178.4
710.654	7075.58
710.998	7143.6
711.342	7120.32
711.687	7090.72
712.031	7041.91
712.375	7041.23
712.719	7057.95
713.063	7061.11
713.407	7017.27
713.75	6989.7
714.094	7042.81
714.438	6993.54
714.782	7015.47
715.125	6984.28
715.469	6952.87
715.812	6919.87
716.156	6931.85
716.499	6895.24
716.843	6849.37
717.186	6914.22
717.53	6897.95
717.873	6843.27
718.216	6867.67
718.559	6874.9
718.902	6821.12
719.246	6799.43
719.589	6765.3
719.932	6765.3
720.275	6778.64
720.617	6773.66
720.96	6783.38
721.303	6775.25
721.646	6753.33
721.989	6722.14
722.331	6768.47
722.674	6685.08
723.016	6766.66
723.359	6725.3
723.701	6717.39
724.044	6679.2
724.386	6647.79
724.729	6704.74
725.071	6714.23
725.413	6687.79
725.755	6638.75
726.097	6595.82
726.439	6627.45
726.782	6610.73
727.124	6671.52
727.465	6603.72
727.807	6622.48
728.149	6616.83
728.491	6558.75
728.833	6617.74
729.175	6583.61
729.516	6602.37
729.858	6647.34
730.199	6633.78
730.541	6594.69
730.882	6556.27
731.224	6580.67
731.565	6519.21
731.906	6558.53
732.248	6589.49
732.589	6573.44
732.93	6573.44
733.271	6586.32
733.612	6614.8
733.953	6540.45
734.294	6580.45
734.635	6631.29
734.976	6627.23
735.317	6649.6
735.658	6610.73
735.999	6581.13
736.339	6614.57
736.68	6643.5
737.021	6626.32
737.361	6591.52
737.702	6639.2
738.042	6636.49
738.383	6606.44
738.723	6620
739.063	6596.72
739.404	6657.73
739.744	6657.06
740.084	6663.61
740.424	6683.95
740.764	6693.44
741.104	6706.32
741.444	6681.69
741.784	6704.29
742.124	6733.44
742.464	6711.97
742.804	6731.86
743.143	6815.24
743.483	6819.09
743.823	6802.14
744.162	6822.93
744.502	6933.89
744.841	6928.91
745.181	6917.39
745.52	6967.1
745.86	7021.11
746.199	7028.57
746.538	7084.84
746.877	7135.69
747.216	7178.4
747.556	7206.42
747.895	7208.68
748.234	7283.48
748.573	7294.78
748.911	7331.16
749.25	7440.09
749.589	7441.44
749.928	7525.06
750.267	7637.14
750.605	7606.86
750.944	7707.2
751.283	7794.2
751.621	7913.75
751.96	7977.02
752.298	7993.52
752.636	8174.08
752.975	8205.49
753.313	8287.97
753.651	8414.07
753.989	8471.25
754.327	8579.72
754.666	8701.3
755.004	8764.8
755.342	8908.75
755.679	9027.16
756.017	9146.48
756.355	9264.67
756.693	9395.52
757.031	9553.25
757.368	9654.72
757.706	9762.74
758.044	9976.07
758.381	10161.82
758.719	10172.9
759.056	10472.32
759.394	10572.66
759.731	10649.49
760.068	10864.18
760.405	10949.37
760.743	11070.95
761.08	11275.47
761.417	11385.29
761.754	11648.11
762.091	11806.75
762.428	11938.27
762.765	12037.03
763.102	12267.08
763.438	12382.56
763.775	12597.24
764.112	12833.84
764.449	12926.5
764.785	13085.59
765.122	13166.72
765.458	13343.89
765.795	13505.46
766.131	13650.77
766.467	13688.06
766.804	13926.24
767.14	14064.32
767.476	14195.16
767.812	14310.64
768.148	14471.54
768.485	14537.75
768.821	14589.96
769.157	14790.4
769.492	14921.7
769.828	15055.93
770.164	15104.74
770.5	15207.79
770.836	15353.1
771.171	15551.29
771.507	15511.29
771.842	15598.29
772.178	15774.56
772.513	15835.12
772.849	15977.04
773.184	15977.72
773.519	16069.46
773.855	16189.91
774.19	16177.94
774.525	16284.15
774.86	16421.09
775.195	16557.36
775.53	16452.28
775.865	16580.64
776.2	16535.89
776.535	16521.2
776.87	16606.17
777.205	16769.11
777.539	16609.79
777.874	16831.48
778.209	16772.95
778.543	16800.74
778.878	16836.68
779.212	16911.7
779.547	16916.9
779.881	17079.38
780.215	16981.08
780.55	17100.62
780.884	17106.5
781.218	17062.43
781.552	17121.64
781.886	17047.07
782.22	17124.13
782.554	17116.44
782.888	17071.92
783.222	17077.35
783.556	16972.27
783.889	16981.3
784.223	16881.42
784.557	16949.89
784.89	17012.72
785.224	16984.47
785.557	16916.22
785.891	16894.53
786.224	16951.93
786.558	16982.43
786.891	16884.81
787.224	16838.71
787.557	16744.02
787.891	16860.63
788.224	16835.09
788.557	16845.94
788.89	16910.35
789.223	16853.4
789.556	16804.59
789.888	16816.34
790.221	16784.47
790.554	16607.08
790.887	16674.65
791.219	16639.62
791.552	16612.05
791.884	16518.49
792.217	16482.33
792.549	16469
792.882	16419.51
793.214	16467.87
793.546	16506.06
793.879	16347.2
794.211	16316.46
794.543	16444.37
794.875	16329.12
795.207	16367.54
795.539	16305.84
795.871	16302
796.203	16108.79
796.535	16078.73
796.867	16162.8
797.198	16060.43
797.53	16161.44
797.862	16062.68
798.193	16047.54
798.525	15921.45
798.856	15946.53
799.188	15855.01
799.519	15901.79
799.85	15769.59
800.182	15741.34
800.513	15826.31
800.844	15622.02
801.175	15690.72
801.506	15730.04
801.837	15660.66
802.168	15636.48
802.499	15563.72
802.83	15537.28
803.161	15489.14
803.491	15469.93
803.822	15528.69
804.153	15450.72
804.483	15258.19
804.814	15330.95
805.145	15234.91
805.475	15291.41
805.805	15310.61
806.136	15268.13
806.466	15180.45
806.796	15075.82
807.126	14966.89
807.457	15034.24
807.787	14938.65
808.117	15020.23
808.447	14932.32
808.777	15011.87
809.107	14895.94
809.436	14861.36
809.766	14736.62
810.096	14799.89
810.426	14773.23
810.755	14793.79
811.085	14789.5
811.414	14667.47
811.744	14665.43
812.073	14604.42
812.403	14603.06
812.732	14560.58
813.061	14528.26
813.39	14463.86
813.719	14454.82
814.049	14607.58
814.378	14471.54
814.707	14377.98
815.036	14359.9
815.365	14360.13
815.693	14178.21
816.022	14212.79
816.351	14180.25
816.68	14064.09
817.008	14230.42
817.337	14050.31
817.665	14077.65
817.994	14086.92
818.322	14060.48
818.651	14012.57
818.979	13951.1
819.307	14003.76
819.636	13954.49
819.964	13947.49
820.292	13915.17
820.62	13927.6
820.948	13920.37
821.276	13865
821.604	13807.83
821.932	13918.56
822.259	13879.69
822.587	13942.74
822.915	13872.46
823.243	13905.68
823.57	13813.25
823.898	13877.21
824.225	13968.73
824.553	13831.56
824.88	13801.95
825.207	13961.72
825.535	13919.24
825.862	13952.91
826.189	13862.74
826.516	13886.7
826.843	13894.83
827.17	13990.42
827.497	13931.67
827.824	13897.09
828.151	13952.46
828.478	13912.23
828.805	14005.79
829.131	13935.74
829.458	13942.29
829.785	13796.76
830.111	13909.52
830.438	13940.03
830.764	13883.08
831.09	14002.85
831.417	13828.39
831.743	13899.35
832.069	13895.74
832.395	13819.35
832.722	13897.77
833.048	13907.71
833.374	13834.04
833.7	13894.61
834.026	13776.42
834.351	13888.96
834.677	13862.29
835.003	13814.16
835.329	13864.78
835.654	13813.25
835.98	13715.85
836.306	13759.47
836.631	13831.11
836.956	13726.7
837.282	13724.22
837.607	13717.89
837.932	13666.82
838.258	13631.79
838.583	13600.83
838.908	13456.65
839.233	13618.46
839.558	13542.98
839.883	13507.95
840.208	13431.12
840.533	13488.06
840.858	13428.18
841.182	13496.65
841.507	13454.17
841.832	13336.2
842.156	13342.98
842.481	13367.39
842.805	13338.01
843.13	13308.18
843.454	13226.15
843.778	13138.69
844.103	13180.95
844.427	13177.79
844.751	13113.38
845.075	13130.56
845.399	13101.63
845.723	13009.66
846.047	13006.95
846.371	12917.68
846.695	12940.51
847.019	12764.92
847.343	12773.51
847.666	12682.66
847.99	12650.57
848.313	12724.92
848.637	12527.86
848.96	12527.64
849.284	12518.37
849.607	12418.04
849.931	12341.65
850.254	12338.49
850.577	12321.54
850.9	12203.8
851.223	12175.1
851.546	12107.53
851.869	12027.99
852.192	12039.51
852.515	11900.76
852.838	11855.11
853.161	11918.84
853.483	11822.34
853.806	11748.22
854.129	11820.76
854.451	11734.21
854.774	11663.93
855.096	11649.69
855.419	11653.54
855.741	11602.46
856.063	11524.05
856.385	11525.4
856.708	11430.49
857.03	11425.29
857.352	11498.29
857.674	11469.59
857.996	11359.98
858.318	11260.78
858.64	11358.85
858.961	11217.61
859.283	11216.71
859.605	11201.12
859.926	11140.1
860.248	11152.98
860.57	11101.69
860.891	11044.29
861.212	11115.47
861.534	10941.01
861.855	10990.05
862.176	11062.82
862.498	10965.64
862.819	10993.89
863.14	10876.83
863.461	10876.15
863.782	10858.53
864.103	10902.37
864.424	10819.43
864.745	10918.64
865.065	10853.1
865.386	10748.7
865.707	10755.25
866.027	10758.42
866.348	10716.61
866.668	10740.79
866.989	10714.8
867.309	10637.74
867.63	10670.74
867.95	10634.58
868.27	10560
868.59	10555.71
868.91	10565.88
869.23	10576.95
869.55	10417.86
869.87	10528.14
870.19	10436.84
870.51	10496.73
870.83	10494.24
871.15	10403.4
871.469	10419.67
871.789	10423.96
872.109	10445.21
872.428	10364.53
872.748	10388.48
873.067	10332.44
873.386	10379.22
873.706	10306.45
874.025	10240.69
874.344	10279.56
874.663	10312.78
874.982	10262.39
875.301	10276.62
875.62	10189.62
875.939	10202.05
876.258	10238.88
876.577	10153.24
876.896	10266.45
877.214	10126.57
877.533	10160.24
877.852	10120.69
878.17	10083.18
878.489	10085.67
878.807	10102.84
879.125	9967.25
879.444	10023.97
879.762	10020.58
880.08	10065.78
880.398	9983.97
880.716	9994.82
881.034	9943.98
881.352	9969.51
881.67	9883.86
881.988	9889.74
882.306	9794.15
882.624	9778.33
882.941	9764.32
883.259	9800.02
883.577	9730.42
883.894	9707.37
884.212	9729.52
884.529	9708.28
884.846	9603.42
885.164	9698.11
885.481	9618.11
885.798	9633.7
886.115	9564.55
886.432	9608.39
886.75	9534.5
887.067	9494.27
887.383	9438
887.7	9466.25
888.017	9421.73
888.334	9502.41
888.651	9404.1
888.967	9412.01
889.284	9353.26
889.6	9273.03
889.917	9220.15
890.233	9298.57
890.55	9231.23
890.866	9256.99
891.182	9185.13
891.498	9146.26
891.815	9144.45
892.131	9056.09
892.447	9085.47
892.763	9076.65
893.079	9016.77
893.395	8998.69
893.71	9013.15
894.026	8960.72
894.342	8947.84
894.657	8831.69
894.973	8874.85
895.289	8807.51
895.604	8781.75
895.92	8694.52
896.235	8701.07
896.55	8684.35
896.865	8718.02
897.181	8681.18
897.496	8646.16
897.811	8635.76
898.126	8594.86
898.441	8526.16
898.756	8451.59
899.071	8439.61
899.386	8463.11
899.7	8389.21
900.015	8347.18
900.33	8365.26
900.644	8364.13
900.959	8334.98
901.273	8243.46
901.588	8211.82
901.902	8168.2
902.216	8196
902.531	8180.63
902.845	8114.42
903.159	8075.32
903.473	8045.49
903.787	8045.27
904.101	7982.45
904.415	7979.96
904.729	7913.75
905.042	7883.92
905.356	7896.8
905.67	7866.06
905.984	7833.07
906.297	7821.77
906.611	7784.94
906.924	7662.23
907.237	7720.98
907.551	7666.75
907.864	7640.31
908.177	7565.51
908.491	7603.25
908.804	7488.45
909.117	7492.06
909.43	7480.76
909.743	7403.48
910.056	7326.19
910.368	7338.85
910.681	7238.51
910.994	7278.06
911.307	7277.83
911.619	7221.79
911.932	7295.46
912.244	7180.21
912.557	7148.34
912.869	7095.01
913.181	7059.98
913.494	7069.25
913.806	7040.1
914.118	6974.11
914.43	6969.36
914.742	6982.02
915.054	6890.5
915.366	6890.72
915.678	6912.19
915.99	6852.76
916.302	6793.32
916.613	6812.76
916.925	6722.82
917.236	6780.67
917.548	6719.2
917.859	6716.72
918.171	6631.52
918.482	6659.54
918.794	6635.81
919.105	6611.18
919.416	6539.55
919.727	6498.42
920.038	6502.26
920.349	6472.88
920.66	6442.82
920.971	6485.08
921.282	6419.1
921.593	6390.85
921.903	6365.76
922.214	6288.03
922.525	6293.68
922.835	6291.42
923.146	6191.53
923.456	6192.21
923.767	6234.47
924.077	6192.21
924.387	6150.63
924.697	6130.52
925.008	6067.02
925.318	6089.61
925.628	6079.22
925.938	6020.92
926.248	5957.41
926.558	5955.83
926.867	5990.18
927.177	5884.2
927.487	5890.75
927.796	5824.31
928.106	5799.45
928.416	5864.54
928.725	5825.21
929.034	5704.09
929.344	5768.72
929.653	5753.13
929.962	5705.22
930.271	5671.77
930.581	5642.17
930.89	5592.68
931.199	5573.92
931.508	5581.6
931.817	5579.8
932.125	5587.93
932.434	5549.29
932.743	5493.47
933.051	5481.04
933.36	5443.3
933.669	5418.45
933.977	5440.59
934.286	5370.54
934.594	5384.1
934.902	5353.14
935.21	5265.68
935.519	5298.22
935.827	5297.77
936.135	5265.68
936.443	5213.03
936.751	5270.43
937.059	5153.82
937.367	5152.46
937.674	5174.38
937.982	5142.07
938.29	5097.55
938.597	5048.06
938.905	5080.83
939.213	5042.18
939.52	4941.17
939.827	5010.55
940.135	4973.03
940.442	4946.14
940.749	4922.41
941.056	4946.14
941.363	4842.64
941.67	4839.7
941.977	4860.27
942.284	4796.09
942.591	4816.65
942.898	4797.44
943.205	4752.93
943.511	4732.14
943.818	4742.08
944.125	4689.42
944.431	4726.26
944.738	4663.66
945.044	4639.93
945.35	4652.14
945.657	4616.43
945.963	4623.21
946.269	4559.03
946.575	4568.07
946.881	4535.3
947.187	4556.09
947.493	4488.75
947.799	4441.97
948.105	4436.32
948.41	4443.1
948.716	4396.55
949.022	4391.58
949.327	4378.47
949.633	4343.22
949.938	4340.28
950.244	4354.97
950.549	4310.45
950.854	4290.11
951.16	4279.49
951.465	4241.3
951.77	4197.01
952.075	4234.75
952.38	4178.93
952.685	4174.18
952.99	4148.42
953.294	4136.67
953.599	4091.7
953.904	4131.47
954.209	4081.76
954.513	4067.29
954.818	4038.59
955.122	3977.13
955.426	4017.58
955.731	4042.21
956.035	3992.95
956.339	3978.93
956.643	3979.61
956.948	3907.98
957.252	3948.43
957.556	3929.67
957.86	3880.86
958.163	3894.87
958.467	3876.79
958.771	3855.1
959.075	3813.97
959.378	3807.41
959.682	3831.59
959.985	3757.25
960.289	3761.31
960.592	3740.52
960.896	3749.56
961.199	3724.48
961.502	3701.2
961.805	3701.2
962.108	3721.77
962.411	3623.24
962.714	3612.84
963.017	3622.11
963.32	3651.03
963.623	3585.72
963.926	3581.88
964.228	3554.77
964.531	3514.77
964.833	3529.46
965.136	3498.5
965.438	3522
965.741	3472.73
966.043	3505.05
966.345	3455.56
966.648	3456.24
966.95	3442.9
967.252	3430.02
967.554	3362
967.856	3383.47
968.158	3331.27
968.46	3365.62
968.761	3328.56
969.063	3328.78
969.365	3336.92
969.666	3300.76
969.968	3279.97
970.269	3247.65
970.571	3246.75
970.872	3197.94
971.174	3201.55
971.475	3230.03
971.776	3225.28
972.077	3141.89
972.378	3154.32
972.679	3160.65
972.98	3131.95
973.281	3121.33
973.582	3119.52
973.883	3085.17
974.183	3083.37
974.484	3080.2
974.785	3069.35
975.085	3036.13
975.386	3068
975.686	2996.14
975.986	3010.15
976.287	3038.17
976.587	2924.05
976.887	2945.52
977.187	2936.93
977.487	2950.94
977.787	2925.4
978.087	2897.38
978.387	2893.09
978.687	2872.07
978.987	2865.97
979.286	2887.44
979.586	2830.94
979.885	2832.75
980.185	2817.84
980.484	2810.38
980.784	2802.02
981.083	2776.25
981.382	2766.76
981.682	2761.57
981.981	2748.23
982.28	2742.36
982.579	2715.47
982.878	2709.82
983.177	2717.27
983.475	2701.23
983.774	2656.03
984.073	2658.07
984.372	2632.76
984.67	2645.86
984.969	2647.9
985.267	2634.79
985.566	2645.86
985.864	2618.29
986.162	2569.71
986.461	2589.82
986.759	2566.99
987.057	2528.8
987.355	2510.95
987.653	2549.82
987.951	2524.74
988.249	2503.49
988.547	2520.89
988.844	2471.63
989.142	2467.56
989.44	2454.46
989.737	2459.65
990.035	2427.56
990.332	2439.54
990.63	2424.63
990.927	2380.56
991.224	2379.65
991.521	2374.68
991.819	2384.63
992.116	2350.5
992.413	2349.83
992.71	2340.11
993.006	2307.57
993.303	2332.65
993.6	2317.74
993.897	2301.92
994.193	2272.31
994.49	2270.96
994.787	2283.39
995.083	2254.69
995.379	2254.01
995.676	2225.08
995.972	2224.4
996.268	2191.64
996.565	2194.35
996.861	2191.86
997.157	2168.59
997.453	2145.76
997.749	2121.13
998.044	2127.46
998.34	2126.78
998.636	2129.72
998.932	2105.54
999.227	2084.97
999.523	2086.1
999.818	2087.46
1000.114	2042.04
1000.409	2058.31
1000.704	2043.84
1001	2027.57
1001.295	2022.83
1001.59	2016.05
1001.885	2007.69
1002.18	2021.92
1002.475	2004.75
1002.77	2000.68
1003.065	1937.86
1003.359	1902.61
1003.654	1918.88
1003.949	1924.53
1004.243	1940.8
1004.538	1919.33
1004.832	1873.23
1005.127	1916.62
1005.421	1867.58
1005.715	1881.14
1006.009	1837.75
1006.304	1850.63
1006.598	1809.05
1006.892	1802.95
1007.186	1793.91
1007.48	1802.72
1007.773	1783.06
1008.067	1752.33
1008.361	1776.05
1008.655	1756.17
1008.948	1741.71
1009.242	1770.86
1009.535	1726.34
1009.829	1729.5
1010.122	1715.94
1010.415	1699.9
1010.708	1698.54
1011.001	1642.27
1011.295	1666.45
1011.588	1662.39
1011.881	1633.91
1012.173	1644.76
1012.466	1612.22
1012.759	1635.72
1013.052	1640.69
1013.344	1608.83
1013.637	1630.75
1013.93	1580.81
1014.222	1580.81
1014.514	1588.04
1014.807	1563.18
1015.099	1534.93
1015.391	1546.68
1015.683	1533.12
1015.976	1518.43
1016.268	1500.81
1016.56	1530.86
1016.851	1511.88
1017.143	1482.96
1017.435	1488.6
1017.727	1510.3
1018.018	1451.09
1018.31	1456.74
1018.602	1440.24
1018.893	1433.47
1019.185	1416.74
1019.476	1414.93
1019.767	1386.23
1020.058	1421.71
1020.35	1380.81
1020.641	1393.24
1020.932	1378.55
1021.223	1352.11
1021.514	1345.56
1021.804	1332
1022.095	1336.97
1022.386	1323.41
1022.677	1324.77
1022.967	1311.89
1023.258	1277.31
1023.548	1291.32
1023.839	1283.64
1024.129	1253.81
1024.419	1261.94
1024.709	1268.72
1025	1222.4
1025.29	1230.53
1025.58	1237.09
1025.87	1223.3
1026.16	1203.64
1026.449	1230.53
1026.739	1174.71
1027.029	1190.53
1027.319	1193.7
1027.608	1170.2
1027.898	1162.96
1028.187	1178.1
1028.477	1185.11
1028.766	1146.92
1029.055	1164.55
1029.344	1130.42
1029.634	1141.95
1029.923	1119.8
1030.212	1112.8
1030.501	1113.02
1030.79	1120.25
1031.078	1093.59
1031.367	1071.67
1031.656	1070.31
1031.945	1072.8
1032.233	1054.27
1032.522	1058.11
1032.81	1054.04
1033.099	1045.9
1033.387	1052.46
1033.675	1045.9
1033.963	1041.61
1034.251	1046.58
1034.54	996.19
1034.828	990.99
1035.116	1013.82
1035.403	989.63
1035.691	983.31
1035.979	992.35
1036.267	999.58
1036.554	974.27
1036.842	949.41
1037.129	962.07
1037.417	969.52
1037.704	950.54
1037.992	934.27
1038.279	931.33
1038.566	927.04
1038.853	927.04
1039.14	927.04
