Data from hue_180_FLMS001491_00007.txt Node
Date: Tue Feb 07 16:46:29 GMT 2017
User: dcchb
Spectrometer: FLMS00149
Trigger mode: 0
Integration Time (sec): 2.000000E-2
Scans to average: 10
Electric dark correction enabled: true
Nonlinearity correction enabled: false
Boxcar width: 0
XAxis mode: Wavelengths
Number of Pixels in Spectrum: 2048
>>>>>Begin Spectral Data<<<<<
341.393	-2.73
341.776	-2.73
342.16	-2.73
342.543	-48.15
342.927	-72.55
343.31	-62.39
343.693	-70.52
344.077	-68.03
344.46	-53.8
344.843	-54.93
345.226	-43.63
345.61	-51.09
345.993	-7.25
346.376	-0.92
346.759	1.34
347.142	40.66
347.525	51.28
347.908	43.6
348.291	73.66
348.674	97.84
349.057	104.16
349.44	125.18
349.823	142.58
350.206	163.6
350.588	191.17
350.971	206.76
351.354	226.87
351.737	232.52
352.119	253.76
352.502	267.55
352.884	263.93
353.267	288.11
353.65	288.79
354.032	289.7
354.414	293.99
354.797	316.14
355.179	303.25
355.562	342.58
355.944	321.11
356.326	320.2
356.709	342.58
357.091	348.45
357.473	348.9
357.855	357.94
358.238	350.26
358.62	350.03
359.002	354.78
359.384	355.23
359.766	347.1
360.148	333.76
360.53	350.26
360.912	338.51
361.294	333.31
361.676	326.76
362.057	318.17
362.439	332.63
362.821	308.23
363.203	314.78
363.584	315.01
363.966	302.58
364.348	342.12
364.729	332.41
365.111	319.07
365.493	320.66
365.874	310.26
366.256	333.08
366.637	328.11
367.019	316.59
367.4	333.99
367.781	304.16
368.163	313.88
368.544	324.72
368.925	307.77
369.306	314.55
369.688	324.95
370.069	292.86
370.45	310.49
370.831	322.01
371.212	324.05
371.593	320.66
371.974	323.14
372.355	300.77
372.736	322.46
373.117	318.4
373.498	325.18
373.879	312.52
374.26	309.13
374.641	301.45
375.021	335.12
375.402	339.41
375.783	333.08
376.163	324.95
376.544	316.81
376.925	335.57
377.305	326.76
377.686	331.5
378.066	301.67
378.447	331.28
378.827	340.32
379.208	326.53
379.588	327.21
379.968	330.15
380.349	345.51
380.729	317.49
381.109	343.03
381.489	347.77
381.87	321.79
382.25	367.43
382.63	340.99
383.01	335.57
383.39	333.54
383.77	353.87
384.15	337.15
384.53	365.4
384.91	337.15
385.29	357.72
385.67	349.81
386.049	352.74
386.429	358.39
386.809	380.99
387.189	349.13
387.568	352.52
387.948	371.05
388.328	363.59
388.707	329.47
389.087	355.46
389.466	377.15
389.846	383.7
390.225	357.26
390.605	363.37
390.984	376.47
391.363	365.4
391.743	371.5
392.122	374.89
392.501	367.66
392.881	379.41
393.26	367.43
393.639	378.51
394.018	385.29
394.397	375.8
394.776	400.2
395.155	384.16
395.534	397.72
395.913	381.9
396.292	396.81
396.671	406.75
397.05	397.26
397.429	387.09
397.808	413.53
398.186	399.52
398.565	409.01
398.944	416.47
399.323	413.53
399.701	416.7
400.08	422.57
400.458	405.17
400.837	426.64
401.215	430.03
401.594	435
401.972	424.83
402.351	446.98
402.729	437.71
403.107	428.9
403.486	450.37
403.864	438.17
404.242	434.55
404.62	450.6
404.999	454.21
405.377	457.37
405.755	464.83
406.133	462.35
406.511	478.62
406.889	486.53
407.267	478.84
407.645	489.01
408.023	498.5
408.401	486.53
408.779	489.24
409.156	517.94
409.534	512.74
409.912	505.28
410.29	524.72
410.667	512.74
411.045	531.05
411.422	550.03
411.8	543.02
412.178	569.91
412.555	586.86
412.933	589.12
413.31	602.23
413.687	614.43
414.065	581.44
414.442	627.31
414.819	619.63
415.197	642.23
415.574	656.47
415.951	637.26
416.328	641.55
416.705	647.2
417.082	669.12
417.46	659.4
417.837	693.75
418.214	688.56
418.591	697.82
418.967	699.63
419.344	703.7
419.721	720.87
420.098	740.31
420.475	767.42
420.852	773.98
421.228	760.19
421.605	760.87
421.982	792.28
422.358	811.72
422.735	806.52
423.111	815.11
423.488	863.01
423.864	872.05
424.241	835.67
424.617	881.09
424.994	874.31
425.37	905.95
425.746	911.83
426.123	942.79
426.499	926.52
426.875	919.28
427.251	931.94
427.627	975.1
428.003	1003.35
428.379	981.2
428.756	988.89
429.132	1013.07
429.507	1033.63
429.883	1032.95
430.259	1013.97
430.635	1032.73
431.011	1099.17
431.387	1102.56
431.763	1116.11
432.138	1128.09
432.514	1138.71
432.89	1148.43
433.265	1184.14
433.641	1172.61
434.016	1208.54
434.392	1216.45
434.767	1263.46
435.143	1251.25
435.518	1293.06
435.894	1312.27
436.269	1317.92
436.644	1309.78
437.02	1370.57
437.395	1377.35
437.77	1410.12
438.145	1423
438.52	1467.97
438.895	1438.14
439.271	1479.95
439.646	1513.17
440.021	1505.26
440.395	1546.61
440.77	1540.74
441.145	1557.69
441.52	1614.86
441.895	1607.18
442.27	1619.38
442.645	1640.39
443.019	1654.18
443.394	1686.04
443.769	1703.22
444.143	1682.65
444.518	1734.86
444.892	1721.97
445.267	1733.73
445.641	1786.38
446.016	1757.23
446.39	1794.74
446.764	1794.97
447.139	1799.71
447.513	1842.2
447.887	1843.1
448.262	1838.81
448.636	1848.75
449.01	1877.45
449.384	1905.92
449.758	1900.5
450.132	1958.35
450.506	1986.15
450.88	1964
451.254	1942.99
451.628	2024.57
452.002	2042.87
452.376	2037.9
452.75	2077.22
453.123	2093.72
453.497	2089.87
453.871	2133.26
454.244	2163.09
454.618	2151.79
454.992	2225.92
455.365	2210.55
455.739	2281.06
456.112	2316.54
456.486	2305.24
456.859	2378.91
457.232	2364.22
457.606	2400.15
457.979	2428.17
458.352	2466.36
458.725	2517.21
459.099	2547.94
459.472	2588.84
459.845	2577.55
460.218	2628.39
460.591	2668.84
460.964	2648.73
461.337	2768.95
461.71	2770.08
462.083	2776.86
462.456	2872
462.829	2841.95
463.201	2902.96
463.574	2862.74
463.947	2975.27
464.32	3020.7
464.692	3072.22
465.065	3095.27
465.438	3123.29
465.81	3171.43
466.183	3218.43
466.555	3285.32
466.928	3316.96
467.3	3314.7
467.672	3375.72
468.045	3474.47
468.417	3492.32
468.789	3506.79
469.161	3566.67
469.534	3622.94
469.906	3715.59
470.278	3735.71
470.65	3794.69
471.022	3843.05
471.394	3940.67
471.766	3954.46
472.138	4035.13
472.51	4120.78
472.882	4209.82
473.253	4268.57
473.625	4337.05
473.997	4401.45
474.369	4429.02
474.74	4512.18
475.112	4630.82
475.484	4664.72
475.855	4823.36
476.227	4859.29
476.598	5002.79
476.97	5049.34
477.341	5184.93
477.713	5260.86
478.084	5300.19
478.455	5422.22
478.827	5492.72
479.198	5673.51
479.569	5727.97
479.94	5859.94
480.311	5958.25
480.682	6112.14
481.053	6232.59
481.424	6356.65
481.795	6416.31
482.166	6543.54
482.537	6663.31
482.908	6812.69
483.279	6894.49
483.65	7057.2
484.021	7172
484.391	7260.13
484.762	7388.27
485.133	7452.45
485.503	7543.97
485.874	7779.22
486.244	7887.69
486.615	7957.29
486.985	8149.83
487.356	8302.14
487.726	8420.33
488.097	8535.58
488.467	8565.64
488.837	8804.73
489.207	8896.25
489.578	9024.61
489.948	9139.18
490.318	9311.38
490.688	9305.28
491.058	9498.04
491.428	9615.33
491.798	9758.15
492.168	9940.06
492.538	9971.25
492.908	10134.63
493.278	10259.38
493.648	10321.07
494.017	10363.1
494.387	10488.3
494.757	10583.89
495.126	10717.9
495.496	10723.77
495.866	10815.29
496.235	10921.51
496.605	11023.42
496.974	11093.25
497.344	11220.03
497.713	11231.1
498.082	11313.59
498.452	11476.97
498.821	11412.12
499.19	11550.42
499.559	11600.36
499.928	11701.83
500.298	11751.09
500.667	11777.08
501.036	11810.3
501.405	11936.17
501.774	11910.18
502.143	11988.6
502.512	12000.8
502.88	12146.33
503.249	12121.7
503.618	12208.93
503.987	12256.84
504.356	12292.32
504.724	12346.33
505.093	12335.03
505.462	12422.48
505.83	12462.71
506.199	12579.77
506.567	12710.39
506.936	12615.02
507.304	12820.44
507.672	12770.72
508.041	12788.8
508.409	12895.92
508.777	12939.31
509.145	12984.5
509.514	12993.32
509.882	12981.11
510.25	13010.04
510.618	13093.43
510.986	13062.92
511.354	13194.89
511.722	13160.09
512.09	13357.15
512.458	13220.66
512.826	13299.52
513.193	13256.13
513.561	13321.67
513.929	13451.16
514.297	13510.82
514.664	13534.55
515.032	13511.95
515.4	13524.38
515.767	13545.17
516.135	13506.3
516.502	13414.77
516.869	13719.85
517.237	13616.8
517.604	13579.06
517.972	13625.16
518.339	13694.32
518.706	13689.8
519.073	13726.63
519.44	13685.5
519.808	13810.02
520.175	13659.29
520.542	13781.77
520.909	13881.43
521.276	13725.5
521.643	13878.27
522.009	13799.17
522.376	13787.42
522.743	13879.85
523.11	13974.99
523.477	14004.14
523.843	13939.73
524.21	14045.94
524.577	14141.76
524.943	14014.76
525.31	14009.34
525.676	14180.63
526.043	14011.14
526.409	14142.66
526.776	14126.17
527.142	14155.77
527.508	14112.84
527.874	14156.9
528.241	14141.08
528.607	14080.97
528.973	14106.28
529.339	14051.37
529.705	14148.09
530.071	14203.45
530.437	14087.3
530.803	14091.14
531.169	14094.08
531.535	14019.73
531.901	13974.53
532.267	13931.82
532.632	13866.51
532.998	13927.76
533.364	13896.12
533.73	13903.35
534.095	13933.63
534.461	13865.84
534.826	13876.01
535.192	13784.93
535.557	13774.99
535.923	13774.09
536.288	13718.72
536.653	13743.58
537.019	13513.3
537.384	13546.07
537.749	13523.92
538.114	13561.21
538.479	13346.75
538.845	13490.7
539.21	13301.78
539.575	13280.31
539.94	13176.14
540.305	13225.4
540.67	13167.1
541.034	13078.74
541.399	13064.5
541.764	13056.14
542.129	13030.15
542.494	12845.75
542.858	12880.78
543.223	12811.4
543.587	12860.21
543.952	12741.12
544.316	12648.01
544.681	12560.79
545.045	12608.92
545.41	12553.33
545.774	12503.16
546.138	12395.14
546.503	12387
546.867	12276.5
547.231	12362.15
547.595	12288.93
547.959	12211.64
548.324	12175.03
548.688	12087.58
549.052	11951.54
549.416	11950.41
549.779	11971.87
550.143	11865.21
550.507	11878.54
550.871	11893.91
551.235	11737.08
551.599	11727.59
551.962	11745.21
552.326	11655.05
552.689	11627.02
553.053	11504.09
553.417	11515.84
553.78	11608.49
554.143	11427.03
554.507	11413.92
554.87	11414.6
555.234	11398.1
555.597	11328.5
555.96	11285.34
556.323	11255.28
556.686	11242.85
557.05	11185.45
557.413	11162.63
557.776	11151.33
558.139	11138.68
558.502	11113.37
558.865	11194.95
559.228	11067.49
559.59	11111.11
559.953	10957.89
560.316	11052.12
560.679	10984.33
561.041	11058.9
561.404	11102.07
561.767	10976.42
562.129	11006.48
562.492	11006.02
562.854	10882.86
563.217	10933.94
563.579	10970.09
563.941	11009.87
564.304	10953.82
564.666	10931
565.028	11022.07
565.39	10968.29
565.753	10961.73
566.115	10960.83
566.477	10923.54
566.839	10869.98
567.201	10946.82
567.563	10887.84
567.925	10951.34
568.287	10920.38
568.648	10943.65
569.01	10954.05
569.372	10950.43
569.734	10943.65
570.095	10978.68
570.457	10939.13
570.819	10985.91
571.18	10955.86
571.542	10946.82
571.903	10923.54
572.265	10983.65
572.626	10915.63
572.987	10952.47
573.349	10958.79
573.71	10993.6
574.071	10931.45
574.432	10974.16
574.794	11048.28
575.155	10992.69
575.516	10948.4
575.877	10963.31
576.238	11004.22
576.599	11014.16
576.96	11034.27
577.32	10974.84
577.681	10975.06
578.042	11001.96
578.403	11008.96
578.763	10935.52
579.124	10959.92
579.485	10920.83
579.845	11041.5
580.206	10980.71
580.566	10935.29
580.927	10982.3
581.287	11008.06
581.648	10829.31
582.008	10942.75
582.368	10836.31
582.728	11003.54
583.089	10835.18
583.449	10877.89
583.809	10853.49
584.169	10930.09
584.529	10829.76
584.889	10828.18
585.249	10773.49
585.609	10731.23
585.969	10791.34
586.329	10772.81
586.688	10742.08
587.048	10763.54
587.408	10677.67
587.768	10763.32
588.127	10779.36
588.487	10601.74
588.846	10725.58
589.206	10681.96
589.565	10680.16
589.925	10714.51
590.284	10682.19
590.643	10746.14
591.003	10712.92
591.362	10714.28
591.721	10629.76
592.08	10675.41
592.44	10678.35
592.799	10681.74
593.158	10563.1
593.517	10644.23
593.876	10657.11
594.235	10600.16
594.593	10622.98
594.952	10516.55
595.311	10552.25
595.67	10561.06
596.029	10608.97
596.387	10600.39
596.746	10659.37
597.104	10506.15
597.463	10521.07
597.822	10587.05
598.18	10487.62
598.538	10557.45
598.897	10532.82
599.255	10514.06
599.613	10590.22
599.972	10478.35
600.33	10528.3
600.688	10499.6
601.046	10484.46
601.404	10469.09
601.762	10512.93
602.12	10594.06
602.478	10571.46
602.836	10477.45
603.194	10520.39
603.552	10501.86
603.91	10466.83
604.268	10523.78
604.625	10499.37
604.983	10470.9
605.341	10404.91
605.698	10486.49
606.056	10404.23
606.413	10453.72
606.771	10457.56
607.128	10427.96
607.485	10470.9
607.843	10461.41
608.2	10562.19
608.557	10522.42
608.914	10508.86
609.272	10569.2
609.629	10610.55
609.986	10578.92
610.343	10502.53
610.7	10674.28
611.057	10552.93
611.414	10539.37
611.771	10549.09
612.127	10603.32
612.484	10575.3
612.841	10585.02
613.198	10531.23
613.554	10633.15
613.911	10660.27
614.267	10599.03
614.624	10590.89
614.98	10609.2
615.337	10693.04
615.693	10602.87
616.05	10587.73
616.406	10627.05
616.762	10620.72
617.118	10585.24
617.475	10608.97
617.831	10632.93
618.187	10584.79
618.543	10626.15
618.899	10724.45
619.255	10732.59
619.611	10625.7
619.967	10754.28
620.323	10684.68
620.678	10629.99
621.034	10627.28
621.39	10688.52
621.746	10666.6
622.101	10811.9
622.457	10724.45
622.812	10720.16
623.168	10705.24
623.523	10634.96
623.879	10775.07
624.234	10670.89
624.589	10663.43
624.945	10745.69
625.3	10680.38
625.655	10717.9
626.01	10669.54
626.365	10669.08
626.72	10743.88
627.075	10668.18
627.43	10526.26
627.785	10599.48
628.14	10615.75
628.495	10711.34
628.85	10619.82
629.205	10633.6
629.559	10620.72
629.914	10612.81
630.269	10580.72
630.623	10554.51
630.978	10625.24
631.332	10589.54
631.687	10594.74
632.041	10515.42
632.396	10594.06
632.75	10544.34
633.104	10558.35
633.459	10513.38
633.813	10467.28
634.167	10537.11
634.521	10501.63
634.875	10484.68
635.229	10444.46
635.583	10409.43
635.937	10385.7
636.291	10352.93
636.645	10450.78
636.999	10325.36
637.352	10294.63
637.706	10334.86
638.06	10279.94
638.413	10300.05
638.767	10306.83
639.121	10309.55
639.474	10260.96
639.828	10240.17
640.181	10290.79
640.534	10264.35
640.888	10253.28
641.241	10140.06
641.594	10164.01
641.947	10200.4
642.301	10197.23
642.654	10248.08
643.007	10261.41
643.36	10226.61
643.713	10185.48
644.066	10206.95
644.419	10202.43
644.771	10091.25
645.124	10019.16
645.477	9961.08
645.83	9964.24
646.182	9901.19
646.535	9846.05
646.888	9933.96
647.24	9830.46
647.593	9903.23
647.945	9879.73
648.298	9862.1
648.65	9843.79
649.002	9842.21
649.355	9774.64
649.707	9849.22
650.059	9858.03
650.411	10020.06
650.763	10038.14
651.115	10095.54
651.467	10054.64
651.819	10005.82
652.171	10025.71
652.523	10015.77
652.875	10051.02
653.227	10050.34
653.578	10084.24
653.93	10120.85
654.282	10046.05
654.633	10074.3
654.985	10018.93
655.337	10089.44
655.688	10127.18
656.039	10128.53
656.391	9992.27
656.742	10038.14
657.094	10079.95
657.445	10086.05
657.796	10134.86
658.147	10084.69
658.498	10056.67
658.849	10139.15
659.2	10112.04
659.551	10122.43
659.902	10157.23
660.253	10119.04
660.604	10144.35
660.955	10109.78
661.306	10188.42
661.656	10089.89
662.007	10095.77
662.358	10177.8
662.708	10182.54
663.059	10125.37
663.409	10100.96
663.76	10185.25
664.11	10201.3
664.461	10211.69
664.811	10111.58
665.161	10135.99
665.511	10104.58
665.862	10136.44
666.212	10233.84
666.562	10184.35
666.912	10224.12
667.262	10184.8
667.612	10136.67
667.962	10192.03
668.312	10148.65
668.662	10191.36
669.011	10230
669.361	10164.01
669.711	10104.58
670.06	10156.33
670.41	10176.89
670.76	10116.56
671.109	10126.27
671.459	10100.96
671.808	10132.15
672.157	10114.97
672.507	10089.21
672.856	10099.83
673.205	10089.21
673.554	10210.34
673.904	10102.55
674.253	10113.84
674.602	10096.44
674.951	9971.48
675.3	9915.88
675.649	10058.03
675.998	10052.15
676.346	10046.28
676.695	10050.34
677.044	10017.35
677.393	10027.74
677.741	10052.15
678.09	9966.05
678.438	9939.84
678.787	9999.04
679.135	9981.19
679.484	9918.6
679.832	9994.3
680.181	9930.57
680.529	9835.89
680.877	9854.19
681.225	9874.08
681.573	9863.23
681.922	9794.3
682.27	9749.79
682.618	9804.93
682.966	9749.33
683.314	9787.75
683.661	9748.66
684.009	9751.37
684.357	9600.64
684.705	9618.72
685.053	9608.77
685.4	9600.19
685.748	9525.84
686.095	9604.03
686.443	9538.94
686.79	9516.35
687.138	9546.4
687.485	9513.63
687.832	9507.53
688.18	9429.79
688.527	9433.86
688.874	9352.51
689.221	9359.51
689.568	9300.31
689.915	9251.27
690.262	9351.6
690.609	9267.31
690.956	9229.12
691.303	9196.35
691.65	9132.63
691.997	9107.09
692.344	9088.79
692.69	9117.26
693.037	9064.61
693.383	9021.9
693.73	8988.9
694.077	8926.98
694.423	8940.32
694.769	8898.06
695.116	8837.27
695.462	8882.69
695.808	8810.6
696.155	8757.95
696.501	8738.29
696.847	8722.24
697.193	8623.26
697.539	8732.41
697.885	8565.41
698.231	8567.44
698.577	8589.59
698.923	8515.24
699.269	8519.54
699.614	8419.2
699.96	8425.53
700.306	8394.34
700.651	8370.84
700.997	8334.23
701.342	8336.04
701.688	8280.67
702.033	8230.05
702.379	8144.86
702.724	8120.22
703.069	8249.49
703.415	8119.77
703.76	8054.69
704.105	8066.89
704.45	8097.63
704.795	8076.16
705.14	8054.92
705.485	7967.23
705.83	7910.06
706.175	7918.87
706.52	7943.28
706.865	7820.35
707.209	7868.71
707.554	7850.4
707.899	7880.91
708.243	7738.99
708.588	7784.19
708.932	7763.4
709.277	7731.08
709.621	7732.89
709.966	7660.8
710.31	7663.97
710.654	7587.13
710.998	7562.95
711.342	7569.96
711.687	7589.84
712.031	7552.78
712.375	7480.24
712.719	7505.1
713.063	7481.15
713.407	7541.26
713.75	7480.02
714.094	7496.74
714.438	7425.55
714.782	7447.02
715.125	7388.04
715.469	7407.7
715.812	7376.06
716.156	7369.06
716.499	7325.44
716.843	7311.21
717.186	7374.03
717.53	7305.56
717.873	7295.39
718.216	7321.6
718.559	7275.95
718.902	7227.37
719.246	7275.27
719.589	7234.82
719.932	7136.3
720.275	7151.21
720.617	7217.2
720.96	7195.73
721.303	7180.59
721.646	7258.33
721.989	7198.44
722.331	7142.4
722.674	7188.72
723.016	7186.46
723.359	7211.1
723.701	7217.42
724.044	7131.1
724.386	7135.39
724.729	7149.18
725.071	7192.11
725.413	7098.56
725.755	7083.64
726.097	7109.63
726.439	7080.25
726.782	7118.22
727.124	7131.55
727.465	7089.74
727.807	7067.14
728.149	7066.92
728.491	7068.05
728.833	7061.5
729.175	7073.25
729.516	7083.19
729.858	7096.97
730.199	7061.95
730.541	7067.6
730.882	7022.17
731.224	7096.07
731.565	7073.02
731.906	7070.31
732.248	7090.87
732.589	7087.71
732.93	7077.54
733.271	7094.94
733.612	7079.35
733.953	7116.41
734.294	7028.73
734.635	7054.94
734.976	7066.01
735.317	7016.3
735.658	7028.5
735.999	7126.58
736.339	7068.5
736.68	7127.03
737.021	7121.83
737.361	7105.56
737.702	7081.38
738.042	7140.36
738.383	7112.34
738.723	7146.69
739.063	7080.93
739.404	7172
739.744	7162.06
740.084	7152.11
740.424	7182.62
740.764	7192.11
741.104	7233.92
741.444	7268.5
741.784	7250.19
742.124	7290.64
742.464	7248.38
742.804	7267.37
743.143	7374.48
743.483	7276.63
743.823	7393.01
744.162	7306.46
744.502	7459.45
744.841	7455.61
745.181	7468.72
745.52	7473.69
745.86	7547.36
746.199	7630.75
746.538	7634.36
746.877	7715.94
747.216	7713.23
747.556	7778.99
747.895	7790.29
748.234	7882.94
748.573	7945.09
748.911	8021.02
749.25	8067.8
749.589	8122.48
749.928	8188.92
750.267	8337.85
750.605	8341.24
750.944	8422.14
751.283	8548.91
751.621	8555.47
751.96	8672.07
752.298	8785.52
752.636	8866.65
752.975	8929.69
753.313	9024.83
753.651	9239.74
753.989	9235.22
754.327	9484.03
754.666	9575.1
755.004	9664.82
755.342	9888.31
755.679	10003.11
756.017	10150
756.355	10291.01
756.693	10467.96
757.031	10631.8
757.368	10739.36
757.706	10940.04
758.044	11102.07
758.381	11352
758.719	11434.71
759.056	11696.4
759.394	11723.07
759.731	11961.93
760.068	12074.47
760.405	12343.16
760.743	12503.84
761.08	12702.25
761.417	12802.81
761.754	13099.3
762.091	13227.21
762.428	13433.08
762.765	13525.28
763.102	13932.27
763.438	14043.68
763.775	14202.1
764.112	14507.4
764.449	14628.3
764.785	14764.34
765.122	14949.88
765.458	15158.68
765.795	15255.86
766.131	15489.97
766.467	15642.51
766.804	15834.15
767.14	15884.54
767.476	16215.38
767.812	16264.42
768.148	16522.94
768.485	16572.21
768.821	16709.15
769.157	16836.83
769.492	17054.68
769.828	17197.05
770.164	17244.5
770.5	17423.71
770.836	17635.23
771.171	17790.03
771.507	17878.61
771.842	17840.19
772.178	17999.06
772.513	18219.62
772.849	18272.73
773.184	18278.15
773.519	18421.65
773.855	18588.65
774.19	18610.8
774.525	18771.02
774.86	18819.15
775.195	18920.17
775.53	18976.89
775.865	18995.42
776.2	18913.84
776.535	18906.38
776.87	19097.56
777.205	19122.42
777.539	19147.96
777.874	19317.22
778.209	19296.43
778.543	19368.97
778.878	19256.2
779.212	19483.09
779.547	19510.66
779.881	19641.73
780.215	19541.62
780.55	19633.59
780.884	19599.47
781.218	19590.88
781.552	19615.29
781.886	19643.31
782.22	19609.41
782.554	19584.78
782.888	19602.41
783.222	19558.34
783.556	19458.46
783.889	19565.57
784.223	19463.43
784.557	19617.32
784.89	19691.45
785.224	19559.7
785.557	19529.42
785.891	19526.7
786.224	19436.31
786.558	19561.51
786.891	19460.04
787.224	19354.96
787.557	19446.03
787.891	19405.58
788.224	19526.93
788.557	19428.18
788.89	19506.14
789.223	19431.79
789.556	19334.17
789.888	19339.36
790.221	19394.5
790.554	19223.89
790.887	19311.34
791.219	19215.07
791.552	19219.37
791.884	19091.69
792.217	19098.47
792.549	19078.81
792.882	18956.1
793.214	18986.83
793.546	19041.75
793.879	18914.74
794.211	18867.51
794.543	18914.29
794.875	18956.55
795.207	18995.87
795.539	18905.03
795.871	18912.26
796.203	18681.3
796.535	18607.63
796.867	18564.92
797.198	18615.54
797.53	18651.02
797.862	18414.42
798.193	18489.44
798.525	18444.25
798.856	18376
799.188	18259.84
799.519	18207.42
799.85	18078.15
800.182	18164.93
800.513	18190.69
800.844	18089.91
801.175	18211.71
801.506	18164.93
801.837	18099.4
802.168	18018.72
802.499	17913.19
802.83	17893.07
803.161	17915
803.491	17820.53
803.822	17835.9
804.153	17756.13
804.483	17620.54
804.814	17598.17
805.145	17649.69
805.475	17546.64
805.805	17482.24
806.136	17596.36
806.466	17583.25
806.796	17535.8
807.126	17417.83
807.457	17472.52
807.787	17354.11
808.117	17204.05
808.447	17201.12
808.777	17267.33
809.107	17146.65
809.436	17206.77
809.766	17120.44
810.096	17123.38
810.426	16971.07
810.755	16960.44
811.085	17053.32
811.414	17042.93
811.744	16826.89
812.073	16836.15
812.403	16868.47
812.732	16743.27
813.061	16824.18
813.39	16691.98
813.719	16714.12
814.049	16755.03
814.378	16803.16
814.707	16608.36
815.036	16647.23
815.365	16481.36
815.693	16414.24
816.022	16417.63
816.351	16408.59
816.68	16307.13
817.008	16391.42
817.337	16256.06
817.665	16268.26
817.994	16284.76
818.322	16136.96
818.651	16117.98
818.979	16189.16
819.307	16225.77
819.636	16182.16
819.964	16044.76
820.292	16089.28
820.62	16054.48
820.948	16110.97
821.276	16047.47
821.604	16102.16
821.932	16135.61
822.259	16096.06
822.587	16105.33
822.915	15998.44
823.243	16100.81
823.57	15997.76
823.898	16024.88
824.225	16005.89
824.553	15985.33
824.88	15973.35
825.207	16047.93
825.535	16056.74
825.862	16132.67
826.189	15991.66
826.516	16059.9
826.843	16076.4
827.17	16036.85
827.497	16070.07
827.824	16066.23
828.151	16104.2
828.478	16141.26
828.805	16040.02
829.131	16051.32
829.458	16000.24
829.785	15906.91
830.111	16153.46
830.438	16124.08
830.764	16082.27
831.09	16115.49
831.417	16081.82
831.743	16025.1
832.069	16082.27
832.395	15939
832.722	16041.15
833.048	15983.97
833.374	16042.73
833.7	15862.62
834.026	15960.47
834.351	15944.43
834.677	15995.72
835.003	15930.19
835.329	15899.23
835.654	15857.42
835.98	15815.62
836.306	15827.82
836.631	15813.81
836.956	15861.49
837.282	15847.7
837.607	15709.4
837.932	15727.93
838.258	15793.92
838.583	15662.62
838.908	15634.15
839.233	15638.67
839.558	15581.95
839.883	15523.87
840.208	15563.64
840.533	15539.69
840.858	15537.66
841.182	15492.91
841.507	15437.55
841.832	15373.37
842.156	15334.27
842.481	15364.1
842.805	15261.05
843.13	15316.42
843.454	15360.94
843.778	15220.6
844.103	15180.38
844.427	15206.82
844.751	15141.28
845.075	15114.39
845.399	15121.4
845.723	15007.27
846.047	14944
846.371	14890.67
846.695	14892.93
847.019	14764.8
847.343	14819.94
847.666	14665.14
847.99	14581.98
848.313	14665.14
848.637	14508.08
848.96	14502.88
849.284	14431.7
849.607	14356.44
849.931	14231.7
850.254	14243
850.577	14130.24
850.9	14021.99
851.223	14085.49
851.546	14001.88
851.869	13955.1
852.192	13991.93
852.515	13756.01
852.838	13798.72
853.161	13846.85
853.483	13707.42
853.806	13655.67
854.129	13587.2
854.451	13508.56
854.774	13453.19
855.096	13475.11
855.419	13394.21
855.741	13388.33
856.063	13313.08
856.385	13321.9
856.708	13277.6
857.03	13192.41
857.352	13244.16
857.674	13011.85
857.996	13039.19
858.318	13027.67
858.64	13067.66
858.961	13045.07
859.283	12989.47
859.605	12893.66
859.926	12892.3
860.248	12773.44
860.57	12780.89
860.891	12763.72
861.212	12756.94
861.534	12666.77
861.855	12682.14
862.176	12649.14
862.498	12619.77
862.819	12601.91
863.14	12579.77
863.461	12576.38
863.782	12505.87
864.103	12538.41
864.424	12545.19
864.745	12485.99
865.065	12340.45
865.386	12385.2
865.707	12400.79
866.027	12389.26
866.348	12406.21
866.668	12349.94
866.989	12301.13
867.309	12278.99
867.63	12389.94
867.95	12224.98
868.27	12115.6
868.59	12257.52
868.91	12216.84
869.23	12149.04
869.55	12118.99
869.87	12212.77
870.19	12150.4
870.51	12168.71
870.83	12171.64
871.15	12076.28
871.469	12001.03
871.789	12116.28
872.109	12099.1
872.428	11922.84
872.748	11994.47
873.067	11955.38
873.386	11898.66
873.706	11931.2
874.025	11834.7
874.344	11749.06
874.663	11842.61
874.982	11810.07
875.301	11742.73
875.62	11857.3
875.939	11808.04
876.258	11784.53
876.577	11688.04
876.896	11710.86
877.214	11662.5
877.533	11601.94
877.852	11640.36
878.17	11653.46
878.489	11588.83
878.807	11593.58
879.125	11493.24
879.444	11522.85
879.762	11493.69
880.08	11510.64
880.398	11431.32
880.716	11372.79
881.034	11399.01
881.352	11416.18
881.67	11363.3
881.988	11417.31
882.306	11384.55
882.624	11320.59
882.941	11224.78
883.259	11195.85
883.577	11256.87
883.894	11172.12
884.212	11186.13
884.529	11144.33
884.846	11087.6
885.164	11107.49
885.481	11089.41
885.798	11037.66
886.115	10993.37
886.432	10979.13
886.75	10923.99
887.067	10924.67
887.383	10893.94
887.7	10983.43
888.017	10846.25
888.334	10873.15
888.651	10811.9
888.967	10807.61
889.284	10738.69
889.6	10752.92
889.917	10609.42
890.233	10611.01
890.55	10569.65
890.866	10573.04
891.182	10560.39
891.498	10559.26
891.815	10485.59
892.131	10476.55
892.447	10521.52
892.763	10415.76
893.079	10384.12
893.395	10278.13
893.71	10375.53
894.026	10334.63
894.342	10232.71
894.657	10235.87
894.973	10180.28
895.289	10170.57
895.604	10198.81
895.92	10120.62
896.235	9992.72
896.55	10045.6
896.865	10037.01
897.181	10026.16
897.496	9996.79
897.811	9885.6
898.126	9914.75
898.441	9875.88
898.756	9798.82
899.071	9790.24
899.386	9731.03
899.7	9644.7
900.015	9638.38
900.33	9506.85
900.644	9540.53
900.959	9593.63
901.273	9501.88
901.588	9440.19
901.902	9349.57
902.216	9377.14
902.531	9338.05
902.845	9309.57
903.159	9299.85
903.473	9264.83
903.787	9222.79
904.101	9103.48
904.415	9169.46
904.729	9133.31
905.042	9049.47
905.356	9033.19
905.67	8990.94
905.984	8992.52
906.297	8934.21
906.611	8869.81
906.924	8869.36
907.237	8853.54
907.551	8832.52
907.864	8818.29
908.177	8714.33
908.491	8763.6
908.804	8636.14
909.117	8562.02
909.43	8548.91
909.743	8541
910.056	8537.16
910.368	8493.77
910.681	8423.27
910.994	8413.1
911.307	8415.13
911.619	8268.7
911.932	8338.98
912.244	8287
912.557	8241.13
912.869	8185.08
913.181	8124.52
913.494	8140.79
913.806	8061.92
914.118	8048.81
914.43	8027.12
914.742	8023.73
915.054	7945.54
915.366	7967.46
915.678	7931.98
915.99	7860.12
916.302	7840.23
916.613	7827.35
916.925	7767.92
917.236	7726.79
917.548	7707.58
917.859	7747.8
918.171	7615.6
918.482	7597.53
918.794	7605.21
919.105	7546.68
919.416	7486.79
919.727	7473.91
920.038	7474.37
920.349	7414.93
920.66	7372.67
920.971	7350.98
921.282	7305.33
921.593	7317.99
921.903	7317.99
922.214	7241.83
922.525	7239.12
922.835	7147.82
923.146	7083.42
923.456	7106.01
923.767	7015.85
924.077	7084.55
924.387	7035.28
924.697	7026.92
925.008	6947.15
925.318	6915.28
925.628	6926.13
925.938	6884.55
926.248	6855.85
926.558	6868.73
926.867	6829.18
927.177	6765.91
927.487	6806.13
927.796	6778.56
928.106	6726.36
928.416	6635.74
928.725	6616.76
929.034	6659.47
929.344	6608.4
929.653	6603.43
929.962	6481.4
930.271	6467.39
930.581	6467.16
930.89	6437.1
931.199	6386.94
931.508	6386.94
931.817	6366.82
932.125	6393.72
932.434	6375.41
932.743	6332.7
933.051	6279.82
933.36	6258.35
933.669	6222.87
933.977	6194.63
934.286	6145.14
934.594	6167.51
934.902	6109.43
935.21	6076.21
935.519	6106.94
935.827	6015.65
936.135	6005.03
936.443	5957.12
936.751	5957.34
937.059	5955.08
937.367	5897.46
937.674	5903.11
937.982	5872.83
938.29	5844.13
938.597	5871.7
938.905	5743.56
939.213	5737.46
939.52	5676.45
939.827	5740.85
940.135	5687.97
940.442	5730.91
940.749	5675.99
941.056	5622.66
941.363	5621.31
941.67	5558.94
941.977	5478.94
942.284	5476.45
942.591	5501.08
942.898	5477.58
943.205	5454.98
943.511	5429.9
943.818	5382.67
944.125	5433.06
944.431	5355.78
944.738	5318.72
945.044	5373.86
945.35	5306.29
945.657	5233.75
945.963	5247.76
946.269	5228.77
946.575	5196.69
946.881	5160.75
947.187	5108.33
947.493	5139.51
947.799	5061.77
948.105	5092.51
948.41	4995.56
948.716	5039.85
949.022	5036.01
949.327	5060.19
949.633	4935
949.938	4977.26
950.244	4979.97
950.549	4892.96
950.854	4847.99
951.16	4896.13
951.465	4882.8
951.77	4871.27
952.075	4780.65
952.38	4797.15
952.685	4794.89
952.99	4723.7
953.294	4731.16
953.599	4701.11
953.904	4697.04
954.209	4646.87
954.513	4635.8
954.818	4638.96
955.122	4593.99
955.426	4622.46
955.731	4587.89
956.035	4522.8
956.339	4538.17
956.643	4526.87
956.948	4501.34
957.252	4470.83
957.556	4441.45
957.86	4446.2
958.163	4400.1
958.467	4439.42
958.771	4355.35
959.075	4350.83
959.378	4324.39
959.682	4335.24
959.985	4298.18
960.289	4301.57
960.592	4273.77
960.896	4261.79
961.199	4224.28
961.502	4220.67
961.805	4176.15
962.108	4159.2
962.411	4146.77
962.714	4112.19
963.017	4114.91
963.32	4144.06
963.623	4070.16
963.926	4089.37
964.228	4036.94
964.531	4038.3
964.833	4029.48
965.136	4027.68
965.438	3963.72
965.741	3946.1
966.043	3967.11
966.345	3888.92
966.648	3886.21
966.95	3873.56
967.252	3851.18
967.554	3855.48
967.856	3850.28
968.158	3801.24
968.46	3787.23
968.761	3773.9
969.063	3739.77
969.365	3766.89
969.666	3750.4
969.968	3729.15
970.269	3701.58
970.571	3740.68
970.872	3696.61
971.174	3632.66
971.475	3667.01
971.776	3614.13
972.077	3627.46
972.378	3610.06
972.679	3583.17
972.98	3565.77
973.281	3540.46
973.582	3542.49
973.883	3518.76
974.183	3471.53
974.484	3481.25
974.785	3438.31
975.085	3468.82
975.386	3449.84
975.686	3436.73
975.986	3387.47
976.287	3398.31
976.587	3372.78
976.887	3365.1
977.187	3372.33
977.487	3362.61
977.787	3281.48
978.087	3271.31
978.387	3253.01
978.687	3262.05
978.987	3217.98
979.286	3285.55
979.586	3245.78
979.885	3193.12
980.185	3187.7
980.484	3185.89
980.784	3188.83
981.083	3117.42
981.382	3120.36
981.682	3129.85
981.981	3126.01
982.28	3135.04
982.579	3068.38
982.878	3039.91
983.177	3065.89
983.475	3034.71
983.774	3022.05
984.073	3004.88
984.372	2998.78
984.67	2966.46
984.969	2990.87
985.267	2999.23
985.566	2952.68
985.864	2921.04
986.162	2944.54
986.461	2901.6
986.759	2886.46
987.057	2857.54
987.355	2841.72
987.653	2840.82
987.951	2881.72
988.249	2790.19
988.547	2825.67
988.844	2804.21
989.142	2790.42
989.44	2771.66
989.737	2724.43
990.035	2782.51
990.332	2729.18
990.63	2737.99
990.927	2707.49
991.224	2697.32
991.521	2687.82
991.819	2681.05
992.116	2642.4
992.413	2636.98
992.71	2624.1
993.006	2645.34
993.303	2610.76
993.6	2620.71
993.897	2598.56
994.193	2582.97
994.49	2560.6
994.787	2573.03
995.083	2564.66
995.379	2520.82
995.676	2515.85
995.972	2486.93
996.268	2488.28
996.565	2489.19
996.861	2470.88
997.157	2478.56
997.453	2476.76
997.749	2431.79
998.044	2410.32
998.34	2413.26
998.636	2415.06
998.932	2385.69
999.227	2367.38
999.523	2353.6
999.818	2343.88
1000.114	2306.59
1000.409	2321.51
1000.704	2292.13
1001	2300.04
1001.295	2266.37
1001.59	2271.79
1001.885	2254.84
1002.18	2242.41
1002.475	2220.94
1002.77	2212.36
1003.065	2219.59
1003.359	2175.52
1003.654	2180.04
1003.949	2169.19
1004.243	2175.52
1004.538	2096.2
1004.832	2123.09
1005.127	2137.78
1005.421	2109.53
1005.715	2116.31
1006.009	2107.05
1006.304	2059.37
1006.598	2068.86
1006.892	2047.39
1007.186	2047.16
1007.48	2021.85
1007.773	2016.2
1008.067	2012.59
1008.361	1992.25
1008.655	1945.7
1008.948	1968.97
1009.242	1980.5
1009.535	1943.21
1009.829	1957.67
1010.122	1915.19
1010.415	1935.08
1010.708	1894.17
1011.001	1908.41
1011.295	1880.61
1011.588	1870.45
1011.881	1871.35
1012.173	1848.52
1012.466	1845.36
1012.759	1837.68
1013.052	1803.78
1013.344	1778.02
1013.637	1778.92
1013.93	1788.41
1014.222	1753.61
1014.514	1784.57
1014.807	1756.55
1015.099	1721.52
1015.391	1706.83
1015.683	1715.65
1015.976	1689.66
1016.268	1679.49
1016.56	1712.71
1016.851	1663.22
1017.143	1671.58
1017.435	1639.26
1017.727	1641.75
1018.018	1628.19
1018.31	1597.23
1018.602	1613.05
1018.893	1620.06
1019.185	1586.61
1019.476	1551.58
1019.767	1553.39
1020.058	1543.45
1020.35	1549.78
1020.641	1542.09
1020.932	1532.83
1021.223	1532.37
1021.514	1508.65
1021.804	1484.69
1022.095	1513.84
1022.386	1497.12
1022.677	1484.92
1022.967	1450.57
1023.258	1461.42
1023.548	1443.79
1023.839	1432.94
1024.129	1437.01
1024.419	1412.83
1024.709	1400.18
1025	1405.37
1025.29	1388.42
1025.58	1380.06
1025.87	1380.29
1026.16	1367.86
1026.449	1364.7
1026.739	1341.87
1027.029	1362.66
1027.319	1341.65
1027.608	1330.8
1027.898	1308.43
1028.187	1296.45
1028.477	1299.39
1028.766	1302.78
1029.055	1285.15
1029.344	1258.26
1029.634	1281.76
1029.923	1256.9
1030.212	1227.07
1030.501	1244.7
1030.79	1258.48
1031.078	1233.17
1031.367	1188.66
1031.656	1223
1031.945	1160.41
1032.233	1178.94
1032.522	1172.16
1032.81	1163.8
1033.099	1150.69
1033.387	1158.6
1033.675	1151.14
1033.963	1103.91
1034.251	1137.58
1034.54	1105.49
1034.828	1090.35
1035.116	1126.96
1035.403	1077.92
1035.691	1086.51
1035.979	1107.98
1036.267	1072.27
1036.554	1086.96
1036.842	1039.51
1037.129	1066.85
1037.417	1051.03
1037.704	1037.25
1037.992	1033.41
1038.279	1048.09
1038.566	1027.08
1038.853	1027.08
1039.14	1027.08
