Data from hue_120_FLMS001491_00065.txt Node
Date: Tue Feb 07 16:59:49 GMT 2017
User: dcchb
Spectrometer: FLMS00149
Trigger mode: 0
Integration Time (sec): 2.000000E-2
Scans to average: 10
Electric dark correction enabled: true
Nonlinearity correction enabled: false
Boxcar width: 0
XAxis mode: Wavelengths
Number of Pixels in Spectrum: 2048
>>>>>Begin Spectral Data<<<<<
341.393	2.53
341.776	2.53
342.16	2.53
342.543	-53.97
342.927	-66.4
343.31	-57.58
343.693	-56.91
344.077	-61.42
344.46	-70.92
344.843	-76.57
345.226	-27.08
345.61	-31.14
345.993	-18.71
346.376	-1.77
346.759	2.98
347.142	6.82
347.525	59.7
347.908	58.12
348.291	82.98
348.674	95.63
349.057	95.86
349.44	122.98
349.823	127.95
350.206	176.08
350.588	198.68
350.971	220.83
351.354	245.01
351.737	226.48
352.119	243.2
352.502	243.88
352.884	259.92
353.267	302.41
353.65	300.37
354.032	299.47
354.414	295.4
354.797	328.85
355.179	312.8
355.562	318.23
355.944	311.67
356.326	328.85
356.709	337.66
357.091	325.01
357.473	339.47
357.855	372.01
358.238	331.79
358.62	334.95
359.002	345.8
359.384	349.41
359.766	329.07
360.148	332.69
360.53	358.9
360.912	344.44
361.294	339.24
361.676	337.89
362.057	344.67
362.439	340.82
362.821	343.08
363.203	316.19
363.584	325.91
363.966	330.88
364.348	312.12
364.729	334.5
365.111	313.48
365.493	337.21
365.874	316.42
366.256	321.62
366.637	312.58
367.019	300.83
367.4	316.64
367.781	307.6
368.163	319.36
368.544	324.78
368.925	308.96
369.306	318.9
369.688	294.72
370.069	300.6
370.45	306.47
370.831	303.76
371.212	311.45
371.593	300.37
371.974	310.77
372.355	328.85
372.736	306.25
373.117	319.81
373.498	298.34
373.879	309.19
374.26	321.16
374.641	323.88
375.021	324.1
375.402	317.32
375.783	298.11
376.163	311.67
376.544	325.68
376.925	333.82
377.305	358.68
377.686	347.83
378.066	339.92
378.447	343.54
378.827	353.48
379.208	341.5
379.588	324.33
379.968	334.5
380.349	338.11
380.729	337.21
381.109	324.78
381.489	317.1
381.87	357.55
382.25	338.11
382.63	328.4
383.01	353.48
383.39	349.19
383.77	353.93
384.15	334.72
384.53	339.92
384.91	360.26
385.29	361.84
385.67	343.76
386.049	372.24
386.429	365.68
386.809	370.2
387.189	356.64
387.568	363.87
387.948	355.29
388.328	369.52
388.707	383.31
389.087	348.06
389.466	358.45
389.846	379.69
390.225	381.73
390.605	385.12
390.984	383.08
391.363	370.43
391.743	366.13
392.122	374.72
392.501	377.43
392.881	384.21
393.26	381.73
393.639	409.3
394.018	386.47
394.397	401.39
394.776	419.47
395.155	394.61
395.534	396.87
395.913	398
396.292	399.81
396.671	414.95
397.05	385.79
397.429	387.6
397.808	418.56
398.186	418.34
398.565	395.51
398.944	407.94
399.323	429.86
399.701	421.95
400.08	400.26
400.458	438.9
400.837	420.37
401.215	432.8
401.594	432.57
401.972	414.04
402.351	402.97
402.729	424.89
403.107	431.22
403.486	425.12
403.864	465.79
404.242	457.88
404.62	431.67
404.999	436.42
405.377	449.97
405.755	450.43
406.133	457.66
406.511	439.58
406.889	476.41
407.267	470.54
407.645	448.84
408.023	454.72
408.401	482.97
408.779	468.5
409.156	485.91
409.534	469.41
409.912	483.87
410.29	482.52
410.667	499.69
411.045	483.87
411.422	508.28
411.8	493.81
412.178	504.44
412.555	505.57
412.933	500.82
413.31	493.81
413.687	501.72
414.065	489.97
414.442	527.71
414.819	561.16
415.197	525.68
415.574	523.87
415.951	523.87
416.328	567.03
416.705	561.38
417.082	540.59
417.46	543.98
417.837	556.64
418.214	557.99
418.591	553.7
418.967	557.09
419.344	577.43
419.721	567.03
420.098	582.85
420.475	582.17
420.852	574.26
421.228	585.34
421.605	596.64
421.982	581.27
422.358	603.19
422.735	621.72
423.111	593.02
423.488	607.71
423.864	610.2
424.241	627.82
424.617	614.72
424.994	610.42
425.37	619.01
425.746	643.42
426.123	624.21
426.499	627.37
426.875	669.4
427.251	663.3
427.627	645.68
428.003	676.18
428.379	665.56
428.756	680.25
429.132	705.33
429.507	684.32
429.883	687.71
430.259	704.2
430.635	719.57
431.011	727.25
431.387	717.09
431.763	759.12
432.138	732.68
432.514	745.11
432.89	744.88
433.265	754.82
433.641	767.93
434.016	785.56
434.392	781.94
434.767	787.82
435.143	775.16
435.518	793.69
435.894	796.41
436.269	829.17
436.644	807.93
437.02	832.11
437.395	823.52
437.77	833.01
438.145	861.49
438.52	861.49
438.895	890.64
439.271	852.45
439.646	884.09
440.021	882.28
440.395	888.38
440.77	901.94
441.145	932
441.52	926.35
441.895	915.72
442.27	913.24
442.645	931.77
443.019	931.32
443.394	950.75
443.769	940.36
444.143	935.84
444.518	966.8
444.892	971.32
445.267	984.65
445.641	988.94
446.016	986.23
446.39	1004.54
446.764	1001.82
447.139	993.91
447.513	1007.25
447.887	1013.58
448.262	1027.81
448.636	1009.28
449.01	1027.81
449.384	1042.5
449.758	1053.35
450.132	1041.37
450.506	1037.76
450.88	1057.42
451.254	1060.35
451.628	1099.45
452.002	1140.13
452.376	1105.78
452.75	1106.91
453.123	1129.05
453.497	1150.07
453.871	1138.77
454.244	1161.37
454.618	1178.54
454.992	1210.86
455.365	1211.99
455.739	1248.15
456.112	1222.84
456.486	1232.78
456.859	1280.46
457.232	1267.35
457.606	1283.17
457.979	1280.91
458.352	1280.69
458.725	1355.94
459.099	1336.28
459.472	1384.64
459.845	1369.95
460.218	1387.8
460.591	1414.24
460.964	1444.07
461.337	1440.91
461.71	1479.1
462.083	1482.49
462.456	1481.59
462.829	1535.6
463.201	1527.23
463.574	1536.95
463.947	1592.09
464.32	1569.27
464.692	1607.01
465.065	1657.85
465.438	1660.11
465.81	1666.44
466.183	1677.51
466.555	1728.36
466.928	1738.98
467.3	1766.32
467.672	1794.12
468.045	1847.45
468.417	1861.91
468.789	1877.51
469.161	1890.84
469.534	1943.04
469.906	1990.5
470.278	2024.62
470.65	2055.81
471.022	2110.04
471.394	2120.44
471.766	2165.86
472.138	2258.29
472.51	2237.5
472.882	2281.34
473.253	2353.43
473.625	2412.86
473.997	2455.12
474.369	2507.55
474.74	2504.61
475.112	2600.65
475.484	2672.97
475.855	2743.47
476.227	2771.72
476.598	2871.38
476.97	2917.93
477.341	2987.31
477.713	3049.45
478.084	3095.78
478.455	3228.21
478.827	3279.5
479.198	3406.05
479.569	3439.27
479.94	3554.75
480.311	3650.34
480.682	3753.84
481.053	3848.53
481.424	3965.59
481.795	4039.03
482.166	4180.72
482.537	4208.52
482.908	4364.9
483.279	4495.52
483.65	4587.27
484.021	4771.44
484.391	4863.64
484.762	4935.73
485.133	5042.85
485.503	5210.98
485.874	5303.63
486.244	5487.36
486.615	5657.97
486.985	5760.57
487.356	5854.8
487.726	6027.68
488.097	6203.5
488.467	6302.7
488.837	6466.99
489.207	6601.22
489.578	6761.45
489.948	6906.3
490.318	7041.44
490.688	7162.34
491.058	7368.66
491.428	7548.32
491.798	7631.25
492.168	7880.06
492.538	8037.8
492.908	8157.34
493.278	8331.12
493.648	8487.95
494.017	8594.39
494.387	8805.23
494.757	8910.77
495.126	9072.12
495.496	9122.29
495.866	9312.57
496.235	9499.68
496.605	9615.38
496.974	9685.44
497.344	9940.8
497.713	9986.9
498.082	10129.27
498.452	10313.67
498.821	10361.58
499.19	10539.65
499.559	10674.11
499.928	10813.77
500.298	10852.19
500.667	11065.74
501.036	11076.59
501.405	11218.96
501.774	11307.54
502.143	11372.62
502.512	11541.66
502.88	11658.04
503.249	11694.88
503.618	11841.09
503.987	11904.14
504.356	12010.35
504.724	12112.04
505.093	12227.29
505.462	12254.86
505.83	12315.42
506.199	12459.6
506.567	12623.67
506.936	12717.67
507.304	12848.29
507.672	12861.17
508.041	12962.41
508.409	12983.66
508.777	13184.33
509.145	13285.12
509.514	13237.66
509.882	13370.31
510.25	13360.37
510.618	13513.13
510.986	13575.73
511.354	13742.73
511.722	13741.15
512.09	13874.03
512.458	13831.77
512.826	13920.13
513.193	14062.27
513.561	14062.72
513.929	14185.66
514.297	14270.18
514.664	14327.58
515.032	14323.96
515.4	14470.85
515.767	14487.35
516.135	14514.01
516.502	14447.57
516.869	14721.69
517.237	14603.73
517.604	14704.06
517.972	14742.25
518.339	14814.12
518.706	14835.81
519.073	14853.44
519.44	14952.64
519.808	15076.26
520.175	15009.14
520.542	15132.07
520.909	15215.24
521.276	15173.88
521.643	15327.32
522.009	15308.57
522.376	15403.71
522.743	15425.4
523.11	15588.11
523.477	15560.54
523.843	15605.96
524.21	15721.21
524.577	15800.3
524.943	15713.53
525.31	15876.69
525.676	15939.96
526.043	15977.93
526.409	16026.74
526.776	16152.39
527.142	16124.59
527.508	16067.42
527.874	16231.71
528.241	16150.13
528.607	16153.52
528.973	16267.19
529.339	16199.84
529.705	16303.57
530.071	16273.06
530.437	16391.02
530.803	16466.73
531.169	16385.6
531.535	16417.01
531.901	16283.46
532.267	16385.6
532.632	16364.81
532.998	16333.4
533.364	16424.7
533.73	16383.57
534.095	16440.51
534.461	16364.13
534.826	16404.36
535.192	16383.34
535.557	16469.44
535.923	16485.03
536.288	16392.83
536.653	16390.57
537.019	16273.51
537.384	16334.75
537.749	16301.31
538.114	16259.28
538.479	16322.55
538.845	16349.67
539.21	16194.64
539.575	16243.68
539.94	16161.88
540.305	16269.22
540.67	16088.21
541.034	16202.1
541.399	16208.88
541.764	16171.82
542.129	16125.04
542.494	16098.83
542.858	16097.92
543.223	15959.4
543.587	16123.23
543.952	15972.5
544.316	15979.51
544.681	15845.05
545.045	15843.47
545.41	15892.51
545.774	15784.49
546.138	15784.03
546.503	15799.17
546.867	15683.47
547.231	15796.92
547.595	15766.41
547.959	15725.28
548.324	15603.47
548.688	15639.18
549.052	15565.96
549.416	15636.24
549.779	15608.9
550.143	15495.23
550.507	15567.54
550.871	15510.59
551.235	15468.11
551.599	15547.88
551.962	15528.67
552.326	15437.83
552.689	15348.79
553.053	15358.28
553.417	15367.77
553.78	15456.13
554.143	15332.97
554.507	15325.29
554.87	15340.2
555.234	15399.86
555.597	15282.8
555.96	15331.16
556.323	15302.46
556.686	15229.92
557.05	15334.33
557.413	15357.83
557.776	15287.55
558.139	15282.35
558.502	15328.68
558.865	15248.91
559.228	15241
559.59	15322.58
559.953	15206.2
560.316	15340.88
560.679	15281.9
561.041	15302.92
561.404	15365.74
561.767	15459.07
562.129	15336.81
562.492	15432.18
562.854	15403.03
563.217	15318.74
563.579	15319.19
563.941	15408.68
564.304	15414.33
564.666	15507.21
565.028	15514.44
565.39	15486.64
565.753	15538.62
566.115	15593.08
566.477	15597.37
566.839	15540.42
567.201	15612.29
567.563	15558.5
567.925	15734.77
568.287	15678.95
568.648	15643.25
569.01	15759.85
569.372	15728.22
569.734	15688.44
570.095	15805.95
570.457	15851.6
570.819	15832.62
571.18	15729.57
571.542	15769.35
571.903	15835.56
572.265	15814.32
572.626	15904.48
572.987	15874.2
573.349	15946.06
573.71	15848.67
574.071	15937.93
574.432	15938.38
574.794	16043.69
575.155	16000.07
575.516	15954.65
575.877	15960.07
576.238	16032.16
576.599	16022.67
576.96	16045.72
577.32	15977.25
577.681	16103.8
578.042	16116.91
578.403	16052.73
578.763	16083.46
579.124	16149
579.485	16116
579.845	16144.25
580.206	16085.95
580.566	16043.24
580.927	16069.68
581.287	16174.98
581.648	16018.15
582.008	16065.83
582.368	16132.73
582.728	16107.64
583.089	16145.61
583.449	16075.78
583.809	16053.63
584.169	16091.6
584.529	16047.98
584.889	16095.89
585.249	16039.85
585.609	15978.38
585.969	16043.91
586.329	16010.69
586.688	16009.79
587.048	16052.73
587.408	15984.93
587.768	15965.27
588.127	15859.06
588.487	15862.9
588.846	15965.95
589.206	15886.86
589.565	15854.09
589.925	16006.4
590.284	15888.89
590.643	15911.71
591.003	15965.27
591.362	15883.69
591.721	15888.44
592.08	15913.3
592.44	15898.83
592.799	15905.61
593.158	15946.29
593.517	15866.07
593.876	15901.77
594.235	15841.43
594.593	15820.64
594.952	15911.04
595.311	15782.9
595.67	15865.84
596.029	15988.32
596.387	15866.52
596.746	15896.12
597.104	15812.96
597.463	15830.13
597.822	15837.82
598.18	15805.73
598.538	15794.88
598.897	15821.77
599.255	15752.85
599.613	15841.89
599.972	15825.39
600.33	15845.05
600.688	15886.86
601.046	15880.98
601.404	15944.03
601.762	15889.34
602.12	15925.73
602.478	15928.66
602.836	15820.19
603.194	15750.59
603.552	15907.65
603.91	15776.12
604.268	15852.05
604.625	15709.23
604.983	15839.4
605.341	15754.2
605.698	15785.16
606.056	15852.51
606.413	15845.73
606.771	15821.1
607.128	15920.75
607.485	15767.54
607.843	15777.93
608.2	15965.5
608.557	15958.49
608.914	15921.66
609.272	15902.68
609.629	16016.8
609.986	16139.96
610.343	15913.07
610.7	15970.92
611.057	16063.35
611.414	16032.62
611.771	16075.1
612.127	16068.32
612.484	16087.53
612.841	16158.49
613.198	16008.66
613.554	16064.03
613.911	16158.49
614.267	16096.34
614.624	16096.79
614.98	16035.55
615.337	16149
615.693	16132.05
616.05	16036.46
616.406	16140.18
616.762	16149
617.118	16224.93
617.475	16209.11
617.831	16199.62
618.187	16254.3
618.543	16338.14
618.899	16351.7
619.255	16328.65
619.611	16273.96
619.967	16402.55
620.323	16388.76
620.678	16323.23
621.034	16263.34
621.39	16206.85
621.746	16336.11
622.101	16440.51
622.457	16309.67
622.812	16387.63
623.168	16358.93
623.523	16278.26
623.879	16327.07
624.234	16278.94
624.589	16356.67
624.945	16385.83
625.3	16350.8
625.655	16411.59
626.01	16338.37
626.365	16334.53
626.72	16266.73
627.075	16304.25
627.43	16312.61
627.785	16316.9
628.14	16356.9
628.495	16311.7
628.85	16336.11
629.205	16253.63
629.559	16344.47
629.914	16203.23
630.269	16234.64
630.623	16211.82
630.978	16160.07
631.332	16326.84
631.687	16261.08
632.041	16163.46
632.396	16226.96
632.75	16168.88
633.104	16159.39
633.459	16015.44
633.813	15972.73
634.167	16005.72
634.521	16015.44
634.875	16071.03
635.229	16006.4
635.583	15893.18
635.937	15941.32
636.291	16021.54
636.645	15999.17
636.999	15796.24
637.352	15978.38
637.706	15843.02
638.06	15854.77
638.413	15899.74
638.767	15846.86
639.121	15958.72
639.474	15718.73
639.828	15873.52
640.181	15737.71
640.534	15823.58
640.888	15704.26
641.241	15626.07
641.594	15720.98
641.947	15763.92
642.301	15702.45
642.654	15699.06
643.007	15718.95
643.36	15778.16
643.713	15726.41
644.066	15679.63
644.419	15583.81
644.771	15513.53
645.124	15404.38
645.477	15360.99
645.83	15254.78
646.182	15173.2
646.535	15211.39
646.888	15213.88
647.24	15107.89
647.593	15146.99
647.945	15082.36
648.298	15073.77
648.65	15059.53
649.002	14947.22
649.355	15021.34
649.707	15066.54
650.059	15184.95
650.411	15272.86
650.763	15348.34
651.115	15497.94
651.467	15469.01
651.819	15378.4
652.171	15411.84
652.523	15429.92
652.875	15412.29
653.227	15304.27
653.578	15543.59
653.93	15409.81
654.282	15436.7
654.633	15325.74
654.985	15341.11
655.337	15465.4
655.688	15503.59
656.039	15533.19
656.391	15354.21
656.742	15426.76
657.094	15341.33
657.445	15480.31
657.796	15432.18
658.147	15463.59
658.498	15310.37
658.849	15457.26
659.2	15480.09
659.551	15364.61
659.902	15441.44
660.253	15445.06
660.604	15392.86
660.955	15386.08
661.306	15371.39
661.656	15454.55
662.007	15457.94
662.358	15438.05
662.708	15448.45
663.059	15464.49
663.409	15274.22
663.76	15467.43
664.11	15477.83
664.461	15485.96
664.811	15446.87
665.161	15380.65
665.511	15457.04
665.862	15397.6
666.212	15463.36
666.562	15413.87
666.912	15447.32
667.262	15441.22
667.612	15541.1
667.962	15466.3
668.312	15478.05
668.662	15445.51
669.011	15409.58
669.361	15373.2
669.711	15438.05
670.06	15417.49
670.41	15441.9
670.76	15379.52
671.109	15392.63
671.459	15323.71
671.808	15349.24
672.157	15458.62
672.507	15238.96
672.856	15302.92
673.205	15343.59
673.554	15352.63
673.904	15320.54
674.253	15457.26
674.602	15331.39
674.951	15121.68
675.3	15005.3
675.649	15206.65
675.998	15184.73
676.346	15222.69
676.695	15208.68
677.044	15130.72
677.393	15186.08
677.741	15166.2
678.09	15165.97
678.438	15082.13
678.787	15109.93
679.135	15061.79
679.484	15010.5
679.832	14989.7
680.181	14973.66
680.529	14938.41
680.877	14949.71
681.225	14950.16
681.573	15025.41
681.922	14881.91
682.27	14833.32
682.618	14875.36
682.966	14848.24
683.314	14841.91
683.661	14758.07
684.009	14733.44
684.357	14738.64
684.705	14693.89
685.053	14698.19
685.4	14597.85
685.748	14596.04
686.095	14541.35
686.443	14484.63
686.79	14418.19
687.138	14505.88
687.485	14386.33
687.832	14441.02
688.18	14469.72
688.527	14288.93
688.874	14284.64
689.221	14258.2
689.568	14150.4
689.915	14178.2
690.262	14075.83
690.609	14094.59
690.956	13975.95
691.303	13982.05
691.65	13965.55
691.997	13924.65
692.344	13839.9
692.69	13786.57
693.037	13775.05
693.383	13666.58
693.73	13831.32
694.077	13644.43
694.423	13639.91
694.769	13604.66
695.116	13533.25
695.462	13580.7
695.808	13509.52
696.155	13486.24
696.501	13453.02
696.847	13345
697.193	13354.72
697.539	13357.43
697.885	13246.7
698.231	13186.14
698.577	13207.38
698.923	13088.06
699.269	13003.54
699.614	13020.72
699.96	12966.03
700.306	12898.01
700.651	12899.36
700.997	12831.34
701.342	12786.82
701.688	12753.38
702.033	12703.66
702.379	12706.6
702.724	12622.76
703.069	12633.61
703.415	12376.67
703.76	12445.14
704.105	12491.47
704.45	12443.33
704.795	12371.92
705.14	12305.26
705.485	12268.65
705.83	12267.06
706.175	12232.26
706.52	12112.04
706.865	12140.06
707.209	12149.1
707.554	12038.82
707.899	12141.19
708.243	12023.68
708.588	12004.92
708.932	11876.57
709.277	11835.89
709.621	11898.49
709.966	11745.27
710.31	11807.42
710.654	11777.59
710.998	11667.31
711.342	11736
711.687	11708.21
712.031	11607.87
712.375	11632.05
712.719	11602.22
713.063	11533.3
713.407	11621.21
713.75	11509.8
714.094	11474.09
714.438	11464.37
714.782	11488.33
715.125	11453.53
715.469	11497.14
715.812	11386.41
716.156	11282.68
716.499	11311.84
716.843	11331.27
717.186	11284.72
717.53	11308.67
717.873	11356.81
718.216	11311.38
718.559	11209.24
718.902	11157.94
719.246	11165.85
719.589	11114.33
719.932	11131.73
720.275	11075.01
720.617	11058.96
720.96	11110.94
721.303	11134.66
721.646	11190.93
721.989	11069.36
722.331	11097.6
722.674	11078.17
723.016	11074.1
723.359	11061.45
723.701	11085.63
724.044	10971.73
724.386	10904.84
724.729	11061.9
725.071	10933.77
725.413	11052.41
725.755	10943.71
726.097	10950.04
726.439	10854.22
726.782	10832.07
727.124	10880.89
727.465	10864.16
727.807	10884.5
728.149	10879.76
728.491	10760.21
728.833	10877.27
729.175	10832.98
729.516	10775.13
729.858	10752.53
730.199	10836.37
730.541	10791.17
730.882	10772.87
731.224	10773.54
731.565	10790.27
731.906	10778.52
732.248	10728.8
732.589	10844.73
732.93	10751.4
733.271	10709.82
733.612	10695.13
733.953	10764.96
734.294	10722.25
734.635	10692.42
734.976	10677.95
735.317	10693.77
735.658	10669.59
735.999	10711.4
736.339	10640.44
736.68	10778.06
737.021	10749.36
737.361	10673.43
737.702	10718.86
738.042	10734.22
738.383	10747.56
738.723	10791.4
739.063	10679.76
739.404	10764.96
739.744	10703.26
740.084	10735.58
740.424	10775.13
740.764	10766.54
741.104	10810.83
741.444	10794.11
741.784	10821.9
742.124	10802.24
742.464	10825.07
742.804	10853.77
743.143	10871.62
743.483	10851.51
743.823	10813.54
744.162	10917.04
744.502	10965.86
744.841	11023.26
745.181	10998.4
745.52	11035.68
745.86	11058.51
746.199	11097.15
746.538	11104.84
746.877	11174.89
747.216	11270.03
747.556	11322.68
747.895	11371.04
748.234	11321.1
748.573	11380.53
748.911	11510.02
749.25	11547.31
749.589	11582.34
749.928	11689.68
750.267	11770.58
750.605	11821.65
750.944	11927.86
751.283	11989.56
751.621	12132.15
751.96	12175.32
752.298	12204.69
752.636	12389.1
752.975	12429.55
753.313	12443.33
753.651	12694.4
753.989	12765.13
754.327	12850.33
754.666	12903.21
755.004	13070.21
755.342	13302.97
755.679	13329.64
756.017	13425.9
756.355	13627.71
756.693	13804.43
757.031	13942.73
757.368	14019.11
757.706	14134.13
758.044	14269.05
758.381	14484.41
758.719	14605.76
759.056	14803.49
759.394	14918.07
759.731	15046.2
760.068	15258.4
760.405	15392.63
760.743	15560.99
761.08	15697.26
761.417	15831.49
761.754	16003.69
762.091	16140.41
762.428	16401.19
762.765	16402.77
763.102	16709.21
763.438	16850.9
763.775	16929.31
764.112	17158.46
764.449	17388.51
764.785	17462.86
765.122	17572.46
765.458	17655.85
765.795	17887.93
766.131	18089.51
766.467	18244.53
766.804	18277.53
767.14	18450.18
767.476	18580.34
767.812	18646.11
768.148	18810.17
768.485	19014.91
768.821	18990.5
769.157	19205.87
769.492	19329.7
769.828	19389.36
770.164	19293.77
770.5	19523.6
770.836	19616.02
771.171	19720.43
771.507	19800.43
771.842	19877.49
772.178	19960.65
772.513	19952.74
772.849	20106.63
773.184	20170.81
773.519	20201.32
773.855	20271.15
774.19	20266.85
774.525	20380.3
774.86	20507.75
775.195	20510.69
775.53	20456.45
775.865	20503.01
776.2	20432.73
776.535	20508.43
776.87	20596.56
777.205	20624.58
777.539	20478.15
777.874	20682.66
778.209	20602.44
778.543	20660.52
778.878	20597.92
779.212	20679.27
779.547	20647.64
779.881	20707.97
780.215	20736.45
780.55	20842.21
780.884	20779.38
781.218	20660.06
781.552	20873.62
781.886	20684.47
782.22	20614.19
782.554	20696.45
782.888	20616.45
783.222	20621.42
783.556	20519.28
783.889	20511.37
784.223	20421.43
784.557	20382.33
784.89	20513.18
785.224	20453.74
785.557	20322.45
785.891	20447.87
786.224	20356.57
786.558	20453.97
786.891	20195.22
787.224	20270.7
787.557	20156.35
787.891	20280.19
788.224	20171.94
788.557	20187.76
788.89	20129.68
789.223	20149.8
789.556	20067.76
789.888	20001.1
790.221	20024.83
790.554	19846.07
790.887	19771.5
791.219	19843.59
791.552	19746.42
791.884	19798.17
792.217	19752.52
792.549	19701.22
792.882	19655.12
793.214	19539.42
793.546	19583.93
793.879	19576.25
794.211	19388.69
794.543	19543.71
794.875	19463.94
795.207	19484.95
795.539	19279.54
795.871	19355.47
796.203	19208.8
796.535	19160.89
796.867	19152.08
797.198	19234.34
797.53	19084.29
797.862	18944.63
798.193	19025.3
798.525	18910.51
798.856	19044.06
799.188	18851.3
799.519	18770.17
799.85	18629.38
800.182	18642.72
800.513	18772.43
800.844	18513.45
801.175	18623.28
801.506	18569.5
801.837	18524.98
802.168	18433.46
802.499	18466.68
802.83	18378.32
803.161	18311.65
803.491	18210.86
803.822	18221.03
804.153	18134.48
804.483	18105.78
804.814	17939.46
805.145	18053.58
805.475	18006.35
805.805	18010.87
806.136	17910.76
806.466	17946.01
806.796	17843.19
807.126	17752.8
807.457	17685
807.787	17753.93
808.117	17576.98
808.447	17689.29
808.777	17699.69
809.107	17528.62
809.436	17456.08
809.766	17441.39
810.096	17467.15
810.426	17294.95
810.755	17329.98
811.085	17304.67
811.414	17180.38
811.744	17113.26
812.073	17181.74
812.403	17203.88
812.732	17066.94
813.061	17072.81
813.39	17030.33
813.719	16951.46
814.049	17006.37
814.378	16933.38
814.707	16921.18
815.036	16852.48
815.365	16805.25
815.693	16661.75
816.022	16727.06
816.351	16610
816.68	16572.04
817.008	16593.5
817.337	16562.54
817.665	16422.21
817.994	16578.59
818.322	16518.48
818.651	16387.41
818.979	16296.11
819.307	16431.02
819.636	16435.54
819.964	16254.08
820.292	16407.97
820.62	16314.87
820.948	16205.27
821.276	16335.21
821.604	16224.7
821.932	16285.49
822.259	16219.73
822.587	16258.6
822.915	16223.57
823.243	16307.41
823.57	16236.68
823.898	16219.73
824.225	16165.04
824.553	16171.59
824.88	16279.84
825.207	16271.03
825.535	16287.52
825.862	16254.76
826.189	16214.08
826.516	16249.56
826.843	16314.19
827.17	16206.4
827.497	16277.81
827.824	16346.51
828.151	16303.57
828.478	16230.35
828.805	16361.65
829.131	16251.37
829.458	16222.89
829.785	16224.02
830.111	16113.74
830.438	16317.58
830.764	16281.65
831.09	16252.72
831.417	16156.23
831.743	16263.8
832.069	16307.64
832.395	16104.93
832.722	16206.62
833.048	16128.88
833.374	16204.14
833.7	16023.35
834.026	16128.43
834.351	16215.89
834.677	15988.32
835.003	16125.27
835.329	16118.71
835.654	16106.96
835.98	15948.55
836.306	16045.72
836.631	15955.33
836.956	16098.6
837.282	16024.48
837.607	15950.81
837.932	15866.74
838.258	15843.69
838.583	15836.24
838.908	15711.27
839.233	15770.02
839.558	15821.55
839.883	15780.42
840.208	15674.21
840.533	15793.98
840.858	15641.21
841.182	15686.18
841.507	15681.66
841.832	15596.47
842.156	15568.67
842.481	15521.67
842.805	15500.65
843.13	15462.46
843.454	15442.35
843.778	15346.98
844.103	15336.81
844.427	15379.3
844.751	15250.04
845.075	15273.99
845.399	15201.22
845.723	15092.98
846.047	15145.63
846.371	15033.09
846.695	15011.17
847.019	14955.36
847.343	14839.2
847.666	14814.79
847.99	14789.48
848.313	14772.99
848.637	14659.54
848.96	14653.44
849.284	14537.74
849.607	14505.65
849.931	14382.26
850.254	14391.3
850.577	14247.8
850.9	14114.7
851.223	14134.13
851.546	14150.18
851.869	14071.08
852.192	14042.84
852.515	13892.78
852.838	13976.62
853.161	13833.12
853.483	13773.01
853.806	13719.68
854.129	13716.97
854.451	13656.86
854.774	13586.13
855.096	13564.21
855.419	13509.29
855.741	13449.18
856.063	13437.2
856.385	13420.71
856.708	13317.66
857.03	13289.86
857.352	13293.93
857.674	13268.39
857.996	13252.8
858.318	13096.42
858.64	13167.83
858.961	13107.04
859.283	13042.64
859.605	12985.92
859.926	13052.13
860.248	12962.64
860.57	12921.51
860.891	12966.93
861.212	12839.7
861.534	12802.64
861.855	12795.19
862.176	12791.34
862.498	12805.13
862.819	12683.32
863.14	12703.66
863.461	12688.75
863.782	12654.85
864.103	12653.04
864.424	12634.74
864.745	12609.65
865.065	12499.37
865.386	12446.95
865.707	12422.77
866.027	12476.1
866.348	12447.85
866.668	12467.96
866.989	12430
867.309	12321.75
867.63	12326.5
867.95	12336.44
868.27	12294.18
868.59	12287.4
868.91	12260.74
869.23	12201.08
869.55	12209.89
869.87	12202.66
870.19	12201.98
870.51	12158.82
870.83	12188.87
871.15	12158.14
871.469	12101.87
871.789	12145.03
872.109	12159.04
872.428	11988.88
872.748	12053.51
873.067	12010.57
873.386	12005.83
873.706	12089.89
874.025	11906.85
874.344	11855.32
874.663	11917.24
874.982	11826.4
875.301	11937.58
875.62	11908.88
875.939	11807.19
876.258	11821.43
876.577	11768.32
876.896	11839.73
877.214	11755.89
877.533	11836.79
877.852	11750.24
878.17	11755.89
878.489	11706.18
878.807	11695.78
879.125	11635.67
879.444	11705.27
879.762	11648.1
880.08	11649
880.398	11547.76
880.716	11571.26
881.034	11462.34
881.352	11517.71
881.67	11453.98
881.988	11426.86
882.306	11392.96
882.624	11382.34
882.941	11301.44
883.259	11373.53
883.577	11277.71
883.894	11295.34
884.212	11320.2
884.529	11272.51
884.846	11207.66
885.164	11207.21
885.481	11126.3
885.798	11162.69
886.115	11080.65
886.432	10990.71
886.75	11012.63
887.067	11061.9
887.383	11072.75
887.7	11057.15
888.017	10979.87
888.334	10968.79
888.651	10981.9
888.967	10908.68
889.284	10827.55
889.6	10849.02
889.917	10757.73
890.233	10777.84
890.55	10724.28
890.866	10652.87
891.182	10670.72
891.498	10658.75
891.815	10584.4
892.131	10542.82
892.447	10513.21
892.763	10524.06
893.079	10476.83
893.395	10402.25
893.71	10439.32
894.026	10434.12
894.342	10399.77
894.657	10353.22
894.973	10220.79
895.289	10291.98
895.604	10247.91
895.92	10129.04
896.235	10190.96
896.55	10100.34
896.865	10092.21
897.181	10034.81
897.496	10109.83
897.811	9986.9
898.126	9913.68
898.441	9900.12
898.756	9901.25
899.071	9826.45
899.386	9857.64
899.7	9747.13
900.015	9756.4
900.33	9649.51
900.644	9592.11
900.959	9649.96
901.273	9569.51
901.588	9588.04
901.902	9459.91
902.216	9421.26
902.531	9416.97
902.845	9364.09
903.159	9425.78
903.473	9230.99
903.787	9264.88
904.101	9209.74
904.415	9194.6
904.729	9211.78
905.042	9125
905.356	9071.22
905.67	9067.83
905.984	9082.97
906.297	9035.96
906.611	8965.46
906.924	8995.29
907.237	8925.46
907.551	8844.78
907.864	8816.53
908.177	8838.91
908.491	8825.35
908.804	8717.1
909.117	8706.03
909.43	8642.08
909.743	8585.81
910.056	8584.9
910.368	8497.9
910.681	8501.51
910.994	8475.53
911.307	8447.28
911.619	8440.5
911.932	8447.28
912.244	8306.49
912.557	8364.57
912.869	8264.91
913.181	8206.15
913.494	8271.92
913.806	8199.37
914.118	8148.08
914.43	8159.15
914.742	8108.3
915.054	8060.85
915.366	7995.54
915.678	8012.26
915.99	7990.57
916.302	7867.41
916.613	7803.68
916.925	7901.08
917.236	7768.2
917.548	7766.17
917.859	7812.04
918.171	7689.11
918.482	7718.03
918.794	7646.85
919.105	7692.5
919.416	7575.66
919.727	7574.08
920.038	7585.61
920.349	7536.79
920.66	7458.6
920.971	7481.88
921.282	7397.81
921.593	7354.88
921.903	7349.23
922.214	7317.14
922.525	7330.92
922.835	7236.91
923.146	7172.74
923.456	7163.7
923.767	7158.05
924.077	7132.96
924.387	7068.11
924.697	7100.19
925.008	7056.81
925.318	7029.46
925.628	7031.72
925.938	6980.2
926.248	6877.38
926.558	6862.91
926.867	6808.45
927.177	6897.26
927.487	6783.59
927.796	6756.02
928.106	6783.59
928.416	6758.28
928.725	6732.07
929.034	6624.95
929.344	6660.43
929.653	6627.66
929.962	6601.45
930.271	6523.94
930.581	6528.68
930.89	6471.06
931.199	6455.01
931.508	6490.04
931.817	6414.79
932.125	6410.72
932.434	6429.7
932.743	6342.47
933.051	6317.62
933.36	6282.36
933.669	6288.01
933.977	6245.53
934.286	6215.92
934.594	6134.8
934.902	6117.4
935.21	6103.16
935.519	6161.91
935.827	6039.43
936.135	6102.93
936.443	5975.7
936.751	6011.41
937.059	5968.02
937.367	5981.58
937.674	5924.86
937.982	5928.93
938.29	5887.35
938.597	5873.79
938.905	5780.46
939.213	5810.06
939.52	5777.74
939.827	5776.39
940.135	5728.93
940.442	5720.57
940.749	5664.53
941.056	5691.42
941.363	5606.9
941.67	5607.58
941.977	5563.29
942.284	5580.69
942.591	5587.24
942.898	5477.41
943.205	5470.86
943.511	5458.66
943.818	5423.18
944.125	5415.27
944.431	5349.05
944.738	5443.52
945.044	5348.15
945.35	5350.64
945.657	5287.59
945.963	5256.18
946.269	5206.69
946.575	5280.58
946.881	5188.15
947.187	5215.72
947.493	5151.09
947.799	5121.04
948.105	5136.63
948.41	5065.9
948.716	5137.08
949.022	5055.05
949.327	5050.53
949.633	5040.14
949.938	4996.75
950.244	4996.52
950.549	4929.86
950.854	4877.88
951.16	4903.42
951.465	4936.18
951.77	4863.19
952.075	4826.13
952.38	4824.1
952.685	4842.85
952.99	4784.1
953.294	4783.65
953.599	4729.86
953.904	4699.35
954.209	4722.18
954.513	4707.72
954.818	4627.49
955.122	4631.33
955.426	4633.14
955.731	4578.91
956.035	4524.44
956.339	4564.89
956.643	4512.24
956.948	4525.12
957.252	4490.09
957.556	4461.62
957.86	4446.71
958.163	4478.34
958.467	4432.92
958.771	4392.92
959.075	4420.49
959.378	4361.74
959.682	4365.35
959.985	4304.11
960.289	4287.16
960.592	4272.02
960.896	4276.77
961.199	4262.3
961.502	4263.66
961.805	4243.77
962.108	4242.87
962.411	4156.77
962.714	4186.15
963.017	4130.33
963.32	4079.94
963.623	4108.41
963.926	4126.04
964.228	4041.74
964.531	4070.9
964.833	4111.35
965.136	3996.77
965.438	4011.91
965.741	3975.76
966.043	3971.92
966.345	3954.51
966.648	3928.53
966.95	3926.04
967.252	3883.78
967.554	3867.51
967.856	3846.95
968.158	3803.33
968.46	3808.98
968.761	3780.96
969.063	3828.19
969.365	3753.62
969.666	3771.02
969.968	3714.97
970.269	3702.77
970.571	3738.25
970.872	3688.53
971.174	3681.98
971.475	3683.11
971.776	3617.12
972.077	3642.88
972.378	3586.16
972.679	3601.53
972.98	3577.58
973.281	3535.32
973.582	3517.69
973.883	3524.92
974.183	3506.62
974.484	3526.96
974.785	3456
975.085	3463
975.386	3498.48
975.686	3465.49
975.986	3418.71
976.287	3400.86
976.587	3360.86
976.887	3333.74
977.187	3397.47
977.487	3389.33
977.787	3376
978.087	3306.85
978.387	3314.08
978.687	3326.51
978.987	3288.54
979.286	3251.48
979.586	3268.66
979.885	3258.71
980.185	3227.08
980.484	3199.96
980.784	3178.26
981.083	3164.7
981.382	3164.7
981.682	3138.49
981.981	3103.92
982.28	3142.33
982.579	3065.05
982.878	3090.81
983.177	3073.41
983.475	3054.2
983.774	3032.28
984.073	3016.69
984.372	3022.79
984.67	3006.52
984.969	3011.49
985.267	3011.04
985.566	2987.53
985.864	2958.61
986.162	2929.91
986.461	2903.24
986.759	2895.11
987.057	2890.14
987.355	2897.37
987.653	2880.64
987.951	2855.33
988.249	2844.49
988.547	2850.59
988.844	2813.08
989.142	2827.09
989.44	2728.33
989.737	2806.3
990.035	2780.76
990.332	2760.2
990.63	2743.93
990.927	2721.78
991.224	2701.21
991.521	2693.76
991.819	2692.63
992.116	2679.07
992.413	2629.8
992.71	2625.06
993.006	2647.66
993.303	2658.96
993.6	2630.71
993.897	2602.69
994.193	2602.69
994.49	2569.69
994.787	2584.16
995.083	2570.82
995.379	2550.94
995.676	2521.11
995.972	2512.97
996.268	2546.64
996.565	2498.96
996.861	2491.28
997.157	2482.01
997.453	2467.77
997.749	2431.16
998.044	2466.64
998.34	2451.05
998.636	2400.66
998.932	2394.56
999.227	2375.12
999.523	2364.73
999.818	2348
1000.114	2374.22
1000.409	2352.07
1000.704	2314.11
1001	2307.55
1001.295	2267.33
1001.59	2288.34
1001.885	2286.08
1002.18	2265.29
1002.475	2246.09
1002.77	2236.37
1003.065	2214
1003.359	2234.33
1003.654	2196.82
1003.949	2162.92
1004.243	2185.07
1004.538	2185.52
1004.832	2112.76
1005.127	2148.23
1005.421	2145.52
1005.715	2122.7
1006.009	2104.39
1006.304	2070.27
1006.598	2074.79
1006.892	2036.37
1007.186	2056.71
1007.48	2065.07
1007.773	2028.46
1008.067	2029.59
1008.361	2006.77
1008.655	2012.64
1008.948	1929.03
1009.242	1978.97
1009.535	1957.51
1009.829	1936.04
1010.122	1938.97
1010.415	1918.86
1010.708	1913.89
1011.001	1882.25
1011.295	1886.77
1011.588	1922.7
1011.881	1876.6
1012.173	1875.02
1012.466	1855.13
1012.759	1827.79
1013.052	1804.06
1013.344	1802.48
1013.637	1817.62
1013.93	1781.69
1014.222	1761.35
1014.514	1789.15
1014.807	1739.43
1015.099	1733.56
1015.391	1732.43
1015.683	1745.99
1015.976	1698.3
1016.268	1717.96
1016.56	1678.19
1016.851	1704.86
1017.143	1691.52
1017.435	1669.6
1017.727	1624.63
1018.018	1636.16
1018.31	1628.47
1018.602	1609.72
1018.893	1602.26
1019.185	1585.76
1019.476	1577.63
1019.767	1575.59
1020.058	1559.78
1020.35	1552.09
1020.641	1531.98
1020.932	1558.65
1021.223	1520
1021.514	1505.99
1021.804	1522.26
1022.095	1476.61
1022.386	1488.14
1022.677	1487.23
1022.967	1492.66
1023.258	1457.18
1023.548	1417.86
1023.839	1440.68
1024.129	1455.82
1024.419	1419.21
1024.709	1408.14
1025	1409.04
1025.29	1383.28
1025.58	1400.23
1025.87	1384.19
1026.16	1347.13
1026.449	1343.74
1026.739	1308.03
1027.029	1365.88
1027.319	1334.7
1027.608	1315.49
1027.898	1320.69
1028.187	1296.73
1028.477	1294.25
1028.766	1310.29
1029.055	1266.45
1029.344	1290.4
1029.634	1284.08
1029.923	1257.86
1030.212	1255.83
1030.501	1224.19
1030.79	1221.93
1031.078	1211.99
1031.367	1222.16
1031.656	1193.68
1031.945	1222.61
1032.233	1203.4
1032.522	1188.03
1032.81	1188.49
1033.099	1202.27
1033.387	1169.28
1033.675	1136.96
1033.963	1145.32
1034.251	1124.76
1034.54	1125.21
1034.828	1140.58
1035.116	1103.52
1035.403	1090.41
1035.691	1077.98
1035.979	1113.01
1036.267	1092.22
1036.554	1061.71
1036.842	1061.26
1037.129	1065.78
1037.417	1048.38
1037.704	1036.85
1037.992	1042.73
1038.279	1061.26
1038.566	1024.2
1038.853	1024.2
1039.14	1024.2
