Data from hue_290_FLMS001491_00057.txt Node
Date: Tue Feb 07 15:52:56 GMT 2017
User: dcchb
Spectrometer: FLMS00149
Trigger mode: 0
Integration Time (sec): 2.000000E-2
Scans to average: 10
Electric dark correction enabled: true
Nonlinearity correction enabled: false
Boxcar width: 0
XAxis mode: Wavelengths
Number of Pixels in Spectrum: 2048
>>>>>Begin Spectral Data<<<<<
341.393	-8.26
341.776	-8.26
342.16	-8.26
342.543	-60.24
342.927	-63.4
343.31	-53.01
343.693	-80.13
344.077	-68.83
344.46	-52.56
344.843	-50.52
345.226	-38.54
345.61	-41.93
345.993	-12.1
346.376	-1.26
346.759	3.71
347.142	13.88
347.525	36.48
347.908	68.35
348.291	76.26
348.674	95.24
349.057	104.95
349.44	108.34
349.823	125.75
350.206	156.93
350.588	186.76
350.971	185.63
351.354	198.51
351.737	243.03
352.119	239.87
352.502	263.37
352.884	261.11
353.267	290.26
353.65	292.29
354.032	268.57
354.414	299.53
354.797	288
355.179	320.32
355.562	309.7
355.944	304.72
356.326	330.71
356.709	320.32
357.091	321.22
357.473	329.81
357.855	339.75
358.238	328.23
358.62	339.75
359.002	317.83
359.384	339.07
359.766	322.58
360.148	311.05
360.53	358.28
360.912	332.29
361.294	325.29
361.676	341.33
362.057	317.15
362.439	316.02
362.821	324.61
363.203	339.98
363.584	312.86
363.966	307.89
364.348	322.12
364.729	318.96
365.111	300.66
365.493	311.05
365.874	329.36
366.256	327.1
366.637	321.9
367.019	310.83
367.4	286.19
367.781	298.62
368.163	318.06
368.544	304.05
368.925	305.18
369.306	302.01
369.688	297.04
370.069	284.84
370.45	320.09
370.831	319.19
371.212	309.02
371.593	325.06
371.974	329.36
372.355	295.46
372.736	312.86
373.117	304.72
373.498	320.77
373.879	320.99
374.26	323.48
374.641	300.2
375.021	314.44
375.402	313.99
375.783	320.99
376.163	333.2
376.544	299.98
376.925	336.36
377.305	308.34
377.686	320.54
378.066	330.03
378.447	326.64
378.827	330.26
379.208	336.14
379.588	309.24
379.968	302.24
380.349	305.63
380.729	346.98
381.109	348.34
381.489	335.91
381.87	327.55
382.25	346.53
382.63	330.94
383.01	333.2
383.39	332.75
383.77	345.63
384.15	324.84
384.53	361.22
384.91	356.47
385.29	340.65
385.67	356.93
386.049	350.37
386.429	351.95
386.809	353.54
387.189	357.6
387.568	349.02
387.948	348.11
388.328	356.02
388.707	355.8
389.087	354.89
389.466	382.24
389.846	359.19
390.225	368.68
390.605	352.86
390.984	369.58
391.363	355.8
391.743	378.85
392.122	366.19
392.501	370.71
392.881	368.22
393.26	380.43
393.639	393.99
394.018	385.63
394.397	376.59
394.776	366.87
395.155	413.65
395.534	381.33
395.913	389.24
396.292	376.36
396.671	402.35
397.05	411.16
397.429	381.33
397.808	376.81
398.186	389.24
398.565	410.03
398.944	392.18
399.323	389.47
399.701	422.69
400.08	420.43
400.458	407.32
400.837	413.42
401.215	402.35
401.594	417.26
401.972	415.46
402.351	433.53
402.729	432.18
403.107	423.36
403.486	432.86
403.864	429.01
404.242	423.59
404.62	429.47
404.999	458.39
405.377	436.7
405.755	472.63
406.133	441.22
406.511	470.59
406.889	452.52
407.267	455.91
407.645	468.79
408.023	450.93
408.401	474.21
408.779	492.74
409.156	495.45
409.534	475.34
409.912	497.03
410.29	547.43
410.667	511.05
411.045	530.93
411.422	539.29
411.8	517.15
412.178	544.94
412.555	564.6
412.933	559.18
413.31	566.64
413.687	562.57
414.065	564.6
414.442	604.15
414.819	570.25
415.197	594.43
415.574	615.68
415.951	623.59
416.328	612.06
416.705	621.1
417.082	643.92
417.46	634.21
417.837	640.53
418.214	659.06
418.591	661.55
418.967	643.92
419.344	672.4
419.721	696.8
420.098	690.7
420.475	700.42
420.852	714.88
421.228	724.37
421.605	741.55
421.982	734.99
422.358	738.38
422.735	739.29
423.111	763.69
423.488	770.02
423.864	777.48
424.241	770.02
424.617	814.77
424.994	782.68
425.37	825.16
425.746	813.41
426.123	816.12
426.499	815.44
426.875	857.93
427.251	862.45
427.627	855.67
428.003	865.84
428.379	875.1
428.756	863.13
429.132	922.79
429.507	885.5
429.883	912.39
430.259	944.71
430.635	937.7
431.011	967.98
431.387	969.56
431.763	974.76
432.138	1003.46
432.514	1017.25
432.89	1007.76
433.265	1037.81
433.641	1028.09
434.016	1039.39
434.392	1064.25
434.767	1072.16
435.143	1089.79
435.518	1092.95
435.894	1124.36
436.269	1147.19
436.644	1164.14
437.02	1142.22
437.395	1174.98
437.77	1171.37
438.145	1211.14
438.52	1194.64
438.895	1190.12
439.271	1231.93
439.646	1256.34
440.021	1252.72
440.395	1252.04
440.77	1244.81
441.145	1250.01
441.52	1267.64
441.895	1286.62
442.27	1305.15
442.645	1282.78
443.019	1317.58
443.394	1321.19
443.769	1333.85
444.143	1321.19
444.518	1363.45
444.892	1348.31
445.267	1336.11
445.641	1379.5
446.016	1372.04
446.39	1392.6
446.764	1383.57
447.139	1402.55
447.513	1381.98
447.887	1388.99
448.262	1390.34
448.636	1397.58
449.01	1431.47
449.384	1408.65
449.758	1429.21
450.132	1430.57
450.506	1473.28
450.88	1459.04
451.254	1418.82
451.628	1464.02
452.002	1474.18
452.376	1516.67
452.75	1492.04
453.123	1510.34
453.497	1517.57
453.871	1490.68
454.244	1531.36
454.618	1560.51
454.992	1564.58
455.365	1577.46
455.739	1596.89
456.112	1626.04
456.486	1607.51
456.859	1602.32
457.232	1682.09
457.606	1641.19
457.979	1669.89
458.352	1706.04
458.725	1717.34
459.099	1717.79
459.472	1764.8
459.845	1768.64
460.218	1783.55
460.591	1778.58
460.964	1768.87
461.337	1818.58
461.71	1833.05
462.083	1850.22
462.456	1835.98
462.829	1862.87
463.201	1859.94
463.574	1870.11
463.947	1893.83
464.32	1946.49
464.692	1943.55
465.065	1901.29
465.438	1967.73
465.81	2005.92
466.183	1988.3
466.555	1991.23
466.928	2029.42
467.3	2038.24
467.672	2073.04
468.045	2100.38
468.417	2111.23
468.789	2101.29
469.161	2118.01
469.534	2141.96
469.906	2213.37
470.278	2196.88
470.65	2212.47
471.022	2230.32
471.394	2276.65
471.766	2279.36
472.138	2301.51
472.51	2330.43
472.882	2364.78
473.253	2350.77
473.625	2404.33
473.997	2443.2
474.369	2452.46
474.74	2443.65
475.112	2483.42
475.484	2537.43
475.855	2574.27
476.227	2570.65
476.598	2616.08
476.97	2612.91
477.341	2713.02
477.713	2730.65
478.084	2728.39
478.455	2780.14
478.827	2795.28
479.198	2840.7
479.569	2862.4
479.94	2932.23
480.311	2905.79
480.682	2971.09
481.053	3007.7
481.424	3035.73
481.795	3079.79
482.166	3119.11
482.537	3099.9
482.908	3181.26
483.279	3225.55
483.65	3251.31
484.021	3340.8
484.391	3321.37
484.762	3307.36
485.133	3361.37
485.503	3364.3
485.874	3426.9
486.244	3476.17
486.615	3502.38
486.985	3494.47
487.356	3582.83
487.726	3616.95
488.097	3645.88
488.467	3703.73
488.837	3740.57
489.207	3730.4
489.578	3807
489.948	3833.67
490.318	3866.21
490.688	3851.52
491.058	3890.62
491.428	3977.85
491.798	3956.83
492.168	4041.8
492.538	4066.21
492.908	4079.31
493.278	4104.85
493.648	4141.23
494.017	4147.33
494.387	4212.19
494.757	4210.61
495.126	4266.2
495.496	4241.57
495.866	4268.91
496.235	4321.57
496.605	4301
496.974	4303.26
497.344	4359.08
497.713	4404.05
498.082	4407.89
498.452	4438.85
498.821	4478.63
499.19	4486.53
499.559	4467.1
499.928	4480.21
500.298	4514.78
500.667	4553.65
501.036	4567.89
501.405	4583.93
501.774	4577.38
502.143	4609.24
502.512	4641.78
502.88	4672.52
503.249	4662.35
503.618	4710.26
503.987	4670.48
504.356	4664.83
504.724	4741.67
505.093	4743.25
505.462	4735.12
505.83	4769.01
506.199	4818.5
506.567	4854.66
506.936	4838.62
507.304	4875.22
507.672	4912.06
508.041	4933.75
508.409	4929.69
508.777	4974.43
509.145	4956.58
509.514	4973.3
509.882	5004.26
510.25	4995.22
510.618	5029.8
510.986	5039.97
511.354	5067.08
511.722	5103.24
512.09	5180.53
512.458	5138.49
512.826	5143.01
513.193	5150.47
513.561	5166.52
513.929	5194.54
514.297	5208.55
514.664	5224.82
515.032	5223.24
515.4	5306.63
515.767	5306.4
516.135	5320.18
516.502	5270.47
516.869	5302.78
517.237	5333.74
517.604	5330.13
517.972	5391.37
518.339	5349.56
518.706	5371.48
519.073	5364.7
519.44	5403.57
519.808	5444.48
520.175	5500.75
520.542	5498.49
520.909	5492.16
521.276	5515.89
521.643	5542.33
522.009	5516.11
522.376	5602.21
522.743	5605.6
523.11	5660.97
523.477	5591.59
523.843	5680.85
524.21	5671.81
524.577	5705.03
524.943	5744.81
525.31	5746.16
525.676	5821.19
526.043	5846.05
526.409	5806.27
526.776	5911.81
527.142	5875.88
527.508	5905.03
527.874	5952.48
528.241	6009.66
528.607	5965.82
528.973	6031.58
529.339	6023.44
529.705	6082.88
530.071	6147.96
530.437	6121.75
530.803	6125.81
531.169	6171.24
531.535	6183.89
531.901	6195.64
532.267	6180.05
532.632	6208.52
532.998	6260.73
533.364	6266.6
533.73	6289.43
534.095	6322.87
534.461	6341.4
534.826	6298.24
535.192	6391.57
535.557	6371.91
535.923	6375.75
536.288	6378.01
536.653	6456.43
537.019	6410.1
537.384	6467.27
537.749	6534.39
538.114	6533.26
538.479	6559.47
538.845	6575.97
539.21	6545.92
539.575	6565.8
539.94	6648.51
540.305	6641.73
540.67	6617.78
541.034	6658.68
541.399	6643.54
541.764	6698.91
542.129	6693.71
542.494	6743.42
542.858	6750.66
543.223	6784.78
543.587	6808.06
543.952	6775.51
544.316	6841.27
544.681	6841.27
545.045	6888.28
545.41	6849.18
545.774	6933.25
546.138	6913.36
546.503	6961.5
546.867	6980.48
547.231	7015.73
547.595	6943.87
547.959	7000.59
548.324	7039.24
548.688	7000.82
549.052	7072
549.416	7070.87
549.779	7057.09
550.143	7093.7
550.507	7080.36
550.871	7110.42
551.235	7140.7
551.599	7157.65
551.962	7252.11
552.326	7177.09
552.689	7271.32
553.053	7222.51
553.417	7219.34
553.78	7282.62
554.143	7317.87
554.507	7269.96
554.87	7316.97
555.234	7381.15
555.597	7302.73
555.96	7357.19
556.323	7361.49
556.686	7392.22
557.05	7462.28
557.413	7479.45
557.776	7381.15
558.139	7500.24
558.502	7519.22
558.865	7475.83
559.228	7506.12
559.59	7563.52
559.953	7582.72
560.316	7622.95
560.679	7590.41
561.041	7655.49
561.404	7689.84
561.767	7765.54
562.129	7658.43
562.492	7755.15
562.854	7760.57
563.217	7743.85
563.579	7840.8
563.941	7872.21
564.304	7822.72
564.666	7886.22
565.028	7892.77
565.39	7964.86
565.753	7921.25
566.115	7976.61
566.477	7999.66
566.839	8041.92
567.201	8065.2
567.563	8072.88
567.925	8140
568.287	8118.76
568.648	8159.88
569.01	8168.25
569.372	8229.26
569.734	8250.73
570.095	8235.36
570.457	8256.6
570.819	8372.08
571.18	8327.34
571.542	8386.77
571.903	8429.93
572.265	8436.94
572.626	8453.66
572.987	8472.64
573.349	8523.26
573.71	8587.9
574.071	8595.13
574.432	8708.8
574.794	8731.39
575.155	8796.03
575.516	8723.26
575.877	8864.27
576.238	8848.23
576.599	8922.35
576.96	8972.07
577.32	9006.87
577.681	9063.14
578.042	9126.19
578.403	9132.97
578.763	9210.25
579.124	9263.13
579.485	9345.62
579.845	9434.2
580.206	9503.13
580.566	9568.43
580.927	9626.51
581.287	9793.51
581.648	9739.28
582.008	9851.82
582.368	9925.26
582.728	10012.94
583.089	10139.49
583.449	10207.97
583.809	10312.82
584.169	10451.8
584.529	10438.69
584.889	10639.82
585.249	10714.17
585.609	10731.12
585.969	10995.74
586.329	11046.81
586.688	11127.04
587.048	11272.8
587.408	11383.75
587.768	11532.45
588.127	11588.72
588.487	11693.58
588.846	11876.85
589.206	11969.5
589.565	12003.17
589.925	12326.55
590.284	12323.84
590.643	12568.36
591.003	12707.56
591.362	12855.35
591.721	12918.63
592.08	13085.18
592.44	13281.11
592.799	13372.85
593.158	13449.69
593.517	13581.89
593.876	13679.74
594.235	13925.38
594.593	14046.51
594.952	14199.73
595.311	14321.53
595.67	14425.26
596.029	14596.55
596.387	14747.28
596.746	14921.06
597.104	15059.14
597.463	15022.3
597.822	15276.31
598.18	15327.83
598.538	15456.42
598.897	15712.91
599.255	15693.02
599.613	16076.29
599.972	16088.26
600.33	16205.1
600.688	16210.07
601.046	16371.65
601.404	16536.16
601.762	16558.53
602.12	16861.12
602.478	16947.22
602.836	17014.79
603.194	17124.62
603.552	17197.61
603.91	17161.91
604.268	17382.47
604.625	17417.72
604.983	17542.24
605.341	17638.96
605.698	17793.3
606.056	17884.83
606.413	17951.72
606.771	18092.5
607.128	18189.23
607.485	18071.04
607.843	18175.89
608.2	18310.8
608.557	18532.27
608.914	18481.65
609.272	18612.04
609.629	18764.58
609.986	18911.47
610.343	18733.17
610.7	19053.16
611.057	18945.36
611.414	19055.19
611.771	19255.64
612.127	19275.98
612.484	19352.58
612.841	19439.59
613.198	19416.09
613.554	19397.33
613.911	19694.72
614.267	19691.11
614.624	19715.51
614.98	19829.18
615.337	19979.46
615.693	20013.58
616.05	20025.56
616.406	20127.93
616.762	20075.5
617.118	20134.26
617.475	20238.89
617.831	20303.07
618.187	20404.31
618.543	20334.93
618.899	20442.27
619.255	20490.41
619.611	20473.01
619.967	20503.06
620.323	20684.53
620.678	20648.37
621.034	20609.5
621.39	20709.84
621.746	20705.09
622.101	20962.26
622.457	20912.77
622.812	20888.14
623.168	21047
623.523	21050.84
623.879	21029.15
624.234	20915.71
624.589	21030.28
624.945	21009.26
625.3	21121.35
625.655	21072.54
626.01	21262.82
626.365	21140.79
626.72	21204.29
627.075	21267.34
627.43	21251.07
627.785	21241.12
628.14	21260.1
628.495	21257.62
628.85	21329.71
629.205	21110.28
629.559	21298.97
629.914	21242.48
630.269	21249.48
630.623	21251.74
630.978	21128.58
631.332	21302.59
631.687	21304.17
632.041	21241.12
632.396	21217.17
632.75	21122.03
633.104	21207.9
633.459	21162.93
633.813	21063.73
634.167	21139.66
634.521	21174.23
634.875	21174.01
635.229	21144.63
635.583	21010.17
635.937	21054.69
636.291	20971.3
636.645	21080.45
636.999	21045.42
637.352	21120.9
637.706	20996.83
638.06	21081.8
638.413	20999.77
638.767	20959.77
639.121	21102.37
639.474	20910.51
639.828	20918.19
640.181	21021.69
640.534	20980.11
640.888	20891.75
641.241	20845.43
641.594	20854.47
641.947	20919.1
642.301	20913.67
642.654	20957.51
643.007	20888.82
643.36	20843.62
643.713	20796.16
644.066	20799.55
644.419	20787.35
644.771	20704.64
645.124	20446.34
645.477	20524.98
645.83	20301.94
646.182	20354.59
646.535	20323.86
646.888	20381.03
647.24	20169.51
647.593	20394.82
647.945	20318.66
648.298	20178.78
648.65	20304.65
649.002	20097.42
649.355	20209.06
649.707	20308.72
650.059	20391.65
650.411	20549.84
650.763	20609.5
651.115	20778.99
651.467	20779.44
651.819	20732.66
652.171	20679.78
652.523	20727.69
652.875	20633.23
653.227	20528.82
653.578	20758.65
653.93	20747.35
654.282	20635.26
654.633	20616.28
654.985	20620.12
655.337	20653.34
655.688	20780.34
656.039	20837.07
656.391	20544.64
656.742	20624.19
657.094	20731.53
657.445	20774.92
657.796	20680.01
658.147	20703.96
658.498	20670.29
658.849	20698.54
659.2	20672.78
659.551	20627.81
659.902	20811.76
660.253	20720.01
660.604	20703.06
660.955	20704.87
661.306	20682.94
661.656	20789.61
662.007	20748.03
662.358	20770.85
662.708	20790.96
663.059	20859.89
663.409	20602.27
663.76	20806.56
664.11	20771.53
664.461	20827.57
664.811	20798.65
665.161	20895.82
665.511	20698.76
665.862	20672.78
666.212	20798.65
666.562	20811.08
666.912	20769.04
667.262	20805.2
667.612	20785.54
667.962	20760.68
668.312	20617.41
668.662	20885.88
669.011	20713.9
669.361	20687.92
669.711	20707.8
670.06	20692.89
670.41	20697.63
670.76	20673
671.109	20754.58
671.459	20668.03
671.808	20693.34
672.157	20606.56
672.507	20572.67
672.856	20666.9
673.205	20662.38
673.554	20715.49
673.904	20702.15
674.253	20743.06
674.602	20676.84
674.951	20283.41
675.3	20200.25
675.649	20527.02
675.998	20520.24
676.346	20534.02
676.695	20570.86
677.044	20483.85
677.393	20480.24
677.741	20521.14
678.09	20410.86
678.438	20343.74
678.787	20392.78
679.135	20435.27
679.484	20253.8
679.832	20329.06
680.181	20188.72
680.529	20210.19
680.877	20177.2
681.225	20214.03
681.573	20374.48
681.922	20123.41
682.27	20190.3
682.618	20053.36
682.966	19995.28
683.314	20138.33
683.661	19964.09
684.009	19888.39
684.357	19935.62
684.705	19824.66
685.053	19882.74
685.4	19757.09
685.748	19742.86
686.095	19687.94
686.443	19715.96
686.79	19572.69
687.138	19697.89
687.485	19638.23
687.832	19559.81
688.18	19523.2
688.527	19473.71
688.874	19345.35
689.221	19277.78
689.568	19318.69
689.915	19249.31
690.262	19204.11
690.609	19187.84
690.956	19055.19
691.303	19050.45
691.65	18986.27
691.997	18984.46
692.344	18936.55
692.69	18808.64
693.037	18815.2
693.383	18673.28
693.73	18715.76
694.077	18599.61
694.423	18607.97
694.769	18486.17
695.116	18445.04
695.462	18433.06
695.808	18397.36
696.155	18332.05
696.501	18280.3
696.847	18209.11
697.193	18140.86
697.539	18144.71
697.885	18067.19
698.231	17983.81
698.577	17908.33
698.923	17827.65
699.269	17817.26
699.614	17712.18
699.96	17641.89
700.306	17650.03
700.651	17605.96
700.997	17537.26
701.342	17496.59
701.688	17463.82
702.033	17360.09
702.379	17345.41
702.724	17294.33
703.069	17310.15
703.415	17097.95
703.76	17128.01
704.105	17124.39
704.45	16975.47
704.795	16939.54
705.14	16747
705.485	16937.73
705.83	16728.25
706.175	16730.73
706.52	16768.7
706.865	16705.2
707.209	16691.86
707.554	16528.25
707.899	16567.57
708.243	16459.55
708.588	16392.89
708.932	16416.39
709.277	16441.25
709.621	16321.25
709.966	16236.51
710.31	16240.8
710.654	16189.5
710.998	16163.29
711.342	16090.3
711.687	16122.39
712.031	16008.94
712.375	15972.79
712.719	15976.85
713.063	15934.6
713.407	16034.03
713.75	15843.07
714.094	15834.94
714.438	15773.92
714.782	15808.72
715.125	15709.29
715.469	15730.76
715.812	15572.34
716.156	15484.44
716.499	15582.06
716.843	15600.59
717.186	15425.68
717.53	15611.67
717.873	15512.01
718.216	15521.05
718.559	15448.05
718.902	15290.32
719.246	15394.95
719.589	15380.49
719.932	15296.19
720.275	15305.69
720.617	15280.15
720.96	15262.07
721.303	15264.1
721.646	15142.3
721.989	15159.93
722.331	15210.77
722.674	15199.93
723.016	15128.74
723.359	15189.98
723.701	15185.69
724.044	14989.31
724.386	15041.96
724.729	15123.99
725.071	15093.49
725.413	15010.55
725.755	14985.24
726.097	15008.29
726.439	14926.71
726.782	14994.28
727.124	14964.23
727.465	14969.42
727.807	14981.4
728.149	14795.42
728.491	14930.78
728.833	14893.04
729.175	14813.49
729.516	14747.06
729.858	14827.05
730.199	14786.6
730.541	14848.75
730.882	14814.85
731.224	14821.4
731.565	14698.02
731.906	14767.62
732.248	14793.83
732.589	14740.5
732.93	14680.39
733.271	14712.25
733.612	14750.9
733.953	14778.92
734.294	14779.15
734.635	14709.77
734.976	14629.32
735.317	14681.29
735.658	14655.98
735.999	14631.13
736.339	14609.88
736.68	14657.11
737.021	14686.72
737.361	14585.25
737.702	14729.2
738.042	14682.42
738.383	14718.58
738.723	14703.22
739.063	14584.12
739.404	14772.14
739.744	14796.77
740.084	14698.24
740.424	14762.42
740.764	14700.28
741.104	14749.77
741.444	14741.63
741.784	14679.71
742.124	14763.33
742.464	14779.15
742.804	14728.75
743.143	14857.34
743.483	14786.38
743.823	14780.05
744.162	14833.61
744.502	14894.4
744.841	14848.07
745.181	14976.43
745.52	14915.86
745.86	14943.21
746.199	14926.26
746.538	14967.39
746.877	15200.15
747.216	15187.27
747.556	15109.76
747.895	15168.51
748.234	15174.84
748.573	15185.91
748.911	15229.3
749.25	15403.08
749.589	15389.3
749.928	15489.18
750.267	15535.51
750.605	15646.47
750.944	15708.39
751.283	15605.11
751.621	15838.33
751.96	15861.15
752.298	15787.25
752.636	16013.01
752.975	16044.87
753.313	16047.59
753.651	16282.38
753.989	16295.04
754.327	16294.36
754.666	16431.76
755.004	16571.64
755.342	16704.97
755.679	16795.59
756.017	16719.21
756.355	17052.31
756.693	17042.59
757.031	17217.5
757.368	17128.01
757.706	17317.38
758.044	17442.58
758.381	17570.48
758.719	17569.58
759.056	17786.75
759.394	17879.63
759.731	17799.18
760.068	17907.42
760.405	17939.51
760.743	18157.59
761.08	18269.22
761.417	18288.88
761.754	18484.36
762.091	18490.01
762.428	18600.51
762.765	18650.91
763.102	18846.38
763.438	18838.93
763.775	18876.89
764.112	18989.88
764.449	19125.47
764.785	19148.07
765.122	19054.29
765.458	19176.32
765.795	19217.9
766.131	19344.9
766.467	19393.94
766.804	19409.98
767.14	19483.2
767.476	19535.63
767.812	19503.77
768.148	19584.89
768.485	19562.52
768.821	19552.81
769.157	19644.55
769.492	19692.69
769.828	19783.08
770.164	19691.33
770.5	19755.96
770.836	19759.58
771.171	19758
771.507	19733.82
771.842	19565.46
772.178	19850.2
772.513	19727.04
772.849	19802.52
773.184	19697.66
773.519	19803.19
773.855	19775.4
774.19	19669.86
774.525	19729.52
774.86	19783.53
775.195	19735.63
775.53	19728.62
775.865	19657.89
776.2	19501.96
776.535	19528.4
776.87	19475.97
777.205	19449.53
777.539	19440.49
777.874	19554.61
778.209	19389.65
778.543	19324.34
778.878	19332.25
779.212	19280.5
779.547	19232.81
779.881	19282.08
780.215	19219.48
780.55	19336.99
780.884	19221.74
781.218	19176.32
781.552	19167.5
781.886	19092.25
782.22	18941.3
782.554	18946.04
782.888	18770
783.222	18822.43
783.556	18694.52
783.889	18758.7
784.223	18590.34
784.557	18607.29
784.89	18687.07
785.224	18618.14
785.557	18445.26
785.891	18406.62
786.224	18472.16
786.558	18383.34
786.891	18284.82
787.224	18254.76
787.557	18217.25
787.891	18166.4
788.224	18175.44
788.557	18159.17
788.89	18059.96
789.223	18184.93
789.556	18052.73
789.888	17890.02
790.221	17926.63
790.554	17696.13
790.887	17767.32
791.219	17661.33
791.552	17681.89
791.884	17511.73
792.217	17498.4
792.549	17428.34
792.882	17362.81
793.214	17348.8
793.546	17327.33
793.879	17163.72
794.211	17131.85
794.543	17162.81
794.875	17014.34
795.207	17112.19
795.539	17030.61
795.871	17130.95
796.203	16891.86
796.535	16906.1
796.867	16800.56
797.198	16776.83
797.53	16845.31
797.862	16625.42
798.193	16650.06
798.525	16566.22
798.856	16603.96
799.188	16382.04
799.519	16353.57
799.85	16413
800.182	16321.03
800.513	16375.49
800.844	16166
801.175	16256.85
801.506	16316.73
801.837	16142.27
802.168	16041.71
802.499	15977.08
802.83	15934.14
803.161	15916.74
803.491	15941.37
803.822	15797.2
804.153	15795.62
804.483	15650.76
804.814	15648.5
805.145	15633.13
805.475	15632.68
805.805	15533.25
806.136	15649.4
806.466	15599.01
806.796	15544.1
807.126	15401.73
807.457	15439.92
807.787	15353.82
808.117	15328.96
808.447	15181.85
808.777	15193.15
809.107	15215.07
809.436	15081.96
809.766	15256.19
810.096	14981.85
810.426	15030.21
810.755	15123.09
811.085	15058.46
811.414	14958.58
811.744	14818.01
812.073	14890.33
812.403	14869.31
812.732	14874.06
813.061	14785.02
813.39	14666.61
813.719	14613.05
814.049	14723.55
814.378	14658.47
814.707	14503.9
815.036	14586.16
815.365	14533.73
815.693	14400.4
816.022	14360.4
816.351	14371.02
816.68	14242.21
817.008	14343.68
817.337	14229.56
817.665	14235.66
817.994	14256
818.322	14212.61
818.651	14153.4
818.979	14088.99
819.307	14106.62
819.636	14141.65
819.964	14028.88
820.292	14041.09
820.62	13976.23
820.948	14065.27
821.276	13994.08
821.604	14098.03
821.932	14011.93
822.259	14000.86
822.587	14004.48
822.915	13895.1
823.243	14018.71
823.57	13899.17
823.898	13980.07
824.225	13938.04
824.553	13929
824.88	13913.86
825.207	13940.75
825.535	13948.66
825.862	13984.14
826.189	13907.98
826.516	13987.53
826.843	13970.13
827.17	13991.37
827.497	13965.61
827.824	13986.85
828.151	13967.19
828.478	13938.94
828.805	13947.75
829.131	13891.94
829.458	13911.37
829.785	13890.13
830.111	13870.47
830.438	13946.85
830.764	13833.18
831.09	13981.43
831.417	13838.38
831.743	13913.63
832.069	13858.72
832.395	13891.03
832.722	13878.6
833.048	13676.58
833.374	13805.84
833.7	13750.02
834.026	13771.71
834.351	13784.6
834.677	13756.57
835.003	13800.19
835.329	13742.56
835.654	13771.71
835.98	13685.16
836.306	13685.61
836.631	13630.7
836.956	13657.14
837.282	13671.15
837.607	13619.18
837.932	13566.52
838.258	13475.9
838.583	13510.93
838.908	13542.12
839.233	13475
839.558	13431.16
839.883	13347.54
840.208	13433.64
840.533	13460.08
840.858	13343.02
841.182	13357.04
841.507	13326.08
841.832	13358.84
842.156	13236.59
842.481	13222.58
842.805	13197.49
843.13	13136.48
843.454	13096.93
843.778	13071.17
844.103	13047.67
844.427	13069.81
844.751	13065.07
845.075	12995.01
845.399	12987.1
845.723	12860.78
846.047	12896.71
846.371	12783.72
846.695	12741.01
847.019	12724.28
847.343	12609.48
847.666	12561.8
847.99	12568.58
848.313	12550.73
848.637	12467.57
848.96	12448.81
849.284	12417.85
849.607	12291.98
849.931	12256.73
850.254	12151.19
850.577	12181.25
850.9	12038.65
851.223	12035.49
851.546	12034.81
851.869	11968.6
852.192	11916.62
852.515	11882.95
852.838	11798.43
853.161	11827.58
853.483	11780.35
853.806	11719.34
854.129	11723.18
854.451	11619.23
854.774	11585.33
855.096	11556.86
855.419	11492.45
855.741	11526.12
856.063	11403.41
856.385	11461.27
856.708	11409.52
857.03	11396.18
857.352	11370.42
857.674	11281.38
857.996	11185.79
858.318	11138.56
858.64	11223.08
858.961	11183.76
859.283	11121.84
859.605	11127.26
859.926	11109.86
860.248	11077.55
860.57	10963.2
860.891	10943.31
861.212	10913.03
861.534	10965.23
861.855	10919.59
862.176	10885.46
862.498	10887.95
862.819	10871.45
863.14	10817.44
863.461	10774.28
863.782	10811.34
864.103	10778.8
864.424	10688.86
864.745	10729.31
865.065	10627.62
865.386	10610.22
865.707	10681.17
866.027	10645.69
866.348	10586.71
866.668	10545.13
866.989	10568.86
867.309	10548.75
867.63	10560.5
867.95	10468.52
868.27	10437.56
868.59	10541.74
868.91	10468.98
869.23	10499.94
869.55	10426.72
869.87	10453.16
870.19	10352.37
870.51	10376.32
870.83	10362.99
871.15	10363.67
871.469	10299.72
871.789	10333.39
872.109	10279.15
872.428	10240.51
872.748	10282.77
873.067	10265.37
873.386	10282.99
873.706	10277.57
874.025	10163.67
874.344	10131.58
874.663	10173.62
874.982	10235.08
875.301	10161.87
875.62	10153.96
875.939	10089.55
876.258	10141.53
876.577	10086.61
876.896	10012.72
877.214	10033.73
877.533	10000.74
877.852	9996.22
878.17	9977.92
878.489	9995.32
878.807	9974.98
879.125	9976.56
879.444	9883.91
879.762	9889.33
880.08	9906.28
880.398	9830.57
880.716	9866.51
881.034	9827.86
881.352	9756.9
881.67	9788.54
881.988	9845.49
882.306	9751.03
882.624	9737.24
882.941	9706.28
883.259	9694.53
883.577	9607.3
883.894	9660.18
884.212	9618.83
884.529	9604.14
884.846	9606.63
885.164	9538.38
885.481	9493.86
885.798	9485.27
886.115	9422
886.432	9467.42
886.75	9404.6
887.067	9411.83
887.383	9361.43
887.7	9393.3
888.017	9338.61
888.334	9351.04
888.651	9258.16
888.967	9239.86
889.284	9203.25
889.6	9228.78
889.917	9155.79
890.233	9229.46
890.55	9099.97
890.866	9193.76
891.182	9115.34
891.498	9020.2
891.815	9015.46
892.131	8971.84
892.447	9038.28
892.763	8920.54
893.079	8922.35
893.395	8858.62
893.71	8902.01
894.026	8879.41
894.342	8771.39
894.657	8784.27
894.973	8679.87
895.289	8726.88
895.604	8698.4
895.92	8624.96
896.235	8667.22
896.55	8681.23
896.865	8642.36
897.181	8599.87
897.496	8617.05
897.811	8514
898.126	8528.69
898.441	8478.52
898.756	8394.45
899.071	8418.86
899.386	8387
899.7	8278.07
900.015	8261.12
900.33	8237.17
900.644	8224.29
900.959	8268.58
901.273	8187.23
901.588	8104.74
901.902	8099.32
902.216	8127.79
902.531	8046.21
902.845	7999.89
903.159	7985.2
903.473	7927.8
903.787	7928.93
904.101	7879.89
904.415	7852.77
904.729	7848.25
905.042	7822.72
905.356	7749.5
905.67	7741.82
905.984	7779.1
906.297	7688.48
906.611	7628.37
906.924	7651.65
907.237	7658.65
907.551	7585.66
907.864	7554.25
908.177	7542.5
908.491	7473.35
908.804	7479.22
909.117	7515.83
909.43	7382.96
909.743	7353.35
910.056	7378.44
910.368	7297.31
910.681	7224.09
910.994	7259.79
911.307	7201.04
911.619	7192.68
911.932	7222.51
912.244	7133.02
912.557	7122.17
912.869	7074.72
913.181	7076.75
913.494	7032
913.806	7054.15
914.118	6940.26
914.43	6927.83
914.742	6860.94
915.054	6897.32
915.366	6813.48
915.678	6811.9
915.99	6836.3
916.302	6749.53
916.613	6742.07
916.925	6753.59
917.236	6730.77
917.548	6654.61
917.859	6685.57
918.171	6596.31
918.482	6510.21
918.794	6570.77
919.105	6539.14
919.416	6486.93
919.727	6490.1
920.038	6422.53
920.349	6390.89
920.66	6324
920.971	6405.13
921.282	6355.64
921.593	6292.81
921.903	6213.49
922.214	6271.8
922.525	6225.02
922.835	6218.92
923.146	6150.45
923.456	6136.43
923.767	6147.96
924.077	6128.3
924.387	6113.38
924.697	6061.86
925.008	6043.33
925.318	5967.4
925.628	5989.77
925.938	5966.95
926.248	5918.59
926.558	5879.27
926.867	5912.94
927.177	5897.8
927.487	5777.57
927.796	5796.56
928.106	5750.68
928.416	5751.13
928.725	5724.92
929.034	5693.06
929.344	5710.01
929.653	5681.53
929.962	5609.89
930.271	5619.61
930.581	5559.05
930.89	5541.42
931.199	5542.33
931.508	5495.55
931.817	5511.14
932.125	5487.64
932.434	5449.45
932.743	5392.73
933.051	5397.25
933.36	5339.17
933.669	5329.22
933.977	5300.52
934.286	5295.1
934.594	5292.16
934.902	5268.66
935.21	5214.88
935.519	5194.09
935.827	5227.53
936.135	5162.22
936.443	5120.64
936.751	5093.07
937.059	5099.85
937.367	5089.91
937.674	5044.03
937.982	5065.5
938.29	5025.5
938.597	5004.49
938.905	4952.96
939.213	4944.38
939.52	4952.06
939.827	4919.52
940.135	4911.83
940.442	4877.26
940.749	4822.34
941.056	4861.89
941.363	4816.47
941.67	4805.85
941.977	4766.98
942.284	4741.9
942.591	4742.35
942.898	4701.44
943.205	4695.12
943.511	4647.66
943.818	4698.96
944.125	4686.76
944.431	4622.35
944.738	4554.33
945.044	4555.46
945.35	4482.24
945.657	4496.03
945.963	4473.2
946.269	4425.07
946.575	4495.12
946.881	4425.97
947.187	4434.33
947.493	4383.94
947.799	4390.04
948.105	4376.48
948.41	4333.54
948.716	4307.1
949.022	4299.42
949.327	4305.07
949.633	4260.1
949.938	4315.01
950.244	4247.22
950.549	4237.73
950.854	4186.66
951.16	4195.92
951.465	4169.71
951.77	4164.96
952.075	4142.59
952.38	4149.37
952.685	4123.61
952.99	4071.86
953.294	4065.3
953.599	4030.73
953.904	4030.73
954.209	3985.3
954.513	3999.99
954.818	3960.45
955.122	3936.72
955.426	3954.35
955.731	3945.31
956.035	3896.72
956.339	3908.47
956.643	3849.49
956.948	3832.99
957.252	3858.53
957.556	3834.8
957.86	3801.13
958.163	3821.92
958.467	3792.77
958.771	3754.35
959.075	3742.15
959.378	3707.12
959.682	3729.72
959.985	3707.35
960.289	3695.82
960.592	3664.41
960.896	3600.23
961.199	3589.38
961.502	3621.7
961.805	3594.13
962.108	3580.8
962.411	3599.1
962.714	3552.55
963.017	3564.75
963.32	3565.43
963.623	3470.06
963.926	3524.98
964.228	3487.46
964.531	3441.36
964.833	3427.58
965.136	3411.76
965.438	3428.71
965.741	3419.22
966.043	3360.91
966.345	3366.34
966.648	3342.16
966.95	3363.85
967.252	3342.84
967.554	3324.08
967.856	3331.99
968.158	3286.79
968.46	3271.88
968.761	3259.9
969.063	3267.13
969.365	3244.53
969.666	3210.41
969.968	3200.01
970.269	3181.94
970.571	3175.38
970.872	3163.41
971.174	3133.12
971.475	3104.2
971.776	3151.65
972.077	3094.93
972.378	3097.87
972.679	3099.23
972.98	3070.07
973.281	3029.62
973.582	3005.67
973.883	3008.16
974.183	2965.22
974.484	2998.44
974.785	2968.38
975.085	2939.68
975.386	2955.5
975.686	2966.35
975.986	2916.18
976.287	2897.2
976.587	2888.16
976.887	2860.59
977.187	2879.12
977.487	2882.96
977.787	2839.12
978.087	2846.58
978.387	2789.86
978.687	2819.01
978.987	2798.9
979.286	2771.33
979.586	2735.17
979.885	2734.26
980.185	2730.65
980.484	2705.34
980.784	2733.59
981.083	2707.6
981.382	2732.46
981.682	2682.51
981.981	2711.21
982.28	2663.98
982.579	2638.45
982.878	2657.88
983.177	2645.23
983.475	2640.26
983.774	2601.84
984.073	2588.05
984.372	2587.15
984.67	2571.1
984.969	2557.55
985.267	2574.95
985.566	2555.51
985.864	2515.51
986.162	2522.52
986.461	2466.25
986.759	2482.52
987.057	2488.85
987.355	2492.24
987.653	2468.96
987.951	2451.79
988.249	2451.33
988.547	2433.26
988.844	2411.33
989.142	2409.98
989.44	2385.8
989.737	2362.07
990.035	2349.19
990.332	2368.17
990.63	2313.71
990.927	2333.6
991.224	2310.77
991.521	2323.2
991.819	2276.88
992.116	2295.18
992.413	2311.22
992.71	2279.13
993.006	2286.14
993.303	2230.32
993.6	2274.39
993.897	2251.34
994.193	2251.57
994.49	2193.71
994.787	2217.44
995.083	2185.13
995.379	2170.44
995.676	2172.25
995.972	2169.76
996.268	2145.35
996.565	2138.8
996.861	2144
997.157	2118.24
997.453	2091.34
997.749	2105.13
998.044	2080.72
998.34	2060.61
998.636	2067.39
998.932	2057.45
999.227	2056.32
999.523	2038.24
999.818	2011.57
1000.114	2033.94
1000.409	2022.42
1000.704	2000.27
1001	1956.66
1001.295	1944.23
1001.59	1962.31
1001.885	1968.86
1002.18	1961.86
1002.475	1945.58
1002.77	1917.34
1003.065	1884.57
1003.359	1929.31
1003.654	1879.6
1003.949	1897.22
1004.243	1893.16
1004.538	1863.33
1004.832	1853.38
1005.127	1851.35
1005.421	1855.42
1005.715	1830.56
1006.009	1832.37
1006.304	1794.4
1006.598	1768.64
1006.892	1736.32
1007.186	1727.74
1007.48	1744.91
1007.773	1763.44
1008.067	1743.56
1008.361	1705.59
1008.655	1720.51
1008.948	1704.23
1009.242	1716.89
1009.535	1703.33
1009.829	1692.03
1010.122	1665.59
1010.415	1659.04
1010.708	1671.24
1011.001	1602.54
1011.295	1622.43
1011.588	1623.11
1011.881	1590.57
1012.173	1607.29
1012.466	1624.24
1012.759	1581.75
1013.052	1598.47
1013.344	1585.14
1013.637	1571.58
1013.93	1542.21
1014.222	1534.75
1014.514	1535.2
1014.807	1535.2
1015.099	1526.61
1015.391	1508.08
1015.683	1492.71
1015.976	1473.28
1016.268	1469.66
1016.56	1462.21
1016.851	1471.47
1017.143	1461.08
1017.435	1426.5
1017.727	1457.91
1018.018	1445.03
1018.31	1442.32
1018.602	1429.21
1018.893	1407.97
1019.185	1391.7
1019.476	1385.37
1019.767	1374.53
1020.058	1346.05
1020.35	1332.95
1020.641	1365.94
1020.932	1334.3
1021.223	1323
1021.514	1304.7
1021.804	1295.21
1022.095	1311.48
1022.386	1308.77
1022.677	1301.08
1022.967	1278.71
1023.258	1251.37
1023.548	1259.05
1023.839	1250.01
1024.129	1286.17
1024.419	1224.02
1024.709	1223.34
1025	1209.56
1025.29	1216.56
1025.58	1203.01
1025.87	1191.71
1026.16	1201.65
1026.449	1187.19
1026.739	1172.72
1027.029	1177.24
1027.319	1179.5
1027.608	1179.95
1027.898	1133.18
1028.187	1151.71
1028.477	1130.01
1028.766	1106.28
1029.055	1148.77
1029.344	1124.14
1029.634	1121.65
1029.923	1080.52
1030.212	1108.32
1030.501	1099.05
1030.79	1064.48
1031.078	1051.14
1031.367	1066.74
1031.656	1065.38
1031.945	1061.99
1032.233	1023.8
1032.522	1043.46
1032.81	1053.86
1033.099	1021.31
1033.387	1011.37
1033.675	989.68
1033.963	973.86
1034.251	1010.24
1034.54	969.11
1034.828	990.81
1035.116	968.21
1035.403	979.96
1035.691	977.93
1035.979	935.89
1036.267	942.67
1036.554	923.69
1036.842	951.71
1037.129	922.56
1037.417	913.07
1037.704	928.44
1037.992	915.56
1038.279	918.72
1038.566	904.71
1038.853	904.71
1039.14	904.71
