Data from hue_40_FLMS001491_91.txt Node
Date: Mon Feb 06 15:08:50 GMT 2017
User: dcchb
Spectrometer: FLMS00149
Trigger mode: 0
Integration Time (sec): 2.000000E-2
Scans to average: 10
Electric dark correction enabled: true
Nonlinearity correction enabled: false
Boxcar width: 0
XAxis mode: Wavelengths
Number of Pixels in Spectrum: 2048
>>>>>Begin Spectral Data<<<<<
341.393	-9.32
341.776	-9.32
342.16	-9.32
342.543	-82.54
342.927	-71.69
343.31	-88.19
343.693	-67.17
344.077	-66.27
344.46	-49.55
344.843	-62.2
345.226	-43.67
345.61	-53.84
345.993	-18.36
346.376	-9.55
346.759	18.02
347.142	26.16
347.525	36.78
347.908	69.09
348.291	72.48
348.674	94.18
349.057	142.09
349.44	120.17
349.823	134.86
350.206	166.49
350.588	196.77
350.971	215.08
351.354	212.14
351.737	230.9
352.119	244.91
352.502	261.63
352.884	281.29
353.267	281.97
353.65	317.68
354.032	292.14
354.414	312.7
354.797	347.73
355.179	338.01
355.562	308.86
355.944	345.02
356.326	328.97
356.709	321.07
357.091	344.79
357.473	340.05
357.855	345.02
358.238	357.9
358.62	336.66
359.002	342.31
359.384	346.83
359.766	362.42
360.148	348.63
360.53	337.56
360.912	356.77
361.294	352.25
361.676	352.93
362.057	346.15
362.439	330.33
362.821	341.63
363.203	337.34
363.584	331.91
363.966	334.17
364.348	324.45
364.729	324
365.111	318.58
365.493	338.24
365.874	331.01
366.256	311.8
366.637	312.7
367.019	339.14
367.4	316.32
367.781	328.3
368.163	300.5
368.544	319.94
368.925	327.84
369.306	335.08
369.688	309.99
370.069	312.25
370.45	305.25
370.831	305.7
371.212	318.58
371.593	307.96
371.974	324.23
372.355	318.81
372.736	315.64
373.117	316.09
373.498	334.62
373.879	304.34
374.26	324.68
374.641	335.3
375.021	318.81
375.402	326.71
375.783	319.48
376.163	342.31
376.544	328.3
376.925	322.65
377.305	339.37
377.686	324.23
378.066	354.74
378.447	345.92
378.827	327.62
379.208	356.32
379.588	357
379.968	339.37
380.349	343.89
380.729	361.29
381.109	328.07
381.489	343.89
381.87	349.76
382.25	324.45
382.63	365.13
383.01	359.03
383.39	352.02
383.77	327.84
384.15	350.22
384.53	358.8
384.91	354.96
385.29	352.48
385.67	362.19
386.049	364.23
386.429	377.79
386.809	359.03
387.189	350.89
387.568	352.25
387.948	361.29
388.328	375.53
388.707	362.65
389.087	359.93
389.466	366.04
389.846	364.68
390.225	379.82
390.605	362.42
390.984	385.02
391.363	364.91
391.743	403.55
392.122	387.96
392.501	385.24
392.881	404.9
393.26	376.88
393.639	393.61
394.018	394.74
394.397	389.31
394.776	386.83
395.155	406.71
395.534	393.38
395.913	387.96
396.292	419.37
396.671	403.32
397.05	394.51
397.429	384.11
397.808	398.13
398.186	427.73
398.565	401.29
398.944	415.3
399.323	405.81
399.701	408.97
400.08	385.47
400.458	413.72
400.837	415.75
401.215	405.81
401.594	409.65
401.972	410.55
402.351	421.85
402.729	440.38
403.107	399.48
403.486	422.31
403.864	426.15
404.242	420.95
404.62	418.92
404.999	425.7
405.377	450.78
405.755	448.75
406.133	442.64
406.511	435.86
406.889	457.33
407.267	459.59
407.645	441.29
408.023	466.82
408.401	470.44
408.779	466.6
409.156	449.65
409.534	487.16
409.912	464.56
410.29	465.69
410.667	476.99
411.045	460.5
411.422	483.32
411.8	484.45
412.178	482.87
412.555	490.55
412.933	491
413.31	488.97
413.687	534.17
414.065	512.47
414.442	494.62
414.819	505.24
415.197	506.6
415.574	512.25
415.951	516.09
416.328	529.2
416.705	530.1
417.082	522.42
417.46	516.54
417.837	549.08
418.214	533.94
418.591	526.26
418.967	559.25
419.344	545.47
419.721	562.64
420.098	549.31
420.475	579.59
420.852	560.83
421.228	575.52
421.605	555.64
421.982	542.53
422.358	564.22
422.735	574.62
423.111	596.09
423.488	576.65
423.864	583.88
424.241	615.97
424.617	594.28
424.994	589.08
425.37	598.8
425.746	589.76
426.123	583.88
426.499	608.06
426.875	617.1
427.251	600.38
427.627	625.69
428.003	629.31
428.379	625.01
428.756	653.26
429.132	650.77
429.507	646.25
429.883	648.51
430.259	651.45
430.635	666.14
431.011	667.5
431.387	674.95
431.763	668.17
432.138	685.8
432.514	679.25
432.89	697.78
433.265	711.11
433.641	715.4
434.016	695.97
434.392	714.28
434.767	749.08
435.143	732.81
435.518	750.88
435.894	769.64
436.269	752.01
436.644	787.04
437.02	748.4
437.395	762.64
437.77	799.47
438.145	783.88
438.52	792.01
438.895	792.24
439.271	825.23
439.646	824.78
440.021	819.13
440.395	831.33
440.77	814.61
441.145	824.1
441.52	835.63
441.895	838.79
442.27	834.72
442.645	826.59
443.019	828.17
443.394	852.12
443.769	860.03
444.143	856.19
444.518	884.67
444.892	873.14
445.267	896.19
445.641	891.9
446.016	891.9
446.39	896.87
446.764	896.19
447.139	914.72
447.513	885.57
447.887	920.37
448.262	924.44
448.636	894.61
449.01	937.09
449.384	924.21
449.758	934.38
450.132	944.78
450.506	937.09
450.88	973.93
451.254	959.69
451.628	959.69
452.002	997.88
452.376	973.48
452.75	992.91
453.123	966.7
453.497	1036.53
453.871	1030.42
454.244	1022.06
454.618	1070.88
454.992	1054.15
455.365	1040.14
455.739	1065.68
456.112	1096.19
456.486	1072.68
456.859	1090.54
457.232	1099.12
457.606	1126.47
457.979	1129.41
458.352	1174.15
458.725	1156.3
459.099	1182.96
459.472	1200.36
459.845	1195.84
460.218	1212.57
460.591	1196.07
460.964	1235.39
461.337	1246.01
461.71	1263.87
462.083	1288.95
462.456	1282.4
462.829	1301.15
463.201	1324.43
463.574	1316.07
463.947	1347.93
464.32	1397.42
464.692	1391.09
465.065	1408.72
465.438	1387.7
465.81	1434.48
466.183	1417.76
466.555	1461.15
466.928	1483.75
467.3	1494.82
467.672	1507.25
468.045	1547.7
468.417	1578.43
468.789	1569.39
469.161	1590.64
469.534	1649.17
469.906	1636.06
470.278	1694.59
470.65	1725.77
471.022	1744.3
471.394	1733.01
471.766	1763.74
472.138	1816.62
472.51	1855.49
472.882	1895.94
473.253	1906.11
473.625	1952.66
473.997	2011.64
474.369	2013
474.74	2037.63
475.112	2128.25
475.484	2123.05
475.855	2183.84
476.227	2203.5
476.598	2296.83
476.97	2321.46
477.341	2373.67
477.713	2438.52
478.084	2469.26
478.455	2548.13
478.827	2602.13
479.198	2710.61
479.569	2717.61
479.94	2817.04
480.311	2894.33
480.682	2951.28
481.053	3018.4
481.424	3127.09
481.795	3165.06
482.166	3222.46
482.537	3320.76
482.908	3381.1
483.279	3504.03
483.65	3560.3
484.021	3666.06
484.391	3699.51
484.762	3791.71
485.133	3860.41
485.503	3954.87
485.874	4079.61
486.244	4209.55
486.615	4263.79
486.985	4354.63
487.356	4503.78
487.726	4563.44
488.097	4708.75
488.467	4727.73
488.837	4941.73
489.207	4959.14
489.578	5119.81
489.948	5155.51
490.318	5296.3
490.688	5391.21
491.058	5485.45
491.428	5613.36
491.798	5734.03
492.168	5846.34
492.538	5969.73
492.908	6069.39
493.278	6157.97
493.648	6263.28
494.017	6405.2
494.387	6484.97
494.757	6566.32
495.126	6718.18
495.496	6758.18
495.866	6893.77
496.235	7022.81
496.605	7063.49
496.974	7216.02
497.344	7291.05
497.713	7387.55
498.082	7454.66
498.452	7573.98
498.821	7703.02
499.19	7766.52
499.559	7884.26
499.928	7994.08
500.298	7995.89
500.667	8125.15
501.036	8166.96
501.405	8288.31
501.774	8339.84
502.143	8517.23
502.512	8586.61
502.88	8690.56
503.249	8639.04
503.618	8786.83
503.987	8891.69
504.356	8995.87
504.724	9022.31
505.093	9069.99
505.462	9208.06
505.83	9289.19
506.199	9356.08
506.567	9534.16
506.936	9543.2
507.304	9662.06
507.672	9719.69
508.041	9794.94
508.409	9873.81
508.777	9892.56
509.145	10060.92
509.514	10094.59
509.882	10222.05
510.25	10263.63
510.618	10292.55
510.986	10399.67
511.354	10481.25
511.722	10537.07
512.09	10622.49
512.458	10723.05
512.826	10769.83
513.193	10874.46
513.561	10876.72
513.929	10986.55
514.297	11138.18
514.664	11136.6
515.032	11174.79
515.4	11242.59
515.767	11324.17
516.135	11409.81
516.502	11349.02
516.869	11585.85
517.237	11664.04
517.604	11593.54
517.972	11825.62
518.339	11845.73
518.706	11821.55
519.073	11874.43
519.44	12044.6
519.808	12094.99
520.175	12023.58
520.542	12287.98
520.909	12314.2
521.276	12375.44
521.643	12504.93
522.009	12588.77
522.376	12664.7
522.743	12701.08
523.11	12782.66
523.477	12945.59
523.843	12979.49
524.21	13094.74
524.577	13290.67
524.943	13240.27
525.31	13329.54
525.676	13483.88
526.043	13535.63
526.409	13503.32
526.776	13758
527.142	13779.92
527.508	13867.15
527.874	14003.19
528.241	13949.41
528.607	14087.93
528.973	14208.38
529.339	14153.47
529.705	14367.93
530.071	14440.92
530.437	14584.42
530.803	14609.73
531.169	14668.03
531.535	14731.99
531.901	14720.91
532.267	14890.63
532.632	15033.45
532.998	15019.66
533.364	15048.81
533.73	15094.91
534.095	15258.53
534.461	15251.29
534.826	15326.77
535.192	15378.75
535.557	15582.81
535.923	15582.58
536.288	15592.3
536.653	15743.94
537.019	15750.04
537.384	15738.51
537.749	15807.21
538.114	15787.33
538.479	15966.3
538.845	16090.37
539.21	16034.1
539.575	16087.43
539.94	16163.13
540.305	16225.28
540.67	16221.89
541.034	16323.58
541.399	16443.8
541.764	16455.56
542.129	16548.89
542.494	16535.55
542.858	16634.53
543.223	16595.21
543.587	16822.33
543.952	16821.2
544.316	16902.32
544.681	16947.07
545.045	17028.42
545.41	17247.17
545.774	17167.85
546.138	17088.08
546.503	17231.58
546.867	17336.21
547.231	17466.15
547.595	17512.7
547.959	17477
548.324	17551.57
548.688	17643.1
549.052	17622.08
549.416	17776.88
549.779	17820.49
550.143	17867.72
550.507	17923.99
550.871	18013.48
551.235	17978
551.599	18092.35
551.962	18219.58
552.326	18232.01
552.689	18295.96
553.053	18188.62
553.417	18383.19
553.78	18599
554.143	18577.53
554.507	18658.66
554.87	18711.54
555.234	18753.12
555.597	18731.65
555.96	18908.6
556.323	18968.94
556.686	18844.42
557.05	19045.32
557.413	19108.37
557.776	19130.97
558.139	19234.92
558.502	19288.7
558.865	19318.31
559.228	19480.11
559.59	19516.94
559.953	19504.52
560.316	19770.72
560.679	19762.36
561.041	19813.43
561.404	19984.28
561.767	20078.29
562.129	20052.07
562.492	20266.76
562.854	20287.77
563.217	20162.8
563.579	20320.09
563.941	20466.75
564.304	20541.55
564.666	20678.5
565.028	20685.28
565.39	20767.99
565.753	20882.11
566.115	21066.28
566.477	20991.93
566.839	21009.33
567.201	21238.48
567.563	21219.27
567.925	21206.62
568.287	21290.68
568.648	21388.31
569.01	21531.35
569.372	21666.49
569.734	21681.18
570.095	21795.08
570.457	21885.47
570.819	22071.45
571.18	22028.74
571.542	22135.41
571.903	22181.06
572.265	22290.43
572.626	22318.9
572.987	22421.27
573.349	22577.43
573.71	22647.71
574.071	22658.33
574.432	22776.52
574.794	23001.6
575.155	23033.46
575.516	23060.58
575.877	23223.51
576.238	23303.51
576.599	23542.38
576.96	23543.51
577.32	23697.63
577.681	23742.6
578.042	23894.23
578.403	24079.54
578.763	24297.84
579.124	24296.71
579.485	24483.37
579.845	24719.07
580.206	24781.21
580.566	24891.94
580.927	25032.73
581.287	25314.98
581.648	25177.36
582.008	25732.83
582.368	25698.48
582.728	25838.81
583.089	25931.92
583.449	26223.21
583.809	26395.18
584.169	26535.07
584.529	26774.38
584.889	27093.02
585.249	27040.59
585.609	27232.22
585.969	27661.59
586.329	27653
586.688	27941.58
587.048	28066.32
587.408	28123.27
587.768	28372.08
588.127	28468.8
588.487	28868.79
588.846	29191.94
589.206	29147.65
589.565	29480.52
589.925	29676
590.284	29771.59
590.643	30132.26
591.003	30320.73
591.362	30646.37
591.721	30740.83
592.08	30944.89
592.44	31278.9
592.799	31380.36
593.158	31579.45
593.517	31734.7
593.876	31992.32
594.235	32191.19
594.593	32407.9
594.952	32682.25
595.311	32754.11
595.67	32952.52
596.029	33443.36
596.387	33521.55
596.746	33736.46
597.104	33703.01
597.463	33947.75
597.822	34254.41
598.18	34358.14
598.538	34458.7
598.897	34671.8
599.255	34704.79
599.613	35350.65
599.972	35212.58
600.33	35437.43
600.688	35469.29
601.046	35795.16
601.404	36018.21
601.762	36293.68
602.12	36420
602.478	36553.33
602.836	36690.28
603.194	36645.08
603.552	37008.24
603.91	36815.7
604.268	37223.37
604.625	37215.01
604.983	37524.61
605.341	37529.8
605.698	37729.12
606.056	37892.51
606.413	38087.3
606.771	38216.11
607.128	38369.56
607.485	38330.01
607.843	38468.31
608.2	38898.36
608.557	38960.05
608.914	38973.83
609.272	39320.94
609.629	39358.91
609.986	39597.77
610.343	39507.61
610.7	39788.05
611.057	39843.87
611.414	39937.2
611.771	40056.07
612.127	40348.49
612.484	40353.91
612.841	40590.74
613.198	40504.19
613.554	40514.36
613.911	40778.08
614.267	40881.81
614.624	40911.64
614.98	40987.57
615.337	41403.15
615.693	41192.53
616.05	41219.2
616.406	41527.44
616.762	41532.64
617.118	41458.29
617.475	41557.04
617.831	41814.66
618.187	41921.1
618.543	42014.43
618.899	42258.04
619.255	42125.62
619.611	42298.94
619.967	42325.38
620.323	42458.49
620.678	42457.58
621.034	42429.34
621.39	42422.78
621.746	42342.11
622.101	42921.07
622.457	42690.35
622.812	42793.17
623.168	42849.66
623.523	42993.39
623.879	43055.31
624.234	42915.43
624.589	42984.35
624.945	43053.27
625.3	43202.2
625.655	43131.92
626.01	43249.88
626.365	43235.87
626.72	43250.33
627.075	43218.02
627.43	43256.43
627.785	43353.83
628.14	43382.53
628.495	43320.84
628.85	43401.74
629.205	43438.35
629.559	43625.69
629.914	43403.1
630.269	43519.25
630.623	43345.24
630.978	43360.61
631.332	43516.77
631.687	43697.78
632.041	43457.11
632.396	43576.2
632.75	43347.28
633.104	43640.15
633.459	43430.44
633.813	43396.77
634.167	43407.84
634.521	43421.17
634.875	43384.34
635.229	43466.15
635.583	43201.07
635.937	43316.32
636.291	43293.04
636.645	43324.91
636.999	43225.7
637.352	43380.27
637.706	43014.41
638.06	43234.96
638.413	43193.61
638.767	43064.12
639.121	43168.75
639.474	42971.47
639.828	42950
640.181	42980.73
640.534	43046.27
640.888	42995.88
641.241	42752.49
641.594	42831.59
641.947	42983.67
642.301	42917.46
642.654	42865.03
643.007	42924.01
643.36	42806.95
643.713	42732.61
644.066	42910
644.419	42754.53
644.771	42527.86
645.124	42054.43
645.477	41895.79
645.83	41762.69
646.182	41655.8
646.535	41606.99
646.888	41605.86
647.24	41380.78
647.593	41616.25
647.945	41550.04
648.298	41345.98
648.65	41328.8
649.002	41110.27
649.355	41480.43
649.707	41367.9
650.059	41312.76
650.411	41918.84
650.763	41935.11
651.115	42391.37
651.467	42377.13
651.819	42139.85
652.171	42116.35
652.523	42053.53
652.875	42173.3
653.227	42027.76
653.578	42204.48
653.93	42096.01
654.282	42010.14
654.633	41773.31
654.985	41941.67
655.337	41863.93
655.688	41866.19
656.039	41935.11
656.391	41628.68
656.742	41844.72
657.094	41738.73
657.445	41929.01
657.796	41807.66
658.147	41794.55
658.498	41846.98
658.849	41794.32
659.2	41759.75
659.551	41691.95
659.902	41844.94
660.253	41691.5
660.604	41878.16
660.955	41615.57
661.306	41710.49
661.656	41557.72
662.007	41554.11
662.358	41586.65
662.708	41615.35
663.059	41576.03
663.409	41430.94
663.76	41684.05
664.11	41649.24
664.461	41669.58
664.811	41717.04
665.161	41532.18
665.511	41524.73
665.862	41524.5
666.212	41602.24
666.562	41630.71
666.912	41646.76
667.262	41496.25
667.612	41461.45
667.962	41563.6
668.312	41371.96
668.662	41609.02
669.011	41519.76
669.361	41548.68
669.711	41581.22
670.06	41440.66
670.41	41291.74
670.76	41400.21
671.109	41518.63
671.459	41401.34
671.808	41265.75
672.157	41427.1
672.507	41149.14
672.856	41309.14
673.205	41171.97
673.554	41291.51
673.904	41068.69
674.253	41353.21
674.602	41204.51
674.951	40610.18
675.3	40512.55
675.649	41136.04
675.998	41119.77
676.346	41139.43
676.695	41162.25
677.044	40996.38
677.393	40953.67
677.741	41038.86
678.09	40973.1
678.438	40841.58
678.787	40892.2
679.135	40856.95
679.484	40596.62
679.832	40700.12
680.181	40599.1
680.529	40769.94
680.877	40614.69
681.225	40483.4
681.573	40651.08
681.922	40509.61
682.27	40264.87
682.618	40321.37
682.966	40270.52
683.314	40362.5
683.661	40296.06
684.009	40184.2
684.357	40009.74
684.705	39950.53
685.053	40098.32
685.4	39952.34
685.748	39741.05
686.095	39856.97
686.443	39609.52
686.79	39592.57
687.138	39698.33
687.485	39571.33
687.832	39461.28
688.18	39527.72
688.527	39242.75
688.874	39367.95
689.221	39183.09
689.568	39145.35
689.915	38916.21
690.262	38930.67
690.609	38813.39
690.956	38792.6
691.303	38771.35
691.65	38591.02
691.997	38502.66
692.344	38358.03
692.69	38384.02
693.037	38328.88
693.383	37950.81
693.73	38161.2
694.077	38095.89
694.423	37962.56
694.769	37860.64
695.116	37771.83
695.462	37765.5
695.808	37474.44
696.155	37679.4
696.501	37370.03
696.847	37382.69
697.193	37064.51
697.539	37191.96
697.885	36921.23
698.231	36850.73
698.577	36764.4
698.923	36889.14
699.269	36612.77
699.614	36446.22
699.96	36408.25
700.306	36413.45
700.651	36180.91
700.997	36142.72
701.342	36007.58
701.688	36142.04
702.033	35906.34
702.379	35844.88
702.724	35789.28
703.069	35841.26
703.415	35469.52
703.76	35387.71
704.105	35370.31
704.45	35479.69
704.795	35118.34
705.14	35076.08
705.485	35206.7
705.83	34884
706.175	35045.35
706.52	34860.5
706.865	34732.82
707.209	34812.59
707.554	34549.09
707.899	34694.62
708.243	34455.99
708.588	34353.62
708.932	34239.04
709.277	34147.75
709.621	34214.64
709.966	33994.53
710.31	34123.11
710.654	33823.23
710.998	33786.85
711.342	33870.47
711.687	33695.78
712.031	33573.07
712.375	33414.21
712.719	33515.9
713.063	33457.14
713.407	33773.74
713.75	33223.02
714.094	33289.92
714.438	33108.45
714.782	33156.13
715.125	33034.1
715.469	33092.63
715.812	32828.01
716.156	32725.18
716.499	32910.72
716.843	32764.28
717.186	32608.58
717.53	32672.53
717.873	32659.2
718.216	32486.32
718.559	32392.09
718.902	32260.34
719.246	32304.18
719.589	32280.68
719.932	32136.27
720.275	32115.26
720.617	32048.59
720.96	32105.99
721.303	31969.27
721.646	31966.11
721.989	31813.34
722.331	31861.25
722.674	31730.63
723.016	31838.2
723.359	31766.34
723.701	31680.69
724.044	31468.27
724.386	31464.88
724.729	31498.32
725.071	31353.7
725.413	31384.2
725.755	31458.33
726.097	31252.68
726.439	31057.88
726.782	31149.86
727.124	31346.69
727.465	31021.73
727.807	30984.89
728.149	30959.81
728.491	30805.01
728.833	30841.17
729.175	30782.64
729.516	30753.26
729.858	30674.39
730.199	30733.6
730.541	30624.22
730.882	30636.43
731.224	30739.7
731.565	30473.94
731.906	30485.02
732.248	30511.46
732.589	30229.43
732.93	30244.8
733.271	30293.61
733.612	30321.63
733.953	30250.9
734.294	30194.18
734.635	30015.88
734.976	30119.38
735.317	29898.82
735.658	30021.75
735.999	29866.95
736.339	29940.4
736.68	30013.62
737.021	29814.07
737.361	29662.44
737.702	29842.1
738.042	29663.12
738.383	29586.06
738.723	29663.57
739.063	29557.36
739.404	29558.49
739.744	29516.91
740.084	29391.26
740.424	29486.85
740.764	29424.71
741.104	29386.29
741.444	29353.52
741.784	29263.35
742.124	29227.88
742.464	29201.44
742.804	29104.94
743.143	28934.78
743.483	29058.84
743.823	28946.08
744.162	28967.77
744.502	28990.37
744.841	28804.61
745.181	28986.07
745.52	28888.22
745.86	28882.35
746.199	28768.45
746.538	28741.33
746.877	28697.04
747.216	28648.46
747.556	28598.74
747.895	28652.07
748.234	28544.73
748.573	28418.63
748.911	28396.94
749.25	28388.35
749.589	28200.56
749.928	28252.08
750.267	28337.96
750.605	28110.62
750.944	28106.55
751.283	28004.86
751.621	28153.78
751.96	27879.21
752.298	27861.81
752.636	27901.36
752.975	27833.34
753.313	27757.86
753.651	27844.86
753.989	27639.89
754.327	27626.34
754.666	27538.43
755.004	27602.61
755.342	27535.26
755.679	27416.4
756.017	27239.68
756.355	27370.3
756.693	27152.22
757.031	27281.71
757.368	27059.35
757.706	27035.39
758.044	26877.43
758.381	27048.72
758.719	26772.57
759.056	26928.28
759.394	26693.48
759.731	26568.06
760.068	26577.1
760.405	26507.5
760.743	26400.15
761.08	26424.56
761.417	26333.71
761.754	26232.02
762.091	26247.39
762.428	26012.14
762.765	26009.88
763.102	25987.51
763.438	25920.62
763.775	25755.2
764.112	25796.1
764.449	25772.83
764.785	25540.51
765.122	25408.31
765.458	25279.5
765.795	25353.63
766.131	25294.42
766.467	25196.34
766.804	25096.23
767.14	24937.82
767.476	25021.21
767.812	24790.03
768.148	24942.34
768.485	24626.87
768.821	24668.45
769.157	24502.35
769.492	24490.6
769.828	24465.97
770.164	24142.81
770.5	24259.64
770.836	24129.25
771.171	24011.29
771.507	23993.21
771.842	23855.14
772.178	23825.76
772.513	23761.13
772.849	23718.42
773.184	23583.73
773.519	23536.05
773.855	23412.66
774.19	23331.99
774.525	23254.02
774.86	23239.33
775.195	23126.79
775.53	23129.28
775.865	22866.91
776.2	22783.98
776.535	22682.96
776.87	22629.18
777.205	22619.91
777.539	22433.48
777.874	22529.97
778.209	22219.02
778.543	22196.42
778.878	22172.24
779.212	22094.05
779.547	22046.14
779.881	22017.22
780.215	21854.51
780.55	21924.56
780.884	21664.91
781.218	21674.63
781.552	21676.66
781.886	21559.6
782.22	21452.71
782.554	21457.46
782.888	21218.37
783.222	21127.07
783.556	21184.7
783.889	21012.05
784.223	20807.98
784.557	20716.23
784.89	20828.77
785.224	20744.93
785.557	20572.96
785.891	20572.28
786.224	20624.71
786.558	20513.08
786.891	20297.04
787.224	20243.03
787.557	20139.98
787.891	20014.78
788.224	20099.98
788.557	20048.68
788.89	19969.81
789.223	20044.16
789.556	19759.88
789.888	19735.02
790.221	19678.07
790.554	19479.88
790.887	19513.33
791.219	19457.29
791.552	19414.12
791.884	19323.96
792.217	19197.4
792.549	19108.82
792.882	19023.62
793.214	18962.83
793.546	19013.68
793.879	18843.97
794.211	18745.67
794.543	18837.64
794.875	18747.25
795.207	18803.74
795.539	18641.49
795.871	18608.27
796.203	18462.51
796.535	18332.79
796.867	18398.1
797.198	18209.86
797.53	18289.18
797.862	18142.07
798.193	18151.1
798.525	18094.61
798.856	18023.2
799.188	17928.51
799.519	17870.21
799.85	17784.56
800.182	17860.04
800.513	17768.52
800.844	17544.57
801.175	17715.86
801.506	17594.28
801.837	17484.91
802.168	17460.73
802.499	17461.41
802.83	17296.21
803.161	17314.52
803.491	17293.5
803.822	17196.33
804.153	17179.15
804.483	17104.13
804.814	17018.48
805.145	17013.51
805.475	16924.24
805.805	16899.16
806.136	16914.3
806.466	16780.75
806.796	16684.02
807.126	16634.53
807.457	16670.92
807.787	16645.38
808.117	16494.43
808.447	16506.18
808.777	16517.25
809.107	16374.2
809.436	16381.21
809.766	16327.2
810.096	16223.02
810.426	16215.34
810.755	16206.3
811.085	16194.32
811.414	16102.8
811.744	16048.79
812.073	16038.62
812.403	16074.78
812.732	16002.69
813.061	15849.92
813.39	15833.88
813.719	15840.66
814.049	15800.66
814.378	15746.42
814.707	15663.71
815.036	15696.03
815.365	15532.64
815.693	15448.8
816.022	15453.77
816.351	15533.55
816.68	15399.54
817.008	15449.25
817.337	15277.51
817.665	15248.36
817.994	15227.79
818.322	15245.87
818.651	15077.97
818.979	15074.12
819.307	15165.42
819.636	15048.59
819.964	14907.57
820.292	14995.93
820.62	15053.56
820.948	15018.53
821.276	14967.23
821.604	14954.8
821.932	14958.87
822.259	14929.49
822.587	14944.64
822.915	14819.21
823.243	14909.38
823.57	14837.52
823.898	14945.99
824.225	14838.42
824.553	14760.01
824.88	14803.85
825.207	14845.2
825.535	14803.17
825.862	14885.43
826.189	14788.26
826.516	14857.41
826.843	15026.44
827.17	14908.7
827.497	14921.59
827.824	14906.22
828.151	14954.35
828.478	14855.82
828.805	14902.38
829.131	14863.73
829.458	14864.41
829.785	14776.73
830.111	14714.13
830.438	14862.6
830.764	14803.17
831.09	14791.19
831.417	14750.29
831.743	14833.68
832.069	14826.9
832.395	14682.5
832.722	14755.49
833.048	14713.91
833.374	14791.42
833.7	14646.79
834.026	14679.33
834.351	14668.26
834.677	14650.41
835.003	14656.28
835.329	14567.7
835.654	14669.61
835.98	14577.41
836.306	14501.48
836.631	14575.83
836.956	14564.53
837.282	14533.8
837.607	14429.39
837.932	14546.23
838.258	14449.51
838.583	14399.34
838.908	14397.08
839.233	14382.84
839.558	14353.46
839.883	14323.63
840.208	14297.87
840.533	14384.65
840.858	14167.48
841.182	14267.36
841.507	14202.28
841.832	14065.11
842.156	14101.72
842.481	14101.95
842.805	14066.69
843.13	13988.95
843.454	14049.97
843.778	13940.59
844.103	13984.43
844.427	13931.55
844.751	13819.24
845.075	13807.72
845.399	13830.77
845.723	13764.33
846.047	13776.76
846.371	13579.47
846.695	13602.07
847.019	13533.82
847.343	13433.71
847.666	13453.6
847.99	13444.34
848.313	13277.56
848.637	13240.5
848.96	13247.28
849.284	13165.47
849.607	13124.57
849.931	13077.34
850.254	12927.74
850.577	12857.46
850.9	12843.9
851.223	12805.93
851.546	12749.44
851.869	12727.97
852.192	12762.55
852.515	12625.15
852.838	12562.1
853.161	12588.31
853.483	12482.78
853.806	12424.48
854.129	12392.16
854.451	12322.11
854.774	12401.65
855.096	12259.96
855.419	12252.05
855.741	12134.99
856.063	12139.74
856.385	12134.77
856.708	12052.28
857.03	12005.96
857.352	12053.41
857.674	11957.14
857.996	11909.01
858.318	11904.49
858.64	11854.55
858.961	11846.64
859.283	11768.67
859.605	11729.8
859.926	11734.78
860.248	11764.38
860.57	11626.3
860.891	11673.99
861.212	11601.45
861.534	11583.59
861.855	11539.75
862.176	11558.28
862.498	11518.74
862.819	11452.3
863.14	11517.83
863.461	11417.27
863.782	11407.55
864.103	11422.47
864.424	11376.82
864.745	11372.53
865.065	11326.88
865.386	11329.14
865.707	11238.07
866.027	11340.66
866.348	11270.38
866.668	11249.82
866.989	11161.91
867.309	11169.14
867.63	11186.99
867.95	11113.1
868.27	11064.29
868.59	11112.65
868.91	11139.54
869.23	11115.81
869.55	11106.77
869.87	11050.73
870.19	11016.83
870.51	10978.86
870.83	10992.65
871.15	10946.1
871.469	10996.94
871.789	10960.79
872.109	10859.09
872.428	10893.44
872.748	10841.47
873.067	10878.08
873.386	10895.93
873.706	10832.2
874.025	10780
874.344	10797.85
874.663	10795.14
874.982	10719.66
875.301	10770.73
875.62	10762.82
875.939	10661.13
876.258	10724.18
876.577	10603.51
876.896	10653
877.214	10546.11
877.533	10641.02
877.852	10580.68
878.17	10548.14
878.489	10598.53
878.807	10563.06
879.125	10574.81
879.444	10511.76
879.762	10496.84
880.08	10492.32
880.398	10394.92
880.716	10429.73
881.034	10368.03
881.352	10435.38
881.67	10424.08
881.988	10351.54
882.306	10361.7
882.624	10325.77
882.941	10291.42
883.259	10220.24
883.577	10150.41
883.894	10190.86
884.212	10222.05
884.529	10213.01
884.846	10152.44
885.164	10101.6
885.481	10021.37
885.798	10131.65
886.115	10067.02
886.432	10037.19
886.75	9970.08
887.067	10030.64
887.383	9926.69
887.7	9943.86
888.017	9911.1
888.334	9877.42
888.651	9847.14
888.967	9856.63
889.284	9816.18
889.6	9704.77
889.917	9653.02
890.233	9691.89
890.55	9672.91
890.866	9682.17
891.182	9635.85
891.498	9562.86
891.815	9579.8
892.131	9531.67
892.447	9521.05
892.763	9503.42
893.079	9510.43
893.395	9407.61
893.71	9391.11
894.026	9368.96
894.342	9279.02
894.657	9297.78
894.973	9252.81
895.289	9237.67
895.604	9271.11
895.92	9174.17
896.235	9081.96
896.55	9099.82
896.865	9114.51
897.181	9085.35
897.496	9069.31
897.811	9014.62
898.126	9032.02
898.441	8967.62
898.756	8951.8
899.071	8933.27
899.386	8929.65
899.7	8825.47
900.015	8865.25
900.33	8714.74
900.644	8770.56
900.959	8717
901.273	8705.93
901.588	8689.66
901.902	8585.03
902.216	8564.92
902.531	8589.55
902.845	8541.19
903.159	8478.59
903.473	8424.58
903.787	8378.48
904.101	8337.13
904.415	8395.88
904.729	8297.58
905.042	8307.07
905.356	8244.25
905.67	8168.77
905.984	8269.78
906.297	8234.76
906.611	8236.34
906.924	8126.51
907.237	8128.32
907.551	8104.36
907.864	8006.06
908.177	8014.87
908.491	7981.2
908.804	7939.62
909.117	7886.29
909.43	7819.17
909.743	7855.56
910.056	7854.2
910.368	7739.4
910.681	7760.64
910.994	7686.97
911.307	7704.83
911.619	7690.14
911.932	7604.94
912.244	7584.15
912.557	7592.96
912.869	7490.59
913.181	7524.27
913.494	7488.79
913.806	7437.04
914.118	7364.95
914.43	7347.55
914.742	7290.83
915.054	7329.02
915.366	7272.29
915.678	7244.5
915.99	7204.5
916.302	7127.67
916.613	7110.72
916.925	7081.79
917.236	7137.16
917.548	7062.81
917.859	7085.41
918.171	7010.15
918.482	6993.21
918.794	6940.1
919.105	6950.72
919.416	6877.5
919.727	6807.45
920.038	6794.57
920.349	6736.26
920.66	6763.83
920.971	6751.63
921.282	6739.43
921.593	6665.3
921.903	6635.93
922.214	6621.46
922.525	6617.85
922.835	6569.94
923.146	6524.97
923.456	6571.97
923.767	6502.6
924.077	6455.37
924.387	6432.77
924.697	6438.64
925.008	6426.89
925.318	6357.29
925.628	6395.03
925.938	6340.34
926.248	6263.73
926.558	6246.33
926.867	6207.46
927.177	6222.38
927.487	6163.17
927.796	6072.55
928.106	6127.24
928.416	6112.78
928.725	6050.86
929.034	6063.06
929.344	5986.23
929.653	5995.72
929.962	5925.89
930.271	5953.46
930.581	5926.12
930.89	5869.17
931.199	5827.13
931.508	5817.87
931.817	5810.41
932.125	5813.58
932.434	5796.63
932.743	5689.96
933.051	5696.06
933.36	5620.13
933.669	5677.08
933.977	5635.28
934.286	5593.47
934.594	5616.29
934.902	5509.18
935.21	5553.02
935.519	5543.3
935.827	5510.31
936.135	5478.22
936.443	5386.92
936.751	5429.18
937.059	5388.5
937.367	5323.19
937.674	5351.44
937.982	5318
938.29	5269.18
938.597	5334.49
938.905	5274.38
939.213	5258.56
939.52	5205
939.827	5218.34
940.135	5111
940.442	5161.16
940.749	5105.57
941.056	5153.25
941.363	5062.18
941.67	5071
941.977	5013.82
942.284	5013.37
942.591	4998
942.898	4991.22
943.205	4939.47
943.511	4935.18
943.818	4933.37
944.125	4871.23
944.431	4888.4
944.738	4824.68
945.044	4802.76
945.35	4795.52
945.657	4780.16
945.963	4798.69
946.269	4707.39
946.575	4746.49
946.881	4762.53
947.187	4740.61
947.493	4651.35
947.799	4654.96
948.105	4644.79
948.41	4647.73
948.716	4627.84
949.022	4548.52
949.327	4573.61
949.633	4541.29
949.938	4503.55
950.244	4499.71
950.549	4449.09
950.854	4459.94
951.16	4417.23
951.465	4418.58
951.77	4364.8
952.075	4400.05
952.38	4347.63
952.685	4375.42
952.99	4327.06
953.294	4275.76
953.599	4269.66
953.904	4241.87
954.209	4257.68
954.513	4242.54
954.818	4199.61
955.122	4179.27
955.426	4179.27
955.731	4170.23
956.035	4133.17
956.339	4127.97
956.643	4066.96
956.948	4072.38
957.252	4050.46
957.556	4055.66
957.86	4022.66
958.163	4015.88
958.467	4011.36
958.771	3981.76
959.075	3957.81
959.378	3972.49
959.682	3967.07
959.985	3908.09
960.289	3904.02
960.592	3855.44
960.896	3900.86
961.199	3818.6
961.502	3840.07
961.805	3763.69
962.108	3761.65
962.411	3773.4
962.714	3757.58
963.017	3737.47
963.32	3766.4
963.623	3722.11
963.926	3676.91
964.228	3659.06
964.531	3645.95
964.833	3663.8
965.136	3636.91
965.438	3641.2
965.741	3620.87
966.043	3549.68
966.345	3603.24
966.648	3569.12
966.95	3516.91
967.252	3499.06
967.554	3506.74
967.856	3504.03
968.158	3447.54
968.46	3498.83
968.761	3410.02
969.063	3421.55
969.365	3440.08
969.666	3401.66
969.968	3387.65
970.269	3357.82
970.571	3342.68
970.872	3329.8
971.174	3318.5
971.475	3347.2
971.776	3297.03
972.077	3262
972.378	3280.31
972.679	3292.51
972.98	3258.61
973.281	3243.02
973.582	3223.14
973.883	3245.28
974.183	3203.48
974.484	3170.26
974.785	3170.93
975.085	3137.26
975.386	3148.79
975.686	3136.36
975.986	3103.14
976.287	3112.86
976.587	3067.89
976.887	3075.12
977.187	3009.36
977.487	3039.41
977.787	3049.35
978.087	2978.85
978.387	2981.79
978.687	2976.14
978.987	2967.1
979.286	2926.87
979.586	2952.41
979.885	2949.7
980.185	2901.79
980.484	2940.21
980.784	2905.4
981.083	2845.07
981.382	2870.6
981.682	2829.47
981.981	2849.36
982.28	2841.22
982.579	2791.96
982.878	2783.37
983.177	2791.96
983.475	2776.37
983.774	2736.14
984.073	2753.77
984.372	2723.94
984.67	2740.89
984.969	2716.48
985.267	2723.49
985.566	2729.36
985.864	2687.56
986.162	2696.14
986.461	2655.01
986.759	2611.63
987.057	2574.79
987.355	2590.61
987.653	2600.78
987.951	2586.54
988.249	2584.28
988.547	2570.05
988.844	2553.1
989.142	2517.84
989.44	2491.63
989.737	2506.54
990.035	2528.46
990.332	2501.8
990.63	2479.65
990.927	2437.85
991.224	2427.68
991.521	2451.18
991.819	2483.49
992.116	2423.61
992.413	2412.99
992.71	2395.13
993.006	2408.24
993.303	2390.84
993.6	2432.2
993.897	2358.53
994.193	2384.51
994.49	2328.02
994.787	2342.48
995.083	2348.36
995.379	2309.04
995.676	2320.79
995.972	2282.14
996.268	2272.88
996.565	2262.71
996.861	2269.94
997.157	2256.38
997.453	2215.25
997.749	2202.37
998.044	2206.89
998.34	2168.02
998.636	2183.84
998.932	2203.95
999.227	2158.76
999.523	2149.04
999.818	2126.44
1000.114	2124.18
1000.409	2103.39
1000.704	2119.21
1001	2123.05
1001.295	2095.48
1001.59	2072.21
1001.885	2082.15
1002.18	2049.16
1002.475	2051.19
1002.77	2069.04
1003.065	2052.54
1003.359	2004.41
1003.654	1991.98
1003.949	1985.43
1004.243	2013.68
1004.538	1984.75
1004.832	1963.06
1005.127	1947.01
1005.421	1941.81
1005.715	1936.84
1006.009	1917.18
1006.304	1951.3
1006.598	1909.27
1006.892	1836.28
1007.186	1886.9
1007.48	1880.35
1007.773	1876.28
1008.067	1835.83
1008.361	1833.79
1008.655	1822.49
1008.948	1829.73
1009.242	1762.61
1009.535	1791.31
1009.829	1777.75
1010.122	1753.8
1010.415	1734.36
1010.708	1762.38
1011.001	1757.64
1011.295	1718.99
1011.588	1714.93
1011.881	1701.14
1012.173	1686.23
1012.466	1688.03
1012.759	1679.9
1013.052	1694.81
1013.344	1652.78
1013.637	1653.46
1013.93	1642.39
1014.222	1648.94
1014.514	1631.54
1014.807	1601.26
1015.099	1618.43
1015.391	1589.73
1015.683	1578.89
1015.976	1598.55
1016.268	1586.79
1016.56	1569.85
1016.851	1556.51
1017.143	1551.54
1017.435	1559.9
1017.727	1515.84
1018.018	1532.11
1018.31	1506.34
1018.602	1492.11
1018.893	1479.9
1019.185	1496.4
1019.476	1489.62
1019.767	1451.2
1020.058	1443.3
1020.35	1458.44
1020.641	1411.21
1020.932	1415.73
1021.223	1400.13
1021.514	1411.66
1021.804	1407.14
1022.095	1374.6
1022.386	1393.81
1022.677	1372.34
1022.967	1353.58
1023.258	1330.98
1023.548	1333.24
1023.839	1328.27
1024.129	1343.19
1024.419	1307.03
1024.709	1300.93
1025	1277.88
1025.29	1293.24
1025.58	1283.07
1025.87	1269.74
1026.16	1262.06
1026.449	1257.09
1026.739	1245.56
1027.029	1211.89
1027.319	1209.4
1027.608	1228.39
1027.898	1222.96
1028.187	1180.93
1028.477	1211.44
1028.766	1181.16
1029.055	1176.41
1029.344	1192.91
1029.634	1155.17
1029.923	1157.2
1030.212	1143.87
1030.501	1175.05
1030.79	1138.9
1031.078	1132.34
1031.367	1137.31
1031.656	1100.25
1031.945	1113.36
1032.233	1090.54
1032.522	1090.54
1032.81	1083.08
1033.099	1063.64
1033.387	1073.36
1033.675	1075.4
1033.963	1053.48
1034.251	1049.18
1034.54	1046.7
1034.828	1038.33
1035.116	1037.88
1035.403	1057.54
1035.691	1016.41
1035.979	1004.89
1036.267	1006.24
1036.554	1000.82
1036.842	999.24
1037.129	1007.15
1037.417	979.58
1037.704	1006.7
1037.992	969.64
1038.279	963.08
1038.566	980.93
1038.853	980.93
1039.14	980.93
