Data from hue_26_FLMS001491_00082.txt Node
Date: Tue Feb 07 17:14:41 GMT 2017
User: dcchb
Spectrometer: FLMS00149
Trigger mode: 0
Integration Time (sec): 2.000000E-2
Scans to average: 10
Electric dark correction enabled: true
Nonlinearity correction enabled: false
Boxcar width: 0
XAxis mode: Wavelengths
Number of Pixels in Spectrum: 2048
>>>>>Begin Spectral Data<<<<<
341.393	-23.54
341.776	-23.54
342.16	-23.54
342.543	-69.87
342.927	-87.95
343.31	-68.74
343.693	-91.57
344.077	-75.97
344.46	-57.22
344.843	-66.03
345.226	-24.22
345.61	-20.38
345.993	0.86
346.376	-13.6
346.759	9
347.142	30.69
347.525	53.52
347.908	60.75
348.291	71.37
348.674	89.67
349.057	101.88
349.44	121.31
349.823	145.49
350.206	154.08
350.588	210.35
350.971	199.95
351.354	225.26
351.737	230.46
352.119	231.82
352.502	259.16
352.884	271.81
353.267	275.88
353.65	330.57
354.032	302.1
354.414	311.36
354.797	318.82
355.179	324.47
355.562	347.97
355.944	300.74
356.326	334.64
356.709	333.06
357.091	334.86
357.473	352.94
357.855	331.02
358.238	335.54
358.62	332.83
359.002	350.68
359.384	329.21
359.766	307.97
360.148	337.35
360.53	347.75
360.912	361.98
361.294	328.31
361.676	346.39
362.057	331.25
362.439	319.95
362.821	336.45
363.203	343.45
363.584	332.38
363.966	305.94
364.348	301.42
364.729	346.39
365.111	317.69
365.493	319.27
365.874	300.74
366.256	318.82
366.637	309.78
367.019	320.18
367.4	312.04
367.781	319.5
368.163	290.57
368.544	320.63
368.925	302.32
369.306	329.67
369.688	310.46
370.069	307.29
370.45	327.18
370.831	337.35
371.212	331.7
371.593	319.95
371.974	319.27
372.355	326.5
372.736	311.81
373.117	307.75
373.498	319.95
373.879	328.31
374.26	321.31
374.641	317.92
375.021	297.8
375.402	317.69
375.783	324.92
376.163	331.47
376.544	318.37
376.925	318.14
377.305	315.43
377.686	332.38
378.066	327.86
378.447	314.98
378.827	329.67
379.208	331.02
379.588	333.51
379.968	334.41
380.349	332.6
380.729	326.95
381.109	319.95
381.489	329.21
381.87	322.89
382.25	333.28
382.63	347.52
383.01	331.02
383.39	346.39
383.77	348.88
384.15	359.04
384.53	328.31
384.91	320.63
385.29	349.78
385.67	337.35
386.049	360.63
386.429	346.39
386.809	349.78
387.189	361.53
387.568	353.39
387.948	339.84
388.328	358.14
388.707	350.91
389.087	373.96
389.466	367.41
389.846	361.76
390.225	367.41
390.605	354.07
390.984	355.88
391.363	360.17
391.743	364.24
392.122	357.91
392.501	362.43
392.881	368.31
393.26	365.82
393.639	361.76
394.018	350.68
394.397	373.96
394.776	383
395.155	379.38
395.534	368.31
395.913	379.83
396.292	385.48
396.671	388.87
397.05	392.49
397.429	388.42
397.808	387.52
398.186	397.69
398.565	392.49
398.944	369.44
399.323	397.69
399.701	377.8
400.08	390.23
400.458	404.69
400.837	376.9
401.215	398.59
401.594	403.79
401.972	402.43
402.351	386.84
402.729	389.1
403.107	404.47
403.486	409.66
403.864	406.05
404.242	389.1
404.62	397.91
404.999	417.35
405.377	398.14
405.755	441.75
406.133	413.51
406.511	406.5
406.889	418.03
407.267	442.43
407.645	440.62
408.023	452.6
408.401	414.86
408.779	425.48
409.156	446.95
409.534	430.45
409.912	431.58
410.29	431.36
410.667	439.72
411.045	447.18
411.422	429.1
411.8	459.83
412.178	458.48
412.555	480.85
412.933	445.14
413.31	452.38
413.687	463.67
414.065	451.02
414.442	473.84
414.819	454.41
415.197	480.17
415.574	489.89
415.951	478.82
416.328	480.62
416.705	499.38
417.082	476.1
417.46	507.29
417.837	514.97
418.214	486.95
418.591	492.83
418.967	489.21
419.344	510.9
419.721	505.71
420.098	501.87
420.475	511.13
420.852	503.67
421.228	515.88
421.605	504.13
421.982	523.79
422.358	540.06
422.735	493.73
423.111	530.34
423.488	516.78
423.864	539.38
424.241	532.82
424.617	529.66
424.994	531.47
425.37	544.12
425.746	568.98
426.123	553.84
426.499	540.96
426.875	556.33
427.251	554.07
427.627	570.34
428.003	562.43
428.379	595.2
428.756	583.67
429.132	590
429.507	580.28
429.883	595.42
430.259	583.67
430.635	606.72
431.011	592.03
431.387	612.14
431.763	628.42
432.138	621.41
432.514	612.14
432.89	626.61
433.265	609.89
433.641	645.36
434.016	615.53
434.392	640.62
434.767	647.62
435.143	645.36
435.518	667.28
435.894	700.5
436.269	671.8
436.644	674.74
437.02	664.57
437.395	658.92
437.77	685.59
438.145	683.33
438.52	671.13
438.895	700.73
439.271	696.66
439.646	702.31
440.021	707.28
440.395	723.1
440.77	707.74
441.145	713.61
441.52	724.68
441.895	720.62
442.27	741.86
442.645	738.47
443.019	747.06
443.394	722.65
443.769	758.81
444.143	752.93
444.518	749.09
444.892	755.87
445.267	762.2
445.641	777.56
446.016	761.97
446.39	790.67
446.764	789.54
447.139	777.11
447.513	793.84
447.887	794.51
448.262	782.08
448.636	805.13
449.01	823.44
449.384	824.34
449.758	804.23
450.132	825.02
450.506	829.54
450.88	823.21
451.254	836.32
451.628	858.47
452.002	830.67
452.376	864.12
452.75	871.12
453.123	867.51
453.497	869.31
453.871	898.47
454.244	888.75
454.618	907.5
454.992	890.56
455.365	885.58
455.739	901.18
456.112	932.36
456.486	954.06
456.859	931.91
457.232	956.77
457.606	909.99
457.979	968.07
458.352	987.28
458.725	977.79
459.099	982.98
459.472	975.3
459.845	1010.1
460.218	1012.13
460.591	1024.34
460.964	1034.51
461.337	1051.91
461.71	1088.06
462.083	1063.21
462.456	1074.28
462.829	1124.22
463.201	1099.36
463.574	1100.95
463.947	1114.96
464.32	1122.87
464.692	1165.35
465.065	1174.16
465.438	1175.52
465.81	1196.99
466.183	1199.47
466.555	1236.76
466.928	1230.21
467.3	1227.04
467.672	1255.74
468.045	1266.14
468.417	1291.45
468.789	1282.86
469.161	1304.78
469.534	1326.93
469.906	1332.8
470.278	1368.74
470.65	1371.9
471.022	1391.56
471.394	1424.55
471.766	1432.24
472.138	1465.91
472.51	1505.91
472.882	1496.64
473.253	1514.95
473.625	1529.63
473.997	1594.04
474.369	1592.23
474.74	1603.31
475.112	1640.82
475.484	1662.29
475.855	1719.69
476.227	1711.33
476.598	1753.81
476.97	1805.11
477.341	1813.92
477.713	1830.19
478.084	1862.73
478.455	1929.62
478.827	1935.5
479.198	1962.39
479.569	2017.76
479.94	2046.68
480.311	2071.99
480.682	2131.88
481.053	2217.07
481.424	2199
481.795	2269.5
482.166	2274.47
482.537	2317.64
482.908	2400.35
483.279	2441.7
483.65	2468.59
484.021	2499.1
484.391	2529.16
484.762	2603.96
485.133	2636.27
485.503	2681.47
485.874	2742.03
486.244	2787.45
486.615	2845.08
486.985	2858.64
487.356	2940.67
487.726	2946.32
488.097	3053.44
488.467	3072.65
488.837	3144.06
489.207	3182.25
489.578	3194.45
489.948	3257.5
490.318	3312.41
490.688	3348.8
491.058	3414.78
491.428	3503.14
491.798	3479.19
492.168	3584.72
492.538	3673.76
492.908	3634.89
493.278	3704.04
493.648	3749.92
494.017	3818.84
494.387	3829.69
494.757	3879.63
495.126	3920.31
495.496	3967.76
495.866	3997.59
496.235	4081.66
496.605	4080.75
496.974	4097.7
497.344	4179.28
497.713	4196.23
498.082	4250.24
498.452	4285.95
498.821	4289.79
499.19	4350.58
499.559	4366.85
499.928	4388.77
500.298	4415.21
500.667	4504.92
501.036	4476
501.405	4497.47
501.774	4519.84
502.143	4615.43
502.512	4619.5
502.88	4666.95
503.249	4632.83
503.618	4716.44
503.987	4721.64
504.356	4718.48
504.724	4794.41
505.093	4828.53
505.462	4850.45
505.83	4910.34
506.199	4901.75
506.567	4986.04
506.936	4944.46
507.304	4978.81
507.672	5024.01
508.041	5026.72
508.409	5110.78
508.777	5100.16
509.145	5148.3
509.514	5146.94
509.882	5202.98
510.25	5136.77
510.618	5204.34
510.986	5262.87
511.354	5278.24
511.722	5299.93
512.09	5395.97
512.458	5354.62
512.826	5404.79
513.193	5389.87
513.561	5418.12
513.929	5416.99
514.297	5500.83
514.664	5560.49
515.032	5558.46
515.4	5600.04
515.767	5598.45
516.135	5615.63
516.502	5645.46
516.869	5680.03
517.237	5675.29
517.604	5662.63
517.972	5738.34
518.339	5781.73
518.706	5771.56
519.073	5782.63
519.44	5802.29
519.808	5851.33
520.175	5859.01
520.542	5876.41
520.909	5956.41
521.276	5962.96
521.643	5986.92
522.009	6042.74
522.376	6030.76
522.743	6061.72
523.11	6171.55
523.477	6160.93
523.843	6236.18
524.21	6224.2
524.577	6291.09
524.943	6282.05
525.31	6366.34
525.676	6368.6
526.043	6370.41
526.409	6451.99
526.776	6484.76
527.142	6467.13
527.508	6574.93
527.874	6540.12
528.241	6624.42
528.607	6622.61
528.973	6695.6
529.339	6649.73
529.705	6715.49
530.071	6802.94
530.437	6760.01
530.803	6852.88
531.169	6931.3
531.535	6903.28
531.901	6911.87
532.267	6949.61
532.632	6984.63
532.998	7003.39
533.364	7043.16
533.73	7040.9
534.095	7070.28
534.461	7142.59
534.826	7186.66
535.192	7158.64
535.557	7242.71
535.923	7214.01
536.288	7296.04
536.653	7337.84
537.019	7334.45
537.384	7365.64
537.749	7369.03
538.114	7406.54
538.479	7434.34
538.845	7449.71
539.21	7519.76
539.575	7519.76
539.94	7578.29
540.305	7597.72
540.67	7653.99
541.034	7698.06
541.399	7678.85
541.764	7732.86
542.129	7739.42
542.494	7795.91
542.858	7805.63
543.223	7785.74
543.587	7854.44
543.952	7885.17
544.316	7926.98
544.681	7861.22
545.045	7984.61
545.41	8040.42
545.774	8029.58
546.138	8018.05
546.503	8148.44
546.867	8064.15
547.231	8154.55
547.595	8230.25
547.959	8177.14
548.324	8277.48
548.688	8270.47
549.052	8284.94
549.416	8344.82
549.779	8355.67
550.143	8346.18
550.507	8444.93
550.871	8450.81
551.235	8446.52
551.599	8515.21
551.962	8491.94
552.326	8547.76
552.689	8625.27
553.053	8567.87
553.417	8594.08
553.78	8682.44
554.143	8633.4
554.507	8677.7
554.87	8723.12
555.234	8827.75
555.597	8784.36
555.96	8792.04
556.323	8814.64
556.686	8849.44
557.05	8928.76
557.413	8940.29
557.776	8956.33
558.139	9017.35
558.502	9027.29
558.865	9081.98
559.228	9112.49
559.59	9134.86
559.953	9171.24
560.316	9210.56
560.679	9262.31
561.041	9304.12
561.404	9292.59
561.767	9352.25
562.129	9283.33
562.492	9418.47
562.854	9494.85
563.217	9395.42
563.579	9429.77
563.941	9567.39
564.304	9507.05
564.666	9572.59
565.028	9558.35
565.39	9649.87
565.753	9689.87
566.115	9771.45
566.477	9782.53
566.839	9801.73
567.201	9871.56
567.563	9898.91
567.925	9959.24
568.287	9956.76
568.648	9963.54
569.01	10020.49
569.372	10083.08
569.734	10030.43
570.095	10116.3
570.457	10210.08
570.819	10234.49
571.18	10192.68
571.542	10339.12
571.903	10329.86
572.265	10413.7
572.626	10394.26
572.987	10484.65
573.349	10594.48
573.71	10649.85
574.071	10702.73
574.432	10718.09
574.794	10815.27
575.155	10892.1
575.516	10882.16
575.877	10928.71
576.238	10995.6
576.599	11141.36
576.96	11194.47
577.32	11240.11
577.681	11388.58
578.042	11389.49
578.403	11525.98
578.763	11633.78
579.124	11701.34
579.485	11872.41
579.845	11980.66
580.206	12062.47
580.566	12148.79
580.927	12317.15
581.287	12444.38
581.648	12557.59
582.008	12707.65
582.368	12946.74
582.728	13092.04
583.089	13143.57
583.449	13284.13
583.809	13492.03
584.169	13658.81
584.529	13801.4
584.889	14085.46
585.249	14162.3
585.609	14312.35
585.969	14610.87
586.329	14805.22
586.688	15047.92
587.048	15227.58
587.408	15432.09
587.768	15712.76
588.127	15921.35
588.487	16023.72
588.846	16461.67
589.206	16613.76
589.565	16859.4
589.925	17148.89
590.284	17390.91
590.643	17707.29
591.003	17957.68
591.362	18302.53
591.721	18497.1
592.08	18839.24
592.44	19147.7
592.799	19354.93
593.158	19649.16
593.517	19977.96
593.876	20181.8
594.235	20483.26
594.593	20704.27
594.952	21149.01
595.311	21387.87
595.67	21614.76
596.029	22127.29
596.387	22452.25
596.746	22800.71
597.104	22889.75
597.463	23202.96
597.822	23654.7
598.18	23754.59
598.538	24029.61
598.897	24529.26
599.255	24636.15
599.613	25311.16
599.972	25457.14
600.33	25769.22
600.688	25972.16
601.046	26396.55
601.404	26623.44
601.762	26893.04
602.12	27287.6
602.478	27565.33
602.836	27884.42
603.194	28049.62
603.552	28241.7
603.91	28407.12
604.268	28854.79
604.625	28977.27
604.983	29405.74
605.341	29591.5
605.698	29948.77
606.056	30153.97
606.413	30381.98
606.771	30814.06
607.128	31010.89
607.485	31031.68
607.843	31247.95
608.2	31738.33
608.557	32016.06
608.914	32021.94
609.272	32488.59
609.629	32852.65
609.986	32985.08
610.343	33059.43
610.7	33440.66
611.057	33557.49
611.414	33717.26
611.771	33957.26
612.127	34239.74
612.484	34417.36
612.841	34684.92
613.198	34808.08
613.554	34995.42
613.911	35201.97
614.267	35424.11
614.624	35493.49
614.98	35727.83
615.337	36090.08
615.693	36257.08
616.05	36232.9
616.406	36583.85
616.762	36704.3
617.118	36680.12
617.475	36920.12
617.831	37048.02
618.187	37321.46
618.543	37427.67
618.899	37531.85
619.255	37797.16
619.611	37791.51
619.967	38045.74
620.323	38238.5
620.678	38185.62
621.034	38271.72
621.39	38291.38
621.746	38225.85
622.101	38742.44
622.457	38761.42
622.812	38923.45
623.168	39077.12
623.523	39071.25
623.879	39411.58
624.234	39050
624.589	39515.53
624.945	39428.75
625.3	39602.98
625.655	39617.22
626.01	39803.66
626.365	39900.38
626.72	39843.2
627.075	39899.25
627.43	39934.73
627.785	39879.59
628.14	40075.51
628.495	40206.36
628.85	40168.84
629.205	40092.01
629.559	40308.95
629.914	40259.01
630.269	40434.6
630.623	40297.88
630.978	40372
631.332	40494.49
631.687	40607.25
632.041	40620.36
632.396	40671.88
632.75	40542.62
633.104	40664.88
633.459	40545.78
633.813	40704.65
634.167	40582.39
634.521	40674.59
634.875	40677.08
635.229	40583.75
635.583	40545.56
635.937	40539.46
636.291	40690.87
636.645	40567.93
636.999	40574.94
637.352	40667.81
637.706	40546.46
638.06	40678.66
638.413	40461.94
638.767	40524.54
639.121	40645.44
639.474	40375.17
639.828	40558.21
640.181	40594.37
640.534	40585.11
640.888	40447.48
641.241	40343.3
641.594	40357.54
641.947	40631.43
642.301	40338.33
642.654	40560.7
643.007	40488.38
643.36	40465.56
643.713	40412.68
644.066	40433.7
644.419	40322.74
644.771	40118.45
645.124	39699.7
645.477	39779.93
645.83	39535.87
646.182	39352.37
646.535	39310.79
646.888	39429.66
647.24	39108.53
647.593	39477.56
647.945	39220.62
648.298	39289.09
648.65	39069.21
649.002	39092.94
649.355	39235.31
649.707	39215.65
650.059	39311.92
650.411	39865.35
650.763	39797.1
651.115	40255.85
651.467	40047.49
651.819	40141.73
652.171	40104.67
652.523	39935.18
652.875	39919.81
653.227	39849.76
653.578	40065.8
653.93	39867.16
654.282	39924.78
654.633	39795.07
654.985	39962.97
655.337	39980.38
655.688	39947.16
656.039	40049.3
656.391	39709.87
656.742	39682.3
657.094	39850.66
657.445	40031
657.796	39864.45
658.147	39792.81
658.498	39836.42
658.849	39866.25
659.2	39805.01
659.551	39644.79
659.902	39872.58
660.253	39708.52
660.604	39789.65
660.955	39701.06
661.306	39791.45
661.656	39691.34
662.007	39830.32
662.358	39697.44
662.708	39722.75
663.059	39810.44
663.409	39492.48
663.76	39833.49
664.11	39752.36
664.461	39748.07
664.811	39737.9
665.161	39762.75
665.511	39688.41
665.862	39587.17
666.212	39826.93
666.562	39741.74
666.912	39706.03
667.262	39563.66
667.612	39755.75
667.962	39699.93
668.312	39578.8
668.662	39739.7
669.011	39515.08
669.361	39632.59
669.711	39630.1
670.06	39555.53
670.41	39532.7
670.76	39475.98
671.109	39599.59
671.459	39525.7
671.808	39512.82
672.157	39455.42
672.507	39349.66
672.856	39273.5
673.205	39394.63
673.554	39396.66
673.904	39289.32
674.253	39590.78
674.602	39380.62
674.951	38968.65
675.3	38849.11
675.649	39314.4
675.998	39268.76
676.346	39206.84
676.695	39325.03
677.044	39114.86
677.393	39224.46
677.741	39287.74
678.09	39063.34
678.438	38944.47
678.787	39056.33
679.135	39136.78
679.484	38788.77
679.832	39012.27
680.181	38713.29
680.529	38931.59
680.877	38796.45
681.225	38687.3
681.573	38943.57
681.922	38677.36
682.27	38637.81
682.618	38567.31
682.966	38554.42
683.314	38464.71
683.661	38515.1
684.009	38345.39
684.357	38349.01
684.705	38212.51
685.053	38253.42
685.4	38240.53
685.748	38128.67
686.095	38073.31
686.443	37983.59
686.79	37909.24
687.138	37896.59
687.485	37812.97
687.832	37746.31
688.18	37791.51
688.527	37502.02
688.874	37473.1
689.221	37408.92
689.568	37511.06
689.915	37388.58
690.262	37309.49
690.609	37178.64
690.956	37189.04
691.303	37313.1
691.65	36930.29
691.997	36974.8
692.344	36754.02
692.69	36691.2
693.037	36676.96
693.383	36485.55
693.73	36732.33
694.077	36353.13
694.423	36463.86
694.769	36140.93
695.116	36074.26
695.462	36152.45
695.808	36042.17
696.155	36061.38
696.501	35818.9
696.847	35846.02
697.193	35641.96
697.539	35798.79
697.885	35509.98
698.231	35300.5
698.577	35400.83
698.923	35246.49
699.269	35070
699.614	34961.3
699.96	34872.26
700.306	34764.24
700.651	34754.3
700.997	34623.68
701.342	34549.56
701.688	34577.35
702.033	34404.02
702.379	34482.89
702.724	34301.88
703.069	34475.44
703.415	34031.83
703.76	34124.94
704.105	34039.29
704.45	34024.83
704.795	33742.8
705.14	33700.54
705.485	33554.1
705.83	33511.62
706.175	33588.9
706.52	33408.8
706.865	33320.21
707.209	33179.88
707.554	33143.04
707.899	33232.76
708.243	33135.36
708.588	32874.12
708.932	32849.26
709.277	32834.57
709.621	32836.16
709.966	32594.58
710.31	32670.96
710.654	32478.2
710.998	32509.39
711.342	32534.47
711.687	32385.55
712.031	32202.27
712.375	32067.14
712.719	32193.24
713.063	32119.57
713.407	32225.32
713.75	32060.13
714.094	31892.23
714.438	31811.78
714.782	31969.74
715.125	31727.94
715.469	31748.95
715.812	31495.85
716.156	31451.33
716.499	31415.85
716.843	31529.75
717.186	31220.38
717.53	31529.3
717.873	31425.57
718.216	31271
718.559	31198.91
718.902	31013.38
719.246	31057.67
719.589	31090.89
719.932	30891.35
720.275	30995.53
720.617	30922.08
720.96	30756.66
721.303	30728.87
721.646	30728.64
721.989	30558.25
722.331	30656.33
722.674	30499.72
723.016	30549.66
723.359	30551.7
723.701	30619.72
724.044	30316.9
724.386	30179.05
724.729	30429.89
725.071	30082.78
725.413	30183.34
725.755	30145.15
726.097	30000.07
726.439	29921.88
726.782	29982.9
727.124	29925.95
727.465	29873.52
727.807	29791.49
728.149	29838.5
728.491	29749.68
728.833	29787.65
729.175	29548.11
729.516	29542.68
729.858	29539.75
730.199	29622
730.541	29456.81
730.882	29552.85
731.224	29583.59
731.565	29310.37
731.906	29331.84
732.248	29439.64
732.589	29287.32
732.93	29113.99
733.271	29325.29
733.612	29327.55
733.953	29197.61
734.294	29039.65
734.635	29085.75
734.976	28958.29
735.317	28986.54
735.658	28898.86
735.999	28874.23
736.339	28803.95
736.68	28943.15
737.021	28813.21
737.361	28593.78
737.702	28710.84
738.042	28581.8
738.383	28546.1
738.723	28742.7
739.063	28512.2
739.404	28524.86
739.744	28519.21
740.084	28251.87
740.424	28436.27
740.764	28365.77
741.104	28405.99
741.444	28197.63
741.784	28227.46
742.124	28290.29
742.464	28128.26
742.804	28154.92
743.143	28008.03
743.483	28034.02
743.823	27996.51
744.162	27945.44
744.502	27991.99
744.841	27905.66
745.181	28009.62
745.52	27775.5
745.86	27817.76
746.199	27820.47
746.538	27756.52
746.877	27885.33
747.216	27759.91
747.556	27641.72
747.895	27642.62
748.234	27566.92
748.573	27482.62
748.911	27513.81
749.25	27485.79
749.589	27255.74
749.928	27399.69
750.267	27400.14
750.605	27223.87
750.944	27272.69
751.283	27110.43
751.621	27150.66
751.96	27036.53
752.298	27036.08
752.636	27032.47
752.975	26900.95
753.313	26877.22
753.651	26901.62
753.989	26741.85
754.327	26625.02
754.666	26699.37
755.004	26692.14
755.342	26557
755.679	26620.73
756.017	26343.22
756.355	26387.51
756.693	26337.12
757.031	26330.11
757.368	26105.26
757.706	26225.48
758.044	26114.75
758.381	26148.42
758.719	26001.99
759.056	26159.72
759.394	25948.88
759.731	25833.18
760.068	25794.76
760.405	25594.76
760.743	25688.55
761.08	25725.16
761.417	25472.73
761.754	25482.23
762.091	25510.93
762.428	25294.21
762.765	25228.9
763.102	25319.97
763.438	25246.3
763.775	25096.25
764.112	25033.65
764.449	25068.68
764.785	25023.25
765.122	24771.74
765.458	24727.22
765.795	24708.23
766.131	24713.66
766.467	24551.85
766.804	24424.4
767.14	24334.01
767.476	24321.35
767.812	24099.89
768.148	24204.52
768.485	24124.52
768.821	23950.97
769.157	23824.64
769.492	23655.38
769.828	23881.82
770.164	23608.6
770.5	23527.25
770.836	23502.16
771.171	23405.67
771.507	23293.58
771.842	23113.93
772.178	23164.77
772.513	23159.35
772.849	23078.45
773.184	22944.89
773.519	22912.58
773.855	22754.61
774.19	22754.16
774.525	22590.55
774.86	22609.53
775.195	22455.86
775.53	22394.17
775.865	22355.3
776.2	22108.08
776.535	22074.63
776.87	22088.42
777.205	21931.58
777.539	21808.2
777.874	21914.64
778.209	21688.43
778.543	21612.95
778.878	21590.35
779.212	21593.97
779.547	21421.32
779.881	21469.68
780.215	21333.86
780.55	21304.48
780.884	21177.25
781.218	21074.88
781.552	21105.84
781.886	20998.5
782.22	20973.42
782.554	20775.46
782.888	20651.84
783.222	20530.72
783.556	20427.22
783.889	20421.12
784.223	20296.6
784.557	20238.75
784.89	20319.65
785.224	20124.85
785.557	19970.51
785.891	20075.36
786.224	19944.97
786.558	19963.73
786.891	19726.44
787.224	19681.25
787.557	19689.61
787.891	19520.57
788.224	19574.13
788.557	19501.82
788.89	19548.6
789.223	19462.27
789.556	19316.29
789.888	19331.43
790.221	19104.09
790.554	19022.96
790.887	19008.5
791.219	18898.67
791.552	18899.8
791.884	18806.69
792.217	18809.63
792.549	18774.61
792.882	18616.19
793.214	18519.02
793.546	18491.22
793.879	18399.93
794.211	18347.95
794.543	18498.68
794.875	18299.36
795.207	18315.63
795.539	18231.34
795.871	18160.61
796.203	17965.59
796.535	17997
796.867	17870.9
797.198	17865.93
797.53	17843.33
797.862	17762.65
798.193	17780.96
798.525	17710.45
798.856	17654.41
799.188	17453.28
799.519	17405.6
799.85	17356.79
800.182	17262.55
800.513	17276.79
800.844	17071.15
801.175	17159.51
801.506	17133.29
801.837	17084.48
802.168	17067.76
802.499	16891.04
802.83	17001.77
803.161	16807.2
803.491	16866.63
803.822	16796.58
804.153	16748.9
804.483	16617.6
804.814	16569.47
805.145	16579.63
805.475	16568.56
805.805	16454.21
806.136	16447.21
806.466	16442.46
806.796	16290.83
807.126	16190.94
807.457	16244.5
807.787	16155.47
808.117	16041.12
808.447	16131.06
808.777	16110.49
809.107	15982.14
809.436	15952.08
809.766	15929.93
810.096	15877.51
810.426	15875.02
810.755	15819.65
811.085	15800.67
811.414	15709.38
811.744	15623.05
812.073	15678.42
812.403	15647.68
812.732	15545.99
813.061	15526.78
813.39	15438.65
813.719	15391.19
814.049	15475.03
814.378	15336.5
814.707	15298.99
815.036	15283.4
815.365	15249.05
815.693	15108.71
816.022	15073.23
816.351	15083.18
816.68	14979.45
817.008	15042.05
817.337	14820.13
817.665	14809.29
817.994	14914.82
818.322	14838.89
818.651	14816.52
818.979	14660.36
819.307	14862.17
819.636	14809.74
819.964	14639.8
820.292	14757.31
820.62	14586.92
820.948	14590.99
821.276	14741.04
821.604	14632.34
821.932	14645.9
822.259	14620.59
822.587	14615.84
822.915	14538.78
823.243	14602.06
823.57	14570.42
823.898	14626.92
824.225	14567.71
824.553	14456.07
824.88	14445.45
825.207	14528.16
825.535	14518.67
825.862	14509.86
826.189	14489.97
826.516	14561.16
826.843	14588.95
827.17	14584.21
827.497	14543.76
827.824	14590.31
828.151	14573.59
828.478	14527.49
828.805	14570.65
829.131	14493.81
829.458	14463.98
829.785	14519.58
830.111	14475.96
830.438	14519.8
830.764	14515.06
831.09	14544.21
831.417	14451.1
831.743	14491.78
832.069	14403.87
832.395	14379.92
832.722	14480.71
833.048	14354.16
833.374	14393.93
833.7	14352.12
834.026	14244.55
834.351	14386.25
834.677	14228.51
835.003	14358
835.329	14280.94
835.654	14246.36
835.98	14243.88
836.306	14284.1
836.631	14166.14
836.956	14216.98
837.282	14176.08
837.607	14150.77
837.932	14091.34
838.258	14138.34
838.583	14054.73
838.908	14000.27
839.233	14036.42
839.558	14024.67
839.883	13945.13
840.208	13953.49
840.533	13953.04
840.858	13996.2
841.182	13995.3
841.507	13923.21
841.832	13811.8
842.156	13798.46
842.481	13798.46
842.805	13697
843.13	13737.68
843.454	13766.38
843.778	13626.94
844.103	13539.26
844.427	13563.89
844.751	13593.72
845.075	13601.86
845.399	13471.02
845.723	13436.21
846.047	13395.99
846.371	13291.59
846.695	13356.22
847.019	13273.73
847.343	13192.15
847.666	13136.11
847.99	13048.65
848.313	13046.62
848.637	12894.99
848.96	12968.2
849.284	12864.93
849.607	12817.7
849.931	12771.15
850.254	12703.13
850.577	12631.04
850.9	12497.26
851.223	12467.88
851.546	12414.55
851.869	12345.17
852.192	12422.91
852.515	12313.53
852.838	12209.58
853.161	12251.16
853.483	12180.88
853.806	12145.63
854.129	12169.81
854.451	12092.75
854.774	12064.27
855.096	11907.44
855.419	11954.45
855.741	11952.41
856.063	11849.59
856.385	11882.58
856.708	11824.28
857.03	11713.1
857.352	11761.91
857.674	11673.32
857.996	11729.82
858.318	11629.71
858.64	11555.36
858.961	11596.26
859.283	11546.09
859.605	11504.97
859.926	11557.62
860.248	11519.2
860.57	11411.41
860.891	11382.03
861.212	11329.83
861.534	11295.03
861.855	11309.49
862.176	11316.95
862.498	11312.65
862.819	11246.44
863.14	11229.94
863.461	11187.91
863.782	11147.91
864.103	11141.36
864.424	11123.73
864.745	11093.45
865.065	11015.71
865.386	11070.18
865.707	11040.12
866.027	11075.6
866.348	11057.29
866.668	11005.54
866.989	10977.52
867.309	10967.58
867.63	10950.63
867.95	10968.48
868.27	10851.65
868.59	10845.55
868.91	10831.99
869.23	10875.83
869.55	10801.48
869.87	10754.25
870.19	10804.42
870.51	10808.26
870.83	10791.54
871.15	10719.68
871.469	10794.25
871.789	10689.17
872.109	10684.87
872.428	10672.9
872.748	10677.19
873.067	10617.76
873.386	10662.95
873.706	10623.18
874.025	10525.33
874.344	10536.4
874.663	10525.56
874.982	10571.88
875.301	10508.83
875.62	10429.74
875.939	10436.29
876.258	10469.51
876.577	10388.16
876.896	10334.15
877.214	10356.75
877.533	10419.57
877.852	10424.77
878.17	10347.48
878.489	10303.87
878.807	10324.43
879.125	10273.59
879.444	10208.73
879.762	10227.71
880.08	10222.74
880.398	10259.12
880.716	10141.39
881.034	10111.1
881.352	10137.09
881.67	10114.04
881.988	10134.38
882.306	10033.59
882.624	10061.16
882.941	10004.21
883.259	9953.59
883.577	9923.76
883.894	9932.35
884.212	9917.66
884.529	9897.78
884.846	9920.37
885.164	9899.58
885.481	9858.23
885.798	9798.12
886.115	9752.7
886.432	9741.4
886.75	9797.67
887.067	9744.56
887.383	9707.5
887.7	9761.06
888.017	9611
888.334	9713.6
888.651	9617.56
888.967	9619.37
889.284	9538.69
889.6	9554.06
889.917	9575.3
890.233	9469.99
890.55	9415.76
890.866	9509.76
891.182	9443.1
891.498	9379.37
891.815	9316.1
892.131	9328.98
892.447	9298.92
892.763	9255.08
893.079	9216.89
893.395	9319.71
893.71	9190.22
894.026	9228.64
894.342	9132.82
894.657	9109.77
894.973	9015.99
895.289	9082.43
895.604	9039.95
895.92	8968.99
896.235	8953.85
896.55	8895.32
896.865	8860.97
897.181	8877.92
897.496	8839.5
897.811	8882.44
898.126	8784.13
898.441	8822.1
898.756	8740.29
899.071	8686.96
899.386	8726.06
899.7	8587.75
900.015	8623.91
900.33	8509.11
900.644	8563.57
900.959	8542.11
901.273	8463.69
901.588	8468.44
901.902	8437.02
902.216	8415.33
902.531	8357.48
902.845	8321.55
903.159	8270.25
903.473	8307.08
903.787	8240.64
904.101	8232.51
904.415	8178.95
904.729	8147.77
905.042	8126.07
905.356	8131.5
905.67	8072.74
905.984	8071.61
906.297	8016.24
906.611	7969.69
906.924	7997.71
907.237	7931.05
907.551	7891.05
907.864	7861.9
908.177	7852.63
908.491	7806.98
908.804	7790.26
909.117	7720.43
909.43	7707.55
909.743	7696.25
910.056	7623.26
910.368	7615.35
910.681	7654.9
910.994	7524.51
911.307	7525.41
911.619	7465.3
911.932	7458.52
912.244	7399.54
912.557	7403.15
912.869	7353.66
913.181	7306.43
913.494	7342.14
913.806	7278.18
914.118	7242.93
914.43	7185.31
914.742	7211.75
915.054	7118.19
915.366	7118.87
915.678	7137.17
915.99	7053.11
916.302	7018.53
916.613	6981.92
916.925	7005.42
917.236	6934.46
917.548	6923.39
917.859	6917.97
918.171	6835.03
918.482	6753
918.794	6839.55
919.105	6765.66
919.416	6689.73
919.727	6761.81
920.038	6667.8
920.349	6617.18
920.66	6597.75
920.971	6617.41
921.282	6568.37
921.593	6559.79
921.903	6484.31
922.214	6499.67
922.525	6468.94
922.835	6389.39
923.146	6381.71
923.456	6361.15
923.767	6336.29
924.077	6316.18
924.387	6320.47
924.697	6254.03
925.008	6196.4
925.318	6232.56
925.628	6227.82
925.938	6141.49
926.248	6106.01
926.558	6115.5
926.867	6083.19
927.177	6111.21
927.487	6011.55
927.796	5997.31
928.106	6007.03
928.416	5950.54
928.725	5920.03
929.034	5889.07
929.344	5941.5
929.653	5876.41
929.962	5803.19
930.271	5765.91
930.581	5755.06
930.89	5767.04
931.199	5692.01
931.508	5678
931.817	5683.42
932.125	5647.49
932.434	5667.15
932.743	5592.35
933.051	5560.04
933.36	5542.64
933.669	5540.6
933.977	5532.24
934.286	5481.4
934.594	5489.98
934.902	5374.05
935.21	5395.97
935.519	5424.9
935.827	5426.71
936.135	5369.76
936.443	5329.76
936.751	5303.32
937.059	5301.74
937.367	5293.15
937.674	5279.82
937.982	5237.56
938.29	5212.25
938.597	5244.57
938.905	5162.08
939.213	5130.67
939.52	5120.95
939.827	5103.78
940.135	5077.11
940.442	5086.6
940.749	4998.47
941.056	5036.44
941.363	5014.97
941.67	4974.29
941.977	4950.34
942.284	4912.37
942.591	4877.34
942.898	4864.46
943.205	4828.53
943.511	4828.31
943.818	4802.32
944.125	4761.41
944.431	4766.39
944.738	4790.79
945.044	4737.01
945.35	4698.59
945.657	4716.67
945.963	4647.29
946.269	4601.64
946.575	4677.35
946.881	4565.94
947.187	4630.34
947.493	4572.49
947.799	4540.4
948.105	4500.4
948.41	4505.38
948.716	4465.15
949.022	4442.78
949.327	4495.43
949.633	4397.13
949.938	4452.95
950.244	4431.71
950.549	4407.3
950.854	4325.95
951.16	4336.57
951.465	4340.86
951.77	4303.57
952.075	4287.3
952.38	4242.56
952.685	4287.98
952.99	4247.3
953.294	4184.25
953.599	4226.74
953.904	4124.82
954.209	4136.35
954.513	4154.2
954.818	4124.82
955.122	4117.59
955.426	4082.79
955.731	4058.38
956.035	4051.83
956.339	4028.1
956.643	4041.21
956.948	3975.9
957.252	3961.66
957.556	3962.34
957.86	3922.79
958.163	3929.8
958.467	3919.18
958.771	3832.63
959.075	3895.67
959.378	3836.01
959.682	3856.35
959.985	3816.81
960.289	3809.8
960.592	3778.39
960.896	3769.35
961.199	3726.64
961.502	3714.21
961.805	3721.22
962.108	3669.92
962.411	3676.7
962.714	3661.1
963.017	3699.3
963.32	3673.53
963.623	3617.04
963.926	3618.39
964.228	3583.37
964.531	3581.11
964.833	3607.77
965.136	3557.15
965.438	3558.06
965.741	3526.87
966.043	3528.9
966.345	3468.57
966.648	3486.65
966.95	3476.02
967.252	3415.69
967.554	3460.21
967.856	3407.33
968.158	3399.64
968.46	3410.72
968.761	3387.67
969.063	3363.49
969.365	3351.73
969.666	3328.68
969.968	3309.25
970.269	3309.02
970.571	3303.37
970.872	3241.23
971.174	3246.65
971.475	3249.36
971.776	3208.46
972.077	3191.29
972.378	3212.53
972.679	3197.84
972.98	3170.5
973.281	3150.16
973.582	3193.09
973.883	3164.17
974.183	3109.71
974.484	3106.77
974.785	3083.04
975.085	3119.65
975.386	3080.33
975.686	3075.13
975.986	3035.58
976.287	3031.97
976.587	3026.32
976.887	3015.25
977.187	3017.28
977.487	2957.39
977.787	2976.15
978.087	2947.45
978.387	2959.65
978.687	2894.57
978.987	2881.92
979.286	2862.03
979.586	2865.87
979.885	2905.64
980.185	2884.63
980.484	2831.52
980.784	2837.17
981.083	2814.35
981.382	2796.95
981.682	2793.56
981.981	2792.43
982.28	2750.39
982.579	2753.33
982.878	2726.67
983.177	2724.41
983.475	2751.52
983.774	2721.02
984.073	2676.72
984.372	2678.08
984.67	2686.21
984.969	2662.94
985.267	2654.58
985.566	2641.7
985.864	2620.91
986.162	2606.67
986.461	2617.52
986.759	2578.87
987.057	2560.79
987.355	2576.84
987.653	2542.04
987.951	2542.49
988.249	2550.63
988.547	2538.87
988.844	2489.84
989.142	2473.11
989.44	2504.52
989.737	2432.66
990.035	2478.54
990.332	2453.45
990.63	2448.03
990.927	2419.56
991.224	2417.97
991.521	2400.57
991.819	2391.76
992.116	2390.18
992.413	2379.56
992.71	2372.32
993.006	2370.29
993.303	2328.03
993.6	2347.69
993.897	2326.22
994.193	2318.31
994.49	2296.62
994.787	2315.38
995.083	2248.49
995.379	2284.87
995.676	2243.29
995.972	2264.3
996.268	2206.68
996.565	2221.37
996.861	2243.97
997.157	2216.4
997.453	2180.92
997.749	2189.96
998.044	2160.35
998.34	2178.21
998.636	2156.96
998.932	2144.76
999.227	2140.01
999.523	2114.25
999.818	2112.44
1000.114	2097.76
1000.409	2069.73
1000.704	2068.38
1001	2080.81
1001.295	2039.23
1001.59	2034.03
1001.885	2044.65
1002.18	2012.79
1002.475	1994.48
1002.77	1989.51
1003.065	1947.25
1003.359	1958.78
1003.654	1961.71
1003.949	1966.23
1004.243	1923.3
1004.538	1934.37
1004.832	1909.51
1005.127	1919
1005.421	1910.19
1005.715	1888.5
1006.009	1888.04
1006.304	1852.79
1006.598	1875.39
1006.892	1836.07
1007.186	1805.33
1007.48	1839.68
1007.773	1833.81
1008.067	1806.01
1008.361	1801.04
1008.655	1764.21
1008.948	1784.54
1009.242	1774.83
1009.535	1750.42
1009.829	1769.4
1010.122	1747.48
1010.415	1708.84
1010.708	1699.12
1011.001	1705.9
1011.295	1690.99
1011.588	1687.82
1011.881	1662.06
1012.173	1660.7
1012.466	1681.95
1012.759	1671.33
1013.052	1646.47
1013.344	1640.14
1013.637	1631.55
1013.93	1627.49
1014.222	1618.45
1014.514	1610.54
1014.807	1568.05
1015.099	1591.78
1015.391	1567.15
1015.683	1557.88
1015.976	1553.59
1016.268	1549.52
1016.56	1550.43
1016.851	1516.3
1017.143	1513.36
1017.435	1511.78
1017.727	1485.34
1018.018	1505.91
1018.31	1486.47
1018.602	1467.94
1018.893	1446.7
1019.185	1451.44
1019.476	1460.48
1019.767	1438.79
1020.058	1417.77
1020.35	1411.9
1020.641	1396.53
1020.932	1394.5
1021.223	1383.65
1021.514	1380.26
1021.804	1346.81
1022.095	1356.53
1022.386	1336.19
1022.677	1344.56
1022.967	1355.18
1023.258	1315.86
1023.548	1304.78
1023.839	1286.03
1024.129	1304.1
1024.419	1303.2
1024.709	1284.44
1025	1291.45
1025.29	1251.45
1025.58	1268.4
1025.87	1247.16
1026.16	1224.11
1026.449	1234.05
1026.739	1238.57
1027.029	1231.34
1027.319	1211.9
1027.608	1210.55
1027.898	1181.4
1028.187	1186.14
1028.477	1172.81
1028.766	1183.43
1029.055	1139.81
1029.344	1145.24
1029.634	1169.64
1029.923	1158.35
1030.212	1150.66
1030.501	1138.46
1030.79	1132.81
1031.078	1129.65
1031.367	1105.47
1031.656	1099.82
1031.945	1102.08
1032.233	1086.93
1032.522	1073.6
1032.81	1045.35
1033.099	1072.92
1033.387	1038.12
1033.675	1056.2
1033.963	1032.7
1034.251	1034.73
1034.54	1066.14
1034.828	1009.87
1035.116	1029.31
1035.403	1009.42
1035.691	982.08
1035.979	1008.07
1036.267	994.28
1036.554	993.83
1036.842	981.17
1037.129	990.44
1037.417	958.8
1037.704	973.04
1037.992	972.14
1038.279	962.19
1038.566	961.29
1038.853	961.29
1039.14	961.29
