Data from hue_170_FLMS001491_00042.txt Node
Date: Tue Feb 07 16:48:44 GMT 2017
User: dcchb
Spectrometer: FLMS00149
Trigger mode: 0
Integration Time (sec): 2.000000E-2
Scans to average: 10
Electric dark correction enabled: true
Nonlinearity correction enabled: false
Boxcar width: 0
XAxis mode: Wavelengths
Number of Pixels in Spectrum: 2048
>>>>>Begin Spectral Data<<<<<
341.393	-10.73
341.776	-10.73
342.16	-10.73
342.543	-69.94
342.927	-62.94
343.31	-77.63
343.693	-62.71
344.077	-69.72
344.46	-59.55
344.843	-65.65
345.226	-49.83
345.61	-25.2
345.993	-24.75
346.376	-1.92
346.759	11.86
347.142	28.36
347.525	33.11
347.908	64.29
348.291	87.34
348.674	100.45
349.057	111.52
349.44	138.41
349.823	147.23
350.206	172.09
350.588	216.83
350.971	226.32
351.354	219.99
351.737	243.72
352.119	234.01
352.502	276.49
352.884	280.56
353.267	302.03
353.65	276.49
354.032	286.43
354.414	282.59
354.797	310.84
355.179	328.01
355.562	302.48
355.944	315.58
356.326	324.85
356.709	343.15
357.091	342.93
357.473	336.38
357.855	344.28
358.238	336.83
358.62	348.35
359.002	334.57
359.384	349.26
359.766	354.68
360.148	347.67
360.53	336.15
360.912	325.3
361.294	349.48
361.676	330.95
362.057	332.53
362.439	349.71
362.821	357.39
363.203	316.26
363.584	317.17
363.966	330.73
364.348	320.56
364.729	321.23
365.111	331.18
365.493	332.76
365.874	324.17
366.256	319.65
366.637	330.05
367.019	296.6
367.4	325.98
367.781	300.22
368.163	294.57
368.544	308.13
368.925	332.53
369.306	314
369.688	309.03
370.069	311.07
370.45	314.46
370.831	314.68
371.212	324.17
371.593	305.87
371.974	322.14
372.355	306.77
372.736	305.64
373.117	315.81
373.498	331.18
373.879	310.39
374.26	323.72
374.641	302.48
375.021	309.03
375.402	332.53
375.783	325.3
376.163	341.12
376.544	312.87
376.925	337.28
377.305	322.82
377.686	317.62
378.066	347.45
378.447	314.68
378.827	324.4
379.208	334.57
379.588	323.95
379.968	339.31
380.349	342.7
380.729	334.57
381.109	323.27
381.489	350.16
381.87	359.2
382.25	354.45
382.63	352.19
383.01	352.19
383.39	337.96
383.77	354
384.15	339.54
384.53	333.44
384.91	361.69
385.29	349.93
385.67	337.28
386.049	359.43
386.429	362.14
386.809	356.04
387.189	358.3
387.568	383.83
387.948	370.27
388.328	366.88
388.707	370.05
389.087	348.13
389.466	354.91
389.846	370.27
390.225	374.79
390.605	355.58
390.984	352.65
391.363	374.79
391.743	364.4
392.122	363.72
392.501	372.76
392.881	403.49
393.26	394.9
393.639	390.84
394.018	396.49
394.397	377.28
394.776	398.97
395.155	378.86
395.534	389.71
395.913	376.83
396.292	397.39
396.671	392.19
397.05	415.02
397.429	411.63
397.808	385.19
398.186	405.98
398.565	417.5
398.944	406.43
399.323	395.81
399.701	406.66
400.08	398.75
400.458	410.95
400.837	393.32
401.215	418.63
401.594	422.93
401.972	425.19
402.351	435.81
402.729	429.71
403.107	420.67
403.486	445.53
403.864	455.24
404.242	435.58
404.62	458.18
404.999	426.77
405.377	458.41
405.755	459.76
406.133	437.62
406.511	436.94
406.889	443.72
407.267	464.06
407.645	467.45
408.023	464.51
408.401	464.96
408.779	455.24
409.156	468.8
409.534	489.37
409.912	481
410.29	479.65
410.667	483.04
411.045	491.17
411.422	479.42
411.8	505.41
412.178	510.83
412.555	510.16
412.933	524.17
413.31	531.85
413.687	545.64
414.065	536.6
414.442	543.6
414.819	569.14
415.197	562.81
415.574	557.84
415.951	579.98
416.328	581.11
416.705	575.69
417.082	593.77
417.46	593.54
417.837	572.08
418.214	596.93
418.591	598.29
418.967	615.01
419.344	617.95
419.721	624.28
420.098	626.09
420.475	635.12
420.852	643.03
421.228	618.4
421.605	650.49
421.982	654.11
422.358	645.07
422.735	671.51
423.111	683.71
423.488	684.61
423.864	716.93
424.241	690.94
424.617	678.97
424.994	702.02
425.37	732.75
425.746	718.74
426.123	723.03
426.499	731.17
426.875	749.47
427.251	728.91
427.627	758.06
428.003	759.87
428.379	768
428.756	772.3
429.132	797.83
429.507	822.92
429.883	808.91
430.259	831.73
430.635	812.97
431.011	841.22
431.387	840.32
431.763	843.93
432.138	860.2
432.514	857.72
432.89	858.85
433.265	891.16
433.641	901.78
434.016	925.51
434.392	908.11
434.767	912.63
435.143	939.98
435.518	952.63
435.894	965.51
436.269	951.27
436.644	994.89
437.02	984.95
437.395	1001.89
437.77	1020.2
438.145	1039.86
438.52	1025.85
438.895	1055.68
439.271	1074.44
439.646	1099.97
440.021	1087.99
440.395	1096.81
440.77	1092.06
441.145	1113.53
441.52	1161.21
441.895	1135.45
442.27	1140.87
442.645	1134.09
443.019	1173.64
443.394	1179.97
443.769	1167.09
444.143	1206.63
444.518	1189.46
444.892	1203.25
445.267	1225.62
445.641	1214.77
446.016	1229.23
446.39	1250.25
446.764	1245.96
447.139	1264.26
447.513	1296.35
447.887	1263.58
448.262	1284.15
448.636	1302.23
449.01	1309.01
449.384	1332.06
449.758	1320.3
450.132	1341.32
450.506	1354.2
450.88	1330.02
451.254	1372.73
451.628	1395.78
452.002	1393.3
452.376	1400.08
452.75	1420.87
453.123	1445.27
453.497	1466.06
453.871	1484.14
454.244	1520.52
454.618	1516.46
454.992	1532.5
455.365	1528.21
455.739	1560.07
456.112	1607.53
456.486	1610.24
456.859	1614.76
457.232	1657.02
457.606	1652.27
457.979	1659.05
458.352	1714.87
458.725	1693.85
459.099	1715.32
459.472	1770.46
459.845	1780.18
460.218	1801.42
460.591	1793.96
460.964	1802.55
461.337	1885.04
461.71	1888.65
462.083	1929.78
462.456	1972.04
462.829	1959.38
463.201	1979.04
463.574	1989.89
463.947	2026.27
464.32	2095.2
464.692	2064.69
465.065	2188.76
465.438	2160.06
465.81	2201.86
466.183	2237.57
466.555	2259.26
466.928	2310.33
467.3	2336.32
467.672	2333.38
468.045	2404.8
468.417	2461.07
468.789	2479.82
469.161	2509.43
469.534	2548.52
469.906	2598.91
470.278	2579.48
470.65	2666.26
471.022	2712.36
471.394	2778.57
471.766	2865.57
472.138	2862.64
472.51	2947.15
472.882	2975.4
473.253	3038.23
473.625	3085.68
473.997	3177.43
474.369	3254.04
474.74	3247.94
475.112	3340.36
475.484	3462.17
475.855	3505.33
476.227	3541.49
476.598	3627.81
476.97	3693.35
477.341	3798.88
477.713	3869.39
478.084	3892.44
478.455	4045.88
478.827	4143.28
479.198	4301.24
479.569	4292.43
479.94	4390.28
480.311	4521.12
480.682	4628.47
481.053	4745.98
481.424	4863.26
481.795	4978.97
482.166	5103.03
482.537	5143.48
482.908	5252.18
483.279	5401.1
483.65	5538.05
484.021	5655.11
484.391	5769.68
484.762	5825.5
485.133	5962.22
485.503	6039.28
485.874	6260.74
486.244	6330.34
486.615	6509.77
486.985	6651.01
487.356	6745.7
487.726	6861.85
488.097	7048.97
488.467	7124.45
488.837	7310.66
489.207	7417.09
489.578	7551.78
489.948	7650.53
490.318	7766.01
490.688	7870.87
491.058	7980.02
491.428	8159.9
491.798	8331.87
492.168	8508.36
492.538	8570.74
492.908	8693.9
493.278	8824.29
493.648	8870.39
494.017	9050.5
494.387	9138.4
494.757	9286.42
495.126	9450.26
495.496	9434.67
495.866	9553.08
496.235	9683.93
496.605	9831.94
496.974	9904.26
497.344	10020.19
497.713	10095.67
498.082	10103.12
498.452	10165.95
498.821	10374.3
499.19	10376.11
499.559	10559.84
499.928	10636.9
500.298	10683
500.667	10770.68
501.036	10831.69
501.405	10941.52
501.774	10987.17
502.143	11035.08
502.512	11092.93
502.88	11199.82
503.249	11203.89
503.618	11333.15
503.987	11321.62
504.356	11520.04
504.724	11495.18
505.093	11487.04
505.462	11526.82
505.83	11699.24
506.199	11699.47
506.567	11908.5
506.936	11915.28
507.304	12002.74
507.672	12066.24
508.041	12027.59
508.409	12115.27
508.777	12183.75
509.145	12254.48
509.514	12241.37
509.882	12373.35
510.25	12341.71
510.618	12353.91
510.986	12389.84
511.354	12507.81
511.722	12634.81
512.09	12699.89
512.458	12664.19
512.826	12762.72
513.193	12775.6
513.561	12828.02
513.929	12861.7
514.297	12940.11
514.664	13018.53
515.032	12959.09
515.4	13027.79
515.767	13009.26
516.135	13083.16
516.502	12995.7
516.869	13292.19
517.237	13241.12
517.604	13151.63
517.972	13184.4
518.339	13256.49
518.706	13237.51
519.073	13260.78
519.44	13300.55
519.808	13402.25
520.175	13342.81
520.542	13513.2
520.909	13504.16
521.276	13501.68
521.643	13523.83
522.009	13550.27
522.376	13570.6
522.743	13677.95
523.11	13652.18
523.477	13800.2
523.843	13789.58
524.21	13841.56
524.577	13892.86
524.943	13898.73
525.31	13906.19
525.676	13902.35
526.043	13992.06
526.409	13915
526.776	14101.21
527.142	14050.14
527.508	14064.83
527.874	14050.37
528.241	14100.53
528.607	14075.68
528.973	14179.63
529.339	14178.72
529.705	14178.27
530.071	14209.23
530.437	14154.77
530.803	14143.24
531.169	14207.2
531.535	14122
531.901	14152.28
532.267	14193.41
532.632	14147.76
532.998	14032.29
533.364	14048.33
533.73	14091.72
534.095	14136.24
534.461	14093.75
534.826	14118.39
535.192	14127.2
535.557	14214.43
535.923	14003.36
536.288	14150.25
536.653	14152.28
537.019	13974.66
537.384	13969.24
537.749	13924.94
538.114	13908
538.479	13818.28
538.845	13824.83
539.21	13755.23
539.575	13746.19
539.94	13813.76
540.305	13630.49
540.67	13628.91
541.034	13714.55
541.399	13603.15
541.764	13601.34
542.129	13581
542.494	13548.23
542.858	13532.19
543.223	13478.4
543.587	13462.13
543.952	13345.75
544.316	13378.52
544.681	13336.71
545.045	13310.5
545.41	13334.9
545.774	13247.9
546.138	13172.2
546.503	13049.94
546.867	13209.71
547.231	13247
547.595	13096.72
547.959	13134.23
548.324	13004.74
548.688	13031.18
549.052	12949.83
549.416	13024.86
549.779	12967.23
550.143	12881.13
550.507	12851.3
550.871	12826.22
551.235	12685.66
551.599	12772.66
551.962	12742.38
552.326	12637.29
552.689	12745.54
553.053	12590.29
553.417	12508.71
553.78	12688.59
554.143	12540.57
554.507	12566.11
554.87	12568.37
555.234	12637.97
555.597	12548.94
555.96	12521.14
556.323	12547.35
556.686	12489.05
557.05	12521.14
557.413	12475.72
557.776	12486.11
558.139	12479.11
558.502	12432.55
558.865	12373.8
559.228	12402.5
559.59	12457.41
559.953	12415.61
560.316	12491.76
560.679	12405.89
561.041	12518.65
561.404	12433.23
561.767	12495.83
562.129	12386.91
562.492	12442.05
562.854	12443.85
563.217	12424.19
563.579	12418.09
563.941	12447.24
564.304	12468.49
564.666	12481.14
565.028	12504.42
565.39	12519.11
565.753	12534.92
566.115	12564.53
566.477	12466.23
566.839	12590.06
567.201	12664.64
567.563	12572.21
567.925	12604.53
568.287	12622.61
568.648	12533.34
569.01	12551.42
569.372	12634.81
569.734	12596.62
570.095	12596.84
570.457	12667.35
570.819	12673
571.18	12675.49
571.542	12720
571.903	12685.88
572.265	12854.69
572.626	12710.29
572.987	12710.29
573.349	12738.08
573.71	12779.21
574.071	12751.64
574.432	12708.25
574.794	12896.72
575.155	12802.04
575.516	12724.3
575.877	12812.66
576.238	12776.5
576.599	12788.25
576.96	12803.84
577.32	12820.79
577.681	12788.25
578.042	12776.73
578.403	12818.98
578.763	12908.02
579.124	12864.18
579.485	12940.34
579.845	12933.11
580.206	12799.32
580.566	12852.66
580.927	12759.33
581.287	12851.98
581.648	12742.83
582.008	12831.41
582.368	12858.31
582.728	12860.11
583.089	12788.03
583.449	12790.74
583.809	12837.52
584.169	12791.19
584.529	12733.34
584.889	12797.52
585.249	12729.04
585.609	12702.38
585.969	12747.57
586.329	12698.76
586.688	12730.4
587.048	12730.63
587.408	12642.04
587.768	12683.62
588.127	12658.31
588.487	12619.22
588.846	12703.06
589.206	12581.03
589.565	12578.54
589.925	12604.08
590.284	12625.54
590.643	12665.09
591.003	12708.25
591.362	12612.21
591.721	12701.47
592.08	12584.87
592.44	12590.29
592.799	12575.6
593.158	12573.34
593.517	12593.23
593.876	12565.21
594.235	12506.22
594.593	12574.92
594.952	12534.02
595.311	12544.42
595.67	12546.68
596.029	12640.01
596.387	12530.86
596.746	12600.69
597.104	12517.52
597.463	12497.19
597.822	12510.29
598.18	12472.55
598.538	12471.2
598.897	12505.09
599.255	12440.01
599.613	12633.91
599.972	12460.12
600.33	12576.51
600.688	12504.19
601.046	12578.31
601.404	12503.74
601.762	12508.03
602.12	12605.43
602.478	12527.69
602.836	12512.55
603.194	12497.86
603.552	12534.02
603.91	12510.07
604.268	12580.35
604.625	12387.58
604.983	12522.95
605.341	12467.58
605.698	12516.62
606.056	12431.42
606.413	12421.93
606.771	12559.33
607.128	12555.49
607.485	12364.76
607.843	12527.24
608.2	12648.14
608.557	12566.34
608.914	12535.38
609.272	12564.08
609.629	12586
609.986	12627.8
610.343	12607.47
610.7	12650.85
611.057	12673.45
611.414	12622.38
611.771	12621.7
612.127	12657.41
612.484	12589.84
612.841	12690.4
613.198	12625.77
613.554	12641.14
613.911	12774.47
614.267	12735.82
614.624	12703.96
614.98	12704.86
615.337	12704.86
615.693	12735.82
616.05	12700.12
616.406	12828.93
616.762	12780.57
617.118	12752.09
617.475	12676.39
617.831	12755.03
618.187	12762.94
618.543	12822.37
618.899	12858.76
619.255	12884.52
619.611	12747.35
619.967	12833.22
620.323	12820.79
620.678	12801.36
621.034	12808.14
621.39	12711.64
621.746	12819.89
622.101	12915.03
622.457	12834.8
622.812	12821.7
623.168	12916.84
623.523	12885.2
623.879	12893.33
624.234	12886.55
624.589	12834.35
624.945	12784.18
625.3	12840
625.655	12843.17
626.01	12828.48
626.365	12829.83
626.72	12837.29
627.075	12876.84
627.43	12795.93
627.785	12725.2
628.14	12804.97
628.495	12882.03
628.85	12755.03
629.205	12764.98
629.559	12825.76
629.914	12764.98
630.269	12745.99
630.623	12687.01
630.978	12839.32
631.332	12710.29
631.687	12785.77
632.041	12684.3
632.396	12666.9
632.75	12710.74
633.104	12627.8
633.459	12618.99
633.813	12679.78
634.167	12582.38
634.521	12596.17
634.875	12632.78
635.229	12575.38
635.583	12602.49
635.937	12440.24
636.291	12496.51
636.645	12520.24
636.999	12432.78
637.352	12468.94
637.706	12416.28
638.06	12487.69
638.413	12410.86
638.767	12323.86
639.121	12415.83
639.474	12286.8
639.828	12293.8
640.181	12352.1
640.534	12315.95
640.888	12321.37
641.241	12337.64
641.594	12304.87
641.947	12361.37
642.301	12284.54
642.654	12319.56
643.007	12378.09
643.36	12312.33
643.713	12259
644.066	12322.95
644.419	12287.02
644.771	12205.89
645.124	12040.7
645.477	12046.12
645.83	11959.12
646.182	11887.26
646.535	11883.64
646.888	11891.1
647.24	11850.65
647.593	11896.75
647.945	11887.48
648.298	11800.48
648.65	11763.19
649.002	11831.44
649.355	11823.98
649.707	11818.56
650.059	11873.25
650.411	12068.5
650.763	12100.36
651.115	12213.13
651.467	12034.82
651.819	12124.31
652.171	12090.87
652.523	12040.02
652.875	12075.28
653.227	12050.19
653.578	12118.44
653.93	12093.35
654.282	12021.94
654.633	11994.83
654.985	12029.4
655.337	12099
655.688	12086.8
656.039	12108.5
656.391	12012
656.742	11971.55
657.094	12113.47
657.445	12127.7
657.796	12085.67
658.147	12068.27
658.498	11988.95
658.849	12089.06
659.2	12035.95
659.551	12041.6
659.902	12055.84
660.253	12049.97
660.604	12023.3
660.955	12043.86
661.306	12104.2
661.656	12060.13
662.007	12037.76
662.358	12016.07
662.708	12158.89
663.059	12117.31
663.409	12067.14
663.76	12193.46
664.11	12092
664.461	12114.82
664.811	12114.37
665.161	12039.8
665.511	12101.49
665.862	12103.98
666.212	12149.17
666.562	12145.33
666.912	12159.79
667.262	12109.17
667.612	12126.8
667.962	12168.15
668.312	12041.83
668.662	12090.64
669.011	12113.47
669.361	12186.91
669.711	12115.5
670.06	12081.38
670.41	12123.18
670.76	12021.72
671.109	12094.94
671.459	12106.46
671.808	12044.77
672.157	12119.12
672.507	12018.55
672.856	12047.25
673.205	12032.79
673.554	12005
673.904	11980.14
674.253	12102.62
674.602	12081.15
674.951	11809.07
675.3	11788.5
675.649	11948.27
675.998	11958.89
676.346	11946.69
676.695	11958.44
677.044	11836.41
677.393	11964.77
677.741	11887.03
678.09	11868.5
678.438	11936.07
678.787	11933.13
679.135	11814.72
679.484	11707.6
679.832	11790.54
680.181	11800.48
680.529	11785.11
680.877	11802.06
681.225	11751.89
681.573	11752.12
681.922	11656.3
682.27	11642.29
682.618	11715.51
682.966	11601.39
683.314	11615.4
683.661	11540.15
684.009	11579.24
684.357	11482.75
684.705	11496.08
685.053	11442.75
685.4	11489.75
685.748	11361.4
686.095	11331.34
686.443	11327.95
686.79	11379.47
687.138	11369.31
687.485	11374.73
687.832	11301.51
688.18	11282.98
688.527	11241.85
688.874	11216.54
689.221	11207.28
689.568	11194.85
689.915	11134.74
690.262	11079.82
690.609	11027.17
690.956	10976.55
691.303	11042.76
691.65	10949.66
691.997	10929.54
692.344	10864.01
692.69	10885.48
693.037	10796.21
693.383	10745.37
693.73	10723.45
694.077	10716.44
694.423	10749.43
694.769	10606.16
695.116	10614.52
695.462	10586.5
695.808	10555.99
696.155	10581.3
696.501	10452.49
696.847	10484.36
697.193	10397.81
697.539	10486.39
697.885	10379.73
698.231	10351.71
698.577	10277.58
698.923	10259.05
699.269	10181.09
699.614	10119.85
699.96	10064.93
700.306	10020.41
700.651	10027.19
700.997	10012.05
701.342	9981.32
701.688	9927.99
702.033	9918.72
702.379	9911.26
702.724	9813.64
703.069	9849.35
703.415	9720.31
703.76	9726.86
704.105	9758.95
704.45	9615.68
704.795	9613.19
705.14	9566.19
705.485	9581.78
705.83	9494.78
706.175	9513.76
706.52	9432.86
706.865	9424.95
707.209	9439.64
707.554	9376.59
707.899	9429.47
708.243	9356.03
708.588	9361
708.932	9318.74
709.277	9246.42
709.621	9279.42
709.966	9219.08
710.31	9277.84
710.654	9172.75
710.998	9166.43
711.342	9170.27
711.687	9127.33
712.031	9119.42
712.375	9001.01
712.719	9078.74
713.063	9066.32
713.407	9036.94
713.75	9059.54
714.094	8975.24
714.438	8987.9
714.782	8952.87
715.125	8911.97
715.469	9000.33
715.812	8933.44
716.156	8869.94
716.499	8828.58
716.843	8837.39
717.186	8864.06
717.53	8861.35
717.873	8885.3
718.216	8805.53
718.559	8747.45
718.902	8725.53
719.246	8693.22
719.589	8719.66
719.932	8635.82
720.275	8757.85
720.617	8703.16
720.96	8675.14
721.303	8697.74
721.646	8712.2
721.989	8584.29
722.331	8598.08
722.674	8543.39
723.016	8648.02
723.359	8567.35
723.701	8646.89
724.044	8578.19
724.386	8555.37
724.729	8548.81
725.071	8580.68
725.413	8589.49
725.755	8556.72
726.097	8489.61
726.439	8469.95
726.782	8595.59
727.124	8538.65
727.465	8528.25
727.807	8519.44
728.149	8497.06
728.491	8544.75
728.833	8498.19
729.175	8508.14
729.516	8495.03
729.858	8464.52
730.199	8473.11
730.541	8448.93
730.882	8454.81
731.224	8482.38
731.565	8448.25
731.906	8479.44
732.248	8439.44
732.589	8466.78
732.93	8388.14
733.271	8418.87
733.612	8491.19
733.953	8484.41
734.294	8437.63
734.635	8447.8
734.976	8467.91
735.317	8436.5
735.658	8420.91
735.999	8486.67
736.339	8502.71
736.68	8533.22
737.021	8447.12
737.361	8492.55
737.702	8404.41
738.042	8450.74
738.383	8427.91
738.723	8497.97
739.063	8423.39
739.404	8537.29
739.744	8520.79
740.084	8539.32
740.424	8509.04
740.764	8533.22
741.104	8540.68
741.444	8569.61
741.784	8568.48
742.124	8532.09
742.464	8614.12
742.804	8582.94
743.143	8616.38
743.483	8671.52
743.823	8652.99
744.162	8667.46
744.502	8730.28
744.841	8727.12
745.181	8819.54
745.52	8882.82
745.86	8861.12
746.199	8830.39
746.538	8920.1
746.877	9038.75
747.216	9048.46
747.556	9030.84
747.895	9087.33
748.234	9110.38
748.573	9137.27
748.911	9193.32
749.25	9249.81
749.589	9340.21
749.928	9430.83
750.267	9492.97
750.605	9518.51
750.944	9601.44
751.283	9627.66
751.621	9779.52
751.96	9801.21
752.298	9970.25
752.636	9975.44
752.975	9984.03
753.313	10181.99
753.651	10309.22
753.989	10423.34
754.327	10431.25
754.666	10511.48
755.004	10799.15
755.342	10809.32
755.679	10964.12
756.017	11103.1
756.355	11261.29
756.693	11350.77
757.031	11517.32
757.368	11555.52
757.706	11771.33
758.044	11981.27
758.381	12057.2
758.719	12177.19
759.056	12431.42
759.394	12480.01
759.731	12656.28
760.068	12826.89
760.405	12946.21
760.743	13034.35
761.08	13332.19
761.417	13430.95
761.754	13560.43
762.091	13741.22
762.428	13828.9
762.765	13981.21
763.102	14326.97
763.438	14325.61
763.775	14482.22
764.112	14731.48
764.449	14909.1
764.785	15046.72
765.122	15124.24
765.458	15361.07
765.795	15412.82
766.131	15596.77
766.467	15688.51
766.804	15865.01
767.14	15932.12
767.476	16171.21
767.812	16229.29
768.148	16489.17
768.485	16494.82
768.821	16566.91
769.157	16710.41
769.492	16803.51
769.828	17058.65
770.164	17000.12
770.5	17166.89
770.836	17346.78
771.171	17357.4
771.507	17460.22
771.842	17485.98
772.178	17688.01
772.513	17801.9
772.849	17834.45
773.184	17848.46
773.519	17924.61
773.855	18031.73
774.19	17968.91
774.525	18111.95
774.86	18320.31
775.195	18335.22
775.53	18330.93
775.865	18301.78
776.2	18355.11
776.535	18324.6
776.87	18340.2
777.205	18448.67
777.539	18436.46
777.874	18609.57
778.209	18557.37
778.543	18574.99
778.878	18569.34
779.212	18596.01
779.547	18537.93
779.881	18763.69
780.215	18649.79
780.55	18727.98
780.884	18712.84
781.218	18788.77
781.552	18760.75
781.886	18740.86
782.22	18699.73
782.554	18818.15
782.888	18603.47
783.222	18667.42
783.556	18619.96
783.889	18612.28
784.223	18549.46
784.557	18666.97
784.89	18638.72
785.224	18454.09
785.557	18537.03
785.891	18526.63
786.224	18586.06
786.558	18616.57
786.891	18516.01
787.224	18470.36
787.557	18364.15
787.891	18398.73
788.224	18365.28
788.557	18427.65
788.89	18361.21
789.223	18482.11
789.556	18281.89
789.888	18284.6
790.221	18280.54
790.554	18178.62
790.887	18171.39
791.219	18067.43
791.552	18217.26
791.884	18116.02
792.217	18001.45
792.549	18019.3
792.882	17916.48
793.214	17925.29
793.546	17913.99
793.879	17817.72
794.211	17791.74
794.543	17821.34
794.875	17723.94
795.207	17708.12
795.539	17705.86
795.871	17709.03
796.203	17580.44
796.535	17517.39
796.867	17479.43
797.198	17484.85
797.53	17501.35
797.862	17408.47
798.193	17510.16
798.525	17419.32
798.856	17375.93
799.188	17205.08
799.519	17217.06
799.85	17053.45
800.182	17145.42
800.513	17074.92
800.844	16969.84
801.175	17121.92
801.506	17040.12
801.837	16963.51
802.168	16988.14
802.499	16839.67
802.83	16771.2
803.161	16743.85
803.491	16789.28
803.822	16760.12
804.153	16612.33
804.483	16510.41
804.814	16499.11
805.145	16607.81
805.475	16456.4
805.805	16435.84
806.136	16465.44
806.466	16389.96
806.796	16430.87
807.126	16284.43
807.457	16314.49
807.787	16257.31
808.117	16145.45
808.447	16106.13
808.777	16239.91
809.107	16119.24
809.436	16040.14
809.766	16059.8
810.096	15971.67
810.426	15924.67
810.755	16014.16
811.085	15974.38
811.414	15871.56
811.744	15783.88
812.073	15714.95
812.403	15836.76
812.732	15664.79
813.061	15765.8
813.39	15534.85
813.719	15680.38
814.049	15695.29
814.378	15611.91
814.707	15585.92
815.036	15596.77
815.365	15433.83
815.693	15326.04
816.022	15381.4
816.351	15456.66
816.68	15298.47
817.008	15377.79
817.337	15124.24
817.665	15167.62
817.994	15282.65
818.322	15246.04
818.651	15065.48
818.979	15065.93
819.307	15173.73
819.636	15146.16
819.964	15013.05
820.292	15102.99
820.62	15076.55
820.948	15003.56
821.276	15131.24
821.604	14983.67
821.932	15058.47
822.259	15033.16
822.587	14968.98
822.915	15010.57
823.243	15037.91
823.57	14964.24
823.898	15037.68
824.225	14972.15
824.553	14923.11
824.88	14928.99
825.207	15041.53
825.535	14991.81
825.862	15049.89
826.189	14911.81
826.516	15023.22
826.843	15076.78
827.17	15063.9
827.497	15062.77
827.824	15005.14
828.151	15132.6
828.478	15022.09
828.805	15098.02
829.131	15040.17
829.458	15008.31
829.785	14945.71
830.111	14956.33
830.438	15140.51
830.764	14995.88
831.09	15057.12
831.417	14977.8
831.743	15053.05
832.069	15037.46
832.395	14987.74
832.722	14938.25
833.048	14956.1
833.374	14953.17
833.7	14947.97
834.026	14890.57
834.351	14957.01
834.677	14876.11
835.003	14971.02
835.329	14875.43
835.654	14901.19
835.98	14888.31
836.306	14797.46
836.631	14804.7
836.956	14920.17
837.282	14930.34
837.607	14794.75
837.932	14855.54
838.258	14728.09
838.583	14697.81
838.908	14645.6
839.233	14659.61
839.558	14550.92
839.883	14605.15
840.208	14504.36
840.533	14444.03
840.858	14487.87
841.182	14493.52
841.507	14543.91
841.832	14391.37
842.156	14384.59
842.481	14392.5
842.805	14279.06
843.13	14329.45
843.454	14305.27
843.778	14237.93
844.103	14196.35
844.427	14175.79
844.751	14164.03
845.075	14162.23
845.399	14032.74
845.723	14027.31
846.047	14015.56
846.371	13892.63
846.695	13878.39
847.019	13840.2
847.343	13790.94
847.666	13714.55
847.99	13673.43
848.313	13635.69
848.637	13433.21
848.96	13477.72
849.284	13464.39
849.607	13384.85
849.931	13371.51
850.254	13258.3
850.577	13184.17
850.9	13100.56
851.223	13129.71
851.546	13022.6
851.869	12963.84
852.192	13014.46
852.515	12855.82
852.838	12829.61
853.161	12845.42
853.483	12740.79
853.806	12735.6
854.129	12738.08
854.451	12588.93
854.774	12546.68
855.096	12586.67
855.419	12487.92
855.741	12490.63
856.063	12431.65
856.385	12367.02
856.708	12402.27
857.03	12309.62
857.352	12289.73
857.674	12279.34
857.996	12203.63
858.318	12203.18
858.64	12120.02
858.961	12144.43
859.283	12066.01
859.605	11984.2
859.926	12014.03
860.248	12003.64
860.57	11947.37
860.891	12021.27
861.212	11863.76
861.534	11831.44
861.855	11863.53
862.176	11920.03
862.498	11734.49
862.819	11756.41
863.14	11699.47
863.461	11771.55
863.782	11702.4
864.103	11672.35
864.424	11591.9
864.745	11634.38
865.065	11582.18
865.386	11605.23
865.707	11536.98
866.027	11609.53
866.348	11494.5
866.668	11582.18
866.989	11532.47
867.309	11443.2
867.63	11513.93
867.95	11472.58
868.27	11374.28
868.59	11451.11
868.91	11342.41
869.23	11328.18
869.55	11308.29
869.87	11350.1
870.19	11294.51
870.51	11327.5
870.83	11329.53
871.15	11262.42
871.469	11231
871.789	11291.57
872.109	11226.03
872.428	11149.65
872.748	11220.16
873.067	11192.14
873.386	11168.41
873.706	11124.57
874.025	11108.97
874.344	11063.78
874.663	11067.62
874.982	11005.02
875.301	11012.7
875.62	10975.87
875.939	10993.95
876.258	11014.29
876.577	10966.38
876.896	10943.78
877.214	10897.45
877.533	10917.79
877.852	10883.44
878.17	10927.51
878.489	10825.14
878.807	10834.86
879.125	10802.54
879.444	10879.15
879.762	10786.04
880.08	10793.73
880.398	10701.3
880.716	10741.98
881.034	10698.81
881.352	10774.52
881.67	10679.83
881.988	10621.53
882.306	10617.01
882.624	10562.77
882.941	10559.38
883.259	10531.36
883.577	10517.12
883.894	10483.23
884.212	10478.48
884.529	10487.52
884.846	10420.18
885.164	10352.38
885.481	10441.65
885.798	10278.26
886.115	10270.58
886.432	10261.09
886.75	10261.76
887.067	10231.71
887.383	10150.81
887.7	10189.22
888.017	10175.89
888.334	10220.18
888.651	10142.22
888.967	10072.39
889.284	10019.74
889.6	10038.04
889.917	9965.05
890.233	9932.06
890.55	9864.94
890.866	9940.19
891.182	9822.45
891.498	9878.27
891.815	9847.54
892.131	9758.73
892.447	9751.27
892.763	9687.32
893.079	9772.74
893.395	9663.59
893.71	9632.85
894.026	9597.83
894.342	9610.03
894.657	9479.19
894.973	9422.24
895.289	9520.77
895.604	9515.57
895.92	9355.57
896.235	9370.71
896.55	9335.46
896.865	9312.86
897.181	9318.51
897.496	9304.5
897.811	9189.25
898.126	9218.85
898.441	9166.88
898.756	9102.47
899.071	9116.94
899.386	9100.21
899.7	9062.93
900.015	8998.97
900.33	8890.5
900.644	8903.38
900.959	8934.34
901.273	8941.35
901.588	8834.46
901.902	8838.3
902.216	8747.91
902.531	8798.07
902.845	8729.83
903.159	8696.16
903.473	8699.09
903.787	8564.86
904.101	8555.82
904.415	8603.73
904.729	8581.13
905.042	8449.61
905.356	8445.09
905.67	8457.52
905.984	8413.45
906.297	8416.16
906.611	8350.18
906.924	8329.61
907.237	8269.95
907.551	8234.7
907.864	8166.9
908.177	8220.46
908.491	8143.18
908.804	8093.01
909.117	8052.56
909.43	7977.3
909.743	7954.03
910.056	7983.63
910.368	7910.64
910.681	7914.26
910.994	7834.94
911.307	7893.46
911.619	7753.81
911.932	7765.11
912.244	7695.5
912.557	7722.4
912.869	7672.91
913.181	7688.27
913.494	7603.08
913.806	7550.2
914.118	7561.95
914.43	7512.23
914.742	7559.01
915.054	7442.63
915.366	7420.48
915.678	7379.81
915.99	7332.8
916.302	7315.4
916.613	7344.55
916.925	7316.98
917.236	7241.96
917.548	7199.7
917.859	7208.74
918.171	7124.67
918.482	7094.39
918.794	7094.62
919.105	7110.66
919.416	6986.6
919.727	7025.69
920.038	6956.54
920.349	6972.36
920.66	6938.24
920.971	6915.19
921.282	6912.25
921.593	6879.03
921.903	6872.02
922.214	6819.14
922.525	6794.51
922.835	6775.3
923.146	6724
923.456	6679.49
923.767	6638.81
924.077	6633.61
924.387	6616.89
924.697	6516.1
925.008	6584.35
925.318	6533.5
925.628	6552.71
925.938	6455.76
926.248	6430.23
926.558	6369.66
926.867	6392.94
927.177	6305.94
927.487	6346.61
927.796	6308.65
928.106	6258.71
928.416	6223
928.725	6255.77
929.034	6231.59
929.344	6177.8
929.653	6191.81
929.962	6072.72
930.271	6064.13
930.581	6051.71
930.89	6085.15
931.199	5993.63
931.508	6015.77
931.817	6006.06
932.125	5999.05
932.434	5946.4
932.743	5863.46
933.051	5915.44
933.36	5857.81
933.669	5808.55
933.977	5846.06
934.286	5816.68
934.594	5762.22
934.902	5728.78
935.21	5660.53
935.519	5721.77
935.827	5687.87
936.135	5674.77
936.443	5634.32
936.751	5594.09
937.059	5588.21
937.367	5542.79
937.674	5514.54
937.982	5496.24
938.29	5493.75
938.597	5470.93
938.905	5428.9
939.213	5407.88
939.52	5407.43
939.827	5414.43
940.135	5360.2
940.442	5274.55
940.749	5343.7
941.056	5245.85
941.363	5200.88
941.67	5185.06
941.977	5179.64
942.284	5169.24
942.591	5156.59
942.898	5174.67
943.205	5105.97
943.511	5078.85
943.818	5091.96
944.125	5046.76
944.431	5075.46
944.738	4994.33
945.044	4968.12
945.35	4973.99
945.657	4924.96
945.963	4886.09
946.269	4865.97
946.575	4863.04
946.881	4852.41
947.187	4852.19
947.493	4814.9
947.799	4830.04
948.105	4800.66
948.41	4735.13
948.716	4747.56
949.022	4679.99
949.327	4687.22
949.633	4674.57
949.938	4655.58
950.244	4638.86
950.549	4599.54
950.854	4573.78
951.16	4586.21
951.465	4531.29
951.77	4461.24
952.075	4454.23
952.38	4516.6
952.685	4493.55
952.99	4434.12
953.294	4430.5
953.599	4404.52
953.904	4422.14
954.209	4355.25
954.513	4382.37
954.818	4347.34
955.122	4317.29
955.426	4315.48
955.731	4273.22
956.035	4267.8
956.339	4300.56
956.643	4246.1
956.948	4242.94
957.252	4192.77
957.556	4189.16
957.86	4159.55
958.163	4204.07
958.467	4138.99
958.771	4110.06
959.075	4123.85
959.378	4043.85
959.682	4049.72
959.985	4036.62
960.289	4035.49
960.592	3948.48
960.896	3974.7
961.199	3917.98
961.502	3965.66
961.805	3927.47
962.108	3869.16
962.411	3923.85
962.714	3899.67
963.017	3845.21
963.32	3893.57
963.623	3839.33
963.926	3839.11
964.228	3778.32
964.531	3781.71
964.833	3741.71
965.136	3738.55
965.438	3729.28
965.741	3726.57
966.043	3706.68
966.345	3680.02
966.648	3664.88
966.95	3653.8
967.252	3652.22
967.554	3635.05
967.856	3616.97
968.158	3582.17
968.46	3577.42
968.761	3568.61
969.063	3573.8
969.365	3531.77
969.666	3530.64
969.968	3535.16
970.269	3463.52
970.571	3491.09
970.872	3514.82
971.174	3471.66
971.475	3453.13
971.776	3403.19
972.077	3394.6
972.378	3400.7
972.679	3375.39
972.98	3388.27
973.281	3336.97
973.582	3309.63
973.883	3311.66
974.183	3284.77
974.484	3345.56
974.785	3289.74
975.085	3270.99
975.386	3235.96
975.686	3256.07
975.986	3212.01
976.287	3231.44
976.587	3202.74
976.887	3159.58
977.187	3121.84
977.487	3115.29
977.787	3135.17
978.087	3111.67
978.387	3118.45
978.687	3083.87
978.987	3089.98
979.286	3060.37
979.586	3027.15
979.885	3054.72
980.185	3005.23
980.484	2988.96
980.784	2988.06
981.083	2974.5
981.382	2998
981.682	2949.64
981.981	2949.19
982.28	2910.32
982.579	2922.52
982.878	2875.29
983.177	2893.37
983.475	2905.12
983.774	2893.14
984.073	2832.58
984.372	2837.78
984.67	2822.19
984.969	2804.33
985.267	2785.12
985.566	2790.32
985.864	2776.09
986.162	2745.8
986.461	2746.93
986.759	2754.16
987.057	2721.85
987.355	2672.13
987.653	2697.22
987.951	2697.67
988.249	2682.75
988.547	2671
988.844	2641.63
989.142	2652.47
989.44	2624.68
989.737	2605.24
990.035	2620.16
990.332	2587.62
990.63	2592.14
990.927	2564.34
991.224	2525.92
991.521	2526.6
991.819	2525.7
992.116	2492.25
992.413	2508.07
992.71	2478.01
993.006	2482.99
993.303	2468.3
993.6	2426.94
993.897	2425.36
994.193	2451.35
994.49	2428.52
994.787	2397.79
995.083	2393.5
995.379	2416.09
995.676	2369.54
995.972	2330.9
996.268	2351.24
996.565	2344.46
996.861	2320.28
997.157	2335.19
997.453	2280.73
997.749	2272.14
998.044	2272.82
998.34	2263.56
998.636	2294.29
998.932	2220.39
999.227	2224.24
999.523	2217.91
999.818	2204.12
1000.114	2178.81
1000.409	2204.35
1000.704	2168.64
1001	2178.59
1001.295	2165.25
1001.59	2139.49
1001.885	2155.99
1002.18	2131.13
1002.475	2098.14
1002.77	2119.38
1003.065	2076.89
1003.359	2054.3
1003.654	2080.51
1003.949	2051.81
1004.243	2031.7
1004.538	2024.69
1004.832	2005.71
1005.127	2010.23
1005.421	1995.31
1005.715	1988.54
1006.009	1967.29
1006.304	1975.43
1006.598	1927.75
1006.892	1947.86
1007.186	1915.54
1007.48	1888.42
1007.773	1913.73
1008.067	1903.79
1008.361	1892.27
1008.655	1844.13
1008.948	1842.32
1009.242	1865.15
1009.535	1832.61
1009.829	1831.25
1010.122	1821.31
1010.415	1787.18
1010.708	1776.56
1011.001	1776.34
1011.295	1789.67
1011.588	1740.63
1011.881	1734.08
1012.173	1734.53
1012.466	1748.09
1012.759	1749.9
1013.052	1737.47
1013.344	1715.1
1013.637	1669.22
1013.93	1666.28
1014.222	1656.57
1014.514	1659.96
1014.807	1664.7
1015.099	1654.98
1015.391	1664.48
1015.683	1662.67
1015.976	1606.85
1016.268	1620.41
1016.56	1596.68
1016.851	1593.29
1017.143	1582.22
1017.435	1577.02
1017.727	1577.02
1018.018	1567.08
1018.31	1529.11
1018.602	1523.46
1018.893	1532.73
1019.185	1519.85
1019.476	1485.27
1019.767	1509
1020.058	1497.47
1020.35	1461.77
1020.641	1449.11
1020.932	1457.25
1021.223	1443.69
1021.514	1436.91
1021.804	1430.36
1022.095	1389
1022.386	1413.86
1022.677	1396.69
1022.967	1399.17
1023.258	1392.84
1023.548	1384.94
1023.839	1381.32
1024.129	1356.69
1024.419	1337.03
1024.709	1333.19
1025	1339.29
1025.29	1315.56
1025.58	1301.32
1025.87	1309.46
1026.16	1316.69
1026.449	1292.28
1026.739	1259.97
1027.029	1257.48
1027.319	1271.72
1027.608	1242.79
1027.898	1245.5
1028.187	1220.87
1028.477	1233.3
1028.766	1222
1029.055	1223.13
1029.344	1210.93
1029.634	1199.63
1029.923	1184.49
1030.212	1166.18
1030.501	1151.5
1030.79	1149.69
1031.078	1151.72
1031.367	1158.95
1031.656	1130.93
1031.945	1126.41
1032.233	1133.42
1032.522	1129.57
1032.81	1103.13
1033.099	1111.95
1033.387	1117.15
1033.675	1115.56
1033.963	1063.81
1034.251	1118.73
1034.54	1073.98
1034.828	1061.55
1035.116	1053.42
1035.403	1030.82
1035.691	1033.76
1035.979	1071.27
1036.267	1029.69
1036.554	1025.85
1036.842	1029.69
1037.129	1015.91
1037.417	1015.45
1037.704	1011.16
1037.992	987.66
1038.279	969.81
1038.566	985.85
1038.853	985.85
1039.14	985.85
