Data from hue_100_FLMS001491_00057.txt Node
Date: Tue Feb 07 17:03:22 GMT 2017
User: dcchb
Spectrometer: FLMS00149
Trigger mode: 0
Integration Time (sec): 2.000000E-2
Scans to average: 10
Electric dark correction enabled: true
Nonlinearity correction enabled: false
Boxcar width: 0
XAxis mode: Wavelengths
Number of Pixels in Spectrum: 2048
>>>>>Begin Spectral Data<<<<<
341.393	-4.08
341.776	-4.08
342.16	-4.08
342.543	-68.26
342.927	-64.65
343.31	-74.81
343.693	-79.11
344.077	-49.28
344.46	-53.35
344.843	-55.38
345.226	-31.2
345.61	-35.04
345.993	-11.54
346.376	-10.64
346.759	13.54
347.142	15.13
347.525	40.44
347.908	50.83
348.291	65.07
348.674	100.1
349.057	115.24
349.44	109.36
349.823	162.02
350.206	154.11
350.588	176.7
350.971	199.3
351.354	232.75
351.737	249.7
352.119	249.47
352.502	278.85
352.884	265.97
353.267	265.06
353.65	277.49
354.032	304.38
354.414	294.22
354.797	303.93
355.179	328.34
355.562	304.16
355.944	319.98
356.326	325.63
356.709	317.94
357.091	323.59
357.473	332.41
357.855	334.44
358.238	339.41
358.62	332.18
359.002	333.54
359.384	334.67
359.766	324.5
360.148	336.93
360.53	359.75
360.912	320.43
361.294	343.93
361.676	329.69
362.057	329.92
362.439	319.07
362.821	321.11
363.203	307.55
363.584	319.53
363.966	328.56
364.348	316.14
364.729	311.39
365.111	298.51
365.493	338.96
365.874	333.08
366.256	336.93
366.637	327.66
367.019	312.52
367.4	327.21
367.781	330.6
368.163	316.81
368.544	319.75
368.925	299.41
369.306	310.03
369.688	318.85
370.069	321.56
370.45	320.43
370.831	326.3
371.212	305.51
371.593	306.64
371.974	298.74
372.355	326.98
372.736	308.68
373.117	296.48
373.498	312.52
373.879	308.9
374.26	310.94
374.641	333.54
375.021	324.5
375.402	323.82
375.783	310.71
376.163	311.62
376.544	326.98
376.925	322.92
377.305	332.18
377.686	322.69
378.066	326.76
378.447	317.27
378.827	335.34
379.208	300.32
379.588	329.69
379.968	345.97
380.349	326.3
380.729	325.63
381.109	347.32
381.489	348.45
381.87	334.89
382.25	331.95
382.63	361.11
383.01	340.99
383.39	348.68
383.77	345.97
384.15	369.47
384.53	347.32
384.91	372.86
385.29	352.07
385.67	350.03
386.049	364.95
386.429	345.51
386.809	380.99
387.189	358.39
387.568	347.77
387.948	363.14
388.328	355.46
388.707	352.74
389.087	377.38
389.466	349.36
389.846	357.04
390.225	373.08
390.605	371.95
390.984	345.29
391.363	376.25
391.743	370.15
392.122	376.7
392.501	371.95
392.881	378.28
393.26	383.93
393.639	369.92
394.018	390.48
394.397	399.75
394.776	366.76
395.155	402.01
395.534	383.93
395.913	384.61
396.292	384.38
396.671	401.11
397.05	401.78
397.429	383.03
397.808	393.42
398.186	397.04
398.565	397.04
398.944	387.32
399.323	397.72
399.701	392.29
400.08	390.48
400.458	413.31
400.837	404.72
401.215	404.04
401.594	406.75
401.972	400.65
402.351	419.41
402.729	420.77
403.107	422.57
403.486	420.09
403.864	417.15
404.242	432.74
404.62	424.83
404.999	436.58
405.377	444.27
405.755	435.68
406.133	442.46
406.511	452.18
406.889	440.2
407.267	440.43
407.645	425.96
408.023	431.39
408.401	469.13
408.779	452.63
409.156	443.14
409.534	465.06
409.912	473.42
410.29	469.13
410.667	462.35
411.045	467.32
411.422	457.6
411.8	474.32
412.178	495.34
412.555	493.76
412.933	472.52
413.31	491.72
413.687	486.98
414.065	492.63
414.442	507.09
414.819	511.84
415.197	510.71
415.574	511.84
415.951	503.93
416.328	518.62
416.705	504.15
417.082	512.06
417.46	509.35
417.837	502.57
418.214	527.43
418.591	550.71
418.967	546.41
419.344	544.83
419.721	555.23
420.098	554.32
420.475	558.16
420.852	535.11
421.228	565.39
421.605	557.26
421.982	540.54
422.358	553.87
422.735	588.44
423.111	573.08
423.488	583.47
423.864	580.99
424.241	579.63
424.617	578.28
424.994	594.32
425.37	586.64
425.746	594.55
426.123	610.82
426.499	620.99
426.875	574.66
427.251	634.09
427.627	629.8
428.003	644.04
428.379	645.17
428.756	596.81
429.132	641.55
429.507	660.53
429.883	659.86
430.259	656.24
430.635	650.14
431.011	681.1
431.387	684.71
431.763	680.42
432.138	681.32
432.514	701.21
432.89	700.31
433.265	709.35
433.641	703.02
434.016	722.23
434.392	716.13
434.767	702.34
435.143	742.11
435.518	730.59
435.894	740.98
436.269	764.94
436.644	769.46
437.02	770.59
437.395	767.2
437.77	776.91
438.145	768.55
438.52	773.98
438.895	799.51
439.271	819.4
439.646	806.74
440.021	799.06
440.395	822.79
440.77	811.49
441.145	825.27
441.52	847.87
441.895	842
442.27	852.17
442.645	860.08
443.019	844.48
443.394	882.67
443.769	854.2
444.143	870.25
444.518	884.26
444.892	870.02
445.267	891.04
445.641	892.17
446.016	883.8
446.39	891.94
446.764	912.5
447.139	892.62
447.513	894.65
447.887	910.92
448.262	920.64
448.636	908.21
449.01	956.57
449.384	954.54
449.758	978.72
450.132	957.02
450.506	950.24
450.88	994.76
451.254	980.07
451.628	969.68
452.002	998.38
452.376	1011.94
452.75	1013.52
453.123	1005.61
453.497	1028.66
453.871	1008.55
454.244	1047.42
454.618	1078.38
454.992	1059.85
455.365	1060.07
455.739	1099.62
456.112	1093.97
456.486	1114.53
456.859	1142.1
457.232	1153.4
457.606	1152.5
457.979	1162.89
458.352	1215.77
458.725	1178.03
459.099	1201.99
459.472	1226.62
459.845	1204.93
460.218	1241.54
460.591	1265.72
460.964	1276.79
461.337	1309.78
461.71	1322.89
462.083	1337.35
462.456	1347.07
462.829	1364.47
463.201	1360.63
463.574	1378.48
463.947	1375.32
464.32	1420.74
464.692	1423.9
465.065	1459.83
465.438	1472.26
465.81	1495.54
466.183	1505.03
466.555	1550.23
466.928	1557.23
467.3	1578.93
467.672	1619.38
468.045	1634.52
468.417	1644.46
468.789	1646.27
469.161	1709.77
469.534	1697.57
469.906	1751.58
470.278	1782.99
470.65	1804.01
471.022	1840.39
471.394	1915.19
471.766	1911.12
472.138	1940.27
472.51	2011.23
472.882	2028.18
473.253	2084.9
473.625	2134.17
473.997	2150.21
474.369	2201.51
474.74	2246.93
475.112	2305.24
475.484	2322.41
475.855	2394.5
476.227	2404.89
476.598	2534.16
476.97	2568.73
477.341	2646.92
477.713	2684.44
478.084	2733.93
478.455	2806.69
478.827	2869.74
479.198	2967.82
479.569	3023.86
479.94	3138.43
480.311	3188.6
480.682	3238.09
481.053	3402.83
481.424	3476.5
481.795	3541.59
482.166	3619.78
482.537	3707.46
482.908	3866.32
483.279	3956.94
483.65	4034.91
484.021	4179.54
484.391	4248.69
484.762	4344.96
485.133	4429.47
485.503	4536.14
485.874	4710.14
486.244	4831.72
486.615	4935.22
486.985	5069.68
487.356	5215.89
487.726	5323.91
488.097	5467.64
488.467	5514.19
488.837	5720.97
489.207	5838.48
489.578	6004.35
489.948	6160.05
490.318	6241.63
490.688	6373.15
491.058	6499.02
491.428	6669.64
491.798	6787.38
492.168	6957.54
492.538	7104.21
492.908	7243.19
493.278	7409.51
493.648	7512.1
494.017	7620.58
494.387	7735.38
494.757	7872.32
495.126	8053.79
495.496	8115.48
495.866	8228.02
496.235	8429.37
496.605	8537.16
496.974	8657.61
497.344	8825.74
497.713	8879.53
498.082	8981.22
498.452	9192.96
498.821	9255.79
499.19	9319.97
499.559	9449.68
499.928	9604.03
500.298	9701.65
500.667	9828.65
501.036	9828.2
501.405	10035.88
501.774	10118.36
502.143	10215.76
502.512	10284.91
502.88	10394.29
503.249	10495.3
503.618	10581.85
503.987	10684
504.356	10702.08
504.724	10804.22
505.093	10911.56
505.462	10919.02
505.83	11067.04
506.199	11152.24
506.567	11246.47
506.936	11384.32
507.304	11442.17
507.672	11518.78
508.041	11625.67
508.409	11648.27
508.777	11740.47
509.145	11813.01
509.514	11881.03
509.882	11996.05
510.25	11966.45
510.618	12096.39
510.986	12055.04
511.354	12197.86
511.722	12315.14
512.09	12376.61
512.458	12425.2
512.826	12557.85
513.193	12554.01
513.561	12620.22
513.929	12662.48
514.297	12747
514.664	12768.69
515.032	12871.06
515.4	12841.91
515.767	12877.16
516.135	13006.65
516.502	12930.72
516.869	13070.15
517.237	13070.6
517.604	13125.52
517.972	13181.79
518.339	13250.48
518.706	13166.87
519.073	13265.4
519.44	13363.25
519.808	13406.64
520.175	13443.02
520.542	13570.7
520.909	13558.5
521.276	13557.82
521.643	13617.48
522.009	13607.54
522.376	13723.01
522.743	13773.41
523.11	13806.85
523.477	13850.92
523.843	13906.06
524.21	14077.36
524.577	14047.75
524.943	14070.12
525.31	14131.37
525.676	14200.29
526.043	14224.24
526.409	14275.32
526.776	14330.68
527.142	14215.21
527.508	14256.56
527.874	14348.76
528.241	14391.92
528.607	14389.66
528.973	14395.09
529.339	14366.16
529.705	14418.82
530.071	14413.39
530.437	14525.03
530.803	14541.98
531.169	14503.56
531.535	14517.12
531.901	14412.94
532.267	14476.67
532.632	14520.51
532.998	14538.36
533.364	14489.77
533.73	14473.5
534.095	14579.49
534.461	14494.29
534.826	14535.42
535.192	14620.62
535.557	14577.91
535.923	14447.52
536.288	14506.27
536.653	14542.65
537.019	14434.18
537.384	14379.27
537.749	14435.09
538.114	14390.34
538.479	14344.69
538.845	14364.13
539.21	14324.35
539.575	14201.87
539.94	14370
540.305	14303.11
540.67	14273.73
541.034	14218.6
541.399	14204.81
541.764	14203.45
542.129	14225.6
542.494	14134.76
542.858	14195.77
543.223	14156
543.587	14146.51
543.952	14119.61
544.316	14048.88
544.681	13996.45
545.045	14045.94
545.41	14005.49
545.774	13987.87
546.138	13913.74
546.503	13945.16
546.867	13831.94
547.231	13898.38
547.595	13817.48
547.959	13878.04
548.324	13746.07
548.688	13685.05
549.052	13686.86
549.416	13642.79
549.779	13665.84
550.143	13612.51
550.507	13622.23
550.871	13672.39
551.235	13588.33
551.599	13664.71
551.962	13537.93
552.326	13502.91
552.689	13584.26
553.053	13508.78
553.417	13413.42
553.78	13602.79
554.143	13431.27
554.507	13452.51
554.87	13386.3
555.234	13471.72
555.597	13438.5
555.96	13308.56
556.323	13423.36
556.686	13411.16
557.05	13500.2
557.413	13453.87
557.776	13407.77
558.139	13458.84
558.502	13403.25
558.865	13380.2
559.228	13443.47
559.59	13398.5
559.953	13320.99
560.316	13486.64
560.679	13431.5
561.041	13498.16
561.404	13481.21
561.767	13477.6
562.129	13499.52
562.492	13487.77
562.854	13521.89
563.217	13441.67
563.579	13479.86
563.941	13505.62
564.304	13490.25
564.666	13542.45
565.028	13541.78
565.39	13537.03
565.753	13592.62
566.115	13627.42
566.477	13669.68
566.839	13674.2
567.201	13673.75
567.563	13704.71
567.925	13774.99
568.287	13834.88
568.648	13685.5
569.01	13821.54
569.372	13745.61
569.734	13727.53
570.095	13734.31
570.457	13878.72
570.819	13861.77
571.18	13864.48
571.542	13902.67
571.903	13793.07
572.265	13946.96
572.626	13862.9
572.987	13854.08
573.349	13913.52
573.71	13944.03
574.071	14022.44
574.432	14018.37
574.794	14054.53
575.155	13979.96
575.516	13986.74
575.877	13995.1
576.238	13967.3
576.599	13998.94
576.96	14005.04
577.32	13966.85
577.681	14053.4
578.042	14014.08
578.403	14060.41
578.763	13965.72
579.124	14132.95
579.485	14123.91
579.845	14221.08
580.206	14064.93
580.566	14036.23
580.927	14013.63
581.287	14157.35
581.648	13964.59
582.008	14182.44
582.368	14062.89
582.728	14096.56
583.089	14042.55
583.449	14057.92
583.809	14018.37
584.169	14041.65
584.529	14039.39
584.889	14259.95
585.249	13958.94
585.609	14017.92
585.969	13975.66
586.329	14013.18
586.688	14009.11
587.048	13988.32
587.408	13940.18
587.768	14069.67
588.127	13937.92
588.487	13877.14
588.846	14015.89
589.206	13884.14
589.565	13898.15
589.925	13966.4
590.284	13925.5
590.643	13919.17
591.003	13937.47
591.362	13907.87
591.721	13922.33
592.08	13843.24
592.44	14029.9
592.799	13946.06
593.158	13856.34
593.517	13800.07
593.876	13895.67
594.235	13847.31
594.593	13808.66
594.952	13874.88
595.311	13810.47
595.67	13831.49
596.029	13913.52
596.387	13895.44
596.746	13845.5
597.104	13861.32
597.463	13716.46
597.822	13827.64
598.18	13795.56
598.538	13739.96
598.897	13845.5
599.255	13786.29
599.613	13949.45
599.972	13803.24
600.33	13768.21
600.688	13764.82
601.046	13825.16
601.404	13844.37
601.762	13811.83
602.12	13852.73
602.478	13801.66
602.836	13838.72
603.194	13845.72
603.552	13778.83
603.91	13732.28
604.268	13806.63
604.625	13818.38
604.983	13816.8
605.341	13785.84
605.698	13768.89
606.056	13886.4
606.413	13812.05
606.771	13831.71
607.128	13839.4
607.485	13855.67
607.843	13823.58
608.2	13883.91
608.557	13928.43
608.914	13902.67
609.272	13958.71
609.629	14029.45
609.986	13949.45
610.343	13834.42
610.7	13979.96
611.057	13946.06
611.414	13932.5
611.771	14043.23
612.127	14027.87
612.484	14108.32
612.841	14059.28
613.198	14061.54
613.554	14025.61
613.911	14129.33
614.267	14101.76
614.624	14130.24
614.98	14097.69
615.337	14168.88
615.693	14188.54
616.05	14099.73
616.406	14259.05
616.762	14183.12
617.118	14088.88
617.475	14095.66
617.831	14194.64
618.187	14120.29
618.543	14216.79
618.899	14275.54
619.255	14301.98
619.611	14250.46
619.967	14298.37
620.323	14298.82
620.678	14175.66
621.034	14187.41
621.39	14228.76
621.746	14184.47
622.101	14340.4
622.457	14245.71
622.812	14323.23
623.168	14257.46
623.523	14305.6
623.879	14349.67
624.234	14323
624.589	14241.87
624.945	14216.56
625.3	14197.8
625.655	14280.06
626.01	14212.27
626.365	14258.59
626.72	14182.21
627.075	14250.01
627.43	14158.03
627.785	14268.31
628.14	14283.45
628.495	14244.81
628.85	14275.09
629.205	14176.79
629.559	14225.37
629.914	14210.01
630.269	14214.98
630.623	14213.85
630.978	14160.29
631.332	14232.15
631.687	14152.16
632.041	14063.8
632.396	14203.91
632.75	14074.42
633.104	14134.3
633.459	14029.67
633.813	14076.68
634.167	14068.54
634.521	13998.04
634.875	13991.26
635.229	13958.26
635.583	13783.35
635.937	13945.83
636.291	13982.9
636.645	13906.06
636.999	13913.74
637.352	13908.32
637.706	13857.7
638.06	13845.72
638.413	13899.96
638.767	13770.47
639.121	13818.83
639.474	13738.61
639.828	13727.76
640.181	13734.09
640.534	13750.13
640.888	13768.21
641.241	13725.5
641.594	13678.72
641.947	13680.3
642.301	13643.47
642.654	13740.64
643.007	13710.81
643.36	13650.25
643.713	13651.38
644.066	13659.06
644.419	13697.03
644.771	13562.57
645.124	13391.27
645.477	13440.99
645.83	13326.87
646.182	13263.59
646.535	13219.53
646.888	13230.6
647.24	13117.83
647.593	13288
647.945	13239.19
648.298	13221.56
648.65	13057.5
649.002	13112.86
649.355	13230.82
649.707	13230.6
650.059	13262.69
650.411	13356.02
650.763	13332.29
651.115	13584.26
651.467	13502.68
651.819	13574.54
652.171	13478.73
652.523	13404.15
652.875	13528.44
653.227	13353.53
653.578	13522.57
653.93	13473.3
654.282	13445.96
654.633	13384.49
654.985	13424.94
655.337	13515.79
655.688	13468.11
656.039	13478.28
656.391	13464.04
656.742	13482.8
657.094	13429.46
657.445	13441.44
657.796	13477.82
658.147	13441.44
658.498	13424.72
658.849	13416.36
659.2	13372.97
659.551	13344.27
659.902	13457.49
660.253	13442.34
660.604	13438.28
660.955	13394.89
661.306	13499.74
661.656	13362.35
662.007	13554.21
662.358	13475.11
662.708	13528.67
663.059	13454.32
663.409	13420.2
663.76	13496.13
664.11	13472.4
664.461	13504.94
664.811	13555.34
665.161	13500.65
665.511	13532.74
665.862	13457.49
666.212	13506.52
666.562	13499.74
666.912	13536.13
667.262	13433.76
667.612	13492.51
667.962	13477.37
668.312	13483.47
668.662	13582.68
669.011	13543.13
669.361	13444.6
669.711	13473.3
670.06	13478.73
670.41	13383.14
670.76	13400.76
671.109	13499.97
671.459	13393.53
671.808	13375.45
672.157	13396.47
672.507	13365.06
672.856	13353.99
673.205	13477.37
673.554	13438.5
673.904	13393.08
674.253	13416.58
674.602	13379.52
674.951	13247.55
675.3	13097.04
675.649	13283.7
675.998	13393.98
676.346	13249.13
676.695	13339.07
677.044	13200.54
677.393	13337.94
677.741	13319.64
678.09	13227.66
678.438	13188.57
678.787	13231.28
679.135	13215.46
679.484	13128.23
679.832	13136.36
680.181	13157.15
680.529	13154.22
680.877	13008.91
681.225	13057.95
681.573	13100.88
681.922	12976.59
682.27	12991.06
682.618	13009.81
682.966	13011.62
683.314	13008.46
683.661	12947.89
684.009	12804.39
684.357	12817.5
684.705	12801.46
685.053	12836.94
685.4	12802.36
685.748	12749.48
686.095	12646.21
686.443	12658.41
686.79	12591.29
687.138	12664.29
687.485	12607.56
687.832	12532.99
688.18	12599.65
688.527	12471.52
688.874	12486.21
689.221	12471.97
689.568	12419.32
689.915	12342.26
690.262	12383.62
690.609	12344.75
690.956	12318.08
691.303	12267.69
691.65	12179.78
691.997	12182.04
692.344	12099.55
692.69	12064.75
693.037	12107.01
693.383	11911.54
693.73	12027.24
694.077	11928.49
694.423	11944.08
694.769	11888.03
695.116	11806.46
695.462	11863.18
695.808	11761.48
696.155	11808.04
696.501	11678.55
696.847	11659.11
697.193	11617.99
697.539	11608.95
697.885	11463.41
698.231	11521.49
698.577	11487.82
698.923	11457.09
699.269	11313.13
699.614	11308.62
699.96	11256.19
700.306	11281.72
700.651	11216.87
700.997	11188.84
701.342	11133.7
701.688	11070.88
702.033	11026.59
702.379	11028.4
702.724	10956.53
703.069	10965.12
703.415	10854.39
703.76	10884.9
704.105	10837.89
704.45	10862.75
704.795	10758.8
705.14	10786.59
705.485	10724.22
705.83	10674.28
706.175	10703.89
706.52	10597.67
706.865	10572.36
707.209	10639.03
707.554	10517
707.899	10609.2
708.243	10484.68
708.588	10542.08
708.932	10473.16
709.277	10433.61
709.621	10416.44
709.966	10304.35
710.31	10332.82
710.654	10265.48
710.998	10254.18
711.342	10291.47
711.687	10249.89
712.031	10223.67
712.375	10075.65
712.719	10123.79
713.063	10084.01
713.407	10103.22
713.75	10019.16
714.094	10096.44
714.438	10000.4
714.782	10015.77
715.125	9983.23
715.469	9972.38
715.812	9978.25
716.156	9872.49
716.499	9908.88
716.843	9917.47
717.186	9898.93
717.53	9899.61
717.873	9876.34
718.216	9943.23
718.559	9849.22
718.902	9810.12
719.246	9792.04
719.589	9749.56
719.932	9754.53
720.275	9744.36
720.617	9695.55
720.96	9692.84
721.303	9682.22
721.646	9721.54
721.989	9618.49
722.331	9717.47
722.674	9667.3
723.016	9639.05
723.359	9673.86
723.701	9609.22
724.044	9533.07
724.386	9570.13
724.729	9592.73
725.071	9554.76
725.413	9569
725.755	9510.7
726.097	9521.32
726.439	9503.24
726.782	9552.5
727.124	9578.27
727.465	9526.97
727.807	9524.03
728.149	9450.81
728.491	9490.58
728.833	9448.1
729.175	9367.65
729.516	9463.92
729.858	9469.57
730.199	9481.77
730.541	9446.29
730.882	9464.37
731.224	9452.17
731.565	9427.31
731.906	9419.63
732.248	9436.8
732.589	9357.93
732.93	9372.17
733.271	9399.74
733.612	9386.86
733.953	9368.1
734.294	9413.3
734.635	9370.59
734.976	9412.85
735.317	9386.41
735.658	9356.12
735.999	9348.67
736.339	9418.5
736.68	9420.3
737.021	9296.01
737.361	9375.78
737.702	9435.9
738.042	9364.26
738.383	9368.55
738.723	9440.87
739.063	9371.04
739.404	9423.92
739.744	9479.96
740.084	9424.6
740.424	9401.32
740.764	9486.74
741.104	9488.1
741.444	9481.32
741.784	9447.87
742.124	9519.74
742.464	9459.17
742.804	9516.35
743.143	9512.96
743.483	9622.33
743.823	9550.02
744.162	9592.05
744.502	9658.71
744.841	9646.51
745.181	9703.01
745.52	9716.79
745.86	9817.58
746.199	9777.36
746.538	9779.62
746.877	9928.09
747.216	9956.56
747.556	9915.43
747.895	10023.68
748.234	10007.41
748.573	10036.56
748.911	10170.11
749.25	10241.07
749.589	10217.57
749.928	10362.65
750.267	10398.58
750.605	10476.09
750.944	10554.28
751.283	10616.43
751.621	10674.96
751.96	10780.95
752.298	10853.71
752.636	10940.49
752.975	11068.4
753.313	11091.45
753.651	11141.16
753.989	11325.34
754.327	11424.09
754.666	11501.38
755.004	11661.83
755.342	11707.47
755.679	11990.86
756.017	11954.02
756.355	12153.79
756.693	12180.46
757.031	12416.16
757.368	12504.52
757.706	12639.88
758.044	12729.59
758.381	12942.92
758.719	13050.94
759.056	13278.28
759.394	13391.05
759.731	13477.15
760.068	13669.46
760.405	13759.17
760.743	13959.39
761.08	14118.94
761.417	14167.52
761.754	14354.41
762.091	14513.5
762.428	14663.33
762.765	14814.96
763.102	15042.75
763.438	15111.68
763.775	15272.13
764.112	15433.03
764.449	15593.02
764.785	15774.94
765.122	15795.95
765.458	15986.23
765.795	16077.3
766.131	16264.64
766.467	16391.87
766.804	16424.19
767.14	16636.84
767.476	16678.19
767.812	16885.64
768.148	17118.18
768.485	17070.5
768.821	17127.45
769.157	17250.61
769.492	17446.31
769.828	17598.17
770.164	17616.7
770.5	17665.96
770.836	17812.85
771.171	17796.81
771.507	17963.58
771.842	17909.57
772.178	18064.82
772.513	18227.3
772.849	18225.95
773.184	18262.1
773.519	18371.03
773.855	18377.13
774.19	18482.44
774.525	18468.88
774.86	18570.57
775.195	18672.04
775.53	18672.04
775.865	18640.4
776.2	18658.48
776.535	18644.02
776.87	18741.41
777.205	18695.77
777.539	18721.75
777.874	18803.56
778.209	18640.85
778.543	18731.02
778.878	18786.61
779.212	18850.56
779.547	18863.22
779.881	18933.95
780.215	18878.59
780.55	18994.06
780.884	18899.38
781.218	18960.17
781.552	18880.17
781.886	18885.14
782.22	18902.99
782.554	18771.24
782.888	18801.53
783.222	18803.79
783.556	18744.8
783.889	18761.07
784.223	18703.9
784.557	18740.51
784.89	18688.31
785.224	18660.96
785.557	18562.89
785.891	18560.63
786.224	18566.05
786.558	18647.63
786.891	18512.27
787.224	18473.17
787.557	18398.6
787.891	18419.16
788.224	18420.97
788.557	18469.78
788.89	18375.1
789.223	18408.32
789.556	18362.21
789.888	18267.53
790.221	18358.37
790.554	18194.54
790.887	18182.78
791.219	18157.47
791.552	18100.3
791.884	18067.99
792.217	18040.19
792.549	18137.36
792.882	17891.49
793.214	17756.13
793.546	17985.95
793.879	17779.18
794.211	17706.64
794.543	17829.35
794.875	17717.94
795.207	17842.68
795.539	17686.07
795.871	17733.98
796.203	17527.43
796.535	17581.9
796.867	17561.11
797.198	17485.18
797.53	17432.97
797.862	17444.5
798.193	17440.66
798.525	17274.79
798.856	17389.13
799.188	17164.73
799.519	17153.21
799.85	17106.88
800.182	17070.5
800.513	17114.79
800.844	16949.6
801.175	16991.4
801.506	16950.27
801.837	16879.32
802.168	16837.28
802.499	16825.31
802.83	16769.71
803.161	16689.94
803.491	16728.36
803.822	16654.24
804.153	16525.43
804.483	16499.67
804.814	16482.94
805.145	16433.45
805.475	16462.6
805.805	16402.72
806.136	16388.48
806.466	16349.16
806.796	16370.18
807.126	16227.58
807.457	16276.85
807.787	16219.22
808.117	16064.2
808.447	15996.4
808.777	16139.67
809.107	15997.08
809.436	16009.06
809.766	15928.38
810.096	15910.75
810.426	15826.01
810.755	15936.97
811.085	15861.94
811.414	15850.87
811.744	15788.5
812.073	15687.26
812.403	15772.9
812.732	15562.51
813.061	15677.99
813.39	15486.81
813.719	15544.89
814.049	15621.27
814.378	15512.8
814.707	15464.89
815.036	15445
815.365	15381.95
815.693	15246.82
816.022	15336.53
816.351	15291.56
816.68	15137.67
817.008	15257.21
817.337	15118.23
817.665	15042.3
817.994	15094.73
818.322	15000.72
818.651	15044.56
818.979	14937.67
819.307	15132.47
819.636	14995.98
819.964	14913.94
820.292	14980.16
820.62	14979.93
820.948	14941.97
821.276	14847.73
821.604	14904.68
821.932	14897.22
822.259	14943.77
822.587	14907.39
822.915	14848.18
823.243	14911.23
823.57	14827.17
823.898	14874.4
824.225	14722.99
824.553	14719.82
824.88	14830.33
825.207	14893.83
825.535	14823.55
825.862	14937.45
826.189	14845.47
826.516	14953.49
826.843	14884.34
827.17	14929.99
827.497	14871.91
827.824	14955.3
828.151	14937.9
828.478	14928.86
828.805	14941.74
829.131	14826.26
829.458	14784.46
829.785	14853.38
830.111	14852.25
830.438	14830.78
830.764	14893.38
831.09	14942.87
831.417	14874.4
831.743	14904.68
832.069	14889.31
832.395	14824
832.722	14845.92
833.048	14717.79
833.374	14799.6
833.7	14743.78
834.026	14716.66
834.351	14739.49
834.677	14660.62
835.003	14760.73
835.329	14623.56
835.654	14675.76
835.98	14586.27
836.306	14778.81
836.631	14663.78
836.956	14563.44
837.282	14609.55
837.607	14516.89
837.932	14503.79
838.258	14532.26
838.583	14530.45
838.908	14379.27
839.233	14527.29
839.558	14454.52
839.883	14307.41
840.208	14265.6
840.533	14343.11
840.858	14333.17
841.182	14362.77
841.507	14359.38
841.832	14224.24
842.156	14183.79
842.481	14219.95
842.805	14158.94
843.13	14147.86
843.454	14091.59
843.778	14110.12
844.103	14022.89
844.427	13978.6
844.751	13968.43
845.075	13945.83
845.399	13902.45
845.723	13852.28
846.047	13794.65
846.371	13760.53
846.695	13742.9
847.019	13655.22
847.343	13652.96
847.666	13476.02
847.99	13409.8
848.313	13465.85
848.637	13328.9
848.96	13330.71
849.284	13283.7
849.607	13214.78
849.931	13231.5
850.254	13161
850.577	13073.54
850.9	12997.16
851.223	12888.01
851.546	12926.65
851.869	12787.22
852.192	12842.81
852.515	12797.16
852.838	12737.73
853.161	12618.64
853.483	12578.64
853.806	12632.42
854.129	12595.59
854.451	12523.05
854.774	12518.3
855.096	12451.64
855.419	12418.64
855.741	12378.19
856.063	12362.15
856.385	12280.79
856.708	12205.09
857.03	12199.67
857.352	12181.59
857.674	12155.37
857.996	12078.09
858.318	11995.6
858.64	12067.01
858.961	11973.68
859.283	11959.9
859.605	11890.07
859.926	11912.22
860.248	11894.36
860.57	11788.83
860.891	11851.88
861.212	11782.27
861.534	11739.34
861.855	11701.15
862.176	11698.89
862.498	11639.45
862.819	11623.18
863.14	11602.84
863.461	11551.32
863.782	11509.29
864.103	11500.47
864.424	11535.28
864.745	11530.08
865.065	11431.1
865.386	11421.83
865.707	11438.1
866.027	11397.65
866.348	11314.49
866.668	11389.74
866.989	11395.39
867.309	11315.39
867.63	11279.69
867.95	11345.45
868.27	11213.7
868.59	11217.09
868.91	11209.86
869.23	11254.15
869.55	11135.06
869.87	11212.12
870.19	11158.79
870.51	11201.05
870.83	11151.33
871.15	11147.49
871.469	11076.53
871.789	11075.4
872.109	11035.4
872.428	11040.15
872.748	11096.42
873.067	11045.12
873.386	11010.54
873.706	10967.83
874.025	10927.16
874.344	10903.2
874.663	10935.97
874.982	10927.38
875.301	10867.5
875.62	10842.86
875.939	10852.58
876.258	10898.46
876.577	10794.96
876.896	10789.31
877.214	10712.47
877.533	10727.39
877.852	10642.19
878.17	10739.14
878.489	10779.59
878.807	10768.97
879.125	10699.37
879.444	10670.21
879.762	10605.13
880.08	10611.46
880.398	10615.07
880.716	10587.5
881.034	10598.58
881.352	10503.44
881.67	10528.75
881.988	10529.2
882.306	10413.27
882.624	10420.95
882.941	10348.87
883.259	10362.88
883.577	10366.27
883.894	10291.69
884.212	10353.84
884.529	10292.82
884.846	10299.6
885.164	10317.45
885.481	10170.79
885.798	10232.26
886.115	10136.67
886.432	10196.33
886.75	10070.91
887.067	10115.2
887.383	10049.89
887.7	10095.09
888.017	10032.49
888.334	10034.98
888.651	10089.66
888.967	9946.17
889.284	9830.01
889.6	9881.53
889.917	9812.16
890.233	9917.69
890.55	9795.43
890.866	9774.42
891.182	9711.37
891.498	9724.25
891.815	9681.31
892.131	9558.83
892.447	9646.74
892.763	9505.72
893.079	9579.85
893.395	9541.66
893.71	9516.12
894.026	9502.79
894.342	9478.61
894.657	9406.52
894.973	9433.41
895.289	9453.3
895.604	9365.16
895.92	9287.88
896.235	9270.02
896.55	9229.8
896.865	9235.22
897.181	9187.09
897.496	9209.46
897.811	9148.45
898.126	9073.42
898.441	9071.16
898.756	9030.26
899.071	8962.69
899.386	9040.43
899.7	8885.85
900.015	8871.84
900.33	8874.1
900.644	8797.95
900.959	8827.55
901.273	8700.1
901.588	8719.53
901.902	8672.98
902.216	8697.61
902.531	8681.11
902.845	8613.54
903.159	8581.68
903.473	8484.51
903.787	8521.12
904.101	8515.69
904.415	8508.69
904.729	8445.41
905.042	8427.11
905.356	8329.71
905.67	8355.25
905.984	8357.28
906.297	8281.35
906.611	8194.8
906.924	8207.68
907.237	8139.43
907.551	8197.06
907.864	8120.9
908.177	8052.66
908.491	8039.77
908.804	8032.77
909.117	7981.47
909.43	7920.68
909.743	7871.64
910.056	7841.81
910.368	7827.58
910.681	7806.56
910.994	7759.33
911.307	7788.48
911.619	7766.34
911.932	7834.36
912.244	7672.1
912.557	7645.21
912.869	7548.04
913.181	7511.2
913.494	7493.57
913.806	7488.6
914.118	7460.58
914.43	7474.59
914.742	7343.52
915.054	7354.82
915.366	7357.53
915.678	7326.8
915.99	7298.1
916.302	7233.47
916.613	7234.82
916.925	7178.55
917.236	7108.95
917.548	7117.99
917.859	7152.57
918.171	7057.65
918.482	7007.26
918.794	7032.57
919.105	6984.43
919.416	6944.44
919.727	6913.48
920.038	6872.12
920.349	6817.66
920.66	6795.06
920.971	6772.69
921.282	6773.59
921.593	6753.71
921.903	6735.63
922.214	6709.41
922.525	6668.74
922.835	6643.2
923.146	6633.71
923.456	6528.85
923.767	6554.62
924.077	6523.43
924.387	6559.14
924.697	6451.57
925.008	6410.44
925.318	6444.11
925.628	6458.35
925.938	6388.97
926.248	6379.93
926.558	6355.3
926.867	6284.34
927.177	6208.86
927.487	6225.36
927.796	6206.38
928.106	6219.71
928.416	6184.46
928.725	6147.17
929.034	6104.23
929.344	6104.68
929.653	6075.98
929.962	6072.82
930.271	5979.26
930.581	5937.91
930.89	5972.71
931.199	5941.98
931.508	5901.3
931.817	5928.42
932.125	5930.45
932.434	5866.05
932.743	5789.44
933.051	5779.72
933.36	5774.75
933.669	5680.51
933.977	5718.48
934.286	5684.58
934.594	5680.97
934.902	5632.83
935.21	5659.72
935.519	5651.36
935.827	5585.15
936.135	5597.35
936.443	5530.01
936.751	5519.61
937.059	5499.73
937.367	5480.29
937.674	5496.56
937.982	5446.85
938.29	5426.28
938.597	5394.65
938.905	5335.21
939.213	5297.02
939.52	5264.71
939.827	5309.45
940.135	5260.86
940.442	5282.11
940.749	5247.08
941.056	5181.54
941.363	5160.53
941.67	5105.61
941.977	5085.05
942.284	5066.29
942.591	5072.17
942.898	5076.46
943.205	5023.36
943.511	4988.78
943.818	5007.31
944.125	4989.23
944.431	4929.12
944.738	4946.3
945.044	4906.75
945.35	4905.85
945.657	4860.88
945.963	4866.75
946.269	4820.88
946.575	4793.53
946.881	4807.54
947.187	4791.95
947.493	4738.39
947.799	4755.34
948.105	4719.41
948.41	4660.65
948.716	4651.84
949.022	4632.41
949.327	4661.56
949.633	4586.08
949.938	4628.11
950.244	4610.26
950.549	4513.77
950.854	4521.67
951.16	4486.2
951.465	4487.1
951.77	4444.84
952.075	4426.76
952.38	4443.26
952.685	4416.82
952.99	4378.18
953.294	4359.65
953.599	4342.47
953.904	4315.8
954.209	4290.04
954.513	4304.28
954.818	4298.86
955.122	4254.34
955.426	4200.1
955.731	4240.55
956.035	4190.61
956.339	4203.94
956.643	4180.89
956.948	4121.69
957.252	4168.01
957.556	4122.59
957.86	4123.49
958.163	4114.68
958.467	4111.52
958.771	4058.86
959.075	4041.01
959.378	3977.73
959.682	4009.6
959.985	3965.53
960.289	3989.71
960.592	3946.55
960.896	3969.15
961.199	3895.7
961.502	3924.18
961.805	3871.97
962.108	3836.04
962.411	3873.78
962.714	3758.08
963.017	3817.06
963.32	3812.32
963.623	3777.29
963.926	3783.62
964.228	3744.07
964.531	3722.37
964.833	3717.85
965.136	3677.86
965.438	3719.21
965.741	3636.5
966.043	3653.22
966.345	3625.2
966.648	3570.06
966.95	3577.07
967.252	3561.25
967.554	3577.74
967.856	3537.97
968.158	3536.39
968.46	3511.31
968.761	3482.83
969.063	3480.35
969.365	3445.32
969.666	3488.26
969.968	3462.49
970.269	3420.23
970.571	3404.19
970.872	3415.49
971.174	3413.46
971.475	3354.7
971.776	3360.58
972.077	3338.2
972.378	3326.9
972.679	3378.2
972.98	3297.53
973.281	3264.53
973.582	3262.5
973.883	3243.97
974.183	3230.64
974.484	3229.05
974.785	3201.26
975.085	3192.22
975.386	3221.14
975.686	3202.16
975.986	3165.1
976.287	3130.3
976.587	3126.46
976.887	3125.55
977.187	3109.06
977.487	3100.47
977.787	3077.42
978.087	3054.59
978.387	3074.03
978.687	3051.88
978.987	3009.4
979.286	3026.35
979.586	3032.22
979.885	2967.14
980.185	2978.89
980.484	2947.48
980.784	2920.59
981.083	2956.74
981.382	2911.77
981.682	2902.51
981.981	2887.82
982.28	2882.62
982.579	2841.04
982.878	2890.76
983.177	2855.28
983.475	2832.68
983.774	2837.88
984.073	2853.02
984.372	2812.79
984.67	2785.22
984.969	2772.12
985.267	2755.39
985.566	2751.55
985.864	2709.75
986.162	2713.81
986.461	2704.77
986.759	2694.6
987.057	2676.3
987.355	2662.97
987.653	2650.31
987.951	2652.12
988.249	2647.15
988.547	2616.64
988.844	2650.09
989.142	2584.78
989.44	2594.49
989.737	2583.19
990.035	2559.24
990.332	2548.62
990.63	2522.86
990.927	2532.35
991.224	2498.23
991.521	2478.11
991.819	2496.19
992.116	2495.06
992.413	2474.95
992.71	2406.25
993.006	2459.81
993.303	2436.76
993.6	2397.21
993.897	2377.55
994.193	2420.26
994.49	2391.11
994.787	2359.25
995.083	2359.47
995.379	2381.17
995.676	2373.71
995.972	2305.91
996.268	2308.63
996.565	2321.96
996.861	2287.16
997.157	2294.39
997.453	2250.55
997.749	2252.81
998.044	2225.92
998.34	2221.4
998.636	2209.65
998.932	2203.32
999.227	2194.28
999.523	2161.74
999.818	2159.25
1000.114	2178.46
1000.409	2173.49
1000.704	2147.5
1001	2138.01
1001.295	2119.93
1001.59	2142.98
1001.885	2132.36
1002.18	2073.15
1002.475	2090.55
1002.77	2076.54
1003.065	2042.19
1003.359	2053.49
1003.654	2067.05
1003.949	2019.82
1004.243	1999.48
1004.538	1998.35
1004.832	1986.15
1005.127	1998.8
1005.421	1983.66
1005.715	1961.06
1006.009	1956.09
1006.304	1949.99
1006.598	1923.1
1006.892	1930.78
1007.186	1923.55
1007.48	1881.74
1007.773	1895.76
1008.067	1857.56
1008.361	1853.72
1008.655	1857.79
1008.948	1832.71
1009.242	1816.21
1009.535	1818.47
1009.829	1802.88
1010.122	1799.71
1010.415	1785.02
1010.708	1774.18
1011.001	1750
1011.295	1751.13
1011.588	1769.2
1011.881	1737.57
1012.173	1730.79
1012.466	1719.94
1012.759	1695.08
1013.052	1708.87
1013.344	1696.21
1013.637	1683.33
1013.93	1676.55
1014.222	1654.86
1014.514	1640.62
1014.807	1615.76
1015.099	1626.16
1015.391	1618.47
1015.683	1580.06
1015.976	1595.42
1016.268	1590.45
1016.56	1567.18
1016.851	1583.22
1017.143	1573.5
1017.435	1553.84
1017.727	1554.75
1018.018	1517.69
1018.31	1519.72
1018.602	1510.45
1018.893	1494.64
1019.185	1495.99
1019.476	1442.43
1019.767	1457.8
1020.058	1477.91
1020.35	1466.39
1020.641	1439.27
1020.932	1422.1
1021.223	1423.45
1021.514	1439.72
1021.804	1414.19
1022.095	1419.61
1022.386	1371.7
1022.677	1366.73
1022.967	1343
1023.258	1363.11
1023.548	1352.49
1023.839	1339.39
1024.129	1339.16
1024.419	1335.77
1024.709	1327.18
1025	1310.69
1025.29	1298.93
1025.58	1297.35
1025.87	1271.59
1026.16	1276.56
1026.449	1271.36
1026.739	1232.5
1027.029	1263.68
1027.319	1220.52
1027.608	1249.22
1027.898	1214.87
1028.187	1235.43
1028.477	1207.41
1028.766	1208.77
1029.055	1225.72
1029.344	1203.8
1029.634	1170.58
1029.923	1183.91
1030.212	1161.99
1030.501	1168.77
1030.79	1150.24
1031.078	1124.48
1031.367	1142.55
1031.656	1132.84
1031.945	1103.23
1032.233	1103.01
1032.522	1121.99
1032.81	1105.72
1033.099	1060.97
1033.387	1086.28
1033.675	1080.41
1033.963	1055.78
1034.251	1075.21
1034.54	1070.69
1034.828	1049.22
1035.116	1054.2
1035.403	1027.98
1035.691	1001.99
1035.979	1038.83
1036.267	1027.08
1036.554	1007.19
1036.842	1002.45
1037.129	996.34
1037.417	1008.77
1037.704	978.04
1037.992	975.1
1038.279	963.58
1038.566	947.08
1038.853	947.08
1039.14	947.08
