Data from hue_250_FLMS001491_00009.txt Node
Date: Tue Feb 07 16:00:28 GMT 2017
User: dcchb
Spectrometer: FLMS00149
Trigger mode: 0
Integration Time (sec): 2.000000E-2
Scans to average: 10
Electric dark correction enabled: true
Nonlinearity correction enabled: false
Boxcar width: 0
XAxis mode: Wavelengths
Number of Pixels in Spectrum: 2048
>>>>>Begin Spectral Data<<<<<
341.393	5.9
341.776	5.9
342.16	5.9
342.543	-73.87
342.927	-70.03
343.31	-75.9
343.693	-66.86
344.077	-61.44
344.46	-64.83
344.843	-51.5
345.226	-41.1
345.61	-46.98
345.993	-10.14
346.376	-0.65
346.759	16.52
347.142	32.57
347.525	30.54
347.908	52.91
348.291	83.42
348.674	95.62
349.057	107.82
349.44	123.41
349.823	117.99
350.206	170.19
350.588	175.62
350.971	193.02
351.354	208.61
351.737	234.82
352.119	235.05
352.502	261.49
352.884	260.36
353.267	279.57
353.65	286.8
354.032	294.26
354.414	287.48
354.797	301.49
355.179	319.57
355.562	298.78
355.944	330.19
356.326	308.72
356.709	318.21
357.091	344.2
357.473	333.58
357.855	330.87
358.238	351.21
358.62	333.35
359.002	330.87
359.384	322.05
359.766	323.41
360.148	315.27
360.53	330.19
360.912	296.74
361.294	318.21
361.676	316.4
362.057	318.44
362.439	342.84
362.821	327.7
363.203	323.18
363.584	309.85
363.966	328.83
364.348	331.32
364.729	303.52
365.111	289.06
365.493	315.27
365.874	313.01
366.256	320.25
366.637	299.23
367.019	302.39
367.4	302.17
367.781	304.65
368.163	291.32
368.544	312.34
368.925	303.98
369.306	299.91
369.688	296.97
370.069	313.24
370.45	304.43
370.831	329.51
371.212	308.49
371.593	308.72
371.974	304.43
372.355	292.9
372.736	325.22
373.117	304.88
373.498	303.52
373.879	301.04
374.26	308.49
374.641	315.73
375.021	307.36
375.402	325.9
375.783	323.41
376.163	315.27
376.544	316.4
376.925	315.95
377.305	304.2
377.686	317.08
378.066	328.38
378.447	310.53
378.827	322.51
379.208	333.8
379.588	325.9
379.968	332.22
380.349	315.05
380.729	324.99
381.109	321.38
381.489	315.73
381.87	339.45
382.25	333.13
382.63	322.96
383.01	341.04
383.39	356.86
383.77	340.36
384.15	351.88
384.53	326.35
384.91	340.58
385.29	341.26
385.67	352.11
386.049	343.52
386.429	344.43
386.809	334.26
387.189	349.62
387.568	348.72
387.948	341.49
388.328	354.82
388.707	348.04
389.087	350.53
389.466	355.05
389.846	342.62
390.225	352.79
390.605	355.95
390.984	356.4
391.363	371.54
391.743	373.35
392.122	368.38
392.501	356.4
392.881	366.12
393.26	357.98
393.639	373.8
394.018	388.94
394.397	376.06
394.776	372.22
395.155	379.23
395.534	383.3
395.913	353.01
396.292	387.59
396.671	372.9
397.05	381.49
397.429	381.71
397.808	380.58
398.186	390.75
398.565	390.3
398.944	393.92
399.323	386.01
399.701	382.39
400.08	401.83
400.458	412.22
400.837	405.89
401.215	414.25
401.594	407.48
401.972	411.77
402.351	394.14
402.729	420.58
403.107	408.15
403.486	417.64
403.864	415.61
404.242	419
404.62	417.64
404.999	422.39
405.377	426.01
405.755	445.89
406.133	446.34
406.511	432.11
406.889	458.55
407.267	426.68
407.645	454.71
408.023	467.36
408.401	447.02
408.779	480.69
409.156	474.37
409.534	485.44
409.912	472.33
410.29	486.12
410.667	498.09
411.045	498.77
411.422	512.78
411.8	506
412.178	523.63
412.555	533.12
412.933	524.08
413.31	554.82
413.687	549.17
414.065	561.37
414.442	546.68
414.819	579
415.197	550.3
415.574	558.66
415.951	587.36
416.328	569.96
416.705	603.63
417.082	587.13
417.46	617.87
417.837	598.66
418.214	605.21
418.591	619.9
418.967	642.05
419.344	611.54
419.721	631.2
420.098	632.78
420.475	661.03
420.852	638.88
421.228	648.37
421.605	673.23
421.982	687.92
422.358	683.4
422.735	704.87
423.111	697.64
423.488	724.98
423.864	721.37
424.241	736.73
424.617	759.33
424.994	716.85
425.37	742.61
425.746	768.14
426.123	762.27
426.499	790.74
426.875	772.89
427.251	799.33
427.627	842.27
428.003	841.36
428.379	842.04
428.756	861.93
429.132	836.84
429.507	846.11
429.883	865.77
430.259	885.43
430.635	874.13
431.011	879.33
431.387	921.13
431.763	922.26
432.138	924.75
432.514	943.73
432.89	967.46
433.265	934.01
433.641	980.57
434.016	996.61
434.392	1025.54
434.767	1040
435.143	1050.4
435.518	1049.27
435.894	1060.57
436.269	1081.58
436.644	1108.7
437.02	1104.63
437.395	1103.05
437.77	1101.24
438.145	1171.52
438.52	1201.8
438.895	1194.35
439.271	1166.33
439.646	1188.92
440.021	1223.5
440.395	1253.33
440.77	1237.28
441.145	1286.1
441.52	1280.45
441.895	1291.75
442.27	1302.14
442.645	1318.86
443.019	1318.86
443.394	1310.95
443.769	1322.03
444.143	1355.02
444.518	1367.45
444.892	1352.31
445.267	1386.66
445.641	1402.93
446.016	1415.58
446.39	1395.92
446.764	1407
447.139	1401.8
447.513	1421.91
447.887	1432.31
448.262	1471.63
448.636	1458.07
449.01	1491.74
449.384	1523.15
449.758	1491.29
450.132	1534.45
450.506	1534.45
450.88	1536.49
451.254	1529.25
451.628	1532.64
452.002	1578.52
452.376	1574.9
452.75	1630.95
453.123	1610.16
453.497	1634.56
453.871	1630.72
454.244	1682.02
454.618	1694
454.992	1673.43
455.365	1708.91
455.739	1745.97
456.112	1757.04
456.486	1772.64
456.859	1780.09
457.232	1797.04
457.606	1790.94
457.979	1840.43
458.352	1850.83
458.725	1864.16
459.099	1902.58
459.472	1914.55
459.845	1971.28
460.218	1910.71
460.591	1973.08
460.964	1952.07
461.337	2016.92
461.71	2011.05
462.083	2037.49
462.456	2020.99
462.829	2042.91
463.201	2093.08
463.574	2082.69
463.947	2137.15
464.32	2161.55
464.692	2206.75
465.065	2223.25
465.438	2238.61
465.81	2253.53
466.183	2250.36
466.555	2315.67
466.928	2330.59
467.3	2329.46
467.672	2354.99
468.045	2445.84
468.417	2411.94
468.789	2439.29
469.161	2461.43
469.534	2462.56
469.906	2503.24
470.278	2529
470.65	2591.37
471.022	2618.72
471.394	2677.7
471.766	2691.03
472.138	2691.93
472.51	2757.47
472.882	2743.91
473.253	2839.28
473.625	2857.81
473.997	2895.32
474.369	2936.22
474.74	2959.95
475.112	2978.48
475.484	3010.34
475.855	3066.39
476.227	3091.7
476.598	3164.24
476.97	3184.13
477.341	3229.77
477.713	3278.81
478.084	3329.66
478.455	3404.23
478.827	3420.28
479.198	3517.22
479.569	3553.16
479.94	3539.82
480.311	3644
480.682	3677.22
481.053	3753.38
481.424	3840.61
481.795	3823.88
482.166	3855.52
482.537	3858.01
482.908	3982.52
483.279	4020.49
483.65	4074.72
484.021	4156.76
484.391	4158.56
484.762	4207.38
485.133	4237.66
485.503	4289.63
485.874	4359.69
486.244	4401.49
486.615	4448.05
486.985	4469.29
487.356	4572.79
487.726	4596.07
488.097	4670.19
488.467	4688.27
488.837	4738.43
489.207	4836.51
489.578	4886
489.948	4878.54
490.318	4971.42
490.688	4946.79
491.058	5039.22
491.428	5078.99
491.798	5103.62
492.168	5151.98
492.538	5240.12
492.908	5260
493.278	5351.98
493.648	5327.57
494.017	5394.01
494.387	5454.8
494.757	5467
495.126	5509.04
495.496	5506.1
495.866	5528.47
496.235	5625.19
496.605	5668.58
496.974	5677.39
497.344	5685.08
497.713	5728.69
498.082	5759.65
498.452	5773.44
498.821	5815.92
499.19	5839.42
499.559	5803.04
499.928	5896.14
500.298	5932.98
500.667	6008.01
501.036	5974.79
501.405	5980.89
501.774	5998.06
502.143	6036.03
502.512	6069.93
502.88	6080.77
503.249	6076.7
503.618	6168.45
503.987	6175.46
504.356	6162.35
504.724	6247.1
505.093	6221.33
505.462	6198.28
505.83	6203.03
506.199	6346.3
506.567	6368.22
506.936	6312.4
507.304	6386.75
507.672	6458.16
508.041	6421.1
508.409	6458.39
508.777	6475.34
509.145	6525.28
509.514	6494.09
509.882	6518.05
510.25	6469.91
510.618	6581.32
510.986	6605.28
511.354	6570.48
511.722	6660.42
512.09	6669.23
512.458	6602.34
512.826	6681.21
513.193	6727.08
513.561	6723.92
513.929	6779.06
514.297	6799.4
514.664	6768.44
515.032	6806.85
515.4	6801.66
515.767	6812.73
516.135	6853.18
516.502	6733.86
516.869	6865.16
517.237	6899.28
517.604	6852.5
517.972	6941.31
518.339	6949
518.706	6942.9
519.073	6930.69
519.44	6916
519.808	7011.6
520.175	6990.13
520.542	7030.35
520.909	7042.78
521.276	7000.75
521.643	7036
522.009	7101.31
522.376	7094.76
522.743	7085.04
523.11	7140.18
523.477	7142.67
523.843	7207.3
524.21	7202.55
524.577	7266.05
524.943	7216.34
525.31	7278.25
525.676	7294.3
526.043	7333.62
526.409	7320.74
526.776	7354.64
527.142	7410
527.508	7330.23
527.874	7398.48
528.241	7454.75
528.607	7408.87
528.973	7459.04
529.339	7486.84
529.705	7513.5
530.071	7556.89
530.437	7446.84
530.803	7554.63
531.169	7515.08
531.535	7471.24
531.901	7527.51
532.267	7548.08
532.632	7500.62
532.998	7518.7
533.364	7515.76
533.73	7523.45
534.095	7543.78
534.461	7582.88
534.826	7549.21
535.192	7492.03
535.557	7569.77
535.923	7540.39
536.288	7530.9
536.653	7538.59
537.019	7474.41
537.384	7487.97
537.749	7541.52
538.114	7559.6
538.479	7468.31
538.845	7529.1
539.21	7525.71
539.575	7574.29
539.94	7511.92
540.305	7528.19
540.67	7520.51
541.034	7540.17
541.399	7532.94
541.764	7523.45
542.129	7502.2
542.494	7471.02
542.858	7518.25
543.223	7516.21
543.587	7569.77
543.952	7410.91
544.316	7492.94
544.681	7460.4
545.045	7411.58
545.41	7453.17
545.774	7425.82
546.138	7437.57
546.503	7449.32
546.867	7498.59
547.231	7470.79
547.595	7474.63
547.959	7432.38
548.324	7478.25
548.688	7444.58
549.052	7426.27
549.416	7426.27
549.779	7413.17
550.143	7324.81
550.507	7382.66
550.871	7415.43
551.235	7387.63
551.599	7483.22
551.962	7386.05
552.326	7350.8
552.689	7405.71
553.053	7378.37
553.417	7365.48
553.78	7452.94
554.143	7416.33
554.507	7390.12
554.87	7364.13
555.234	7461.53
555.597	7366.39
555.96	7405.48
556.323	7432.6
556.686	7395.54
557.05	7431.25
557.413	7404.35
557.776	7424.92
558.139	7457.46
558.502	7412.71
558.865	7431.02
559.228	7450.91
559.59	7496.33
559.953	7445.03
560.316	7493.62
560.679	7492.71
561.041	7543.56
561.404	7556.89
561.767	7619.71
562.129	7601.86
562.492	7625.59
562.854	7599.38
563.217	7607.29
563.579	7670.79
563.941	7630.56
564.304	7741.52
564.666	7689.77
565.028	7763.21
565.39	7682.09
565.753	7750.56
566.115	7724.8
566.477	7760.73
566.839	7754.85
567.201	7853.38
567.563	7812.93
567.925	7836.43
568.287	7916.2
568.648	7806.15
569.01	7916.88
569.372	7974.28
569.734	7969.31
570.095	7953.94
570.457	7965.24
570.819	7986.03
571.18	7953.04
571.542	7999.59
571.903	8023.09
572.265	8003.21
572.626	8082.75
572.987	8120.04
573.349	8082.98
573.71	8126.82
574.071	8157.33
574.432	8121.17
574.794	8238
575.155	8187.38
575.516	8201.85
575.877	8227.61
576.238	8249.08
576.599	8282.07
576.96	8326.81
577.32	8290.88
577.681	8282.97
578.042	8281.62
578.403	8297.89
578.763	8345.8
579.124	8383.31
579.485	8369.3
579.845	8420.82
580.206	8381.05
580.566	8414.04
580.927	8422.86
581.287	8476.64
581.648	8426.93
582.008	8523.19
582.368	8492.91
582.728	8502.18
583.089	8520.93
583.449	8510.54
583.809	8590.76
584.169	8586.92
584.529	8608.16
584.889	8626.69
585.249	8603.64
585.609	8578.56
585.969	8661.72
586.329	8582.4
586.688	8638.67
587.048	8712.34
587.408	8649.52
587.768	8676.64
588.127	8745.79
588.487	8649.97
588.846	8701.72
589.206	8717.09
589.565	8751.44
589.925	8819.91
590.284	8742.17
590.643	8769.06
591.003	8819.91
591.362	8832.11
591.721	8840.7
592.08	8805.45
592.44	8771.55
592.799	8839.57
593.158	8827.59
593.517	8890.19
593.876	8934.93
594.235	8798.67
594.593	8842.51
594.952	8816.29
595.311	8856.29
595.67	8883.18
596.029	8943.3
596.387	8973.58
596.746	8895.61
597.104	8983.29
597.463	8940.36
597.822	8971.09
598.18	8933.13
598.538	8947.36
598.897	8969.51
599.255	8903.52
599.613	8953.92
599.972	8921.6
600.33	8987.14
600.688	8951.66
601.046	8940.58
601.404	9075.04
601.762	9012.9
602.12	9069.85
602.478	9110.75
602.836	9056.51
603.194	9001.37
603.552	9041.82
603.91	8972.22
604.268	9068.26
604.625	9060.58
604.983	9022.16
605.341	9094.48
605.698	9070.3
606.056	9099.68
606.413	9078.66
606.771	9181.26
607.128	9182.16
607.485	9044.31
607.843	9067.13
608.2	9132.22
608.557	9083.41
608.914	9113.69
609.272	9125.66
609.629	9187.58
609.986	9229.39
610.343	9198.2
610.7	9192.1
611.057	9226.45
611.414	9196.62
611.771	9218.32
612.127	9282.27
612.484	9283.85
612.841	9286.11
613.198	9229.84
613.554	9258.54
613.911	9272.1
614.267	9284.98
614.624	9277.98
614.98	9249.95
615.337	9312.55
615.693	9288.82
616.05	9286.11
616.406	9323.62
616.762	9388.03
617.118	9290.18
617.475	9322.27
617.831	9349.61
618.187	9418.99
618.543	9426.9
618.899	9457.41
619.255	9377.86
619.611	9335.6
619.967	9397.3
620.323	9435.94
620.678	9417.86
621.034	9350.97
621.39	9367.24
621.746	9416.5
622.101	9468.48
622.457	9405.66
622.812	9372.21
623.168	9433.68
623.523	9444.98
623.879	9417.41
624.234	9346.22
624.589	9461.47
624.945	9524.98
625.3	9405.2
625.655	9529.5
626.01	9418.76
626.365	9396.84
626.72	9409.5
627.075	9355.94
627.43	9393.45
627.785	9376.73
628.14	9366.56
628.495	9327.92
628.85	9381.02
629.205	9323.85
629.559	9368.14
629.914	9292.67
630.269	9317.07
630.623	9312.1
630.978	9316.17
631.332	9282.72
631.687	9352.32
632.041	9308.71
632.396	9344.42
632.75	9285.89
633.104	9250.41
633.459	9237.3
633.813	9219.45
634.167	9210.63
634.521	9152.33
634.875	9209.5
635.229	9178.09
635.583	9184.42
635.937	9129.73
636.291	9131.77
636.645	9198.43
636.999	9171.31
637.352	9153.01
637.706	9077.76
638.06	9132.67
638.413	9059
638.767	9103.29
639.121	9108.26
639.474	9006.57
639.828	9157.75
640.181	9032.11
640.534	9055.38
640.888	9040.02
641.241	8954.6
641.594	8987.59
641.947	9026.46
642.301	8959.57
642.654	9034.59
643.007	9066.23
643.36	8932.45
643.713	8960.24
644.066	8988.72
644.419	8908.04
644.771	8856.97
645.124	8843.41
645.477	8782.4
645.83	8748.27
646.182	8704.21
646.535	8642.51
646.888	8673.47
647.24	8640.48
647.593	8715.73
647.945	8637.54
648.298	8632.34
648.65	8639.35
649.002	8602.74
649.355	8671.66
649.707	8596.19
650.059	8686.13
650.411	8780.59
650.763	8759.8
651.115	8802.28
651.467	8866.69
651.819	8820.14
652.171	8806.8
652.523	8726.13
652.875	8794.37
653.227	8748.5
653.578	8814.71
653.93	8843.41
654.282	8699.91
654.633	8665.56
654.985	8746.69
655.337	8785.11
655.688	8826.91
656.039	8809.51
656.391	8767.03
656.742	8740.82
657.094	8832.11
657.445	8768.16
657.796	8743.3
658.147	8762.06
658.498	8781.94
658.849	8754.83
659.2	8753.7
659.551	8692.23
659.902	8816.75
660.253	8820.36
660.604	8810.42
660.955	8729.97
661.306	8850.64
661.656	8731.1
662.007	8740.59
662.358	8792.79
662.708	8756.63
663.059	8728.39
663.409	8710.08
663.76	8821.27
664.11	8764.32
664.461	8757.31
664.811	8742.17
665.161	8755.96
665.511	8778.55
665.862	8731.32
666.212	8751.44
666.562	8826.46
666.912	8796.18
667.262	8712.12
667.612	8755.73
667.962	8756.86
668.312	8743.75
668.662	8770.19
669.011	8735.84
669.361	8783.07
669.711	8779.91
670.06	8690.65
670.41	8730.19
670.76	8673.02
671.109	8715.96
671.459	8671.66
671.808	8720.7
672.157	8690.42
672.507	8636.41
672.856	8672.34
673.205	8625.11
673.554	8673.47
673.904	8707.37
674.253	8726.8
674.602	8660.59
674.951	8530.2
675.3	8517.32
675.649	8585.79
675.998	8644.55
676.346	8651.78
676.695	8610.88
677.044	8546.47
677.393	8559.8
677.741	8619.69
678.09	8574.94
678.438	8547.6
678.787	8570.88
679.135	8504.66
679.484	8520.48
679.832	8548.5
680.181	8577.66
680.529	8537.88
680.877	8529.97
681.225	8510.31
681.573	8519.13
681.922	8458.34
682.27	8362.29
682.618	8476.42
682.966	8424.67
683.314	8395.29
683.661	8412.24
684.009	8368.17
684.357	8335.63
684.705	8357.55
685.053	8277.78
685.4	8291.79
685.748	8279.36
686.095	8242.75
686.443	8215.18
686.79	8192.81
687.138	8197.55
687.485	8180.15
687.832	8185.12
688.18	8113.71
688.527	8139.25
688.874	8125.69
689.221	8145.35
689.568	8077.1
689.915	8041.4
690.262	8040.49
690.609	7988.97
690.956	7976.09
691.303	7987.84
691.65	7946.71
691.997	7912.36
692.344	7870.78
692.69	7886.6
693.037	7826.04
693.383	7809.77
693.73	7797.79
694.077	7744.01
694.423	7724.12
694.769	7692.71
695.116	7676.66
695.462	7638.92
695.808	7635.53
696.155	7684.8
696.501	7574.07
696.847	7599.15
697.193	7512.6
697.539	7595.76
697.885	7493.84
698.231	7483.45
698.577	7467.4
698.923	7510.34
699.269	7409.1
699.614	7365.48
699.96	7317.58
700.306	7285.49
700.651	7391.25
700.997	7293.17
701.342	7295.66
701.688	7327.75
702.033	7227.86
702.379	7188.54
702.724	7172.95
703.069	7196.68
703.415	7113.51
703.76	7042.33
704.105	7113.51
704.45	7058.37
704.795	6988.09
705.14	6982.67
705.485	7043.68
705.83	7010.47
706.175	6974.08
706.52	7023.57
706.865	6929.11
707.209	6920.98
707.554	6943.12
707.899	6909.68
708.243	6831.71
708.588	6790.13
708.932	6763.24
709.277	6804.37
709.621	6782.67
709.966	6816.8
710.31	6774.99
710.654	6697.03
710.998	6736.35
711.342	6677.14
711.687	6705.16
712.031	6725.05
712.375	6608.44
712.719	6657.03
713.063	6598.27
713.407	6642.11
713.75	6584.49
714.094	6550.36
714.438	6604.37
714.782	6559.4
715.125	6529.8
715.469	6542.46
715.812	6527.31
716.156	6465.39
716.499	6493.64
716.843	6518.27
717.186	6427.43
717.53	6481.21
717.873	6494.09
718.216	6482.12
718.559	6450.71
718.902	6373.19
719.246	6424.94
719.589	6398.28
719.932	6340.43
720.275	6366.41
720.617	6426.07
720.96	6370.03
721.303	6375.45
721.646	6347.21
721.989	6305.4
722.331	6354.21
722.674	6269.24
723.016	6358.96
723.359	6321.9
723.701	6326.19
724.044	6310.6
724.386	6269.02
724.729	6286.19
725.071	6328
725.413	6258.39
725.755	6258.62
726.097	6267.43
726.439	6276.93
726.782	6281.9
727.124	6259.52
727.465	6250.71
727.807	6252.07
728.149	6189.7
728.491	6182.92
728.833	6247.32
729.175	6173.43
729.516	6222.92
729.858	6135.69
730.199	6180.66
730.541	6154.44
730.882	6166.19
731.224	6217.49
731.565	6132.97
731.906	6171.39
732.248	6138.17
732.589	6119.64
732.93	6147.66
733.271	6081.45
733.612	6141.56
733.953	6148.79
734.294	6123.71
734.635	6183.82
734.976	6122.13
735.317	6138.85
735.658	6157.15
735.999	6172.3
736.339	6148.12
736.68	6158.28
737.021	6186.98
737.361	6178.17
737.702	6210.26
738.042	6155.8
738.383	6136.36
738.723	6191.96
739.063	6132.3
739.404	6190.15
739.744	6148.57
740.084	6182.46
740.424	6223.59
740.764	6171.62
741.104	6206.42
741.444	6142.24
741.784	6198.74
742.124	6161.22
742.464	6161.9
742.804	6227.21
743.143	6225.18
743.483	6248.23
743.823	6242.58
744.162	6198.74
744.502	6255.23
744.841	6262.91
745.181	6334.1
745.52	6305.17
745.86	6359.18
746.199	6337.94
746.538	6415.45
746.877	6430.82
747.216	6454.77
747.556	6474.66
747.895	6485.51
748.234	6499.97
748.573	6526.18
748.911	6555.56
749.25	6616.13
749.589	6631.04
749.928	6697.71
750.267	6725.05
750.605	6755.1
750.944	6839.4
751.283	6873.29
751.621	7008.21
751.96	6986.96
752.298	7079.39
752.636	7122.1
752.975	7137.02
753.313	7131.82
753.651	7313.73
753.989	7313.51
754.327	7405.48
754.666	7492.26
755.004	7505.59
755.342	7664.23
755.679	7708.07
756.017	7751.01
756.355	7858.58
756.693	7938.58
757.031	8069.65
757.368	8063.09
757.706	8188.97
758.044	8313.93
758.381	8414.72
758.719	8499.47
759.056	8632.8
759.394	8721.61
759.731	8748.5
760.068	8914.82
760.405	8957.31
760.743	9040.92
761.08	9235.72
761.417	9305.55
761.754	9431.19
762.091	9518.2
762.428	9614.46
762.765	9745.76
763.102	9828.92
763.438	9915.93
763.775	9965.19
764.112	10125.19
764.449	10225.52
764.785	10299.42
765.122	10329.47
765.458	10392.52
765.795	10585.29
766.131	10612.86
766.467	10768.56
766.804	10813.08
767.14	10854.21
767.476	10974.43
767.812	11064.6
768.148	11114.54
768.485	11152.05
768.821	11227.3
769.157	11321.31
769.492	11395.21
769.828	11485.38
770.164	11464.36
770.5	11562.66
770.836	11736.44
771.171	11724.47
771.507	11743.45
771.842	11684.01
772.178	11840.62
772.513	11889.21
772.849	11981.63
773.184	11988.41
773.519	12119.71
773.855	12055.53
774.19	12085.81
774.525	12178.01
774.86	12208.52
775.195	12236.54
775.53	12208.75
775.865	12320.83
776.2	12317.67
776.535	12139.82
776.87	12294.62
777.205	12314.96
777.539	12234.28
777.874	12405.13
778.209	12294.39
778.543	12358.12
778.878	12341.62
779.212	12331.68
779.547	12269.76
779.881	12405.58
780.215	12339.14
780.55	12370.55
780.884	12412.13
781.218	12415.52
781.552	12401.96
781.886	12408.06
782.22	12357.67
782.554	12338.69
782.888	12291.91
783.222	12238.8
783.556	12278.12
783.889	12267.28
784.223	12220.95
784.557	12104.34
784.89	12197.45
785.224	12200.39
785.557	12138.47
785.891	12250.78
786.224	12147.05
786.558	12208.97
786.891	12035.42
787.224	12040.39
787.557	12077.45
787.891	12105.7
788.224	12035.42
788.557	12067.73
788.89	12056.66
789.223	12026.6
789.556	11919.49
789.888	11976.44
790.221	11934.4
790.554	11809.66
790.887	11885.14
791.219	11812.15
791.552	11855.08
791.884	11827.06
792.217	11740.74
792.549	11743.45
792.882	11695.54
793.214	11745.48
793.546	11715.2
793.879	11577.35
794.211	11560.85
794.543	11646.5
794.875	11552.49
795.207	11592.49
795.539	11574.19
795.871	11570.35
796.203	11426.62
796.535	11346.17
796.867	11425.49
797.198	11376.9
797.53	11398.82
797.862	11334.65
798.193	11342.78
798.525	11322.22
798.856	11273.86
799.188	11214.2
799.519	11218.04
799.85	11148.89
800.182	11164.25
800.513	11178.49
800.844	11094.88
801.175	11163.58
801.506	11098.49
801.837	11057.14
802.168	11056.69
802.499	11032.73
802.83	10918.84
803.161	10894.21
803.491	10906.63
803.822	10944.37
804.153	10965.62
804.483	10793.64
804.814	10675
805.145	10742.12
805.475	10761.78
805.805	10678.17
806.136	10750.03
806.466	10693.53
806.796	10720.2
807.126	10588.68
807.457	10627.09
807.787	10546.64
808.117	10643.36
808.447	10528.11
808.777	10518.4
809.107	10530.37
809.436	10455.35
809.766	10505.97
810.096	10481.33
810.426	10376.25
810.755	10403.6
811.085	10305.29
811.414	10371.05
811.744	10238.63
812.073	10296.93
812.403	10365.86
812.732	10264.17
813.061	10284.28
813.39	10226.2
813.719	10123.38
814.049	10245.41
814.378	10252.19
814.707	10113.89
815.036	10096.71
815.365	10027.11
815.693	9981.46
816.022	9974.91
816.351	9993.21
816.68	9974.68
817.008	9924.74
817.337	9936.94
817.665	9902.37
817.994	9844.29
818.322	9874.12
818.651	9809.94
818.979	9725.65
819.307	9842.93
819.636	9823.5
819.964	9827.57
820.292	9874.34
820.62	9814.23
820.948	9772.43
821.276	9759.09
821.604	9751.18
821.932	9811.97
822.259	9741.92
822.587	9680.9
822.915	9676.38
823.243	9806.32
823.57	9679.55
823.898	9723.39
824.225	9710.73
824.553	9739.89
824.88	9667.8
825.207	9718.42
825.535	9766.78
825.862	9769.71
826.189	9728.59
826.516	9812.43
826.843	9795.25
827.17	9825.76
827.497	9844.29
827.824	9785.53
828.151	9811.07
828.478	9743.27
828.805	9845.19
829.131	9748.92
829.458	9795.7
829.785	9786.89
830.111	9764.52
830.438	9808.58
830.764	9769.04
831.09	9782.6
831.417	9680.68
831.743	9744.86
832.069	9725.2
832.395	9721.58
832.722	9751.18
833.048	9705.08
833.374	9796.38
833.7	9640.68
834.026	9705.08
834.351	9661.47
834.677	9684.75
835.003	9672.09
835.329	9651.3
835.654	9651.75
835.98	9612.66
836.306	9585.31
836.631	9557.97
836.956	9648.81
837.282	9623.73
837.607	9576.73
837.932	9634.58
838.258	9568.82
838.583	9519.1
838.908	9492.66
839.233	9550.29
839.558	9458.31
839.883	9420.12
840.208	9414.92
840.533	9405.43
840.858	9419.44
841.182	9399.78
841.507	9413.57
841.832	9358.88
842.156	9363.62
842.481	9348.48
842.805	9317.07
843.13	9253.57
843.454	9279.11
843.778	9299.22
844.103	9208.6
844.427	9164.76
844.751	9242.72
845.075	9158.21
845.399	9144.19
845.723	9038.43
846.047	9106.91
846.371	9030.98
846.695	9041.15
847.019	8901.04
847.343	8904.65
847.666	8937.87
847.99	8903.3
848.313	8819.23
848.637	8832.11
848.96	8780.59
849.284	8667.6
849.607	8714.15
849.931	8649.74
850.254	8603.19
850.577	8568.39
850.9	8535.85
851.223	8517.77
851.546	8553.25
851.869	8428.06
852.192	8547.15
852.515	8414.72
852.838	8382.86
853.161	8439.58
853.483	8348.74
853.806	8310.54
854.129	8287.72
854.451	8321.62
854.774	8217.21
855.096	8189.87
855.419	8152.36
855.741	8235.97
856.063	8122.3
856.385	8148.51
856.708	8101.28
857.03	8083.43
857.352	8045.92
857.674	8037.78
857.996	8018.57
858.318	7954.4
858.64	8019.7
858.961	7894.06
859.283	7901.06
859.605	7854.29
859.926	7878.47
860.248	7855.87
860.57	7840.95
860.891	7874.85
861.212	7855.87
861.534	7796.21
861.855	7675.31
862.176	7728.19
862.498	7775.19
862.819	7752.59
863.14	7663.1
863.461	7656.78
863.782	7659.71
864.103	7761.41
864.424	7702.65
864.745	7663.1
865.065	7590.34
865.386	7605.7
865.707	7597.79
866.027	7579.49
866.348	7544.46
866.668	7581.98
866.989	7527.97
867.309	7474.86
867.63	7509.44
867.95	7551.69
868.27	7451.36
868.59	7454.52
868.91	7461.08
869.23	7404.13
869.55	7423.56
869.87	7430.12
870.19	7332.04
870.51	7421.53
870.83	7383.79
871.15	7317.35
871.469	7272.15
871.789	7345.37
872.109	7335.43
872.428	7233.74
872.748	7356.22
873.067	7252.94
873.386	7326.84
873.706	7253.85
874.025	7242.1
874.344	7204.58
874.663	7275.32
874.982	7233.28
875.301	7215.88
875.62	7222.89
875.939	7166.39
876.258	7191.25
876.577	7104.47
876.896	7121.2
877.214	7160.97
877.533	7233.74
877.852	7077.81
878.17	7141.54
878.489	7128.43
878.807	7101.99
879.125	7099.73
879.444	7072.61
879.762	7060.41
880.08	7075.1
880.398	7011.14
880.716	7039.39
881.034	7000.3
881.352	7048.88
881.67	7025.38
881.988	7005.95
882.306	6961.88
882.624	6903.58
882.941	6879.62
883.259	6906.97
883.577	6855.22
883.894	6894.54
884.212	6827.19
884.529	6874.2
884.846	6817.7
885.164	6871.03
885.481	6810.92
885.798	6821.09
886.115	6773.64
886.432	6765.95
886.75	6715.11
887.067	6738.83
887.383	6692.06
887.7	6692.28
888.017	6730.25
888.334	6703.13
888.651	6677.14
888.967	6633.07
889.284	6572.96
889.6	6586.07
889.917	6563.02
890.233	6496.13
890.55	6554.66
890.866	6511.27
891.182	6497.03
891.498	6457.49
891.815	6468.78
892.131	6445.28
892.447	6431.72
892.763	6435.11
893.079	6397.6
893.395	6369.13
893.71	6382.69
894.026	6351.27
894.342	6381.78
894.657	6297.26
894.973	6276.7
895.289	6243.03
895.604	6224.95
895.92	6207.55
896.235	6180.88
896.55	6180.2
896.865	6144.27
897.181	6108.12
897.496	6125.52
897.811	6059.08
898.126	6025.86
898.441	6062.92
898.756	6024.5
899.071	5987.22
899.386	6020.89
899.7	5988.57
900.015	5965.97
900.33	5946.99
900.644	5937.73
900.959	5894.11
901.273	5862.7
901.588	5836.03
901.902	5850.04
902.216	5814.79
902.531	5836.48
902.845	5738.86
903.159	5751.74
903.473	5679.65
903.787	5698.64
904.101	5648.92
904.415	5742.48
904.729	5615.25
905.042	5595.59
905.356	5556.04
905.67	5559.2
905.984	5599.88
906.297	5539.54
906.611	5524.4
906.924	5507.45
907.237	5536.15
907.551	5474.69
907.864	5489.83
908.177	5450.73
908.491	5410.28
908.804	5330.51
909.117	5356.5
909.43	5346.55
909.743	5282.38
910.056	5283.96
910.368	5298.65
910.681	5238.99
910.994	5234.69
911.307	5220
911.619	5160.57
911.932	5167.58
912.244	5148.37
912.557	5110.63
912.869	5107.69
913.181	5078.76
913.494	5007.13
913.806	5051.19
914.118	5040.8
914.43	4954.25
914.742	4952.89
915.054	4962.84
915.366	4933.68
915.678	4927.36
915.99	4929.16
916.302	4871.54
916.613	4863.63
916.925	4820.69
917.236	4807.36
917.548	4788.83
917.859	4791.09
918.171	4780.24
918.482	4777.76
918.794	4726.68
919.105	4733.01
919.416	4708.15
919.727	4689.17
920.038	4646.01
920.349	4706.57
920.66	4612.56
920.971	4596.74
921.282	4610.75
921.593	4573.47
921.903	4538.67
922.214	4508.38
922.525	4519.68
922.835	4514.71
923.146	4494.37
923.456	4478.33
923.767	4451.21
924.077	4459.8
924.387	4379.12
924.697	4427.48
925.008	4361.72
925.318	4361.04
925.628	4374.6
925.938	4324.89
926.248	4277.2
926.558	4294.38
926.867	4271.1
927.177	4258.9
927.487	4229.52
927.796	4162.86
928.106	4208.05
928.416	4200.6
928.725	4174.38
929.034	4123.31
929.344	4148.39
929.653	4086.93
929.962	4087.38
930.271	4053.71
930.581	4052.35
930.89	4074.05
931.199	4018.45
931.508	4046.48
931.817	4081.05
932.125	4001.5
932.434	3991.11
932.743	3934.84
933.051	3889.64
933.36	3926.7
933.669	3902.07
933.977	3841.74
934.286	3890.1
934.594	3900.49
934.902	3869.76
935.21	3846.93
935.519	3819.14
935.827	3821.85
936.135	3801.51
936.443	3728.29
936.751	3759.93
937.059	3789.76
937.367	3743.66
937.674	3754.05
937.982	3701.85
938.29	3701.85
938.597	3701.17
938.905	3676.32
939.213	3589.54
939.52	3614.4
939.827	3623.44
940.135	3611.68
940.442	3573.27
940.749	3598.35
941.056	3565.36
941.363	3522.2
941.67	3526.94
941.977	3511.8
942.284	3447.4
942.591	3470.9
942.898	3436.32
943.205	3463.21
943.511	3450.11
943.818	3411.69
944.125	3390.9
944.431	3423.44
944.738	3381.18
945.044	3387.96
945.35	3387.74
945.657	3307.96
945.963	3331.92
946.269	3300.96
946.575	3305.03
946.881	3315.42
947.187	3266.61
947.493	3255.08
947.799	3266.84
948.105	3253.5
948.41	3215.08
948.716	3204.92
949.022	3204.46
949.327	3196.1
949.633	3171.24
949.938	3133.73
950.244	3151.81
950.549	3090.12
950.854	3087.18
951.16	3114.75
951.465	3067.97
951.77	3080.63
952.075	3071.36
952.38	3066.84
952.685	3053.28
952.99	3013.51
953.294	3009.67
953.599	2997.92
953.904	2941.65
954.209	2937.8
954.513	2972.61
954.818	2928.09
955.122	2954.07
955.426	2892.38
955.731	2900.74
956.035	2913.17
956.339	2879.5
956.643	2880.86
956.948	2872.5
957.252	2846.06
957.556	2842.67
957.86	2860.74
958.163	2802.44
958.467	2783.23
958.771	2820.52
959.075	2765.15
959.378	2802.67
959.682	2756.34
959.985	2762.44
960.289	2774.64
960.592	2736.45
960.896	2715.21
961.199	2711.6
961.502	2690.35
961.805	2729.67
962.108	2675.66
962.411	2640.41
962.714	2607.42
963.017	2653.97
963.32	2647.87
963.623	2614.87
963.926	2611.26
964.228	2592.05
964.531	2621.65
964.833	2574.88
965.136	2559.51
965.438	2544.37
965.741	2536.91
966.043	2527.19
966.345	2478.38
966.648	2531.26
966.95	2468.44
967.252	2506.85
967.554	2449.68
967.856	2462.34
968.158	2453.52
968.46	2474.77
968.761	2460.98
969.063	2440.64
969.365	2417.59
969.666	2403.35
969.968	2404.03
970.269	2381.43
970.571	2390.02
970.872	2377.37
971.174	2333.3
971.475	2381.43
971.776	2339.18
972.077	2303.02
972.378	2324.26
972.679	2288.78
972.98	2349.12
973.281	2303.7
973.582	2289.91
973.883	2252.4
974.183	2246.3
974.484	2267.54
974.785	2225.73
975.085	2252.17
975.386	2217.6
975.686	2230.48
975.986	2176.24
976.287	2215.11
976.587	2204.04
976.887	2193.19
977.187	2197.48
977.487	2148.9
977.787	2143.7
978.087	2124.94
978.387	2122.46
978.687	2147.09
978.987	2119.29
979.286	2108.45
979.586	2131.27
979.885	2049.69
980.185	2083.59
980.484	2074.78
980.784	2043.59
981.083	2062.8
981.382	2051.27
981.682	2026.42
981.981	2019.41
982.28	2003.14
982.579	2026.42
982.878	2059.18
983.177	2000.43
983.475	2009.92
983.774	1970.82
984.073	1967.21
984.372	1980.09
984.67	1968.34
984.969	1982.8
985.267	1947.1
985.566	1929.92
985.864	1939.19
986.162	1913.88
986.461	1897.15
986.759	1906.64
987.057	1908.9
987.355	1888.34
987.653	1881.33
987.951	1875.01
988.249	1867.32
988.547	1858.28
988.844	1846.76
989.142	1851.05
989.44	1822.58
989.737	1822.13
990.035	1773.99
990.332	1787.1
990.63	1811.96
990.927	1790.94
991.224	1800.66
991.521	1765.86
991.819	1767.89
992.116	1755.24
992.413	1766.31
992.71	1772.64
993.006	1753.2
993.303	1743.49
993.6	1698.74
993.897	1717.5
994.193	1724.95
994.49	1686.54
994.787	1696.71
995.083	1676.14
995.379	1703.03
995.676	1688.8
995.972	1652.64
996.268	1650.15
996.565	1637.5
996.861	1654.67
997.157	1609.93
997.453	1615.35
997.749	1626.88
998.044	1603.38
998.34	1633.21
998.636	1600.89
998.932	1612.87
999.227	1591.85
999.523	1583.72
999.818	1573.77
1000.114	1563.83
1000.409	1557.28
1000.704	1533.77
1001	1550.04
1001.295	1517.95
1001.59	1531.51
1001.885	1488.35
1002.18	1506.43
1002.475	1510.72
1002.77	1482.25
1003.065	1513.66
1003.359	1500.1
1003.654	1456.04
1003.949	1431.63
1004.243	1430.5
1004.538	1414.23
1004.832	1420.56
1005.127	1426.88
1005.421	1456.94
1005.715	1418.3
1006.009	1384.62
1006.304	1405.19
1006.598	1385.98
1006.892	1378.07
1007.186	1379.88
1007.48	1367.68
1007.773	1376.49
1008.067	1364.29
1008.361	1331.52
1008.655	1324.29
1008.948	1329.94
1009.242	1331.97
1009.535	1293.33
1009.829	1317.51
1010.122	1289.26
1010.415	1288.58
1010.708	1279.32
1011.001	1286.77
1011.295	1283.61
1011.588	1283.84
1011.881	1262.37
1012.173	1252.65
1012.466	1264.63
1012.759	1239.32
1013.052	1255.59
1013.344	1242.03
1013.637	1228.7
1013.93	1214.46
1014.222	1203.61
1014.514	1209.49
1014.807	1205.19
1015.099	1179.66
1015.391	1184.86
1015.683	1190.73
1015.976	1189.15
1016.268	1177.4
1016.56	1150.28
1016.851	1134.46
1017.143	1154.8
1017.435	1145.31
1017.727	1107.12
1018.018	1114.8
1018.31	1134.69
1018.602	1103.28
1018.893	1096.04
1019.185	1089.94
1019.476	1072.09
1019.767	1087.23
1020.058	1072.09
1020.35	1061.47
1020.641	1069.15
1020.932	1100.56
1021.223	1075.71
1021.514	1052.88
1021.804	1022.83
1022.095	1029.38
1022.386	1038.42
1022.677	1031.41
1022.967	1029.15
1023.258	1016.27
1023.548	1029.38
1023.839	983.73
1024.129	1009.72
1024.419	997.06
1024.709	991.19
1025	963.62
1025.29	980.79
1025.58	989.15
1025.87	951.19
1026.16	920.68
1026.449	952.77
1026.739	927.01
1027.029	928.59
1027.319	930.4
1027.608	945.09
1027.898	926.33
1028.187	913.68
1028.477	917.07
1028.766	916.84
1029.055	898.76
1029.344	903.06
1029.634	892.89
1029.923	893.56
1030.212	886.33
1030.501	877.29
1030.79	844.75
1031.078	868.71
1031.367	850.4
1031.656	868.03
1031.945	858.31
1032.233	849.72
1032.522	833.23
1032.81	822.15
1033.099	829.38
1033.387	820.8
1033.675	817.18
1033.963	830.51
1034.251	814.24
1034.54	818.76
1034.828	801.14
1035.116	819.22
1035.403	780.35
1035.691	779.44
1035.979	772.21
1036.267	788.26
1036.554	782.61
1036.842	766.56
1037.129	769.5
1037.417	783.06
1037.704	751.19
1037.992	739.9
1038.279	759.56
1038.566	737.64
1038.853	737.64
1039.14	737.64
