Data from hue_36_FLMS001491_00090.txt Node
Date: Tue Feb 07 17:30:26 GMT 2017
User: dcchb
Spectrometer: FLMS00149
Trigger mode: 0
Integration Time (sec): 2.000000E-2
Scans to average: 10
Electric dark correction enabled: true
Nonlinearity correction enabled: false
Boxcar width: 0
XAxis mode: Wavelengths
Number of Pixels in Spectrum: 2048
>>>>>Begin Spectral Data<<<<<
341.393	-3.11
341.776	-3.11
342.16	-3.11
342.543	-64.35
342.927	-66.16
343.31	-44.91
343.693	-74.74
344.077	-69.77
344.46	-55.31
344.843	-62.99
345.226	-56.67
345.61	-29.1
345.993	-27.06
346.376	-4.46
346.759	25.82
347.142	36.21
347.525	44.12
347.908	63.33
348.291	61.98
348.674	80.73
349.057	112.82
349.44	157.34
349.823	122.77
350.206	182.65
350.588	201.63
350.971	236.89
351.354	230.56
351.737	249.99
352.119	252.48
352.502	259.71
352.884	276.43
353.267	280.95
353.65	282.31
354.032	275.53
354.414	324.57
354.797	331.8
355.179	320.95
355.562	330.67
355.944	326.83
356.326	351.01
356.709	327.96
357.091	337.45
357.473	353.49
357.855	342.42
358.238	344.23
358.62	329.99
359.002	338.8
359.384	338.13
359.766	340.61
360.148	351.46
360.53	349.88
360.912	339.03
361.294	329.99
361.676	346.94
362.057	337.9
362.439	343.32
362.821	331.8
363.203	336.77
363.584	332.7
363.966	330.9
364.348	316.66
364.729	331.35
365.111	306.26
365.493	333.16
365.874	326.83
366.256	310.33
366.637	323.89
367.019	325.25
367.4	311.69
367.781	306.04
368.163	310.1
368.544	306.26
368.925	294.96
369.306	324.57
369.688	329.09
370.069	313.27
370.45	305.59
370.831	307.39
371.212	311.46
371.593	313.27
371.974	301.52
372.355	322.53
372.736	321.4
373.117	318.92
373.498	312.36
373.879	307.85
374.26	316.21
374.641	295.42
375.021	307.85
375.402	321.4
375.783	327.96
376.163	337.67
376.544	320.5
376.925	307.17
377.305	319.6
377.686	324.79
378.066	309.65
378.447	327.73
378.827	339.26
379.208	329.31
379.588	325.7
379.968	326.6
380.349	340.61
380.729	342.19
381.109	367.73
381.489	341.74
381.87	332.25
382.25	338.35
382.63	362.31
383.01	351.69
383.39	352.36
383.77	349.88
384.15	343.78
384.53	321.18
384.91	336.54
385.29	345.58
385.67	364.57
386.049	347.17
386.429	352.59
386.809	352.82
387.189	353.72
387.568	357.56
387.948	350.33
388.328	374.06
388.707	358.24
389.087	338.58
389.466	359.6
389.846	360.27
390.225	369.99
390.605	371.8
390.984	358.92
391.363	359.14
391.743	346.04
392.122	358.01
392.501	348.97
392.881	381.29
393.26	369.31
393.639	379.48
394.018	367.28
394.397	372.93
394.776	386.94
395.155	372.25
395.534	382.42
395.913	368.18
396.292	377
396.671	373.61
397.05	382.87
397.429	385.81
397.808	378.58
398.186	388.75
398.565	362.98
398.944	371.35
399.323	393.94
399.701	385.81
400.08	382.65
400.458	392.14
400.837	396.88
401.215	397.56
401.594	403.44
401.972	389.2
402.351	395.75
402.729	404.34
403.107	386.04
403.486	396.66
403.864	407.96
404.242	382.87
404.62	396.43
404.999	406.37
405.377	413.6
405.755	423.55
406.133	401.18
406.511	402.98
406.889	407.73
407.267	410.67
407.645	407.28
408.023	417.67
408.401	454.51
408.779	425.13
409.156	428.07
409.534	429.65
409.912	432.36
410.29	451.34
410.667	459.93
411.045	434.62
411.422	421.51
411.8	439.59
412.178	446.82
412.555	462.64
412.933	452.93
413.31	444.34
413.687	457.22
414.065	469.87
414.442	467.84
414.819	472.36
415.197	474.85
415.574	454.51
415.951	467.39
416.328	483.89
416.705	519.59
417.082	497.67
417.46	472.13
417.837	482.08
418.214	504.68
418.591	496.31
418.967	497.44
419.344	498.8
419.721	487.05
420.098	496.99
420.475	494.28
420.852	482.08
421.228	496.77
421.605	508.07
421.982	508.74
422.358	512.59
422.735	519.59
423.111	513.49
423.488	521.4
423.864	527.95
424.241	527.27
424.617	526.82
424.994	545.35
425.37	529.53
425.746	549.87
426.123	546.26
426.499	550.1
426.875	537.44
427.251	553.04
427.627	567.5
428.003	555.97
428.379	578.35
428.756	596.88
429.132	569.76
429.507	584.45
429.883	608.4
430.259	599.59
430.635	591.91
431.011	594.84
431.387	597.55
431.763	600.27
432.138	602.53
432.514	603.43
432.89	615.41
433.265	616.09
433.641	629.87
434.016	618.57
434.392	649.76
434.767	639.59
435.143	618.35
435.518	640.27
435.894	649.08
436.269	635.29
436.644	653.37
437.02	654.28
437.395	686.14
437.77	682.07
438.145	683.88
438.52	654.73
438.895	683.88
439.271	666.93
439.646	711
440.021	705.57
440.395	689.98
440.77	687.27
441.145	703.31
441.52	718.46
441.895	700.15
442.27	719.81
442.645	713.71
443.019	711
443.394	724.11
443.769	723.43
444.143	716.2
444.518	723.65
444.892	718.91
445.267	750.77
445.641	740.38
446.016	734.95
446.39	743.99
446.764	758.91
447.139	760.04
447.513	765.23
447.887	751.68
448.262	779.02
448.636	767.72
449.01	764.33
449.384	781.73
449.758	803.88
450.132	814.95
450.506	803.2
450.88	789.19
451.254	807.49
451.628	805.91
452.002	811.33
452.376	823.54
452.75	820.15
453.123	819.24
453.497	828.06
453.871	839.13
454.244	829.41
454.618	890.65
454.992	880.71
455.365	872.35
455.739	874.38
456.112	880.26
456.486	901.95
456.859	903.54
457.232	902.41
457.606	918.22
457.979	932.69
458.352	943.08
458.725	939.69
459.099	981.73
459.472	980.82
459.845	988.28
460.218	975.17
460.591	995.74
460.964	1011.1
461.337	1022.85
461.71	1011.33
462.083	1042.51
462.456	1045.9
462.829	1064.89
463.201	1074.15
463.574	1082.29
463.947	1099.01
464.32	1115.28
464.692	1107.82
465.065	1133.59
465.438	1159.12
465.81	1160.03
466.183	1157.09
466.555	1207.48
466.928	1206.35
467.3	1190.99
467.672	1244.77
468.045	1252
468.417	1232.11
468.789	1292.45
469.161	1277.76
469.534	1300.36
469.906	1318.44
470.278	1351.43
470.65	1379.68
471.022	1382.17
471.394	1420.36
471.766	1444.99
472.138	1493.35
472.51	1490.86
472.882	1531.32
473.253	1537.19
473.625	1554.59
473.997	1590.07
474.369	1607.92
474.74	1638.21
475.112	1692.67
475.484	1717.3
475.855	1760.01
476.227	1771.99
476.598	1846.56
476.97	1850.86
477.341	1906.67
477.713	1930.63
478.084	1972.89
478.455	2030.06
478.827	2064.63
479.198	2137.18
479.569	2146.44
479.94	2282.93
480.311	2266.89
480.682	2345.53
481.053	2425.98
481.424	2482.93
481.795	2541.68
482.166	2590.04
482.537	2677.05
482.908	2741
483.279	2794.33
483.65	2895.57
484.021	2941.9
484.391	3034.1
484.762	3067.77
485.133	3139.63
485.503	3203.36
485.874	3325.84
486.244	3361.1
486.615	3480.42
486.985	3545.73
487.356	3649.68
487.726	3673.63
488.097	3792.73
488.467	3861.42
488.837	4004.47
489.207	4088.54
489.578	4146.61
489.948	4216.67
490.318	4347.74
490.688	4405.36
491.058	4531.69
491.428	4629.77
491.798	4736.66
492.168	4839.25
492.538	4893.49
492.908	5012.58
493.278	5095.52
493.648	5118.11
494.017	5254.83
494.387	5349.29
494.757	5422.51
495.126	5514.49
495.496	5592.68
495.866	5644.65
496.235	5751.32
496.605	5826.8
496.974	5904.76
497.344	6010.29
497.713	6093.68
498.082	6146.79
498.452	6283.28
498.821	6360.57
499.19	6365.76
499.559	6487.34
499.928	6537.06
500.298	6637.17
500.667	6731.63
501.036	6752.42
501.405	6906.77
501.774	6893.21
502.143	6941.57
502.512	7028.57
502.88	7137.95
503.249	7202.58
503.618	7273.09
503.987	7276.7
504.356	7407.09
504.724	7528.22
505.093	7531.61
505.462	7590.14
505.83	7688.44
506.199	7715.56
506.567	7863.13
506.936	7880.53
507.304	7963.24
507.672	8018.38
508.041	8061.31
508.409	8131.37
508.777	8249.33
509.145	8292.72
509.514	8332.94
509.882	8416.11
510.25	8485.26
510.618	8532.71
510.986	8567.06
511.354	8605.48
511.722	8735.42
512.09	8775.64
512.458	8798.92
512.826	8907.39
513.193	8924.79
513.561	8915.3
513.929	9087.28
514.297	9104.68
514.664	9177.89
515.032	9250.21
515.4	9340.6
515.767	9358.91
516.135	9515.06
516.502	9381.73
516.869	9530.43
517.237	9642.97
517.604	9588.73
517.972	9653.81
518.339	9751.44
518.706	9779.46
519.073	9840.02
519.44	9871.66
519.808	10025.56
520.175	9994.82
520.542	10156.4
520.909	10101.03
521.276	10170.41
521.643	10262.84
522.009	10320.92
522.376	10382.83
522.743	10401.82
523.11	10561.13
523.477	10648.59
523.843	10698.98
524.21	10771.52
524.577	10884.06
524.943	10804.29
525.31	10937.85
525.676	11054.91
526.043	11146.2
526.409	11152.53
526.776	11185.07
527.142	11307.1
527.508	11269.59
527.874	11437.95
528.241	11523.37
528.607	11516.36
528.973	11613.54
529.339	11692.86
529.705	11732.18
530.071	11803.59
530.437	11923.13
530.803	11977.59
531.169	12046.75
531.535	12013.07
531.901	12061.66
532.267	12136.69
532.632	12198.83
532.998	12277.47
533.364	12296
533.73	12309.56
534.095	12495.55
534.461	12534.64
534.826	12488.54
535.192	12663.45
535.557	12752.94
535.923	12688.99
536.288	12826.84
536.653	12773.28
537.019	12795.2
537.384	12862.77
537.749	12945.25
538.114	12961.07
538.479	13018.02
538.845	13098.24
539.21	13150.67
539.575	13166.04
539.94	13227.05
540.305	13328.29
540.67	13284.9
541.034	13353.38
541.399	13443.77
541.764	13538.01
542.129	13550.89
542.494	13548.85
542.858	13662.75
543.223	13687.38
543.587	13755.85
543.952	13737.1
544.316	13837.88
544.681	13891.89
545.045	13972.8
545.41	14110.42
545.774	14003.76
546.138	14089.86
546.503	14199.91
546.867	14115.84
547.231	14316.97
547.595	14305.67
547.959	14443.74
548.324	14370.53
548.688	14436.06
549.052	14588.15
549.416	14500.01
549.779	14560.8
550.143	14631.76
550.507	14684.42
550.871	14744.75
551.235	14720.35
551.599	14838.31
551.962	14980.45
552.326	14981.13
552.689	15074.69
553.053	14942.04
553.417	15143.39
553.78	15246.66
554.143	15228.81
554.507	15285.76
554.87	15317.85
555.234	15502.02
555.597	15335.92
555.96	15467.22
556.323	15572.98
556.686	15535.02
557.05	15616.37
557.413	15648.46
557.776	15669.93
558.139	15773.65
558.502	15837.61
558.865	16001.67
559.228	16017.04
559.59	15996.47
559.953	16135.68
560.316	16191.5
560.679	16185.17
561.041	16309.91
561.404	16325.28
561.767	16465.16
562.129	16405.5
562.492	16676.45
562.854	16572.73
563.217	16549.23
563.579	16600.52
563.941	16809.11
564.304	16791.71
564.666	16995.32
565.028	16953.51
565.39	17087.29
565.753	17057.69
566.115	17186.27
566.477	17214.52
566.839	17312.37
567.201	17481.18
567.563	17437.34
567.925	17487.96
568.287	17534.28
568.648	17564.34
569.01	17652.47
569.372	17847.95
569.734	17784.9
570.095	17866.25
570.457	18010.66
570.819	18103.76
571.18	18067.6
571.542	18153.93
571.903	18261.5
572.265	18333.13
572.626	18325
572.987	18419.46
573.349	18478.89
573.71	18563.41
574.071	18702.16
574.432	18836.62
574.794	18934.25
575.155	18994.81
575.516	18960.24
575.877	19133.56
576.238	19232.09
576.599	19333.11
576.96	19383.28
577.32	19489.94
577.681	19644.06
578.042	19656.26
578.403	19796.37
578.763	19940.32
579.124	20216.47
579.485	20231.61
579.845	20464.38
580.206	20549.12
580.566	20642.23
580.927	20829.79
581.287	20976.23
581.648	21083.8
582.008	21278.59
582.368	21408.31
582.728	21514.97
583.089	21748.64
583.449	21917.22
583.809	22078.35
584.169	22280.83
584.529	22340.49
584.889	22815.28
585.249	22770.53
585.609	22811.43
585.969	23214.59
586.329	23338.88
586.688	23587.23
587.048	23817.28
587.408	23932.76
587.768	24108.35
588.127	24241.9
588.487	24506.53
588.846	24993.3
589.206	24888.67
589.565	25037.82
589.925	25404.81
590.284	25536.33
590.643	25850
591.003	26099.03
591.362	26278.91
591.721	26595.97
592.08	26619.92
592.44	26930.87
592.799	27206.12
593.158	27316.85
593.517	27435.04
593.876	27890.4
594.235	27954.12
594.593	28224.85
594.952	28595.46
595.311	28627.33
595.67	28842.01
596.029	29235.9
596.387	29499.39
596.746	29670.46
597.104	29795.21
597.463	29918.82
597.822	30284.91
598.18	30414.4
598.538	30589.76
598.897	30908.4
599.255	30801.73
599.613	31473.58
599.972	31418.89
600.33	31897.52
600.688	31898.2
601.046	32187.46
601.404	32297.96
601.762	32403.95
602.12	32738.86
602.478	32935.24
602.836	33011.84
603.194	33077.15
603.552	33248.9
603.91	33303.81
604.268	33646.63
604.625	33718.72
604.983	34067.41
605.341	33994.42
605.698	34301.98
606.056	34448.19
606.413	34476.89
606.771	34706.94
607.128	35054.73
607.485	34860.16
607.843	35076.65
608.2	35422.4
608.557	35638.89
608.914	35503.76
609.272	35887.25
609.629	35912.56
609.986	36210.4
610.343	36129.95
610.7	36699.88
611.057	36517.51
611.414	36644.29
611.771	36783.95
612.127	37038.86
612.484	37095.58
612.841	37298.51
613.198	37209.47
613.554	37360.43
613.911	37565.62
614.267	37776.24
614.624	37793.19
614.98	37989.79
615.337	38061.65
615.693	38141.65
616.05	38220.52
616.406	38533.51
616.762	38344.58
617.118	38425.71
617.475	38598.82
617.831	38730.79
618.187	38704.8
618.543	38848.07
618.899	39189.08
619.255	39096.66
619.611	39131.46
619.967	39384.78
620.323	39461.62
620.678	39343.2
621.034	39360.38
621.39	39501.16
621.746	39327.16
622.101	39844.66
622.457	39535.29
622.812	39810.08
623.168	39932.11
623.523	39887.6
623.879	40001.26
624.234	39888.5
624.589	40128.94
624.945	40121.71
625.3	40228.15
625.655	40254.37
626.01	40379.56
626.365	40390.86
626.72	40421.37
627.075	40311.09
627.43	40323.74
627.785	40430.86
628.14	40430.63
628.495	40624.07
628.85	40420.46
629.205	40365.1
629.559	40609.16
629.914	40484.42
630.269	40648.03
630.623	40553.57
630.978	40388.15
631.332	40626.78
631.687	40703.39
632.041	40552.66
632.396	40711.53
632.75	40395.38
633.104	40591.53
633.459	40337.98
633.813	40351.09
634.167	40506.79
634.521	40475.38
634.875	40585.2
635.229	40554.02
635.583	40524.87
635.937	40449.61
636.291	40545.88
636.645	40416.39
636.999	40497.3
637.352	40417.3
637.706	40312.67
638.06	40429.95
638.413	40430.86
638.767	40221.6
639.121	40349.5
639.474	40177.53
639.828	40390.18
640.181	40372.78
640.534	40227.25
640.888	40232.9
641.241	40016.63
641.594	40257.76
641.947	40221.82
642.301	40072
642.654	40214.37
643.007	40347.02
643.36	40126.01
643.713	40145.22
644.066	40191.77
644.419	39939.57
644.771	39737.32
645.124	39342.3
645.477	39290.77
645.83	39055.07
646.182	38930.78
646.535	38917.9
646.888	39081.74
647.24	38798.13
647.593	39169.42
647.945	39032.25
648.298	38842.65
648.65	38794.74
649.002	38777.12
649.355	38888.53
649.707	38770.56
650.059	38882.2
650.411	39370.09
650.763	39402.64
651.115	39831.78
651.467	39519.7
651.819	39713.36
652.171	39403.77
652.523	39429.98
652.875	39535.29
653.227	39345.91
653.578	39615.74
653.93	39499.58
654.282	39345.69
654.633	39159.03
654.985	39295.29
655.337	39352.69
655.688	39407.83
656.039	39599.02
656.391	39223.21
656.742	39309.31
657.094	39340.94
657.445	39430.88
657.796	39296.2
658.147	39228.4
658.498	39218.91
658.849	39347.5
659.2	39198.8
659.551	39271.79
659.902	39359.7
660.253	39278.57
660.604	39214.17
660.955	39028.41
661.306	39250.32
661.656	39149.08
662.007	39195.41
662.358	39204.45
662.708	39182.53
663.059	39024.57
663.409	38977.56
663.76	39092.59
664.11	39220.72
664.461	39316.76
664.811	39060.05
665.161	39098.69
665.511	39054.62
665.862	39016.21
666.212	39167.16
666.562	39175.07
666.912	39019.14
667.262	38922.65
667.612	39151.34
667.962	39059.37
668.312	39051.23
668.662	39201.96
669.011	39175.52
669.361	39046.49
669.711	38992.93
670.06	38959.94
670.41	38749.55
670.76	38862.54
671.109	39076.32
671.459	38949.31
671.808	38750
672.157	39021.86
672.507	38641.07
672.856	38675.88
673.205	38785.25
673.554	38917.68
673.904	38851.92
674.253	38982.99
674.602	38871.8
674.951	38224.81
675.3	38096.23
675.649	38660.06
675.998	38627.29
676.346	38761.75
676.695	38709.77
677.044	38427.97
677.393	38525.15
677.741	38762.2
678.09	38604.92
678.438	38495.32
678.787	38558.59
679.135	38528.53
679.484	38180.97
679.832	38521.08
680.181	38194.08
680.529	38395.21
680.877	38248.99
681.225	38131.71
681.573	38370.12
681.922	37895.11
682.27	38001.32
682.618	38075.44
682.966	37942.34
683.314	37989.57
683.661	37825.5
684.009	37610.82
684.357	37629.58
684.705	37651.27
685.053	37651.04
685.4	37561.78
685.748	37347.78
686.095	37395.91
686.443	37387.1
686.79	37111.62
687.138	37391.62
687.485	37292.41
687.832	37202.47
688.18	37178.97
688.527	37010.83
688.874	36922.7
689.221	36853.78
689.568	36810.16
689.915	36735.81
690.262	36801.12
690.609	36639.09
690.956	36567
691.303	36548.47
691.65	36217.86
691.997	36388.25
692.344	36144.64
692.69	36011.99
693.037	36077.53
693.383	35906.46
693.73	35942.61
694.077	35696.29
694.423	35703.07
694.769	35678.21
695.116	35601.83
695.462	35519.35
695.808	35402.06
696.155	35530.65
696.501	35216.08
696.847	35209.98
697.193	35010.44
697.539	35111
697.885	34793.72
698.231	34847.5
698.577	34808.18
698.923	34662.42
699.269	34577.9
699.614	34506.27
699.96	34316.44
700.306	34397.34
700.651	34137.92
700.997	33984.93
701.342	34141.53
701.688	33873.97
702.033	33985.38
702.379	33890.01
702.724	33775.67
703.069	33773.18
703.415	33438.95
703.76	33377.26
704.105	33348.56
704.45	33489.12
704.795	33218.84
705.14	33215
705.485	33088.68
705.83	33016.14
706.175	33101.78
706.52	32922.58
706.865	32787.89
707.209	32800.32
707.554	32735.01
707.899	32729.14
708.243	32512.87
708.588	32478.3
708.932	32352.43
709.277	32303.16
709.621	32321.24
709.966	32132.09
710.31	32192.2
710.654	31839.22
710.998	32013.9
711.342	32083.73
711.687	31908.37
712.031	31702.5
712.375	31597.42
712.719	31633.58
713.063	31604.88
713.407	31654.82
713.75	31527.82
714.094	31419.34
714.438	31297.99
714.782	31490.53
715.125	31294.37
715.469	31124.89
715.812	31149.29
716.156	30999.24
716.499	30992.24
716.843	31066.58
717.186	30842.64
717.53	30976.87
717.873	30860.71
718.216	30933.48
718.559	30648.74
718.902	30492.14
719.246	30566.26
719.589	30465.47
719.932	30281.97
720.275	30365.13
720.617	30367.39
720.96	30313.16
721.303	30288.3
721.646	30289.43
721.989	29994.3
722.331	30164.24
722.674	30095.08
723.016	29982.32
723.359	29885.6
723.701	30062.77
724.044	29847.41
724.386	29647.86
724.729	29775.09
725.071	29726.96
725.413	29663.91
725.755	29759.95
726.097	29496
726.439	29407.19
726.782	29477.7
727.124	29631.82
727.465	29200.42
727.807	29378.04
728.149	29323.35
728.491	29298.5
728.833	29245.16
729.175	29173.07
729.516	29217.37
729.858	29073.19
730.199	29113.64
730.541	29061.89
730.882	28991.84
731.224	29161.32
731.565	28756.36
731.906	28891.27
732.248	28917.26
732.589	28735.57
732.93	28700.32
733.271	28754.1
733.612	28592.53
733.953	28795.46
734.294	28628.91
734.635	28493.32
734.976	28505.07
735.317	28355.02
735.658	28364.96
735.999	28301.01
736.339	28338.97
736.68	28373.55
737.021	28283.61
737.361	28230.27
737.702	28295.81
738.042	28107.57
738.383	28054.23
738.723	28211.29
739.063	28041.58
739.404	28052.65
739.744	27950.73
740.084	27825.09
740.424	27891.3
740.764	27863.96
741.104	27931.98
741.444	27724.53
741.784	27661.93
742.124	27767.46
742.464	27761.59
742.804	27661.48
743.143	27628.48
743.483	27553.23
743.823	27419.9
744.162	27422.84
744.502	27379.22
744.841	27383.29
745.181	27390.3
745.52	27400.92
745.86	27203.41
746.199	27221.26
746.538	27332.45
746.877	27185.33
747.216	27194.37
747.556	27033.24
747.895	27067.14
748.234	26948.73
748.573	26897.43
748.911	26927.48
749.25	26848.84
749.589	26844.77
749.928	26919.35
750.267	26871.44
750.605	26720.71
750.944	26689.75
751.283	26542.18
751.621	26677.1
751.96	26473.71
752.298	26498.57
752.636	26382.87
752.975	26313.71
753.313	26221.97
753.651	26329.99
753.989	26220.38
754.327	26161.85
754.666	26169.76
755.004	26056.09
755.342	26081.18
755.679	26114.62
756.017	25923.89
756.355	25957.11
756.693	25786.27
757.031	25949.2
757.368	25737.46
757.706	25712.15
758.044	25673.96
758.381	25586.5
758.719	25564.13
759.056	25593.96
759.394	25513.28
759.731	25218.38
760.068	25266.51
760.405	25160.3
760.743	25116.91
761.08	25073.52
761.417	25012.28
761.754	24904.49
762.091	24851.83
762.428	24892.51
762.765	24641.22
763.102	24767.54
763.438	24561.67
763.775	24596.92
764.112	24560.31
764.449	24449.81
764.785	24438.06
765.122	24159.65
765.458	24245.97
765.795	24128.01
766.131	24060.89
766.467	24082.81
766.804	23908.35
767.14	23753.33
767.476	23685.31
767.812	23681.02
768.148	23691.64
768.485	23492.09
768.821	23394.7
769.157	23321.25
769.492	23244.64
769.828	23200.58
770.164	23074.25
770.5	23004.2
770.836	22981.83
771.171	22867.93
771.507	22818.44
771.842	22596.52
772.178	22691.89
772.513	22482.18
772.849	22486.47
773.184	22381.16
773.519	22416.64
773.855	22215.29
774.19	22098.68
774.525	22159.02
774.86	22074.5
775.195	22044
775.53	22024.79
775.865	21938.46
776.2	21592.71
776.535	21561.98
776.87	21515.42
777.205	21354.07
777.539	21454.86
777.874	21488.53
778.209	21250.8
778.543	21165.6
778.878	21037.47
779.212	21027.3
779.547	20916.57
779.881	20931.26
780.215	20796.8
780.55	20799.51
780.884	20754.54
781.218	20607.2
781.552	20622.57
781.886	20430.48
782.22	20383.7
782.554	20265.06
782.888	20193.65
783.222	20118.17
783.556	20024.39
783.889	20018.74
784.223	19767.9
784.557	19848.8
784.89	19902.58
785.224	19692.19
785.557	19722.02
785.891	19558.19
786.224	19463.73
786.558	19560.67
786.891	19301.02
787.224	19245.88
787.557	19200.23
787.891	19225.09
788.224	19103.06
788.557	19133.56
788.89	19092.44
789.223	19001.36
789.556	18915.72
789.888	18875.72
790.221	18801.14
790.554	18537.42
790.887	18641.37
791.219	18539.46
791.552	18547.14
791.884	18349.4
792.217	18384.88
792.549	18240.03
792.882	18169.97
793.214	18051.33
793.546	18104.89
793.879	17999.36
794.211	17956.87
794.543	17972.24
794.875	17823.32
795.207	17916.65
795.539	17720.04
795.871	17712.59
796.203	17652.47
796.535	17533.38
796.867	17549.65
797.198	17423.33
797.53	17445.25
797.862	17299.26
798.193	17355.53
798.525	17192.15
798.856	17198.25
799.188	17047.97
799.519	16994.19
799.85	16860.18
800.182	16933.17
800.513	16924.58
800.844	16717.13
801.175	16882.78
801.506	16836.9
801.837	16642.78
802.168	16636
802.499	16619.96
802.83	16558.04
803.161	16431.49
803.491	16479.17
803.822	16449.57
804.153	16312.85
804.483	16225.39
804.814	16126.86
805.145	16158.5
805.475	16189.24
805.805	16056.81
806.136	16063.36
806.466	16102.68
806.796	16041.44
807.126	15874.67
807.457	15918.51
807.787	15833.09
808.117	15792.18
808.447	15737.5
808.777	15754.9
809.107	15704.05
809.436	15582.7
809.766	15611.17
810.096	15545.41
810.426	15417.5
810.755	15535.02
811.085	15401.91
811.414	15379.09
811.744	15252.08
812.073	15244.63
812.403	15258.86
812.732	15131.18
813.061	15160.11
813.39	15125.53
813.719	15071.75
814.049	15084.63
814.378	15090.73
814.707	14886.44
815.036	14940
815.365	14862.94
815.693	14758.99
816.022	14791.76
816.351	14724.87
816.68	14650.97
817.008	14600.12
817.337	14540.47
817.665	14531.65
817.994	14547.02
818.322	14504.08
818.651	14482.61
818.979	14400.36
819.307	14535.04
819.636	14401.26
819.964	14354.03
820.292	14286.01
820.62	14320.36
820.948	14338.21
821.276	14323.52
821.604	14281.49
821.932	14286.91
822.259	14330.3
822.587	14260.25
822.915	14239.46
823.243	14286.91
823.57	14253.24
823.898	14257.99
824.225	14132.34
824.553	14309.96
824.88	14146.35
825.207	14222.51
825.535	14186.35
825.862	14184.09
826.189	14222.96
826.516	14272.68
826.843	14237.2
827.17	14290.3
827.497	14218.21
827.824	14199.68
828.151	14231.77
828.478	14191.1
828.805	14246.69
829.131	14232.9
829.458	14124.2
829.785	14124.2
830.111	14179.8
830.438	14140.93
830.764	14181.83
831.09	14182.06
831.417	14088.05
831.743	14256.86
832.069	14150.42
832.395	14058.44
832.722	14099.57
833.048	13956.3
833.374	14100.25
833.7	13993.59
834.026	14073.81
834.351	14079.91
834.677	14072
835.003	14053.7
835.329	14040.37
835.654	13947.03
835.98	13963.76
836.306	14014.15
836.631	13979.58
836.956	13943.42
837.282	13971.67
837.607	13867.49
837.932	13810.77
838.258	13738.23
838.583	13862.06
838.908	13755.4
839.233	13718.34
839.558	13796.3
839.883	13670.43
840.208	13629.53
840.533	13682.86
840.858	13588.4
841.182	13551.56
841.507	13628.85
841.832	13583.88
842.156	13486.26
842.481	13519.7
842.805	13478.12
843.13	13422.3
843.454	13421.4
843.778	13332.36
844.103	13298.01
844.427	13236.09
844.751	13243.78
845.075	13202.87
845.399	13285.58
845.723	13172.82
846.047	13177.11
846.371	13027.74
846.695	13010.79
847.019	13014.18
847.343	12932.15
847.666	12772.38
847.99	12760.85
848.313	12807.4
848.637	12652.83
848.96	12646.28
849.284	12692.6
849.607	12510.01
849.931	12541.42
850.254	12401.54
850.577	12300.75
850.9	12292.16
851.223	12295.1
851.546	12151.38
851.869	12096.24
852.192	12227.08
852.515	12093.3
852.838	12078.16
853.161	11999.51
853.483	11984.37
853.806	11881.33
854.129	11871.38
854.451	11842.01
854.774	11743.48
855.096	11752.06
855.419	11727.43
855.741	11673.42
856.063	11602.92
856.385	11647.89
856.708	11557.04
857.03	11492.86
857.352	11581.45
857.674	11445.41
857.996	11438.4
858.318	11324.96
858.64	11348.91
858.961	11348.46
859.283	11275.69
859.605	11189.37
859.926	11259.65
860.248	11231.4
860.57	11172.87
860.891	11123.38
861.212	11071.4
861.534	11025.53
861.855	10927.45
862.176	11041.8
862.498	11089.48
862.819	11034.57
863.14	10941.46
863.461	10906.21
863.782	10943.5
864.103	10887.91
864.424	10882.71
864.745	10911.18
865.065	10886.55
865.386	10724.29
865.707	10774.01
866.027	10753.9
866.348	10725.42
866.668	10760.23
866.989	10740.11
867.309	10636.84
867.63	10689.04
867.95	10700.34
868.27	10641.36
868.59	10613.79
868.91	10657.86
869.23	10627.57
869.55	10546.67
869.87	10600.68
870.19	10644.07
870.51	10562.94
870.83	10614.92
871.15	10486.11
871.469	10481.81
871.789	10516.39
872.109	10424.42
872.428	10444.53
872.748	10443.62
873.067	10392.1
873.386	10403.85
873.706	10378.54
874.025	10297.19
874.344	10259.45
874.663	10302.61
874.982	10291.99
875.301	10290.18
875.62	10229.84
875.939	10173.12
876.258	10256.06
876.577	10225.32
876.896	10243.85
877.214	10135.38
877.533	10164.99
877.852	10212.22
878.17	10161.6
878.489	10064.42
878.807	10062.39
879.125	10091.99
879.444	10103.75
879.762	10043.86
880.08	10012
880.398	10054.71
880.716	10091.32
881.034	9986.91
881.352	9996.63
881.67	9921.83
881.988	9947.82
882.306	9906.46
882.624	9884.77
882.941	9842.28
883.259	9698.33
883.577	9759.57
883.894	9824.88
884.212	9798.44
884.529	9720.93
884.846	9698.56
885.164	9687.26
885.481	9594.83
885.798	9669.86
886.115	9615.85
886.432	9593.7
886.75	9488.39
887.067	9595.06
887.383	9546.47
887.7	9508.73
888.017	9502.18
888.334	9455.63
888.651	9492.46
888.967	9423.09
889.284	9392.35
889.6	9327.95
889.917	9197.1
890.233	9284.78
890.55	9227.61
890.866	9271.68
891.182	9210.21
891.498	9146.48
891.815	9166.37
892.131	9131.34
892.447	9177.89
892.763	9099.48
893.079	9095.18
893.395	9002.76
893.71	8958.01
894.026	8984.45
894.342	8901.07
894.657	8904
894.973	8909.65
895.289	8846.6
895.604	8876.89
895.92	8794.18
896.235	8722.31
896.55	8776.1
896.865	8735.87
897.181	8736.78
897.496	8707.4
897.811	8630.11
898.126	8602.09
898.441	8619.04
898.756	8540.17
899.071	8492.49
899.386	8527.74
899.7	8472.83
900.015	8400.06
900.33	8352.38
900.644	8369.78
900.959	8331.36
901.273	8268.54
901.588	8322.1
901.902	8219.95
902.216	8214.53
902.531	8254.98
902.845	8114.19
903.159	8106.28
903.473	8106.74
903.787	8070.58
904.101	8015.89
904.415	8056.57
904.729	8020.41
905.042	7959.4
905.356	7850.7
905.67	7899.74
905.984	7898.15
906.297	7805.73
906.611	7824.26
906.924	7817.25
907.237	7726.63
907.551	7805.73
907.864	7661.1
908.177	7674.43
908.491	7681.21
908.804	7600.76
909.117	7563.7
909.43	7557.37
909.743	7534.1
910.056	7495.9
910.368	7460.43
910.681	7415.91
910.994	7381.33
911.307	7324.84
911.619	7297.27
911.932	7247.1
912.244	7277.15
912.557	7287.77
912.869	7186.31
913.181	7191.73
913.494	7201
913.806	7073.09
914.118	7077.16
914.43	7041.91
914.742	7089.14
915.054	6974.34
915.366	7002.36
915.678	6934.56
915.99	6940.66
916.302	6843.49
916.613	6845.98
916.925	6826.32
917.236	6844.17
917.548	6728.47
917.859	6742.48
918.171	6695.7
918.482	6697.28
918.794	6662.71
919.105	6603.27
919.416	6569.15
919.727	6549.04
920.038	6573.67
920.349	6552.43
920.66	6426.55
920.971	6474.91
921.282	6474.69
921.593	6402.15
921.903	6355.14
922.214	6314.01
922.525	6351.3
922.835	6289.61
923.146	6265.2
923.456	6214.81
923.767	6193.57
924.077	6224.07
924.387	6202.15
924.697	6163.06
925.008	6190.63
925.318	6121.25
925.628	6118.77
925.938	6051.87
926.248	6026.56
926.558	5974.14
926.867	5981.37
927.177	5959.45
927.487	5919.22
927.796	5891.43
928.106	5885.33
928.416	5888.49
928.725	5864.08
929.034	5737.76
929.344	5797.42
929.653	5805.33
929.962	5727.14
930.271	5652.56
930.581	5736.4
930.89	5627.25
931.199	5630.87
931.508	5589.06
931.817	5586.58
932.125	5585.22
932.434	5543.64
932.743	5521.95
933.051	5518.1
933.36	5505.67
933.669	5418.45
933.977	5415.96
934.286	5429.52
934.594	5378.67
934.902	5333.93
935.21	5297.77
935.519	5281.27
935.827	5273.59
936.135	5224.78
936.443	5197.43
936.751	5157.89
937.059	5217.55
937.367	5149.75
937.674	5210.54
937.982	5111.56
938.29	5121.5
938.597	5064.56
938.905	5092.58
939.213	5012.35
939.52	5006.7
939.827	5010.09
940.135	4925.35
940.442	4902.75
940.749	4907.27
941.056	4956.76
941.363	4867.95
941.67	4859.59
941.977	4836.54
942.284	4788.18
942.591	4733.49
942.898	4794.51
943.205	4760.61
943.511	4771.23
943.818	4745.02
944.125	4743.43
944.431	4674.28
944.738	4663.89
945.044	4627.73
945.35	4634.74
945.657	4583.66
945.963	4595.64
946.269	4567.85
946.575	4519.26
946.881	4525.14
947.187	4480.62
947.493	4497.57
947.799	4444.69
948.105	4443.1
948.41	4425.25
948.716	4437.23
949.022	4419.38
949.327	4337.8
949.633	4328.3
949.938	4359.94
950.244	4306.84
950.549	4271.58
950.854	4265.03
951.16	4275.65
951.465	4267.97
951.77	4190.91
952.075	4208.76
952.38	4230.91
952.685	4175.99
952.99	4126.73
953.294	4074.98
953.599	4109.1
953.904	4094.64
954.209	4058.93
954.513	4062.55
954.818	4062.1
955.122	4030.01
955.426	4033.4
955.731	3963.34
956.035	3976
956.339	3947.75
956.643	3938.94
956.948	3932.61
957.252	3870.24
957.556	3902.1
957.86	3880.41
958.163	3853.74
958.467	3857.81
958.771	3823.91
959.075	3793.63
959.378	3795.89
959.682	3777.58
959.985	3790.01
960.289	3777.81
960.592	3738.49
960.896	3724.25
961.199	3709.56
961.502	3653.07
961.805	3650.36
962.108	3678.6
962.411	3643.35
962.714	3604.03
963.017	3606.29
963.32	3603.8
963.623	3573.07
963.926	3557.03
964.228	3490.13
964.531	3516.35
964.833	3485.61
965.136	3470.93
965.438	3503.02
965.741	3436.12
966.043	3441.55
966.345	3398.84
966.648	3446.07
966.95	3433.86
967.252	3423.24
967.554	3350.02
967.856	3359.74
968.158	3316.81
968.46	3322
968.761	3284.94
969.063	3302.57
969.365	3272.74
969.666	3289.24
969.968	3189.58
970.269	3249.24
970.571	3228.22
970.872	3215.79
971.174	3217.6
971.475	3191.16
971.776	3190.03
972.077	3150.26
972.378	3154.78
972.679	3165.85
972.98	3117.26
973.281	3136.47
973.582	3118.39
973.883	3062.8
974.183	3049.02
974.484	3035.68
974.785	3055.8
975.085	3003.59
975.386	3034.1
975.686	3015.57
975.986	3024.84
976.287	3023.71
976.587	2961.56
976.887	2942.58
977.187	2964.72
977.487	2915.91
977.787	2919.98
978.087	2910.94
978.387	2876.59
978.687	2888.34
978.987	2852.41
979.286	2823.03
979.586	2854.9
979.885	2799.08
980.185	2795.24
980.484	2778.29
980.784	2787.33
981.083	2780.32
981.382	2755.69
981.682	2753.88
981.981	2730.83
982.28	2714.34
982.579	2727.44
982.878	2717.05
983.177	2687.9
983.475	2693.54
983.774	2654
984.073	2628.46
984.372	2652.42
984.67	2632.98
984.969	2627.56
985.267	2611.29
985.566	2607.45
985.864	2577.16
986.162	2552.98
986.461	2571.06
986.759	2576.26
987.057	2508.92
987.355	2532.19
987.653	2523.15
987.951	2526.32
988.249	2470.27
988.547	2498.97
988.844	2455.13
989.142	2464.17
989.44	2445.19
989.737	2395.47
990.035	2429.6
990.332	2389.15
990.63	2391.41
990.927	2397.96
991.224	2367.9
991.521	2398.41
991.819	2387.11
992.116	2373.78
992.413	2350.73
992.71	2335.14
993.006	2335.36
993.303	2310.28
993.6	2291.52
993.897	2287.68
994.193	2247.23
994.49	2245.87
994.787	2241.13
995.083	2231.86
995.379	2221.02
995.676	2222.37
995.972	2199.09
996.268	2202.26
996.565	2166.33
996.861	2158.87
997.157	2182.82
997.453	2128.59
997.749	2170.17
998.044	2122.49
998.34	2124.52
998.636	2128.14
998.932	2118.87
999.227	2085.2
999.523	2064.86
999.818	2075.93
1000.114	2037.07
1000.409	2044.75
1000.704	2030.74
1001	2035.03
1001.295	2003.39
1001.59	2034.58
1001.885	2021.92
1002.18	1997.74
1002.475	1944.86
1002.77	1948.48
1003.065	1954.58
1003.359	1985.32
1003.654	1922.49
1003.949	1941.25
1004.243	1936.05
1004.538	1925.88
1004.832	1877.75
1005.127	1896.73
1005.421	1855.6
1005.715	1861.93
1006.009	1875.49
1006.304	1842.04
1006.598	1811.99
1006.892	1846.34
1007.186	1820.35
1007.48	1810.18
1007.773	1799.78
1008.067	1799.78
1008.361	1767.92
1008.655	1751.87
1008.948	1790.74
1009.242	1751.42
1009.535	1720.69
1009.829	1699.9
1010.122	1738.32
1010.415	1742.38
1010.708	1724.98
1011.001	1694.48
1011.295	1669.62
1011.588	1667.58
1011.881	1631.2
1012.173	1634.14
1012.466	1629.17
1012.759	1629.62
1013.052	1634.82
1013.344	1595.49
1013.637	1585.33
1013.93	1580.35
1014.222	1586.68
1014.514	1581.03
1014.807	1546.68
1015.099	1547.36
1015.391	1536.51
1015.683	1567.92
1015.976	1520.69
1016.268	1518.89
1016.56	1509.4
1016.851	1497.19
1017.143	1520.92
1017.435	1490.86
1017.727	1464.2
1018.018	1487.25
1018.31	1459.68
1018.602	1468.94
1018.893	1434.37
1019.185	1407.03
1019.476	1426.01
1019.767	1416.06
1020.058	1410.87
1020.35	1409.28
1020.641	1361.83
1020.932	1353.69
1021.223	1357.31
1021.514	1372.45
1021.804	1337.42
1022.095	1327.71
1022.386	1332.68
1022.677	1318.21
1022.967	1309.4
1023.258	1283.86
1023.548	1325.22
1023.839	1304.2
1024.129	1275.28
1024.419	1275.05
1024.709	1280.25
1025	1273.24
1025.29	1264.88
1025.58	1232.11
1025.87	1221.04
1026.16	1225.34
1026.449	1213.58
1026.739	1211.55
1027.029	1216.07
1027.319	1173.36
1027.608	1207.48
1027.898	1173.81
1028.187	1168.16
1028.477	1163.87
1028.766	1168.61
1029.055	1139.01
1029.344	1143.08
1029.634	1159.12
1029.923	1121.38
1030.212	1123.19
1030.501	1135.17
1030.79	1091.78
1031.078	1120.25
1031.367	1118.67
1031.656	1074.83
1031.945	1051.33
1032.233	1055.4
1032.522	1059.46
1032.81	1059.69
1033.099	1058.33
1033.387	1045
1033.675	1037.09
1033.963	1043.42
1034.251	1006.13
1034.54	1001.16
1034.828	980.82
1035.116	1015.62
1035.403	1019.24
1035.691	1000.03
1035.979	994.61
1036.267	986.02
1036.554	978.79
1036.842	960.71
1037.129	971.33
1037.417	953.7
1037.704	946.92
1037.992	957.32
1038.279	924.78
1038.566	916.42
1038.853	916.42
1039.14	916.42
