Data from hue_140_FLMS001491_00058.txt Node
Date: Tue Feb 07 16:56:07 GMT 2017
User: dcchb
Spectrometer: FLMS00149
Trigger mode: 0
Integration Time (sec): 2.000000E-2
Scans to average: 10
Electric dark correction enabled: true
Nonlinearity correction enabled: false
Boxcar width: 0
XAxis mode: Wavelengths
Number of Pixels in Spectrum: 2048
>>>>>Begin Spectral Data<<<<<
341.393	-12.57
341.776	-12.57
342.16	-12.57
342.543	-48.5
342.927	-70.42
343.31	-74.49
343.693	-60.93
344.077	-72.68
344.46	-62.06
344.843	-56.18
345.226	-20.03
345.61	-46.02
345.993	-24.77
346.376	-1.5
346.759	12.74
347.142	31.95
347.525	36.92
347.908	71.27
348.291	73.3
348.674	97.48
349.057	95
349.44	130.02
349.823	149.46
350.206	161.21
350.588	217.71
350.971	223.36
351.354	244.37
351.737	232.4
352.119	257.71
352.502	266.97
352.884	271.72
353.267	263.58
353.65	302.45
354.032	297.48
354.414	292.05
354.797	324.82
355.179	317.14
355.562	317.82
355.944	331.6
356.326	312.39
356.709	332.73
357.091	337.48
357.473	338.15
357.855	345.39
358.238	332.51
358.62	352.17
359.002	336.12
359.384	352.17
359.766	341.09
360.148	346.29
360.53	324.82
360.912	336.12
361.294	338.38
361.676	342.9
362.057	304.26
362.439	331.15
362.821	321.21
363.203	319.17
363.584	307.42
363.966	339.28
364.348	334.77
364.729	311.49
365.111	311.71
365.493	318.49
365.874	318.95
366.256	321.21
366.637	314.88
367.019	301.77
367.4	313.3
367.781	295.67
368.163	322.34
368.544	317.36
368.925	304.26
369.306	314.43
369.688	317.82
370.069	298.16
370.45	297.03
370.831	317.14
371.212	296.35
371.593	281.89
371.974	320.08
372.355	308.1
372.736	310.59
373.117	313.07
373.498	318.04
373.879	309.46
374.26	311.94
374.641	315.33
375.021	319.85
375.402	319.4
375.783	317.36
376.163	339.51
376.544	344.03
376.925	323.01
377.305	330.7
377.686	345.39
378.066	311.71
378.447	327.31
378.827	324.14
379.208	326.4
379.588	332.51
379.968	320.98
380.349	344.48
380.729	323.92
381.109	333.64
381.489	334.99
381.87	347.42
382.25	342.22
382.63	342.22
383.01	340.19
383.39	347.42
383.77	337.25
384.15	334.54
384.53	351.26
384.91	348.55
385.29	348.55
385.67	370.24
386.049	355.1
386.429	358.27
386.809	344.93
387.189	335.67
387.568	364.82
387.948	343.58
388.328	361.88
388.707	373.63
389.087	339.28
389.466	356.91
389.846	360.98
390.225	360.98
390.605	367.76
390.984	374.99
391.363	361.88
391.743	356.23
392.122	380.41
392.501	377.02
392.881	370.24
393.26	357.82
393.639	380.87
394.018	374.54
394.397	391.03
394.776	372.5
395.155	391.26
395.534	381.77
395.913	383.35
396.292	381.77
396.671	371.37
397.05	397.36
397.429	407.31
397.808	402.11
398.186	385.39
398.565	397.14
398.944	388.55
399.323	411.15
399.701	419.73
400.08	406.4
400.458	406.63
400.837	407.76
401.215	421.09
401.594	417.02
401.972	424.03
402.351	420.86
402.729	430.81
403.107	410.47
403.486	426.51
403.864	417.7
404.242	443.69
404.62	427.87
404.999	438.27
405.377	425.61
405.755	432.62
406.133	419.28
406.511	421.77
406.889	434.88
407.267	439.62
407.645	446.85
408.023	440.07
408.401	481.88
408.779	434.65
409.156	462.9
409.534	453.86
409.912	452.73
410.29	459.06
410.667	454.31
411.045	461.09
411.422	481.2
411.8	480.52
412.178	473.52
412.555	483.69
412.933	488.89
413.31	491.37
413.687	478.94
414.065	508.55
414.442	497.92
414.819	508.09
415.197	517.36
415.574	520.98
415.951	513.97
416.328	513.07
416.705	512.61
417.082	533.63
417.46	527.53
417.837	514.65
418.214	530.92
418.591	530.24
418.967	534.53
419.344	539.28
419.721	541.31
420.098	532.27
420.475	551.93
420.852	538.38
421.228	573.18
421.605	551.03
421.982	561.88
422.358	552.84
422.735	557.36
423.111	575.44
423.488	596.23
423.864	577.47
424.241	591.48
424.617	579.5
424.994	588.09
425.37	596.68
425.746	584.25
426.123	609.33
426.499	593.74
426.875	604.14
427.251	632.16
427.627	645.94
428.003	621.09
428.379	626.73
428.756	638.03
429.132	636.45
429.507	650.46
429.883	666.06
430.259	657.02
430.635	663.34
431.011	674.19
431.387	671.48
431.763	695.43
432.138	697.47
432.514	686.62
432.89	685.49
433.265	714.64
433.641	664.02
434.016	701.99
434.392	746.51
434.767	729.56
435.143	732.49
435.518	776.11
435.894	750.35
436.269	737.69
436.644	749.67
437.02	775.66
437.395	768.65
437.77	788.76
438.145	777.69
438.52	798.26
438.895	788.31
439.271	814.75
439.646	788.99
440.021	831.93
440.395	849.78
440.77	819.5
441.145	831.48
441.52	853.17
441.895	848.65
442.27	843.9
442.645	841.64
443.019	870.34
443.394	843
443.769	857.01
444.143	862.21
444.518	885.94
444.892	859.27
445.267	882.55
445.641	920.74
446.016	926.16
446.39	911.7
446.764	887.75
447.139	900.63
447.513	901.53
447.887	927.07
448.262	954.18
448.636	919.38
449.01	929.78
449.384	972.04
449.758	950.57
450.132	949.66
450.506	991.25
450.88	970
451.254	971.58
451.628	972.94
452.002	1013.62
452.376	1022.2
452.75	1025.37
453.123	1037.57
453.497	1026.72
453.871	1041.19
454.244	1056.1
454.618	1081.64
454.992	1053.39
455.365	1089.32
455.739	1100.62
456.112	1098.13
456.486	1134.07
456.859	1166.61
457.232	1156.44
457.606	1180.17
457.979	1177.23
458.352	1195.31
458.725	1185.14
459.099	1210.22
459.472	1221.3
459.845	1230.33
460.218	1264.68
460.591	1277.57
460.964	1283.44
461.337	1300.16
461.71	1315.98
462.083	1344
462.456	1354.85
462.829	1384.46
463.201	1346.72
463.574	1386.71
463.947	1420.84
464.32	1413.15
464.692	1473.27
465.065	1465.58
465.438	1475.07
465.81	1521.17
466.183	1519.14
466.555	1569.08
466.928	1573.15
467.3	1614.73
467.672	1622.19
468.045	1691.11
468.417	1675.52
468.789	1701.28
469.161	1744.22
469.534	1755.07
469.906	1788.74
470.278	1798.68
470.65	1828.51
471.022	1873.48
471.394	1916.64
471.766	1937.66
472.138	1985.12
472.51	2012.01
472.882	2085.45
473.253	2095.62
473.625	2113.7
473.997	2148.95
474.369	2220.59
474.74	2304.43
475.112	2284.09
475.484	2370.64
475.855	2428.95
476.227	2466.23
476.598	2535.16
476.97	2581.94
477.341	2670.3
477.713	2728.83
478.084	2822.61
478.455	2896.73
478.827	2934.7
479.198	3043.17
479.569	3102.15
479.94	3161.13
480.311	3244.97
480.682	3329.94
481.053	3454.68
481.424	3566.54
481.795	3624.17
482.166	3711.17
482.537	3832.3
482.908	3934.67
483.279	4004.27
483.65	4117.26
484.021	4206.53
484.391	4283.14
484.762	4458.95
485.133	4502.57
485.503	4590.25
485.874	4823.91
486.244	4880.41
486.615	5002.21
486.985	5150.23
487.356	5276.1
487.726	5383.9
488.097	5508.41
488.467	5607.62
488.837	5780.5
489.207	5901.4
489.578	6042.86
489.948	6202.63
490.318	6340.71
490.688	6428.16
491.058	6563.3
491.428	6705.9
491.798	6869.96
492.168	7071.09
492.538	7145.89
492.908	7264.3
493.278	7376.84
493.648	7541.13
494.017	7594.01
494.387	7833.33
494.757	7908.13
495.126	8098.18
495.496	8234.44
495.866	8299.08
496.235	8453.2
496.605	8544.49
496.974	8718.95
497.344	8870.81
497.713	8892.28
498.082	9073.97
498.452	9176.11
498.821	9321.87
499.19	9398.48
499.559	9585.6
499.928	9579.95
500.298	9692.49
500.667	9850.67
501.036	9850.67
501.405	9999.37
501.774	10024.68
502.143	10175.64
502.512	10308.74
502.88	10370.21
503.249	10393.94
503.618	10566.59
503.987	10593.48
504.356	10763.64
504.724	10863.3
505.093	10861.95
505.462	10955.05
505.83	11061.04
506.199	11103.52
506.567	11289.73
506.936	11255.83
507.304	11384.87
507.672	11421.93
508.041	11592.32
508.409	11617.86
508.777	11737.63
509.145	11863.5
509.514	11792.09
509.882	11908.7
510.25	11952.54
510.618	12009.26
510.986	12031.41
511.354	12222.81
511.722	12292.19
512.09	12313.66
512.458	12284.28
512.826	12436.82
513.193	12469.59
513.561	12411.06
513.929	12572.86
514.297	12688.56
514.664	12666.87
515.032	12681.56
515.4	12743.25
515.767	12833.65
516.135	12918.16
516.502	12817.83
516.869	13000.42
517.237	12994.32
517.604	12984.15
517.972	13079.51
518.339	13109.12
518.706	13155.9
519.073	13153.19
519.44	13222.11
519.808	13293.52
520.175	13264.82
520.542	13400.18
520.909	13439.05
521.276	13414.65
521.643	13500.29
522.009	13530.35
522.376	13521.09
522.743	13565.15
523.11	13677.92
523.477	13767.18
523.843	13770.34
524.21	13843.34
524.577	13872.94
524.943	13895.54
525.31	13923.33
525.676	13982.77
526.043	14060.05
526.409	14062.31
526.776	14140.05
527.142	14117.45
527.508	14180.28
527.874	14192.25
528.241	14213.72
528.607	14200.62
528.973	14284.23
529.339	14151.13
529.705	14278.58
530.071	14400.38
530.437	14350.89
530.803	14348.18
531.169	14359.48
531.535	14319.71
531.901	14325.81
532.267	14305.47
532.632	14334.85
532.998	14350.22
533.364	14428.86
533.73	14250.78
534.095	14348.86
534.461	14372.59
534.826	14274.29
535.192	14363.77
535.557	14299.6
535.923	14271.8
536.288	14330.78
536.653	14301.4
537.019	14255.53
537.384	14241.07
537.749	14222.54
538.114	14182.08
538.479	14149.09
538.845	14112.93
539.21	14071.58
539.575	14124.23
539.94	14096.44
540.305	14136.21
540.67	14073.84
541.034	14043.78
541.399	14029.77
541.764	13953.84
542.129	14051.47
542.494	13948.64
542.858	13911.81
543.223	13924.92
543.587	13890.79
543.952	13856.44
544.316	13891.47
544.681	13804.24
545.045	13793.39
545.41	13802.21
545.774	13773.28
546.138	13666.62
546.503	13669.78
546.867	13650.35
547.231	13675.21
547.595	13629.33
547.959	13581.65
548.324	13583.23
548.688	13497.13
549.052	13474.08
549.416	13472.27
549.779	13415.33
550.143	13418.71
550.507	13394.99
550.871	13397.92
551.235	13302.56
551.599	13341.88
551.962	13318.6
552.326	13338.72
552.689	13321.77
553.053	13219.62
553.417	13194.77
553.78	13319.06
554.143	13199.74
554.507	13225.73
554.87	13156.57
555.234	13312.05
555.597	13133.3
555.96	13143.02
556.323	13091.27
556.686	13172.17
557.05	13133.07
557.413	13250.36
557.776	13048.1
558.139	13215.56
558.502	13167.42
558.865	13097.59
559.228	13178.27
559.59	13156.35
559.953	13103.47
560.316	13233.41
560.679	13151.38
561.041	13223.01
561.404	13162.68
561.767	13248.32
562.129	13149.34
562.492	13221.43
562.854	13197.93
563.217	13140.08
563.579	13146.86
563.941	13337.36
564.304	13222.79
564.666	13351.37
565.028	13267.76
565.39	13328.32
565.753	13337.59
566.115	13356.57
566.477	13362.45
566.839	13357.47
567.201	13347.08
567.563	13347.53
567.925	13473.85
568.287	13392.95
568.648	13445.83
569.01	13497.13
569.372	13511.14
569.734	13453.29
570.095	13524.47
570.457	13517.24
570.819	13537.81
571.18	13427.53
571.542	13607.18
571.903	13659.39
572.265	13679.95
572.626	13563.12
572.987	13616.68
573.349	13630.91
573.71	13671.59
574.071	13773.73
574.432	13719.05
574.794	13701.19
575.155	13697.58
575.516	13623.46
575.877	13756.56
576.238	13716.79
576.599	13721.31
576.96	13766.05
577.32	13739.38
577.681	13779.16
578.042	13767.86
578.403	13794.07
578.763	13833.62
579.124	13841.08
579.485	13735.54
579.845	13821.42
580.206	13741.64
580.566	13783.68
580.927	13749.33
581.287	13777.35
581.648	13835.88
582.008	13827.52
582.368	13857.57
582.728	13815.31
583.089	13814.41
583.449	13737.12
583.809	13771.47
584.169	13812.15
584.529	13644.47
584.889	13846.27
585.249	13735.54
585.609	13700.29
585.969	13771.25
586.329	13694.87
586.688	13791.81
587.048	13773.51
587.408	13672.95
587.768	13682.66
588.127	13738.71
588.487	13616.45
588.846	13764.24
589.206	13691.7
589.565	13653.96
589.925	13726.5
590.284	13610.57
590.643	13644.02
591.003	13712.94
591.362	13601.54
591.721	13681.31
592.08	13492.84
592.44	13614.87
592.799	13632.27
593.158	13611.93
593.517	13586.62
593.876	13677.24
594.235	13562.44
594.593	13567.64
594.952	13581.87
595.311	13658.93
595.67	13587.52
596.029	13634.3
596.387	13613.96
596.746	13598.82
597.104	13593.17
597.463	13620.29
597.822	13646.28
598.18	13539.62
598.538	13493.29
598.897	13658.26
599.255	13564.7
599.613	13665.26
599.972	13613.06
600.33	13603.34
600.688	13517.92
601.046	13633.62
601.404	13543.68
601.762	13564.93
602.12	13522.44
602.478	13567.41
602.836	13596.34
603.194	13505.27
603.552	13555.21
603.91	13435.89
604.268	13614.64
604.625	13488.77
604.983	13567.41
605.341	13477.92
605.698	13543.01
606.056	13548.66
606.413	13519.5
606.771	13593.4
607.128	13655.77
607.485	13584.81
607.843	13561.54
608.2	13568.99
608.557	13724.24
608.914	13599.73
609.272	13619.84
609.629	13659.61
609.986	13729.67
610.343	13653.51
610.7	13808.54
611.057	13706.62
611.414	13704.36
611.771	13707.52
612.127	13788.42
612.484	13815.09
612.841	13740.06
613.198	13750.68
613.554	13767.18
613.911	13811.25
614.267	13836.33
614.624	13825.71
614.98	13873.84
615.337	13862.77
615.693	13852.38
616.05	13802.89
616.406	13901.64
616.762	13900.28
617.118	13842.88
617.475	13803.79
617.831	13845.14
618.187	13881.3
618.543	13954.97
618.899	14030.68
619.255	13987.51
619.611	13952.71
619.967	14003.56
620.323	13985.93
620.678	13953.39
621.034	13987.51
621.39	13974.63
621.746	13965.37
622.101	14115.87
622.457	13943.22
622.812	14017.8
623.168	14054.4
623.523	14033.39
623.879	14122.43
624.234	13966.95
624.589	14096.66
624.945	13987.51
625.3	14016.44
625.655	14057.79
626.01	14091.69
626.365	14015.08
626.72	13936.89
627.075	14035.2
627.43	13988.19
627.785	13949.77
628.14	13973.05
628.495	14034.07
628.85	13948.19
629.205	13958.36
629.559	14011.02
629.914	13939.38
630.269	13900.28
630.623	13899.61
630.978	13934.41
631.332	13968.53
631.687	13968.53
632.041	13853.73
632.396	13910.91
632.75	13804.47
633.104	13867.74
633.459	13838.59
633.813	13795.88
634.167	13763.11
634.521	13717.24
634.875	13710.68
635.229	13808.99
635.583	13651.7
635.937	13650.35
636.291	13617.81
636.645	13723.57
636.999	13648.54
637.352	13599.95
637.706	13623.23
638.06	13561.31
638.413	13589.78
638.767	13572.38
639.121	13603.12
639.474	13551.82
639.828	13534.64
640.181	13481.31
640.534	13555.66
640.888	13491.03
641.241	13467.08
641.594	13484.25
641.947	13499.84
642.301	13451.03
642.654	13463.23
643.007	13487.64
643.36	13514.08
643.713	13410.81
644.066	13444.93
644.419	13360.86
644.771	13293.97
645.124	13177.59
645.477	13183.69
645.83	13002.91
646.182	13035.22
646.535	12992.29
646.888	12995.9
647.24	12923.36
647.593	12966.98
647.945	12946.19
648.298	12835
648.65	12821.89
649.002	12860.76
649.355	12962.23
649.707	12939.86
650.059	13054.2
650.411	13133.3
650.763	13110.02
651.115	13249
651.467	13180.08
651.819	13239.06
652.171	13287.64
652.523	13153.19
652.875	13265.72
653.227	13192.28
653.578	13287.19
653.93	13227.53
654.282	13253.07
654.633	13085.84
654.985	13195.22
655.337	13199.51
655.688	13157.48
656.039	13257.14
656.391	13080.19
656.742	13184.6
657.094	13127.42
657.445	13139.85
657.796	13211.26
658.147	13222.79
658.498	13193.41
658.849	13251.94
659.2	13201.09
659.551	13150.47
659.902	13180.76
660.253	13170.81
660.604	13223.01
660.955	13114.09
661.306	13178.04
661.656	13161.32
662.007	13317.7
662.358	13266.63
662.708	13225.95
663.059	13258.49
663.409	13115.22
663.76	13202.68
664.11	13223.47
664.461	13225.27
664.811	13294.42
665.161	13254.65
665.511	13212.62
665.862	13188.66
666.212	13220.53
666.562	13239.74
666.912	13254.65
667.262	13264.14
667.612	13244.48
667.962	13238.38
668.312	13250.81
668.662	13268.89
669.011	13317.47
669.361	13299.62
669.711	13200.19
670.06	13204.94
670.41	13140.76
670.76	13176.01
671.109	13249.68
671.459	13174.43
671.808	13179.4
672.157	13133.3
672.507	13087.88
672.856	13105.95
673.205	13088.33
673.554	13115.9
673.904	13090.81
674.253	13100.08
674.602	13044.04
674.951	12919.07
675.3	12903.7
675.649	13098.27
675.998	13015.79
676.346	13047.2
676.695	13010.59
677.044	12940.54
677.393	12946.86
677.741	13016.47
678.09	13051.94
678.438	12901.89
678.787	12931.04
679.135	12931.27
679.484	12835.45
679.832	12909.58
680.181	12841.33
680.529	12887.88
680.877	12771.27
681.225	12781.44
681.573	12810.14
681.922	12778.73
682.27	12682.46
682.618	12718.17
682.966	12747.32
683.314	12676.14
683.661	12719.98
684.009	12635.68
684.357	12604.73
684.705	12536.7
685.053	12584.39
685.4	12583.48
685.748	12417.84
686.095	12415.13
686.443	12416.26
686.79	12376.93
687.138	12496.25
687.485	12402.47
687.832	12366.54
688.18	12288.8
688.527	12335.81
688.874	12217.62
689.221	12188.46
689.568	12139.43
689.915	12185.75
690.262	12183.72
690.609	12055.36
690.956	11998.19
691.303	11999.09
691.65	11937.62
691.997	11906.89
692.344	11805.88
692.69	11850.62
693.037	11807.01
693.383	11737.86
693.73	11746.67
694.077	11713
694.423	11683.85
694.769	11650.85
695.116	11552.78
695.462	11524.98
695.808	11567.46
696.155	11546.9
696.501	11461.48
696.847	11421.03
697.193	11337.64
697.539	11414.93
697.885	11246.34
698.231	11248.38
698.577	11230.75
698.923	11218.32
699.269	11177.64
699.614	11095.61
699.96	11074.6
700.306	11027.14
700.651	11030.08
700.997	10969.29
701.342	10948.72
701.688	10973.13
702.033	10845.9
702.379	10816.75
702.724	10778.11
703.069	10858.56
703.415	10734.72
703.76	10734.04
704.105	10718
704.45	10665.79
704.795	10579.92
705.14	10572.69
705.485	10578.34
705.83	10476.19
706.175	10484.33
706.52	10478.23
706.865	10339.25
707.209	10336.31
707.554	10367.95
707.899	10407.72
708.243	10237.78
708.588	10299.7
708.932	10189.65
709.277	10188.52
709.621	10199.82
709.966	10085.02
710.31	10144.9
710.654	10001.4
710.998	10058.13
711.342	10007.51
711.687	10047.5
712.031	9971.35
712.375	9896.1
712.719	9988.52
713.063	9950.56
713.407	9987.62
713.75	9888.64
714.094	9898.58
714.438	9821.97
714.782	9898.58
715.125	9761.86
715.469	9822.2
715.812	9760.96
716.156	9716.21
716.499	9744.01
716.843	9720.28
717.186	9619.49
717.53	9781.52
717.873	9698.81
718.216	9683.22
718.559	9658.59
718.902	9626.27
719.246	9676.89
719.589	9624.01
719.932	9552.83
720.275	9589.89
720.617	9544.01
720.96	9502.21
721.303	9545.82
721.646	9575.65
721.989	9457.01
722.331	9533.62
722.674	9443.9
723.016	9565.93
723.359	9476.9
723.701	9448.65
724.044	9426.5
724.386	9340.18
724.729	9458.14
725.071	9339.27
725.413	9368.43
725.755	9377.69
726.097	9328.43
726.439	9323.23
726.782	9337.01
727.124	9399.61
727.465	9352.61
727.807	9304.7
728.149	9314.87
728.491	9296.79
728.833	9298.37
729.175	9319.39
729.516	9264.7
729.858	9316.22
730.199	9287.52
730.541	9283.23
730.882	9225.6
731.224	9309.22
731.565	9278.48
731.906	9299.28
732.248	9297.24
732.589	9246.62
732.93	9269.45
733.271	9229.9
733.612	9233.06
733.953	9253.85
734.294	9250.69
734.635	9216.57
734.976	9188.77
735.317	9129.34
735.658	9271.71
735.999	9253.63
736.339	9228.54
736.68	9289.56
737.021	9326.62
737.361	9228.77
737.702	9282.55
738.042	9215.89
738.383	9245.49
738.723	9270.12
739.063	9232.84
739.404	9289.11
739.744	9272.16
740.084	9207.07
740.424	9347.41
740.764	9269.22
741.104	9319.39
741.444	9337.69
741.784	9360.06
742.124	9385.15
742.464	9409.33
742.804	9315.55
743.143	9379.5
743.483	9380.18
743.823	9346.73
744.162	9397.35
744.502	9504.47
744.841	9468.76
745.181	9486.84
745.52	9495.65
745.86	9601.87
746.199	9585.37
746.538	9627.4
746.877	9623.79
747.216	9742.2
747.556	9652.03
747.895	9793.05
748.234	9734.07
748.573	9888.19
748.911	9842.99
749.25	9960.73
749.589	9997.56
749.928	10088.41
750.267	10104.68
750.605	10196.43
750.944	10242.08
751.283	10349.42
751.621	10393.03
751.96	10422.64
752.298	10526.59
752.636	10620.14
752.975	10676.41
753.313	10812.91
753.651	10880.93
753.989	10994.6
754.327	11024.43
754.666	11157.08
755.004	11255.83
755.342	11414.93
755.679	11549.39
756.017	11587.58
756.355	11754.8
756.693	11845.65
757.031	11937.62
757.368	12152.31
757.706	12308.01
758.044	12510.72
758.381	12555.46
758.719	12680.43
759.056	12865.51
759.394	13060.98
759.731	13124.49
760.068	13361.54
760.405	13404.48
760.743	13536.45
761.08	13795.65
761.417	13887.4
761.754	14016.21
762.091	14189.32
762.428	14310.89
762.765	14458.24
763.102	14667.95
763.438	14755.18
763.775	14975.74
764.112	15143.64
764.449	15240.81
764.785	15429.74
765.122	15464.76
765.458	15587.7
765.795	15782.95
766.131	15928.03
766.467	16014.8
766.804	16246.44
767.14	16208.92
767.476	16481.46
767.812	16612.76
768.148	16753.09
768.485	16743.15
768.821	16827.21
769.157	17060.43
769.492	17160.09
769.828	17320.53
770.164	17304.26
770.5	17407.31
770.836	17548.78
771.171	17620.19
771.507	17666.06
771.842	17754.65
772.178	17916.45
772.513	17940.4
772.849	17984.7
773.184	18120.74
773.519	18174.75
773.855	18185.6
774.19	18238.25
774.525	18311.92
774.86	18402.31
775.195	18510.78
775.53	18559.82
775.865	18494.29
776.2	18464.23
776.535	18456.77
776.87	18553.27
777.205	18574.06
777.539	18581.74
777.874	18691.34
778.209	18614.51
778.543	18658.35
778.878	18711.01
779.212	18813.6
779.547	18698.35
779.881	18808.4
780.215	18739.25
780.55	18918.68
780.884	18799.59
781.218	18764.79
781.552	18898.8
781.886	18796.88
782.22	18826.26
782.554	18842.3
782.888	18709.65
783.222	18634.62
783.556	18620.39
783.889	18640.27
784.223	18648.63
784.557	18683.66
784.89	18605.7
785.224	18624.23
785.557	18554.63
785.891	18610.67
786.224	18495.87
786.558	18541.52
786.891	18490.45
787.224	18483.21
787.557	18416.78
787.891	18434.4
788.224	18442.09
788.557	18420.84
788.89	18401.63
789.223	18353.27
789.556	18351.92
789.888	18262.88
790.221	18274.18
790.554	18118.25
790.887	18181.98
791.219	18121.19
791.552	18118.7
791.884	18077.58
792.217	18028.99
792.549	17931.59
792.882	17907.41
793.214	17823.12
793.546	17896.34
793.879	17799.16
794.211	17878.26
794.543	17951.93
794.875	17794.19
795.207	17852.04
795.539	17696.12
795.871	17793.29
796.203	17532.28
796.535	17610.47
796.867	17435.11
797.198	17469.68
797.53	17465.61
797.862	17367.09
798.193	17376.13
798.525	17290.03
798.856	17389.68
799.188	17163.25
799.519	17175.45
799.85	17097.71
800.182	17074.44
800.513	17078.51
800.844	16917.83
801.175	17055.91
801.506	17017.26
801.837	16901.11
802.168	16891.62
802.499	16872.18
802.83	16816.14
803.161	16798.06
803.491	16745.41
803.822	16691.62
804.153	16713.77
804.483	16510.39
804.814	16541.57
805.145	16504.51
805.475	16446.43
805.805	16396.04
806.136	16365.53
806.466	16351.07
806.796	16357.17
807.126	16284.18
807.457	16249.6
807.787	16256.83
808.117	16142.71
808.447	16099.32
808.777	16114.01
809.107	16057.74
809.436	15976.61
809.766	15978.2
810.096	15865.66
810.426	15952.89
810.755	15978.87
811.085	15893
811.414	15827.47
811.744	15710.63
812.073	15691.2
812.403	15639.67
812.732	15626.34
813.061	15717.41
813.39	15621.37
813.719	15589.05
814.049	15528.49
814.378	15613.01
814.707	15417.98
815.036	15575.04
815.365	15532.56
815.693	15352.9
816.022	15414.14
816.351	15261.83
816.68	15259.8
817.008	15323.98
817.337	15165.11
817.665	15119.24
817.994	15169.86
818.322	15135.96
818.651	15022.06
818.979	15013.93
819.307	15144.09
819.636	15087.15
819.964	14953.82
820.292	14984.78
820.62	15007.15
820.948	14927.6
821.276	14960.37
821.604	14928.05
821.932	14968.28
822.259	14981.16
822.587	14900.71
822.915	14893.48
823.243	14971.22
823.57	14860.94
823.898	14931.9
824.225	14874.27
824.553	14945.45
824.88	14914.72
825.207	14953.59
825.535	14861.61
825.862	14964.89
826.189	14912.01
826.516	14954.49
826.843	14976.19
827.17	14940.93
827.497	14943.42
827.824	14941.39
828.151	15021.38
828.478	14910.2
828.805	14950.43
829.131	14923.31
829.458	14867.26
829.785	14851.67
830.111	14906.81
830.438	14921.05
830.764	14904.78
831.09	14991.1
831.417	14858
831.743	14955.4
832.069	14930.09
832.395	14860.71
832.722	14909.07
833.048	14827.49
833.374	14926.92
833.7	14829.98
834.026	14861.39
834.351	14822.97
834.677	14782.07
835.003	14822.52
835.329	14822.97
835.654	14774.39
835.98	14702.3
836.306	14760.6
836.631	14678.34
836.956	14755.4
837.282	14731
837.607	14634.95
837.932	14679.02
838.258	14728.29
838.583	14534.84
838.908	14448.29
839.233	14543.21
839.558	14483.55
839.883	14391.12
840.208	14382.31
840.533	14408.75
840.858	14409.42
841.182	14424.34
841.507	14300.95
841.832	14225.47
842.156	14315.87
842.481	14302.31
842.805	14284.23
843.13	14239.94
843.454	14176.66
843.778	14112.26
844.103	14158.36
844.427	14135.76
844.751	14104.35
845.075	14138.24
845.399	13986.84
845.723	13960.4
846.047	13939.15
846.371	13799.04
846.695	13797.24
847.019	13749.33
847.343	13679.05
847.666	13594.3
847.99	13528.77
848.313	13528.99
848.637	13446.51
848.96	13436.34
849.284	13385.27
849.607	13308.89
849.931	13289.45
850.254	13167.42
850.577	13096.01
850.9	13065.96
851.223	13088.55
851.546	13013.98
851.869	12915.9
852.192	12975.11
852.515	12889.24
852.838	12837.71
853.161	12717.94
853.483	12736.47
853.806	12628.23
854.129	12682.46
854.451	12519.08
854.774	12526.99
855.096	12503.48
855.419	12452.86
855.741	12382.36
856.063	12376.71
856.385	12309.59
856.708	12300.78
857.03	12243.6
857.352	12228.69
857.674	12196.15
857.996	12121.8
858.318	12002.93
858.64	11980.79
858.961	12068.69
859.283	12110.73
859.605	11864.86
859.926	11987.34
860.248	11931.3
860.57	11864.86
860.891	11896.27
861.212	11771.98
861.534	11741.02
861.855	11682.26
862.176	11761.81
862.498	11655.37
862.819	11722.04
863.14	11640.46
863.461	11619.89
863.782	11659.44
864.103	11648.59
864.424	11529.95
864.745	11666.67
865.065	11540.12
865.386	11507.58
865.707	11403.17
866.027	11484.08
866.348	11419.45
866.668	11416.73
866.989	11420.58
867.309	11299.45
867.63	11378.54
867.95	11394.59
868.27	11365.21
868.59	11273.23
868.91	11255.83
869.23	11249.51
869.55	11258.09
869.87	11359.56
870.19	11319.56
870.51	11330.41
870.83	11248.15
871.15	11153.46
871.469	11056.74
871.789	11152.56
872.109	11136.74
872.428	11107.59
872.748	11149.4
873.067	11044.54
873.386	11118.66
873.706	11078.44
874.025	11022.17
874.344	10932.68
874.663	10938.55
874.982	10962.51
875.301	10930.87
875.62	10927.03
875.939	10917.54
876.258	10835.28
876.577	10799.8
876.896	10814.26
877.214	10837.09
877.533	10801.83
877.852	10845
878.17	10844.55
878.489	10851.78
878.807	10733.81
879.125	10785.56
879.444	10709.86
879.762	10740.37
880.08	10739.92
880.398	10628.96
880.716	10729.97
881.034	10624.89
881.352	10606.36
881.67	10603.65
881.988	10579.02
882.306	10541.95
882.624	10535.4
882.941	10465.35
883.259	10421.05
883.577	10358.68
883.894	10407.95
884.212	10391
884.529	10382.18
884.846	10311.45
885.164	10284.56
885.481	10231.23
885.798	10288.4
886.115	10210.89
886.432	10188.52
886.75	10182.42
887.067	10201.17
887.383	10081.85
887.7	10193.94
888.017	10078.46
888.334	10143.77
888.651	10055.41
888.967	9988.97
889.284	10036.88
889.6	9923.21
889.917	9960.05
890.233	9913.04
890.55	9873.5
890.866	9881.63
891.182	9782.43
891.498	9801.63
891.815	9762.99
892.131	9754.86
892.447	9661.98
892.763	9665.14
893.079	9660.17
893.395	9662.66
893.71	9593.5
894.026	9673.95
894.342	9480.29
894.657	9528.42
894.973	9436.22
895.289	9440.97
895.604	9405.49
895.92	9388.99
896.235	9348.99
896.55	9293.4
896.865	9283.68
897.181	9240.75
897.496	9235.77
897.811	9170.01
898.126	9146.28
898.441	9163.46
898.756	9127.08
899.071	8993.07
899.386	9077.13
899.7	8983.8
900.015	8891.15
900.33	8887.99
900.644	8850.02
900.959	8877.14
901.273	8880.76
901.588	8775.22
901.902	8721.89
902.216	8684.38
902.531	8695.22
902.845	8688.22
903.159	8614.1
903.473	8578.62
903.787	8622.91
904.101	8519.63
904.415	8505.62
904.729	8506.08
905.042	8366.19
905.356	8422.24
905.67	8351.28
905.984	8342.69
906.297	8330.49
906.611	8280.77
906.924	8257.95
907.237	8205.07
907.551	8170.94
907.864	8170.49
908.177	8151.51
908.491	8111.96
908.804	8069.03
909.117	7959.2
909.43	7991.97
909.743	7943.83
910.056	7940.21
910.368	7882.59
910.681	7901.35
910.994	7842.36
911.307	7822.25
911.619	7735.02
911.932	7791.07
912.244	7631.07
912.557	7647.79
912.869	7601.01
913.181	7549.94
913.494	7525.99
913.806	7508.59
914.118	7524.41
914.43	7501.58
914.742	7449.38
915.054	7438.99
915.366	7348.14
915.678	7347.24
915.99	7272.66
916.302	7231.53
916.613	7262.49
916.925	7236.73
917.236	7187.92
917.548	7155.83
917.859	7229.73
918.171	7159.67
918.482	7116.06
918.794	7068.37
919.105	7019.79
919.416	6947.92
919.727	6948.6
920.038	6897.53
920.349	6939.56
920.66	6856.85
920.971	6858.66
921.282	6846.23
921.593	6827.7
921.903	6782.05
922.214	6771.43
922.525	6737.31
922.835	6705.67
923.146	6619.35
923.456	6610.53
923.767	6620.48
924.077	6582.96
924.387	6530.31
924.697	6494.83
925.008	6482.17
925.318	6468.39
925.628	6446.24
925.938	6415.74
926.248	6326.92
926.558	6379.8
926.867	6305
927.177	6312.24
927.487	6273.59
927.796	6234.27
928.106	6236.3
928.416	6210.09
928.725	6175.29
929.034	6119.7
929.344	6110.43
929.653	6118.57
929.962	6083.09
930.271	6052.35
930.581	5983.66
930.89	5994.05
931.199	5971.91
931.508	5963.54
931.817	5973.94
932.125	5961.28
932.434	5929.42
932.743	5860.95
933.051	5835.19
933.36	5787.73
933.669	5758.8
933.977	5735.08
934.286	5724.45
934.594	5711.12
934.902	5727.17
935.21	5676.32
935.519	5637.9
935.827	5620.05
936.135	5580.5
936.443	5521.75
936.751	5543.22
937.059	5551.13
937.367	5487.85
937.674	5538.7
937.982	5447.4
938.29	5438.13
938.597	5463.9
938.905	5351.36
939.213	5331.92
939.52	5310.45
939.827	5339.83
940.135	5312.04
940.442	5251.25
940.749	5296.22
941.056	5255.31
941.363	5195.43
941.67	5194.98
941.977	5140.29
942.284	5156.79
942.591	5146.39
942.898	5057.35
943.205	5100.29
943.511	5074.53
943.818	5023.91
944.125	5019.39
944.431	4986.85
944.738	4979.84
945.044	4947.53
945.35	4923.35
945.657	4900.29
945.963	4868.43
946.269	4863.69
946.575	4874.98
946.881	4803.8
947.187	4800.64
947.493	4799.05
947.799	4733.97
948.105	4725.38
948.41	4742.78
948.716	4726.29
949.022	4657.14
949.327	4666.63
949.633	4610.58
949.938	4631.15
950.244	4604.48
950.549	4594.54
950.854	4615.33
951.16	4585.5
951.465	4513.41
951.77	4494.2
952.075	4488.1
952.38	4472.06
952.685	4434.54
952.99	4419.18
953.294	4415.11
953.599	4353.19
953.904	4308.22
954.209	4346.41
954.513	4342.12
954.818	4290.14
955.122	4237.26
955.426	4269.13
955.731	4265.06
956.035	4222.8
956.339	4207.21
956.643	4237.71
956.948	4169.47
957.252	4177.15
957.556	4164.72
957.86	4101.9
958.163	4122.46
958.467	4090.15
958.771	4098.51
959.075	4076.81
959.378	4064.38
959.682	4070.03
959.985	4021.9
960.289	4003.82
960.592	4007.21
960.896	3941.9
961.199	3936.7
961.502	3911.62
961.805	3881.11
962.108	3912.75
962.411	3883.82
962.714	3883.15
963.017	3839.76
963.32	3830.49
963.623	3783.71
963.926	3791.17
964.228	3777.61
964.531	3762.7
964.833	3776.48
965.136	3705.98
965.438	3694.45
965.741	3686.09
966.043	3649.93
966.345	3664.85
966.648	3629.37
966.95	3650.84
967.252	3611.97
967.554	3606.54
967.856	3590.5
968.158	3561.57
968.46	3590.05
968.761	3554.12
969.063	3528.58
969.365	3487.9
969.666	3504.63
969.968	3489.94
970.269	3445.19
970.571	3430.5
970.872	3421.24
971.174	3429.15
971.475	3425.98
971.776	3405.19
972.077	3357.06
972.378	3358.87
972.679	3324.97
972.98	3294.91
973.281	3309.83
973.582	3268.47
973.883	3354.8
974.183	3289.94
974.484	3247.91
974.785	3253.33
975.085	3235.25
975.386	3224.41
975.686	3203.39
975.986	3166.78
976.287	3146.22
976.587	3117.29
976.887	3124.07
977.187	3142.83
977.487	3105.77
977.787	3094.24
978.087	3055.15
978.387	3067.12
978.687	3056.28
978.987	3044.52
979.286	2981.25
979.586	3051.3
979.885	2986.67
980.185	2982.38
980.484	2998.42
980.784	2961.59
981.083	2967.24
981.382	2963.62
981.682	2938.09
981.981	2917.3
982.28	2876.85
982.579	2893.12
982.878	2878.88
983.177	2872.78
983.475	2850.18
983.774	2820.35
984.073	2814.47
984.372	2799.79
984.67	2812.44
984.969	2799.11
985.267	2791.65
985.566	2742.16
985.864	2736.96
986.162	2740.13
986.461	2735.61
986.759	2703.74
987.057	2704.42
987.355	2691.09
987.653	2672.1
987.951	2678.66
988.249	2617.19
988.547	2658.09
988.844	2631.2
989.142	2625.55
989.44	2587.36
989.737	2575.61
990.035	2551.66
990.332	2549.17
990.63	2540.36
990.927	2555.5
991.224	2514.82
991.521	2512.34
991.819	2497.87
992.116	2511.66
992.413	2477.76
992.71	2477.53
993.006	2453.35
993.303	2475.95
993.6	2432.34
993.897	2406.8
994.193	2411.55
994.49	2422.85
994.787	2362.96
995.083	2375.84
995.379	2340.59
995.676	2350.76
995.972	2344.88
996.268	2338.33
996.565	2316.41
996.861	2320.93
997.157	2289.52
997.453	2273.47
997.749	2293.13
998.044	2274.15
998.34	2221.5
998.636	2244.32
998.932	2239.57
999.227	2200.48
999.523	2171.1
999.818	2202.29
1000.114	2154.38
1000.409	2174.26
1000.704	2163.19
1001	2140.37
1001.295	2171.55
1001.59	2153.47
1001.885	2101.05
1002.18	2068.05
1002.475	2094.94
1002.77	2055.4
1003.065	2051.33
1003.359	2064.89
1003.654	2040.03
1003.949	2081.16
1004.243	2031.22
1004.538	2006.13
1004.832	2015.62
1005.127	1988.96
1005.421	1949.86
1005.715	1957.55
1006.009	1960.49
1006.304	1932.69
1006.598	1954.16
1006.892	1943.31
1007.186	1901.5
1007.48	1922.07
1007.773	1909.87
1008.067	1878.91
1008.361	1887.72
1008.655	1860.6
1008.948	1843.2
1009.242	1852.01
1009.535	1842.97
1009.829	1828.74
1010.122	1796.87
1010.415	1787.83
1010.708	1805.24
1011.001	1779.7
1011.295	1783.31
1011.588	1770.89
1011.881	1700.38
1012.173	1740.15
1012.466	1699.25
1012.759	1719.59
1013.052	1689.98
1013.344	1687.95
1013.637	1679.81
1013.93	1644.11
1014.222	1661.28
1014.514	1660.83
1014.807	1656.31
1015.099	1629.65
1015.391	1611.12
1015.683	1620.61
1015.976	1611.12
1016.268	1595.3
1016.56	1592.13
1016.851	1577.67
1017.143	1584.9
1017.435	1553.26
1017.727	1540.61
1018.018	1551.91
1018.31	1524.11
1018.602	1502.42
1018.893	1495.64
1019.185	1511.46
1019.476	1502.64
1019.767	1488.63
1020.058	1485.02
1020.35	1451.35
1020.641	1442.08
1020.932	1413.15
1021.223	1428.97
1021.514	1379.71
1021.804	1416.77
1022.095	1418.13
1022.386	1383.78
1022.677	1375.19
1022.967	1390.56
1023.258	1391.91
1023.548	1373.38
1023.839	1339.94
1024.129	1334.06
1024.419	1327.28
1024.709	1322.54
1025	1332.48
1025.29	1308.98
1025.58	1292.93
1025.87	1286.38
1026.16	1274.63
1026.449	1269.66
1026.739	1254.74
1027.029	1273.05
1027.319	1281.63
1027.608	1227.62
1027.898	1229.66
1028.187	1218.81
1028.477	1230.11
1028.766	1218.81
1029.055	1201.64
1029.344	1203.44
1029.634	1190.34
1029.923	1181.75
1030.212	1181.75
1030.501	1162.31
1030.79	1148.76
1031.078	1149.43
1031.367	1140.39
1031.656	1144.01
1031.945	1155.76
1032.233	1110.79
1032.522	1107.17
1032.81	1105.14
1033.099	1109.43
1033.387	1104.69
1033.675	1100.62
1033.963	1091.36
1034.251	1060.17
1034.54	1080.96
1034.828	1069.89
1035.116	1055.65
1035.403	1040.74
1035.691	1028.98
1035.979	1032.6
1036.267	1045.26
1036.554	1022.66
1036.842	1013.17
1037.129	984.69
1037.417	999.38
1037.704	965.03
1037.992	985.37
1038.279	991.92
1038.566	960.06
1038.853	960.06
1039.14	960.06
