Data from hue_22_FLMS001491_00059.txt Node
Date: Tue Feb 07 17:10:20 GMT 2017
User: dcchb
Spectrometer: FLMS00149
Trigger mode: 0
Integration Time (sec): 2.000000E-2
Scans to average: 10
Electric dark correction enabled: true
Nonlinearity correction enabled: false
Boxcar width: 0
XAxis mode: Wavelengths
Number of Pixels in Spectrum: 2048
>>>>>Begin Spectral Data<<<<<
341.393	-33.84
341.776	-33.84
342.16	-33.84
342.543	-68.64
342.927	-55.99
343.31	-62.54
343.693	-63.9
344.077	-70.9
344.46	-58.93
344.843	-37
345.226	-45.37
345.61	-45.37
345.993	-26.84
346.376	-6.5
346.759	-7.4
347.142	47.06
347.525	29.89
347.908	47.29
348.291	94.52
348.674	99.49
349.057	106.49
349.44	108.3
349.823	138.36
350.206	148.08
350.588	207.51
350.971	223.33
351.354	215.64
351.737	233.72
352.119	236.66
352.502	265.81
352.884	267.17
353.267	264.23
353.65	284.57
354.032	296.55
354.414	284.57
354.797	329.09
355.179	324.57
355.562	322.08
355.944	313.95
356.326	328.64
356.709	334.96
357.091	335.87
357.473	329.99
357.855	323.89
358.238	344
358.62	339.48
359.002	320.27
359.384	346.26
359.766	341.06
360.148	341.74
360.53	331.12
360.912	339.03
361.294	353.04
361.676	323.21
362.057	338.8
362.439	347.17
362.821	330.9
363.203	325.25
363.584	332.25
363.966	329.54
364.348	313.95
364.729	320.95
365.111	309.88
365.493	318.92
365.874	329.99
366.256	315.75
366.637	289.77
367.019	305.13
367.4	310.1
367.781	320.5
368.163	326.15
368.544	308.97
368.925	309.43
369.306	305.36
369.688	309.2
370.069	313.95
370.45	325.25
370.831	303.33
371.212	317.34
371.593	324.12
371.974	296.09
372.355	306.94
372.736	317.79
373.117	312.36
373.498	307.17
373.879	310.1
374.26	328.64
374.641	309.2
375.021	305.81
375.402	319.6
375.783	316.66
376.163	334.06
376.544	348.75
376.925	321.63
377.305	305.36
377.686	317.34
378.066	322.99
378.447	336.77
378.827	315.53
379.208	325.47
379.588	316.66
379.968	324.79
380.349	344.91
380.729	339.48
381.109	349.43
381.489	326.38
381.87	326.15
382.25	340.84
382.63	318.69
383.01	334.28
383.39	343.32
383.77	343.55
384.15	334.28
384.53	355.53
384.91	335.64
385.29	355.3
385.67	349.2
386.049	351.01
386.429	351.69
386.809	346.04
387.189	347.17
387.568	365.02
387.948	343.78
388.328	346.49
388.707	356.66
389.087	366.83
389.466	367.28
389.846	351.23
390.225	384.45
390.605	377
390.984	351.23
391.363	374.74
391.743	342.87
392.122	372.02
392.501	381.52
392.881	374.74
393.26	375.87
393.639	366.37
394.018	346.26
394.397	360.27
394.776	393.72
395.155	402.31
395.534	372.25
395.913	382.65
396.292	381.52
396.671	382.65
397.05	387.16
397.429	395.53
397.808	383.78
398.186	400.05
398.565	377.9
398.944	380.39
399.323	383.32
399.701	393.49
400.08	417.45
400.458	404.57
400.837	384.68
401.215	427.84
401.594	411.12
401.972	429.2
402.351	418.58
402.729	393.94
403.107	428.75
403.486	406.37
403.864	417.45
404.242	406.15
404.62	415.86
404.999	400.5
405.377	437.11
405.755	429.42
406.133	428.29
406.511	412.02
406.889	424.9
407.267	434.62
407.645	453.38
408.023	462.19
408.401	438.46
408.779	432.14
409.156	441.4
409.534	470.55
409.912	435.53
410.29	438.24
410.667	435.53
411.045	454.28
411.422	457.9
411.8	475.98
412.178	453.38
412.555	452.02
412.933	450.21
413.31	469.87
413.687	482.08
414.065	500.38
414.442	474.85
414.819	490.21
415.197	488.63
415.574	488.63
415.951	502.42
416.328	506.48
416.705	507.39
417.082	482.3
417.46	497.22
417.837	538.8
418.214	499.7
418.591	518.01
418.967	533.15
419.344	522.75
419.721	524.56
420.098	512.81
420.475	519.82
420.852	503.55
421.228	543.32
421.605	517.78
421.982	555.3
422.358	559.14
422.735	537.44
423.111	546.03
423.488	556.88
423.864	549.87
424.241	557.33
424.617	573.83
424.994	554.84
425.37	567.05
425.746	559.36
426.123	566.6
426.499	582.41
426.875	584.45
427.251	580.15
427.627	580.83
428.003	589.65
428.379	584.9
428.756	592.81
429.132	606.82
429.507	618.57
429.883	610.89
430.259	633.49
430.635	617.44
431.011	630.32
431.387	623.54
431.763	647.72
432.138	657.89
432.514	642.75
432.89	644.79
433.265	659.47
433.641	657.44
434.016	666.25
434.392	676.65
434.767	694.28
435.143	694.95
435.518	681.17
435.894	691.79
436.269	699.02
436.644	710.32
437.02	694.5
437.395	706.03
437.77	718.46
438.145	714.16
438.52	739.02
438.895	745.57
439.271	735.86
439.646	726.37
440.021	740.83
440.395	726.82
440.77	752.35
441.145	750.09
441.52	767.72
441.895	750.55
442.27	766.82
442.645	760.26
443.019	802.07
443.394	763.65
443.769	782.41
444.143	822.86
444.518	795.97
444.892	807.94
445.267	813.14
445.641	812.92
446.016	801.84
446.39	813.82
446.764	805.01
447.139	797.32
447.513	825.35
447.887	852.46
448.262	820.15
448.636	839.36
449.01	836.42
449.384	878.45
449.758	826.02
450.132	880.03
450.506	884.55
450.88	893.82
451.254	870.99
451.628	892.69
452.002	882.75
452.376	890.88
452.75	884.78
453.123	920.48
453.497	925.46
453.871	944.44
454.244	943.53
454.618	949.86
454.992	951.22
455.365	961.39
455.739	978.79
456.112	988.51
456.486	977.43
456.859	1001.61
457.232	1017.66
457.606	1034.15
457.979	1031.67
458.352	1034.38
458.725	1088.16
459.099	1069.41
459.472	1090.2
459.845	1078.45
460.218	1098.56
460.591	1091.1
460.964	1101.27
461.337	1112.57
461.71	1116.64
462.083	1141.72
462.456	1181.49
462.829	1176.07
463.201	1186.47
463.574	1161.38
463.947	1183.75
464.32	1208.84
464.692	1212.45
465.065	1225.11
465.438	1263.53
465.81	1270.31
466.183	1323.64
466.555	1293.13
466.928	1308.72
467.3	1325.45
467.672	1324.09
468.045	1372.9
468.417	1374.26
468.789	1383.97
469.161	1394.14
469.534	1426.01
469.906	1445.22
470.278	1469.17
470.65	1486.8
471.022	1486.8
471.394	1496.51
471.766	1529.28
472.138	1562.5
472.51	1565.44
472.882	1612.67
473.253	1627.36
473.625	1656.96
473.997	1721.59
474.369	1719.33
474.74	1735.83
475.112	1753.23
475.484	1787.58
475.855	1800.91
476.227	1827.81
476.598	1868.03
476.97	1893.57
477.341	1971.08
477.713	2004.75
478.084	1993
478.455	2062.83
478.827	2056.27
479.198	2117.51
479.569	2149.38
479.94	2209.26
480.311	2219.43
480.682	2289.04
481.053	2303.5
481.424	2367.23
481.795	2385.76
482.166	2443.38
482.537	2515.92
482.908	2534
483.279	2564.96
483.65	2659.42
484.021	2665.3
484.391	2728.12
484.762	2784.62
485.133	2805.41
485.503	2844.28
485.874	2879.3
486.244	2935.57
486.615	2989.36
486.985	2997.04
487.356	3095.34
487.726	3099.41
488.097	3172.18
488.467	3208.79
488.837	3285.39
489.207	3324.49
489.578	3382.57
489.948	3395.22
490.318	3489
490.688	3458.95
491.058	3557.03
491.428	3613.97
491.798	3635.89
492.168	3720.41
492.538	3761.77
492.908	3802.44
493.278	3845.38
493.648	3844.93
494.017	3899.84
494.387	4010.35
494.757	3998.6
495.126	4044.47
495.496	4080.18
495.866	4128.54
496.235	4156.11
496.605	4202.88
496.974	4231.58
497.344	4297.8
497.713	4312.49
498.082	4330.79
498.452	4393.16
498.821	4413.05
499.19	4437
499.559	4475.19
499.928	4476.55
500.298	4522.2
500.667	4566.26
501.036	4558.81
501.405	4613.49
501.774	4666.15
502.143	4635.64
502.512	4708.18
502.88	4727.62
503.249	4763.32
503.618	4791.57
503.987	4843.09
504.356	4872.24
504.724	4893.71
505.093	4832.02
505.462	4909.53
505.83	4904.56
506.199	4996.76
506.567	5073.37
506.936	4990.89
507.304	5056.65
507.672	5096.19
508.041	5118.79
508.409	5160.82
508.777	5135.97
509.145	5180.94
509.514	5214.83
509.882	5192.24
510.25	5264.1
510.618	5276.53
510.986	5280.82
511.354	5328.96
511.722	5347.94
512.09	5426.13
512.458	5412.8
512.826	5489.63
513.193	5479.01
513.561	5486.69
513.929	5543.87
514.297	5554.49
514.664	5602.85
515.032	5598.1
515.4	5645.78
515.767	5632.68
516.135	5701.15
516.502	5657.08
516.869	5736.85
517.237	5797.64
517.604	5698.66
517.972	5777.31
518.339	5826.34
518.706	5824.31
519.073	5835.38
519.44	5836.51
519.808	5919
520.175	5950.86
520.542	5978.43
520.909	6015.04
521.276	6022.5
521.643	6074.7
522.009	6083.51
522.376	6125.09
522.743	6182.94
523.11	6181.59
523.477	6270.17
523.843	6259.78
524.21	6332.55
524.577	6337.97
524.943	6347.69
525.31	6412.77
525.676	6479.43
526.043	6472.43
526.409	6520.79
526.776	6584.74
527.142	6570.05
527.508	6652.31
527.874	6679.88
528.241	6639.66
528.607	6703.16
528.973	6808.69
529.339	6806.88
529.705	6850.5
530.071	6897.73
530.437	6855.92
530.803	6928.46
531.169	6934.11
531.535	6970.72
531.901	7008.23
532.267	6952.19
532.632	7164.16
532.998	7081.68
533.364	7154.44
533.73	7156.03
534.095	7230.6
534.461	7244.16
534.826	7331.84
535.192	7297.94
535.557	7333.2
535.923	7345.63
536.288	7377.94
536.653	7408.45
537.019	7391.05
537.384	7441.67
537.749	7493.64
538.114	7531.16
538.479	7595.11
538.845	7584.26
539.21	7616.81
539.575	7661.78
539.94	7636.24
540.305	7735.9
540.67	7725.05
541.034	7760.53
541.399	7831.04
541.764	7817.25
542.129	7883.01
542.494	7887.98
542.858	7927.98
543.223	7978.15
543.587	8044.59
543.952	8038.04
544.316	8021.99
544.681	8028.09
545.045	8093.18
545.41	8175.21
545.774	8221.99
546.138	8200.97
546.503	8278.03
546.867	8212.5
547.231	8292.49
547.595	8393.28
547.959	8355.09
548.324	8348.99
548.688	8443.68
549.052	8479.83
549.416	8510.34
549.779	8455.88
550.143	8499.72
550.507	8588.31
550.871	8615.88
551.235	8560.51
551.599	8674.86
551.962	8716.89
552.326	8680.51
552.689	8764.35
553.053	8711.24
553.417	8699.94
553.78	8806.15
554.143	8832.59
554.507	8874.17
554.87	8837.34
555.234	8974.06
555.597	8863.1
555.96	8932.03
556.323	8933.15
556.686	9003.89
557.05	9107.16
557.413	9053.38
557.776	9144.67
558.139	9238.23
558.502	9175.63
558.865	9236.88
559.228	9265.12
559.59	9248.4
559.953	9322.98
560.316	9448.62
560.679	9405.46
561.041	9442.75
561.404	9489.52
561.767	9509.18
562.129	9490.65
562.492	9606.81
562.854	9525.23
563.217	9605.23
563.579	9675.96
563.941	9711.67
564.304	9757.77
564.666	9729.74
565.028	9842.74
565.39	9856.97
565.753	9932.68
566.115	9962.73
566.477	10033.46
566.839	9979.91
567.201	10035.72
567.563	10082.05
567.925	10096.74
568.287	10124.99
568.648	10158.66
569.01	10242.5
569.372	10352.55
569.734	10283.4
570.095	10348.71
570.457	10383.74
570.819	10368.82
571.18	10395.04
571.542	10526.33
571.903	10498.54
572.265	10617.4
572.626	10618.08
572.987	10675.48
573.349	10696.05
573.71	10714.8
574.071	10832.54
574.432	10996.6
574.794	10964.51
575.155	10964.06
575.516	11058.52
575.877	11149.37
576.238	11147.11
576.599	11314.79
576.96	11394.33
577.32	11419.64
577.681	11543.71
578.042	11601.11
578.403	11649.02
578.763	11735.79
579.124	11839.52
579.485	11974.2
579.845	12095.11
580.206	12196.35
580.566	12210.81
580.927	12395.44
581.287	12589.1
581.648	12657.8
582.008	12787.74
582.368	12962.88
582.728	13160.16
583.089	13252.14
583.449	13372.81
583.809	13604.22
584.169	13731.67
584.529	13871.33
584.889	14164.66
585.249	14311.54
585.609	14465.89
585.969	14635.38
586.329	14897.07
586.688	15060
587.048	15374.34
587.408	15530.27
587.768	15798.51
588.127	15996.7
588.487	16241.66
588.846	16625.83
589.206	16655.89
589.565	17126.39
589.925	17262.88
590.284	17584.23
590.643	17814.96
591.003	18124.1
591.362	18386.47
591.721	18681.37
592.08	18917.53
592.44	19243.39
592.799	19554.34
593.158	19905.97
593.517	20110.04
593.876	20443.13
594.235	20781.2
594.593	21104.81
594.952	21416.89
595.311	21674.06
595.67	22002.64
596.029	22429.3
596.387	22788.16
596.746	23149.96
597.104	23246.68
597.463	23627.23
597.822	24026.77
598.18	24191.51
598.538	24441.22
598.897	24975.9
599.255	25052.96
599.613	25722.32
599.972	25921.41
600.33	26200.5
600.688	26382.87
601.046	26762.74
601.404	27282.28
601.762	27462.16
602.12	27957.06
602.478	28146.66
602.836	28382.81
603.194	28556.37
603.552	28780.54
603.91	29142.79
604.268	29522.9
604.625	29716.56
604.983	30069.55
605.341	30256.21
605.698	30682.64
606.056	30936.87
606.413	31251.66
606.771	31573.46
607.128	31907.92
607.485	31851.2
607.843	32136.61
608.2	32585.41
608.557	32863.15
608.914	33057.49
609.272	33386.07
609.629	33614.54
609.986	33944.7
610.343	34158.48
610.7	34432.15
611.057	34553.72
611.414	34594.63
611.771	34978.8
612.127	35238.68
612.484	35435.96
612.841	35704.2
613.198	35913.46
613.554	36016.51
613.911	36386.44
614.267	36473.9
614.624	36700.11
614.98	36851.74
615.337	37199.3
615.693	37332.41
616.05	37502.35
616.406	37722
616.762	37989.79
617.118	38043.12
617.475	38151.6
617.831	38454.64
618.187	38610.57
618.543	38569.89
618.899	38959.71
619.255	39124
619.611	39132.36
619.967	39305.92
620.323	39557.21
620.678	39490.09
621.034	39439.47
621.39	39742.06
621.746	39732.12
622.101	40356.06
622.457	40057.99
622.812	40313.8
623.168	40427.02
623.523	40547.69
623.879	40612.55
624.234	40654.58
624.589	40701.13
624.945	40860.23
625.3	41110.16
625.655	41094.34
626.01	41281
626.365	41221.35
626.72	41388.12
627.075	41276.26
627.43	41504.28
627.785	41334.11
628.14	41582.92
628.495	41693.65
628.85	41694.1
629.205	41611.62
629.559	41890.25
629.914	41652.29
630.269	41900.42
630.623	41829.01
630.978	41797.83
631.332	42072.4
631.687	42143.58
632.041	42061.1
632.396	42150.59
632.75	42120.53
633.104	42165.28
633.459	42084.83
633.813	42139.06
634.167	42146.29
634.521	42173.86
634.875	42253.18
635.229	42264.26
635.583	42134.77
635.937	42029.91
636.291	42078.05
636.645	42151.04
636.999	42178.61
637.352	42236.23
637.706	41988.78
638.06	42270.58
638.413	42165.05
638.767	42003.92
639.121	42196.24
639.474	42067.2
639.828	42046.18
640.181	42064.94
640.534	42151.72
640.888	42028.56
641.241	41877.15
641.594	42001.21
641.947	42083.02
642.301	42107.88
642.654	42097.71
643.007	42107.42
643.36	42091.38
643.713	41956.47
644.066	42123.69
644.419	41873.76
644.771	41605.74
645.124	41261.34
645.477	41279.88
645.83	41045.53
646.182	40981.8
646.535	40910.85
646.888	40961.47
647.24	40866.1
647.593	41024.29
647.945	40926.21
648.298	40725.77
648.65	40607.35
649.002	40521.25
649.355	40773.67
649.707	40807.35
650.059	40876.04
650.411	41424.28
650.763	41294.34
651.115	41827.43
651.467	41572.97
651.819	41645.97
652.171	41539.08
652.523	41523.48
652.875	41597.61
653.227	41439.87
653.578	41642.13
653.93	41560.32
654.282	41376.37
654.633	41392.41
654.985	41564.61
655.337	41633.31
655.688	41360.78
656.039	41603.26
656.391	41320.78
656.742	41437.16
657.094	41538.4
657.445	41570.26
657.796	41460.21
658.147	41379.08
658.498	41279.2
658.849	41439.42
659.2	41392.87
659.551	41212.98
659.902	41300.67
660.253	41222.7
660.604	41362.58
660.955	41254.34
661.306	41370.95
661.656	41196.04
662.007	41284.17
662.358	41295.92
662.708	41313.55
663.059	41275.13
663.409	41079.65
663.76	41411.62
664.11	41311.74
664.461	41373.43
664.811	41294.56
665.161	41312.87
665.511	41154.68
665.862	41166.66
666.212	41306.54
666.562	41267.22
666.912	41129.14
667.262	41201.01
667.612	41066.1
667.962	41350.16
668.312	41093.67
668.662	41293.66
669.011	41200.33
669.361	41151.29
669.711	41038.98
670.06	41031.29
670.41	41018.64
670.76	41080.56
671.109	41076.26
671.459	41060.67
671.808	41063.38
672.157	41136.15
672.507	40933.67
672.856	40952.43
673.205	40961.24
673.554	41095.02
673.904	40941.35
674.253	41071.07
674.602	40989.26
674.951	40422.72
675.3	40370.07
675.649	40896.16
675.998	40825.42
676.346	40693.9
676.695	40926.21
677.044	40540.69
677.393	40803.28
677.741	40705.88
678.09	40657.74
678.438	40745.65
678.787	40645.99
679.135	40674.24
679.484	40450.07
679.832	40536.17
680.181	40382.72
680.529	40512.66
680.877	40213.24
681.225	40251.2
681.573	40434.93
681.922	40238.09
682.27	40147.7
682.618	40292.1
682.966	40168.94
683.314	40119.68
683.661	39988.16
684.009	39834.72
684.357	39843.3
684.705	39694.83
685.053	39735.51
685.4	39705.91
685.748	39600.82
686.095	39580.26
686.443	39366.48
686.79	39291.45
687.138	39529.41
687.485	39424.1
687.832	39266.82
688.18	39420.26
688.527	38982.76
688.874	39068.41
689.221	39008.3
689.568	39028.63
689.915	38827.51
690.262	38838.36
690.609	38770.11
690.956	38747.96
691.303	38596.78
691.65	38394.3
691.997	38436.33
692.344	38206.51
692.69	38135.32
693.037	38161.76
693.383	38078.6
693.73	38043.58
694.077	37716.58
694.423	37819.4
694.769	37773.3
695.116	37607.43
695.462	37497.15
695.808	37390.94
696.155	37532.4
696.501	37240.21
696.847	37365.63
697.193	37095.8
697.539	37024.17
697.885	36799.09
698.231	36823.5
698.577	36854.23
698.923	36788.92
699.269	36650.62
699.614	36438.65
699.96	36277.29
700.306	36361.59
700.651	36227.13
700.997	36041.59
701.342	36129.73
701.688	35969.28
702.033	35884.54
702.379	35774.94
702.724	35727.25
703.069	35803.86
703.415	35415.62
703.76	35506.02
704.105	35519.35
704.45	35236.64
704.795	35158.45
705.14	35044.56
705.485	35063.32
705.83	34816.54
706.175	34897.67
706.52	34844.56
706.865	34782.64
707.209	34527.74
707.554	34568.64
707.899	34703.55
708.243	34458.81
708.588	34351.02
708.932	34048.88
709.277	34165.26
709.621	34213.62
709.966	33936.79
710.31	33984.93
710.654	33687.53
710.998	33902.89
711.342	33843.91
711.687	33791.48
712.031	33530.47
712.375	33498.38
712.719	33626.06
713.063	33530.25
713.407	33606.18
713.75	33376.35
714.094	33251.61
714.438	33190.14
714.782	33276.24
715.125	33146.08
715.469	33157.15
715.812	33043.48
716.156	32935.01
716.499	32861.79
716.843	32836.93
717.186	32715.58
717.53	32984.05
717.873	32711.06
718.216	32747.67
718.559	32579.99
718.902	32236.05
719.246	32434.91
719.589	32303.84
719.932	32273.78
720.275	32117.63
720.617	32150.85
720.96	31993.57
721.303	32026.11
721.646	32243.05
721.989	31913.12
722.331	31991.76
722.674	31883.29
723.016	31841.93
723.359	31734.36
723.701	31907.92
724.044	31611.65
724.386	31480.81
724.729	31531.2
725.071	31496.86
725.413	31421.38
725.755	31458.21
726.097	31159.46
726.439	31149.52
726.782	31223.64
727.124	31315.39
727.465	31152.01
727.807	31102.52
728.149	31054.38
728.491	30921.28
728.833	31007.38
729.175	30936.64
729.516	30938
729.858	30812.81
730.199	30869.75
730.541	30790.43
730.882	30716.76
731.224	30699.14
731.565	30606.03
731.906	30615.75
732.248	30517.45
732.589	30385.7
732.93	30400.39
733.271	30366.04
733.612	30439.26
733.953	30414.85
734.294	30218.92
734.635	30104.58
734.976	30323.1
735.317	30234.74
735.658	30097.12
735.999	30128.3
736.339	30002.21
736.68	30023.45
737.021	30062.54
737.361	29806.05
737.702	30020.06
738.042	29837.69
738.383	29703.46
738.723	29801.53
739.063	29760.18
739.404	29783.91
739.744	29584.82
740.084	29616.68
740.424	29603.12
740.764	29629.11
741.104	29602.67
741.444	29554.53
741.784	29402.45
742.124	29483.35
742.464	29400.87
742.804	29346.18
743.143	29251.94
743.483	29230.47
743.823	29248.33
744.162	29125.17
744.502	29119.97
744.841	29040.65
745.181	29101.89
745.52	28908
745.86	28973.76
746.199	29063.93
746.538	28990.25
746.877	28955.23
747.216	28862.8
747.556	28875.91
747.895	28867.09
748.234	28783.48
748.573	28626.2
748.911	28664.84
749.25	28686.99
749.589	28544.39
749.928	28619.42
750.267	28569.02
750.605	28529.02
750.944	28413.77
751.283	28255.81
751.621	28471.4
751.96	28219.2
752.298	28205.19
752.636	28303.27
752.975	28086.55
753.313	27857.86
753.651	28162.48
753.989	27938.3
754.327	27914.35
754.666	27769.72
755.004	27748.93
755.342	27873.22
755.679	27813.79
756.017	27625.32
756.355	27693.57
756.693	27642.04
757.031	27669.84
757.368	27366.79
757.706	27329.51
758.044	27273.01
758.381	27314.59
758.719	27242.28
759.056	27253.35
759.394	27157.53
759.731	26982.85
760.068	26973.36
760.405	26916.64
760.743	26664.44
761.08	26812.68
761.417	26667.38
761.754	26631.67
762.091	26634.38
762.428	26405.69
762.765	26506.93
763.102	26503.09
763.438	26315.97
763.775	26140.16
764.112	26209.08
764.449	26325.47
764.785	26000.28
765.122	25929.54
765.458	25789.66
765.795	25769.55
766.131	25812.26
766.467	25666.05
766.804	25578.82
767.14	25472.83
767.476	25430.12
767.812	25277.58
768.148	25383.57
768.485	25129.57
768.821	25082.11
769.157	25004.37
769.492	24984.03
769.828	24995.56
770.164	24727.09
770.5	24686.64
770.836	24579.98
771.171	24333.65
771.507	24422.69
771.842	24255.69
772.178	24351.73
772.513	24163.71
772.849	24095.92
773.184	24001.01
773.519	23993.32
773.855	23820.22
774.19	23824.51
774.525	23634.69
774.86	23821.35
775.195	23689.6
775.53	23512.43
775.865	23267.69
776.2	23287.35
776.535	23046.68
776.87	23043.07
777.205	23052.33
777.539	22920.36
777.874	22915.16
778.209	22729.18
778.543	22555.17
778.878	22635.85
779.212	22691.21
779.547	22483.08
779.881	22581.16
780.215	22378.45
780.55	22427.49
780.884	22182.07
781.218	22168.51
781.552	22133.49
781.886	22006.94
782.22	21909.76
782.554	21790.44
782.888	21630
783.222	21492.82
783.556	21525.37
783.889	21414.86
784.223	21296.22
784.557	21240.18
784.89	21227.29
785.224	21056.68
785.557	21055.32
785.891	21029.56
786.224	20887.64
786.558	20952.27
786.891	20672.28
787.224	20638.61
787.557	20449.24
787.891	20558.16
788.224	20519.74
788.557	20474.77
788.89	20372.63
789.223	20378.05
789.556	20199.53
789.888	20097.16
790.221	20109.81
790.554	19889.48
790.887	19907.56
791.219	19787.11
791.552	19776.71
791.884	19711.18
792.217	19583.72
792.549	19603.61
792.882	19554.8
793.214	19324.97
793.546	19447.68
793.879	19298.98
794.211	19162.26
794.543	19289.04
794.875	19123.17
795.207	19228.25
795.539	19173.79
795.871	19122.04
796.203	18958.43
796.535	18743.29
796.867	18775.16
797.198	18714.37
797.53	18775.83
797.862	18595.73
798.193	18595.5
798.525	18415.84
798.856	18601.83
799.188	18232.12
799.519	18332.68
799.85	18183.99
800.182	18223.76
800.513	18170.65
800.844	18044.78
801.175	18169.97
801.506	18022.63
801.837	17895.63
802.168	17816.09
802.499	17847.27
802.83	17722.08
803.161	17732.25
803.491	17662.87
803.822	17631.91
804.153	17551.01
804.483	17494.29
804.814	17360.5
805.145	17438.24
805.475	17327.96
805.805	17278.47
806.136	17226.5
806.466	17292.71
806.796	17196.44
807.126	17047.07
807.457	16935.88
807.787	17071.47
808.117	16996.67
808.447	16866.96
808.777	16843.68
809.107	16835.32
809.436	16780.63
809.766	16748.54
810.096	16641.88
810.426	16511.94
810.755	16626.96
811.085	16595.1
811.414	16636.91
811.744	16419.96
812.073	16405.73
812.403	16365.05
812.732	16236.47
813.061	16315.79
813.39	16128.67
813.719	16107.2
814.049	16219.52
814.378	16142.46
814.707	16069.92
815.036	15998.96
815.365	15929.36
815.693	15857.04
816.022	15856.81
816.351	15826.53
816.68	15737.5
817.008	15729.13
817.337	15574.34
817.665	15555.13
817.994	15627.67
818.322	15666.76
818.651	15381.57
818.979	15424.28
819.307	15555.81
819.636	15454.34
819.964	15337.96
820.292	15409.37
820.62	15460.89
820.948	15386.32
821.276	15270.62
821.604	15391.97
821.932	15377.05
822.259	15271.07
822.587	15275.36
822.915	15164.86
823.243	15307
823.57	15311.52
823.898	15275.81
824.225	15221.58
824.553	15268.36
824.88	15289.37
825.207	15339.54
825.535	15245.53
825.862	15265.64
826.189	15190.17
826.516	15216.61
826.843	15238.07
827.17	15307.22
827.497	15272.42
827.824	15274.91
828.151	15256.6
828.478	15304.96
828.805	15217.51
829.131	15128.47
829.458	15195.59
829.785	15172.99
830.111	15178.64
830.438	15232.88
830.764	15203.72
831.09	15260.45
831.417	15160.79
831.743	15177.74
832.069	15144.52
832.395	15167.57
832.722	15071.52
833.048	15124.86
833.374	15020
833.7	15080.79
834.026	15085.31
834.351	15179.32
834.677	15087.8
835.003	14949.04
835.329	15057.74
835.654	15047.8
835.98	14933.45
836.306	14968.48
836.631	14904.07
836.956	14953.56
837.282	14936.16
837.607	14853.68
837.932	14825.88
838.258	14856.62
838.583	14788.14
838.908	14728.93
839.233	14742.95
839.558	14704.75
839.883	14641.93
840.208	14569.84
840.533	14606.9
840.858	14647.58
841.182	14554.02
841.507	14613.68
841.832	14529.17
842.156	14443.29
842.481	14450.75
842.805	14444.2
843.13	14386.34
843.454	14417.08
843.778	14272.68
844.103	14210.53
844.427	14219.12
844.751	14213.69
845.075	14183.86
845.399	14061.61
845.723	14013.25
846.047	14069.07
846.371	13929.86
846.695	14039.69
847.019	13874.72
847.343	13803.99
847.666	13689.87
847.99	13632.47
848.313	13656.65
848.637	13603.77
848.96	13539.14
849.284	13578.46
849.607	13445.35
849.931	13414.85
850.254	13303.66
850.577	13212.59
850.9	13130.33
851.223	13154.51
851.546	13084.01
851.869	12964.01
852.192	13032.03
852.515	12996.55
852.838	12837.91
853.161	12845.37
853.483	12820.74
853.806	12768.76
854.129	12740.51
854.451	12701.87
854.774	12670.91
855.096	12614.41
855.419	12526.28
855.741	12555.43
856.063	12464.59
856.385	12465.72
856.708	12380.97
857.03	12319.73
857.352	12360.86
857.674	12248.77
857.996	12152.28
858.318	12190.02
858.64	12137.82
858.961	12144.82
859.283	12045.84
859.605	12050.14
859.926	12100.98
860.248	12029.12
860.57	12008.78
860.891	12001.55
861.212	11865.06
861.534	11838.84
861.855	11863.93
862.176	11872.74
862.498	11799.75
862.819	11875.22
863.14	11811.05
863.461	11667.09
863.782	11658.96
864.103	11761.33
864.424	11598.85
864.745	11664.61
865.065	11526.76
865.386	11526.08
865.707	11542.58
866.027	11614.44
866.348	11538.74
866.668	11548.68
866.989	11523.82
867.309	11443.37
867.63	11501.9
867.95	11460.55
868.27	11380.1
868.59	11444.73
868.91	11407.89
869.23	11413.54
869.55	11392.98
869.87	11357.05
870.19	11258.29
870.51	11355.01
870.83	11306.65
871.15	11222.81
871.469	11284.73
871.789	11257.84
872.109	11190.72
872.428	11130.16
872.748	11168.12
873.067	11124.28
873.386	11099.88
873.706	11135.36
874.025	11047.68
874.344	11025.3
874.663	11003.38
874.982	11011.29
875.301	10942.14
875.62	10882.26
875.939	10941.46
876.258	10933.1
876.577	10917.06
876.896	10940.56
877.214	10870.51
877.533	10915.48
877.852	10818.98
878.17	10856.04
878.489	10833.44
878.807	10863.05
879.125	10789.83
879.444	10822.37
879.762	10768.36
880.08	10781.69
880.398	10730.62
880.716	10662.15
881.034	10657.18
881.352	10659.66
881.67	10586.44
881.988	10651.3
882.306	10682.26
882.624	10529.95
882.941	10578.99
883.259	10505.54
883.577	10473.45
883.894	10463.06
884.212	10460.12
884.529	10349.84
884.846	10402.95
885.164	10317.07
885.481	10297.86
885.798	10438.43
886.115	10273.46
886.432	10232.33
886.75	10187.59
887.067	10261.03
887.383	10136.74
887.7	10204.99
888.017	10147.36
888.334	10152.11
888.651	10100.81
888.967	10082.5
889.284	10047.7
889.6	10049.96
889.917	9969.51
890.233	9991.21
890.55	9910.76
890.866	9879.34
891.182	9957.53
891.498	9829.63
891.815	9786.01
892.131	9765.9
892.447	9758.9
892.763	9718.45
893.079	9709.86
893.395	9662.18
893.71	9616.53
894.026	9625.34
894.342	9548.96
894.657	9603.19
894.973	9513.25
895.289	9545.12
895.604	9485.68
895.92	9358.68
896.235	9342.64
896.55	9385.8
896.865	9338.57
897.181	9337.66
897.496	9320.49
897.811	9249.76
898.126	9232.58
898.441	9098.35
898.756	9214.5
899.071	9107.16
899.386	9119.14
899.7	9035.98
900.015	9052.02
900.33	8974.74
900.644	8950.56
900.959	8985.58
901.273	8915.3
901.588	8888.64
901.902	8826.04
902.216	8763.44
902.531	8770.45
902.845	8764.12
903.159	8713.5
903.473	8677.34
903.787	8631.47
904.101	8544.46
904.415	8571.81
904.729	8560.06
905.042	8525.71
905.356	8462.88
905.67	8459.95
905.984	8487.74
906.297	8388.54
906.611	8389.44
906.924	8306.73
907.237	8346.73
907.551	8300.86
907.864	8248.43
908.177	8205.72
908.491	8203.23
908.804	8144.93
909.117	8084.36
909.43	8047.53
909.743	8023.8
910.056	7976.57
910.368	7971.37
910.681	7928.21
910.994	7940.64
911.307	7890.24
911.619	7775.22
911.932	7811.15
912.244	7783.81
912.557	7797.59
912.869	7701.55
913.181	7677.82
913.494	7679.4
913.806	7596.01
914.118	7548.56
914.43	7518.95
914.742	7562.34
915.054	7490.48
915.366	7419.52
915.678	7414.1
915.99	7446.41
916.302	7381.78
916.613	7315.12
916.925	7299.98
917.236	7327.55
917.548	7253.43
917.859	7256.14
918.171	7227.21
918.482	7197.83
918.794	7162.13
919.105	7102.92
919.416	7064.05
919.727	7046.42
920.038	7013.43
920.349	6982.7
920.66	6956.48
920.971	6973.43
921.282	6935.47
921.593	6904.96
921.903	6844.85
922.214	6856.83
922.525	6816.6
922.835	6749.94
923.146	6684.4
923.456	6667
923.767	6632.2
924.077	6641.24
924.387	6641.92
924.697	6576.61
925.008	6544.07
925.318	6500.68
925.628	6504.74
925.938	6468.59
926.248	6425.2
926.558	6395.82
926.867	6401.7
927.177	6313.11
927.487	6339.32
927.796	6280.34
928.106	6255.49
928.416	6269.27
928.725	6222.94
929.034	6185.66
929.344	6188.59
929.653	6114.25
929.962	6087.35
930.271	6092.55
930.581	6042.16
930.89	6065.66
931.199	5982.05
931.508	6016.17
931.817	5974.14
932.125	5961.26
932.434	5962.39
932.743	5822.73
933.051	5865.66
933.36	5840.35
933.669	5763.97
933.977	5768.94
934.286	5773.92
934.594	5769.62
934.902	5725.78
935.21	5708.38
935.519	5649.63
935.827	5648.95
936.135	5620.02
936.443	5535.5
936.751	5530.98
937.059	5602.85
937.367	5509.29
937.674	5525.33
937.982	5485.34
938.29	5388.62
938.597	5424.32
938.905	5339.13
939.213	5367.6
939.52	5299.8
939.827	5319.01
940.135	5277.66
940.442	5260.94
940.749	5251.9
941.056	5302.97
941.363	5196.98
941.67	5126.48
941.977	5162.41
942.284	5147.72
942.591	5136.64
942.898	5105.23
943.205	5071.79
943.511	5071.56
943.818	5081.5
944.125	4987.04
944.431	4991.34
944.738	4982.98
945.044	4978
945.35	4910.44
945.657	4872.92
945.963	4888.74
946.269	4854.39
946.575	4835.86
946.881	4831.57
947.187	4833.38
947.493	4795.18
947.799	4767.84
948.105	4760.38
948.41	4726.49
948.716	4747.05
949.022	4688.29
949.327	4670.89
949.633	4602.65
949.938	4631.35
950.244	4634.96
950.549	4609.43
950.854	4519.49
951.16	4532.14
951.465	4535.98
951.77	4462.76
952.075	4459.15
952.38	4417.34
952.685	4449.88
952.99	4410.79
953.294	4451.92
953.599	4348.64
953.904	4360.85
954.209	4327.17
954.513	4327.17
954.818	4309.77
955.122	4326.27
955.426	4301.41
955.731	4270.9
956.035	4191.13
956.339	4222.09
956.643	4183
956.948	4142.09
957.252	4157.69
957.556	4174.64
957.86	4113.62
958.163	4103.23
958.467	4069.78
958.771	4072.49
959.075	4051.7
959.378	4006.5
959.682	3997.24
959.985	3994.75
960.289	3978.26
960.592	3977.58
960.896	3952.95
961.199	3901.2
961.502	3926.28
961.805	3917.69
962.108	3884.7
962.411	3863.01
962.714	3879.28
963.017	3853.29
963.32	3847.41
963.623	3781.43
963.926	3802.67
964.228	3803.12
964.531	3778.94
964.833	3733.07
965.136	3706.63
965.438	3731.94
965.741	3661.88
966.043	3644.25
966.345	3642.67
966.648	3616.23
966.95	3613.75
967.252	3602.9
967.554	3615.55
967.856	3627.76
968.158	3556.35
968.46	3588.66
968.761	3533.75
969.063	3534.88
969.365	3494.2
969.666	3510.25
969.968	3445.16
970.269	3442.45
970.571	3439.51
970.872	3461.21
971.174	3408.55
971.475	3375.33
971.776	3383.24
972.077	3326.52
972.378	3339.86
972.679	3312.96
972.98	3314.09
973.281	3262.8
973.582	3305.96
973.883	3277.71
974.183	3235
974.484	3204.49
974.785	3237.94
975.085	3233.64
975.386	3218.5
975.686	3177.15
975.986	3160.2
976.287	3170.14
976.587	3141.44
976.887	3152.29
977.187	3137.38
977.487	3136.47
977.787	3096.02
978.087	3063.03
978.387	3048.34
978.687	3065.06
978.987	3049.24
979.286	3024.84
979.586	3013.99
979.885	3008.56
980.185	2991.84
980.484	2984.16
980.784	2973.76
981.083	2946.65
981.382	2936.48
981.682	2930.6
981.981	2903.48
982.28	2878.85
982.579	2863.94
982.878	2856.03
983.177	2863.26
983.475	2834.56
983.774	2807.89
984.073	2802.69
984.372	2811.96
984.67	2801.56
984.969	2795.46
985.267	2772.19
985.566	2737.39
985.864	2735.35
986.162	2724.96
986.461	2684.73
986.759	2672.53
987.057	2681.57
987.355	2636.82
987.653	2635.92
987.951	2655.13
988.249	2623.94
988.547	2628.46
988.844	2610.38
989.142	2634.34
989.44	2583.94
989.737	2592.3
990.035	2577.62
990.332	2563.38
990.63	2518.86
990.927	2508.92
991.224	2535.58
991.521	2527.45
991.819	2501.69
992.116	2506.66
992.413	2449.71
992.71	2471.18
993.006	2439.09
993.303	2443.83
993.6	2434.34
993.897	2442.48
994.193	2404.97
994.49	2392.08
994.787	2399.32
995.083	2372.2
995.379	2359.77
995.676	2365.64
995.972	2342.37
996.268	2353.44
996.565	2322.93
996.861	2294.01
997.157	2303.95
997.453	2334.46
997.749	2267.34
998.044	2282.48
998.34	2249.04
998.636	2263.5
998.932	2239.55
999.227	2222.6
999.523	2216.27
999.818	2192.54
1000.114	2167.91
1000.409	2156.16
1000.704	2152.77
1001	2135.82
1001.295	2145.31
1001.59	2137.18
1001.885	2100.57
1002.18	2120.45
1002.475	2081.81
1002.77	2123.39
1003.065	2057.18
1003.359	2047.46
1003.654	2042.71
1003.949	2031.87
1004.243	1982.83
1004.538	2005.65
1004.832	2018.99
1005.127	2000.68
1005.421	1997.29
1005.715	1954.13
1006.009	1960.46
1006.304	1938.54
1006.598	1930.4
1006.892	1937.18
1007.186	1927.69
1007.48	1920.91
1007.773	1879.78
1008.067	1873.23
1008.361	1880.69
1008.655	1858.99
1008.948	1870.06
1009.242	1833.45
1009.535	1818.77
1009.829	1806.56
1010.122	1795.49
1010.415	1816.51
1010.708	1783.51
1011.001	1805.21
1011.295	1774.7
1011.588	1749.84
1011.881	1736.73
1012.173	1760.69
1012.466	1743.29
1012.759	1687.24
1013.052	1707.81
1013.344	1710.52
1013.637	1701.71
1013.93	1708.49
1014.222	1667.81
1014.514	1653.12
1014.807	1650.63
1015.099	1638.88
1015.391	1628.94
1015.683	1620.13
1015.976	1622.16
1016.268	1575.83
1016.56	1586.91
1016.851	1579.68
1017.143	1549.39
1017.435	1559.56
1017.727	1547.36
1018.018	1546.91
1018.31	1519.79
1018.602	1517.3
1018.893	1517.98
1019.185	1484.99
1019.476	1474.37
1019.767	1509.4
1020.058	1487.02
1020.35	1451.09
1020.641	1455.16
1020.932	1447.93
1021.223	1433.69
1021.514	1440.47
1021.804	1401.83
1022.095	1414.03
1022.386	1401.6
1022.677	1382.39
1022.967	1391.43
1023.258	1383.52
1023.548	1378.78
1023.839	1354.37
1024.129	1335.84
1024.419	1349.85
1024.709	1338.33
1025	1302.85
1025.29	1302.62
1025.58	1281.83
1025.87	1300.81
1026.16	1292.68
1026.449	1294.26
1026.739	1277.99
1027.029	1262.85
1027.319	1254.03
1027.608	1243.64
1027.898	1248.61
1028.187	1212.23
1028.477	1218.78
1028.766	1225.79
1029.055	1200.48
1029.344	1177.43
1029.634	1174.71
1029.923	1167.03
1030.212	1181.04
1030.501	1174.04
1030.79	1145.34
1031.078	1139.69
1031.367	1131.33
1031.656	1133.36
1031.945	1135.39
1032.233	1109.86
1032.522	1120.48
1032.81	1105.34
1033.099	1085
1033.387	1079.8
1033.675	1072.12
1033.963	1079.8
1034.251	1069.63
1034.54	1052.46
1034.828	1053.14
1035.116	1025.79
1035.403	1066.24
1035.691	1027.6
1035.979	1020.59
1036.267	1027.37
1036.554	1014.27
1036.842	1009.97
1037.129	1008.39
1037.417	982.86
1037.704	981.05
1037.992	970.65
1038.279	967.49
1038.566	969.75
1038.853	969.75
1039.14	969.75
