Data from hue_26_FLMS001491_00009.txt Node
Date: Tue Feb 07 17:13:29 GMT 2017
User: dcchb
Spectrometer: FLMS00149
Trigger mode: 0
Integration Time (sec): 2.000000E-2
Scans to average: 10
Electric dark correction enabled: true
Nonlinearity correction enabled: false
Boxcar width: 0
XAxis mode: Wavelengths
Number of Pixels in Spectrum: 2048
>>>>>Begin Spectral Data<<<<<
341.393	-19.46
341.776	-19.46
342.16	-19.46
342.543	-64.21
342.927	-87.26
343.31	-69.4
343.693	-58.33
344.077	-71.89
344.46	-61.95
344.843	-59.91
345.226	-34.83
345.61	-51.78
345.993	-22.85
346.376	-9.29
346.759	19.63
347.142	21.89
347.525	58.73
347.908	67.99
348.291	77.26
348.674	94.21
349.057	100.53
349.44	117.93
349.823	144.15
350.206	163.13
350.588	205.39
350.971	187.09
351.354	239.51
351.737	224.82
352.119	228.67
352.502	255.33
352.884	289.91
353.267	281.77
353.65	296.91
354.032	289.46
354.414	317.7
354.797	334.65
355.179	322.68
355.562	343.92
355.944	350.92
356.326	345.73
356.709	313.86
357.091	324.71
357.473	335.78
357.855	328.1
358.238	343.24
358.62	338.72
359.002	334.65
359.384	354.76
359.766	361.54
360.148	326.74
360.53	329.91
360.912	333.52
361.294	314.54
361.676	336.46
362.057	323.13
362.439	340.75
362.821	305.73
363.203	314.31
363.584	340.08
363.966	329.45
364.348	335.33
364.729	309.57
365.111	327.42
365.493	313.18
365.874	308.66
366.256	308.89
366.637	321.32
367.019	327.87
367.4	320.19
367.781	308.44
368.163	322.9
368.544	312.51
368.925	320.42
369.306	336.23
369.688	316.35
370.069	328.32
370.45	302.79
370.831	324.48
371.212	294.2
371.593	328.32
371.974	314.31
372.355	310.7
372.736	304.37
373.117	324.26
373.498	302.56
373.879	322.22
374.26	304.6
374.641	309.12
375.021	324.48
375.402	312.96
375.783	323.13
376.163	326.52
376.544	315.9
376.925	314.54
377.305	349.57
377.686	338.72
378.066	321.55
378.447	329.68
378.827	335.33
379.208	332.17
379.588	317.48
379.968	337.82
380.349	326.97
380.729	355.44
381.109	339.4
381.489	332.17
381.87	339.85
382.25	318.83
382.63	345.5
383.01	332.84
383.39	352.5
383.77	345.95
384.15	346.18
384.53	356.35
384.91	340.08
385.29	346.63
385.67	355.67
386.049	345.05
386.429	321.09
386.809	356.12
387.189	344.6
387.568	352.73
387.948	364.26
388.328	360.41
388.707	346.4
389.087	355.67
389.466	359.51
389.846	367.19
390.225	357.25
390.605	355.44
390.984	367.65
391.363	378.04
391.743	374.88
392.122	381.88
392.501	368.55
392.881	368.1
393.26	377.81
393.639	347.08
394.018	390.24
394.397	384.59
394.776	378.94
395.155	366.52
395.534	392.28
395.913	381.43
396.292	380.07
396.671	379.62
397.05	395.89
397.429	387.31
397.808	390.02
398.186	387.76
398.565	392.5
398.944	413.52
399.323	382.33
399.701	400.87
400.08	389.11
400.458	409.68
400.837	393.63
401.215	390.47
401.594	400.87
401.972	404.71
402.351	395.44
402.729	423.92
403.107	404.25
403.486	417.81
403.864	394.09
404.242	412.39
404.62	402.22
404.999	401.77
405.377	414.88
405.755	428.44
406.133	420.3
406.511	434.76
406.889	416.91
407.267	429.34
407.645	427.53
408.023	428.66
408.401	447.87
408.779	430.92
409.156	441.99
409.534	447.42
409.912	435.89
410.29	454.42
410.667	446.06
411.045	443.8
411.422	449.68
411.8	458.04
412.178	465.95
412.555	485.83
412.933	463.46
413.31	496.68
413.687	491.03
414.065	473.63
414.442	459.62
414.819	475.44
415.197	482.9
415.574	491.71
415.951	484.93
416.328	480.86
416.705	476.34
417.082	496.91
417.46	496.46
417.837	509.79
418.214	505.72
418.591	513.18
418.967	504.37
419.344	507.3
419.721	509.56
420.098	507.76
420.475	513.4
420.852	506.17
421.228	526.96
421.605	514.76
421.982	541.2
422.358	529.9
422.735	541.88
423.111	546.17
423.488	528.09
423.864	541.88
424.241	543.69
424.617	539.84
424.994	541.43
425.37	543.01
425.746	532.61
426.123	565.38
426.499	552.5
426.875	549.56
427.251	578.94
427.627	603.57
428.003	580.75
428.379	584.59
428.756	586.85
429.132	598.6
429.507	606.28
429.883	609.67
430.259	610.35
430.635	618.03
431.011	630.92
431.387	617.81
431.763	632.72
432.138	628.2
432.514	640.18
432.89	653.06
433.265	665.72
433.641	670.91
434.016	671.14
434.392	651.71
434.767	665.72
435.143	668.65
435.518	657.13
435.894	691.03
436.269	679.28
436.644	717.02
437.02	695.09
437.395	705.26
437.77	714.98
438.145	711.59
438.52	714.98
438.895	684.7
439.271	715.89
439.646	750.91
440.021	734.64
440.395	717.69
440.77	753.17
441.145	752.04
441.52	765.15
441.895	743.91
442.27	749.33
442.645	775.54
443.019	759.05
443.394	774.87
443.769	777.8
444.143	770.57
444.518	787.07
444.892	754.98
445.267	787.75
445.641	813.74
446.016	813.28
446.39	807.41
446.764	798.37
447.139	818.03
447.513	820.52
447.887	824.58
448.262	811.93
448.636	837.46
449.01	833.4
449.384	833.62
449.758	841.98
450.132	856.67
450.506	870.46
450.88	861.87
451.254	855.77
451.628	861.19
452.002	870.46
452.376	884.69
452.75	894.41
453.123	885.6
453.497	916.11
453.871	907.97
454.244	938.25
454.618	938.48
454.992	941.42
455.365	922.21
455.739	945.03
456.112	960.4
456.486	978.25
456.859	986.39
457.232	983.22
457.606	997.91
457.979	1000.62
458.352	1019.83
458.725	1017.12
459.099	1023.67
459.472	1047.63
459.845	1064.58
460.218	1098.25
460.591	1059.38
460.964	1077.23
461.337	1108.42
461.71	1117.91
462.083	1122.65
462.456	1121.07
462.829	1159.49
463.201	1138.92
463.574	1140.05
463.947	1169.88
464.32	1213.05
464.692	1186.38
465.065	1209.21
465.438	1206.49
465.81	1217.34
466.183	1241.75
466.555	1278.58
466.928	1262.99
467.3	1295.76
467.672	1299.15
468.045	1323.33
468.417	1349.09
468.789	1345.93
469.161	1370.33
469.534	1399.93
469.906	1421.63
470.278	1430.67
470.65	1448.97
471.022	1486.49
471.394	1492.81
471.766	1510.44
472.138	1507.73
472.51	1558.8
472.882	1582.98
473.253	1562.87
473.625	1588.4
473.997	1647.61
474.369	1649.65
474.74	1660.72
475.112	1704.79
475.484	1757.44
475.855	1771.45
476.227	1811.22
476.598	1816.87
476.97	1878.57
477.341	1910.43
477.713	1907.94
478.084	1923.31
478.455	2015.51
478.827	2003.76
479.198	2081.5
479.569	2083.31
479.94	2143.19
480.311	2158.56
480.682	2229.07
481.053	2253.7
481.424	2297.31
481.795	2321.49
482.166	2357.88
482.537	2421.15
482.908	2479
483.279	2498.66
483.65	2540.24
484.021	2620.92
484.391	2649.17
484.762	2676.29
485.133	2743.85
485.503	2730.52
485.874	2836.28
486.244	2858.2
486.615	2923.51
486.985	2939.1
487.356	3031.3
487.726	3042.6
488.097	3156.72
488.467	3148.14
488.837	3197.85
489.207	3290.96
489.578	3303.39
489.948	3379.09
490.318	3405.76
490.688	3437.17
491.058	3516.94
491.428	3578.86
491.798	3597.39
492.168	3670.84
492.538	3674
492.908	3778.86
493.278	3782.02
493.648	3810.94
494.017	3925.74
494.387	3930.26
494.757	3975.01
495.126	4004.16
495.496	4037.83
495.866	4074.21
496.235	4114.89
496.605	4161.9
496.974	4136.59
497.344	4248.45
497.713	4279.41
498.082	4293.64
498.452	4378.16
498.821	4405.28
499.19	4374.09
499.559	4431.49
499.928	4462.91
500.298	4460.19
500.667	4535.22
501.036	4554.65
501.405	4573.86
501.774	4610.02
502.143	4627.65
502.512	4685.95
502.88	4765.5
503.249	4753.52
503.618	4808.43
503.987	4755.33
504.356	4837.81
504.724	4830.35
505.093	4848.21
505.462	4933.4
505.83	4965.26
506.199	4971.82
506.567	5039.39
506.936	5039.16
507.304	5122.55
507.672	5097.69
508.041	5157.12
508.409	5177.01
508.777	5209.55
509.145	5227.4
509.514	5216.78
509.882	5240.74
510.25	5278.7
510.618	5344.01
510.986	5297.91
511.354	5353.73
511.722	5424.46
512.09	5435.99
512.458	5460.39
512.826	5493.84
513.193	5473.5
513.561	5495.65
513.929	5602.31
514.297	5615.87
514.664	5606.38
515.032	5658.35
515.4	5666.94
515.767	5692.03
516.135	5710.56
516.502	5753.72
516.869	5784.9
517.237	5776.32
517.604	5754.4
517.972	5847.95
518.339	5870.33
518.706	5878.01
519.073	5946.71
519.44	5936.99
519.808	5963.2
520.175	5974.73
520.542	5993.94
520.909	6045.69
521.276	6068.06
521.643	6118.23
522.009	6115.07
522.376	6151.67
522.743	6203.2
523.11	6242.97
523.477	6300.37
523.843	6325.46
524.21	6389.63
524.577	6429.18
524.943	6412.68
525.31	6444.32
525.676	6537.88
526.043	6534.72
526.409	6603.19
526.776	6615.62
527.142	6618.33
527.508	6717.76
527.874	6691.1
528.241	6735.61
528.607	6763.64
528.973	6810.41
529.339	6804.09
529.705	6886.57
530.071	6923.41
530.437	6971.09
530.803	7003.18
531.169	7067.81
531.535	7007.25
531.901	7055.83
532.267	7084.31
532.632	7144.19
532.998	7193.45
533.364	7225.54
533.73	7244.75
534.095	7271.19
534.461	7334.69
534.826	7319.1
535.192	7380.12
535.557	7479.32
535.923	7379.21
536.288	7438.19
536.653	7464.86
537.019	7444.3
537.384	7524.07
537.749	7560.9
538.114	7571.75
538.479	7592.77
538.845	7635.03
539.21	7576.95
539.575	7731.29
539.94	7782.59
540.305	7764.06
540.67	7801.35
541.034	7827.79
541.399	7836.83
541.764	7938.07
542.129	7835.7
542.494	7930.84
542.858	7984.62
543.223	7945.98
543.587	8068.91
543.952	8037.73
544.316	8142.36
544.681	8143.03
545.045	8096.03
545.41	8231.17
545.774	8199.76
546.138	8232.52
546.503	8271.39
546.867	8247.44
547.231	8428.45
547.595	8341.22
547.959	8394.1
548.324	8341.9
548.688	8458.51
549.052	8497.38
549.416	8466.64
549.779	8501.22
550.143	8545.51
550.507	8594.1
550.871	8636.13
551.235	8640.2
551.599	8745.28
551.962	8658.05
552.326	8768.78
552.689	8759.06
553.053	8806.07
553.417	8823.47
553.78	8870.92
554.143	8864.37
554.507	8914.99
554.87	8888.1
555.234	9043.12
555.597	8933.75
555.96	8997.93
556.323	9104.59
556.686	9083.35
557.05	9162.44
557.413	9166.28
557.776	9224.81
558.139	9180.52
558.502	9232.72
558.865	9252.84
559.228	9313.4
559.59	9329.67
559.953	9365.83
560.316	9479.72
560.679	9429.1
561.041	9495.99
561.404	9548.65
561.767	9594.52
562.129	9525.15
562.492	9698.47
562.854	9637.23
563.217	9665.03
563.579	9691.69
563.941	9764.69
564.304	9902.54
564.666	9873.16
565.028	9824.8
565.39	9831.8
565.753	9919.71
566.115	9928.75
566.477	10004.68
566.839	10039.93
567.201	10100.5
567.563	10068.18
567.925	10198.57
568.287	10139.82
568.648	10265.92
569.01	10290.77
569.372	10270.66
569.734	10311.11
570.095	10436.99
570.457	10455.97
570.819	10462.75
571.18	10551.33
571.542	10580.48
571.903	10586.81
572.265	10620.48
572.626	10745.68
572.987	10683.53
573.349	10794.04
573.71	10848.05
574.071	10878.78
574.432	10896.18
574.794	11068.61
575.155	11067.25
575.516	11086.01
575.877	11280.13
576.238	11226.34
576.599	11335.04
576.96	11377.3
577.32	11454.81
577.681	11601.02
578.042	11665.88
578.403	11699.55
578.763	11740
579.124	11894.8
579.485	11984.52
579.845	12077.17
580.206	12162.82
580.566	12407.56
580.927	12482.81
581.287	12632.41
581.648	12737.94
582.008	12982.68
582.368	13017.48
582.728	13221.77
583.089	13386.29
583.449	13474.87
583.809	13741.53
584.169	13879.83
584.529	14003.22
584.889	14271.69
585.249	14346.94
585.609	14593.26
585.969	14852.24
586.329	15029.86
586.688	15212
587.048	15381.94
587.408	15530.18
587.768	15879.78
588.127	15982.83
588.487	16260.79
588.846	16587.33
589.206	16781.9
589.565	17091.95
589.925	17337.82
590.284	17619.85
590.643	17949.56
591.003	18184.35
591.362	18517
591.721	18666.6
592.08	18943.65
592.44	19190.88
592.799	19620.25
593.158	19796.29
593.517	20125.77
593.876	20420.45
594.235	20664.29
594.593	20957.16
594.952	21322.8
595.311	21498.16
595.67	21958.49
596.029	22221.08
596.387	22622.43
596.746	22979.93
597.104	23033.49
597.463	23342.63
597.822	23869.85
598.18	23979.91
598.538	24331.31
598.897	24677.74
599.255	24832.77
599.613	25533.54
599.972	25508.91
600.33	25886.75
600.688	26143.92
601.046	26645.37
601.404	26924.69
601.762	27056.66
602.12	27568.29
602.478	27723.76
602.836	27978.67
603.194	28133.92
603.552	28518.32
603.91	28703.17
604.268	29142.03
604.625	29332.08
604.983	29740.88
605.341	29864.27
605.698	30159.18
606.056	30492.73
606.413	30648.43
606.771	30954.41
607.128	31165.25
607.485	31348.75
607.843	31545.36
608.2	32052.91
608.557	32291.78
608.914	32524.09
609.272	32785.78
609.629	33018.99
609.986	33277.29
610.343	33398.87
610.7	33886.54
611.057	34004.73
611.414	34045.63
611.771	34254.44
612.127	34640.64
612.484	34704.82
612.841	35072.04
613.198	35033.63
613.554	35375.76
613.911	35628.19
614.267	35847.62
614.624	35958.57
614.98	36170.32
615.337	36476.53
615.693	36577.32
616.05	36693.7
616.406	37080.35
616.762	37034.7
617.118	37226.79
617.475	37352.21
617.831	37650.28
618.187	37750.62
618.543	37885.76
618.899	38072.87
619.255	38248.91
619.611	38267.89
619.967	38500.2
620.323	38685.28
620.678	38605.06
621.034	38700.65
621.39	38955.11
621.746	38910.81
622.101	39416.79
622.457	39384.47
622.812	39419.27
623.168	39598.25
623.523	39605.26
623.879	39847.96
624.234	39741.3
624.589	39884.12
624.945	40037.56
625.3	40125.24
625.655	40032.82
626.01	40263.32
626.365	40445.69
626.72	40297.67
627.075	40403.2
627.43	40500.83
627.785	40468.29
628.14	40596.64
628.495	40708.96
628.85	40768.84
629.205	40613.59
629.559	40969.06
629.914	40859.69
630.269	40934.04
630.623	40946.24
630.978	40873.7
631.332	41045.9
631.687	41153.01
632.041	40955.51
632.396	41117.99
632.75	41062.62
633.104	41202.73
633.459	41010.42
633.813	40999.35
634.167	41178.55
634.521	41105.33
634.875	41136.74
635.229	41188.49
635.583	41030.53
635.937	41054.26
636.291	41124.99
636.645	41136.97
636.999	41065.33
637.352	41247.02
637.706	40925.45
638.06	41210.19
638.413	41065.33
638.767	41050.64
639.121	41223.07
639.474	41083.86
639.828	41022.62
640.181	40988.5
640.534	41069.63
640.888	41094.94
641.241	40924.55
641.594	41063.75
641.947	41096.07
642.301	40901.95
642.654	41011.32
643.007	41088.61
643.36	41007.48
643.713	41153.92
644.066	41088.83
644.419	40898.56
644.771	40607.04
645.124	40401.62
645.477	40165.7
645.83	40063.33
646.182	40008.86
646.535	39800.06
646.888	39906.04
647.24	39641.87
647.593	39895.87
647.945	39669.44
648.298	39750.11
648.65	39681.64
649.002	39568.87
649.355	39733.62
649.707	39743.79
650.059	39896.78
650.411	40420.6
650.763	40415.86
651.115	40748.5
651.467	40580.37
651.819	40573.59
652.171	40594.61
652.523	40542.18
652.875	40466.03
653.227	40430.32
653.578	40630.32
653.93	40609.07
654.282	40478.46
654.633	40337.89
654.985	40402.07
655.337	40434.61
655.688	40583.99
656.039	40529.75
656.391	40344.67
656.742	40305.58
657.094	40421.73
657.445	40601.16
657.796	40445.69
658.147	40453.15
658.498	40455.86
658.849	40544.22
659.2	40423.99
659.551	40305.8
659.902	40491.34
660.253	40325.92
660.604	40406.59
660.955	40135.19
661.306	40390.77
661.656	40155.53
662.007	40298.35
662.358	40263.77
662.708	40217.22
663.059	40269.2
663.409	40032.14
663.76	40235.98
664.11	40308.06
664.461	40221.29
664.811	40176.54
665.161	40194.4
665.511	40154.4
665.862	40285.69
666.212	40369.76
666.562	40155.75
666.912	40091.8
667.262	40080.73
667.612	40220.38
667.962	40333.83
668.312	40062.65
668.662	40426.93
669.011	40181.29
669.361	40160.5
669.711	40211.34
670.06	39956.44
670.41	40045.25
670.76	39916.89
671.109	40170.44
671.459	40007.28
671.808	40069.88
672.157	40228.29
672.507	39941.75
672.856	39933.16
673.205	39963.21
673.554	39990.11
673.904	39986.26
674.253	40036.43
674.602	39899.49
674.951	39394.42
675.3	39219.73
675.649	39788.08
675.998	39685.71
676.346	39835.31
676.695	39983.78
677.044	39529.1
677.393	39743.11
677.741	39744.69
678.09	39635.54
678.438	39584.69
678.787	39531.81
679.135	39617.46
679.484	39334.3
679.832	39556.9
680.181	39267.64
680.529	39454.53
680.877	39316.23
681.225	39309.67
681.573	39539.95
681.922	39205.72
682.27	39136.8
682.618	39093.41
682.966	39155.1
683.314	39076.23
683.661	38978.61
684.009	38847.31
684.357	38723.93
684.705	38858.39
685.053	38695
685.4	38705.85
685.748	38597.15
686.095	38628.33
686.443	38506.08
686.79	38484.38
687.138	38420.2
687.485	38453.42
687.832	38365.52
688.18	38447.77
688.527	38041.68
688.874	38115.58
689.221	37981.8
689.568	37845.98
689.915	37897.51
690.262	37813.21
690.609	37650.51
690.956	37580.9
691.303	37593.11
691.65	37305.21
691.997	37366.45
692.344	37023.63
692.69	37185.89
693.037	37221.59
693.383	36900.24
693.73	36951.99
694.077	36781.38
694.423	36816.86
694.769	36671.78
695.116	36657.76
695.462	36640.82
695.808	36513.36
696.155	36652.57
696.501	36279.7
696.847	36357.89
697.193	36157.67
697.539	36185.01
697.885	35956.09
698.231	35806.26
698.577	35855.07
698.923	35858.46
699.269	35704.8
699.614	35501.64
699.96	35375.31
700.306	35425.48
700.651	35259.38
700.997	35189.55
701.342	35140.52
701.688	35086.05
702.033	34955.66
702.379	34960.86
702.724	34851.71
703.069	34992.27
703.415	34506.86
703.76	34726.52
704.105	34489.01
704.45	34472.29
704.795	34286.98
705.14	34301.67
705.485	34257.6
705.83	34103.71
706.175	34108.45
706.52	33896.03
706.865	33851.96
707.209	33863.49
707.554	33797.5
707.899	33790.27
708.243	33588.69
708.588	33480.22
708.932	33395.93
709.277	33398.19
709.621	33462.37
709.966	33101.7
710.31	33177.63
710.654	32839.79
710.998	33044.3
711.342	32824.87
711.687	32656.06
712.031	32664.65
712.375	32421.94
712.719	32600.92
713.063	32546.46
713.407	32576.97
713.75	32360.02
714.094	32507.14
714.438	32285.68
714.782	32395.05
715.125	32084.55
715.469	32298.11
715.812	32090.43
716.156	31994.16
716.499	32054.95
716.843	32014.72
717.186	31818.12
717.53	31987.83
717.873	32003.65
718.216	31794.62
718.559	31619.03
718.902	31462.87
719.246	31489.09
719.589	31431.91
719.932	31314.63
720.275	31328.87
720.617	31315.08
720.96	31270.11
721.303	31261.52
721.646	31276.89
721.989	31060.62
722.331	31116.67
722.674	31094.3
723.016	31038.93
723.359	30966.39
723.701	30955.99
724.044	30711.93
724.386	30727.07
724.729	30920.97
725.071	30685.04
725.413	30713.51
725.755	30619.28
726.097	30564.14
726.439	30459.96
726.782	30487.31
727.124	30558.26
727.465	30326.86
727.807	30180.65
728.149	30245.73
728.491	30175.68
728.833	30293.41
729.175	30181.1
729.516	30081.21
729.858	30062.68
730.199	30120.76
730.541	29962.57
730.882	29955.57
731.224	30080.54
731.565	29800.09
731.906	29816.81
732.248	29855.68
732.589	29701.56
732.93	29539.99
733.271	29523.94
733.612	29565.07
733.953	29615.01
734.294	29431.97
734.635	29247.56
734.976	29526.2
735.317	29288.02
735.658	29412.76
735.999	29301.57
736.339	29298.86
736.68	29266.55
737.021	29267.45
737.361	29021.36
737.702	29288.02
738.042	29144.29
738.383	29074.46
738.723	29116.49
739.063	29026.33
739.404	28909.95
739.744	28884.41
740.084	28855.26
740.424	28783.62
740.764	28722.83
741.104	28885.09
741.444	28845.77
741.784	28725.32
742.124	28581.59
742.464	28626.34
742.804	28482.16
743.143	28474.93
743.483	28505.89
743.823	28383.86
744.162	28296.85
744.502	28347.47
744.841	28333.69
745.181	28358.32
745.52	28245.33
745.86	28322.62
746.199	28207.82
746.538	28148.84
746.877	28188.16
747.216	28093.92
747.556	28128.27
747.895	27984.55
748.234	27957.88
748.573	27893.93
748.911	27917.66
749.25	27891.44
749.589	27720.6
749.928	27745.91
750.267	27901.61
750.605	27641.73
750.944	27611.22
751.283	27441.74
751.621	27515.18
751.96	27467.05
752.298	27464.56
752.636	27451.45
752.975	27360.16
753.313	27202.65
753.651	27377.33
753.989	27241.06
754.327	27207.62
754.666	27013.5
755.004	27070.22
755.342	27051.24
755.679	27012.14
756.017	26825.26
756.355	26888.3
756.693	26721.53
757.031	26810.79
757.368	26629.33
757.706	26652.15
758.044	26554.98
758.381	26526.28
758.719	26437.02
759.056	26383.46
759.394	26487.86
759.731	26156.35
760.068	26189.11
760.405	26058.72
760.743	26009.46
761.08	25982.11
761.417	25980.98
761.754	25877.26
762.091	25690.14
762.428	25768.79
762.765	25591.16
763.102	25693.31
763.438	25500.77
763.775	25487.89
764.112	25428.91
764.449	25479.98
764.785	25374.22
765.122	25132.19
765.458	25100.78
765.795	25044.74
766.131	24995.02
766.467	24958.19
766.804	24879.77
767.14	24622.6
767.476	24690.4
767.812	24496.28
768.148	24625.31
768.485	24394.81
768.821	24232.55
769.157	24178.09
769.492	24313.46
769.828	24114.37
770.164	23932
770.5	23932.45
770.836	23888.16
771.171	23873.92
771.507	23811.32
771.842	23550.09
772.178	23544.44
772.513	23488.39
772.849	23348.51
773.184	23352.58
773.519	23235.29
773.855	23238.46
774.19	23084.11
774.525	22978.8
774.86	22934.74
775.195	22910.78
775.53	22859.03
775.865	22707.17
776.2	22554.63
776.535	22490
776.87	22405.26
777.205	22363.45
777.539	22231.03
777.874	22220.4
778.209	22093.18
778.543	22019.51
778.878	21944.71
779.212	22004.36
779.547	21787.42
779.881	21869.45
780.215	21793.3
780.55	21785.39
780.884	21571.83
781.218	21512.4
781.552	21471.05
781.886	21412.97
782.22	21258.17
782.554	21076.25
782.888	20988.35
783.222	20918.52
783.556	20841.46
783.889	20756.26
784.223	20592.42
784.557	20635.81
784.89	20622.71
785.224	20476.72
785.557	20422.03
785.891	20205.54
786.224	20235.37
786.558	20265.43
786.891	20105.43
787.224	20059.33
787.557	19946.57
787.891	19947.7
788.224	19975.27
788.557	19932.78
788.89	19845.1
789.223	19801.71
789.556	19586.12
789.888	19573.47
790.221	19587.48
790.554	19294.61
790.887	19308.16
791.219	19370.08
791.552	19215.51
791.884	19196.3
792.217	19031.11
792.549	18993.37
792.882	18861.85
793.214	18915.63
793.546	18813.49
793.879	18653.72
794.211	18632.48
794.543	18749.54
794.875	18620.73
795.207	18620.5
795.539	18433.39
795.871	18448.07
796.203	18327.17
796.535	18218.25
796.867	18200.17
797.198	18142.77
797.53	18053.73
797.862	18015.32
798.193	18057.35
798.525	17926.73
798.856	17954.3
799.188	17728.55
799.519	17720.64
799.85	17680.64
800.182	17562.45
800.513	17622.33
800.844	17454.43
801.175	17512.51
801.506	17518.83
801.837	17395.45
802.168	17387.99
802.499	17238.61
802.83	17162.68
803.161	17194.1
803.491	17118.17
803.822	17067.09
804.153	16971.95
804.483	16912.52
804.814	16871.84
805.145	16806.31
805.475	16821.68
805.805	16729.48
806.136	16711.4
806.466	16689.93
806.796	16632.75
807.126	16519.99
807.457	16472.98
807.787	16493.32
808.117	16429.6
808.447	16397.05
808.777	16391.41
809.107	16359.54
809.436	16240.22
809.766	16202.94
810.096	16178.08
810.426	16041.58
810.755	16129.04
811.085	16030.96
811.414	16044.07
811.744	15855.37
812.073	15895.15
812.403	15870.97
812.732	15784.87
813.061	15796.62
813.39	15682.72
813.719	15619.67
814.049	15667.81
814.378	15647.7
814.707	15594.59
815.036	15543.74
815.365	15406.12
815.693	15360.92
816.022	15360.7
816.351	15311.21
816.68	15213.13
817.008	15231.66
817.337	15187.14
817.665	15136.52
817.994	15090.42
818.322	15059.24
818.651	15028.05
818.979	14942.63
819.307	14953.93
819.636	15051.33
819.964	14923.87
820.292	14940.6
820.62	14886.13
820.948	14901.05
821.276	14903.53
821.604	14848.62
821.932	14864.44
822.259	14881.16
822.587	14902.86
822.915	14794.61
823.243	14805.46
823.57	14767.95
823.898	14821.28
824.225	14666.03
824.553	14767.27
824.88	14741.96
825.207	14840.03
825.535	14715.97
825.862	14816.31
826.189	14739.02
826.516	14784.67
826.843	14816.08
827.17	14761.84
827.497	14870.77
827.824	14806.14
828.151	14814.27
828.478	14715.52
828.805	14782.41
829.131	14758.91
829.458	14739.7
829.785	14677.1
830.111	14680.49
830.438	14792.13
830.764	14786.7
831.09	14776.53
831.417	14652.47
831.743	14750.54
832.069	14646.59
832.395	14604.33
832.722	14661.51
833.048	14658.8
833.374	14583.77
833.7	14581.28
834.026	14562.98
834.351	14632.58
834.677	14574.28
835.003	14655.86
835.329	14590.32
835.654	14581.96
835.98	14574.73
836.306	14541.28
836.631	14404.34
836.956	14518.91
837.282	14515.07
837.607	14396.88
837.932	14385.81
838.258	14381.74
838.583	14269.43
838.908	14236.43
839.233	14277.34
839.558	14276.43
839.883	14273.04
840.208	14212.93
840.533	14251.12
840.858	14143.55
841.182	14137.45
841.507	14097.68
841.832	14026.04
842.156	14028.76
842.481	14043.67
842.805	13962.09
843.13	13918.02
843.454	13936.55
843.778	13862.21
844.103	13871.02
844.427	13770.91
844.751	13798.7
845.075	13796.45
845.399	13672.38
845.723	13610.46
846.047	13659.95
846.371	13539.5
846.695	13634.64
847.019	13460.86
847.343	13349
847.666	13238.49
847.99	13255.89
848.313	13252.05
848.637	13168.21
848.96	13169.79
849.284	13165.5
849.607	12917.37
849.931	12940.42
850.254	12909.46
850.577	12812.29
850.9	12819.52
851.223	12766.64
851.546	12652.07
851.869	12657.04
852.192	12740.43
852.515	12537.5
852.838	12476.71
853.161	12493.2
853.483	12405.07
853.806	12435.58
854.129	12333.43
854.451	12284.17
854.774	12210.05
855.096	12223.15
855.419	12154
855.741	12193.32
856.063	12058.19
856.385	12060.45
856.708	12004.18
857.03	12003.5
857.352	11955.14
857.674	11885.53
857.996	11890.05
858.318	11791.3
858.64	11808.25
858.961	11730.06
859.283	11689.61
859.605	11641.47
859.926	11695.03
860.248	11621.81
860.57	11618.2
860.891	11610.97
861.212	11556.05
861.534	11433.12
861.855	11502.49
862.176	11476.28
862.498	11414.81
862.819	11496.17
863.14	11447.81
863.461	11400.35
863.782	11361.25
864.103	11402.16
864.424	11234.93
864.745	11323.74
865.065	11234.48
865.386	11153.8
865.707	11159.9
866.027	11215.95
866.348	11167.14
866.668	11201.49
866.989	11133.46
867.309	11093.01
867.63	11120.36
867.95	11124.2
868.27	11058.44
868.59	11043.52
868.91	10982.73
869.23	10980.25
869.55	10911.1
869.87	11061.38
870.19	10950.64
870.51	10999.91
870.83	10968.5
871.15	10855.73
871.469	10895.96
871.789	10860.25
872.109	10869.29
872.428	10793.13
872.748	10830.2
873.067	10814.6
873.386	10795.39
873.706	10764.43
874.025	10730.31
874.344	10692.12
874.663	10708.62
874.982	10622.74
875.301	10702.29
875.62	10684.44
875.939	10653.7
876.258	10656.87
876.577	10552.91
876.896	10678.11
877.214	10542.75
877.533	10530.99
877.852	10530.54
878.17	10536.19
878.489	10539.36
878.807	10441.05
879.125	10439.92
879.444	10413.94
879.762	10394.5
880.08	10368.51
880.398	10310.21
880.716	10392.69
881.034	10329.87
881.352	10367.38
881.67	10285.13
881.988	10330.1
882.306	10237.67
882.624	10210.55
882.941	10154.06
883.259	10130.1
883.577	10097.79
883.894	10117.22
884.212	10110.21
884.529	10062.31
884.846	10104.79
885.164	10061.4
885.481	10059.59
885.798	9954.51
886.115	9947.73
886.432	9893.72
886.75	9927.39
887.067	9912.93
887.383	9905.02
887.7	9893.95
888.017	9824.12
888.334	9869.77
888.651	9780.51
888.967	9831.35
889.284	9676.1
889.6	9653.5
889.917	9666.84
890.233	9599.27
890.55	9628.87
890.866	9681.75
891.182	9625.48
891.498	9538.03
891.815	9554.3
892.131	9544.13
892.447	9425.26
892.763	9404.7
893.079	9386.62
893.395	9318.14
893.71	9404.02
894.026	9281.99
894.342	9337.58
894.657	9274.76
894.973	9274.53
895.289	9157.25
895.604	9194.31
895.92	9113.4
896.235	9053.52
896.55	9091.26
896.865	9038.83
897.181	9049.23
897.496	9011.94
897.811	9062.78
898.126	8909.57
898.441	8883.81
898.756	8886.97
899.071	8828.67
899.386	8809.91
899.7	8740.08
900.015	8724.49
900.33	8732.4
900.644	8656.24
900.959	8737.14
901.273	8609.01
901.588	8613.53
901.902	8562.23
902.216	8542.12
902.531	8531.72
902.845	8458.28
903.159	8432.07
903.473	8445.85
903.787	8372.18
904.101	8299.64
904.415	8368.34
904.729	8274.56
905.042	8286.76
905.356	8249.47
905.67	8226.2
905.984	8287.66
906.297	8109.82
906.611	8102.81
906.924	8072.3
907.237	8012.19
907.551	8012.64
907.864	7880.89
908.177	8008.35
908.491	7955.69
908.804	7899.88
909.117	7842.03
909.43	7820.33
909.743	7770.61
910.056	7756.38
910.368	7767.45
910.681	7632.09
910.994	7684.29
911.307	7688.13
911.619	7584.41
911.932	7630.28
912.244	7565.42
912.557	7498.53
912.869	7484.97
913.181	7469.15
913.494	7368.82
913.806	7350.51
914.118	7385.99
914.43	7279.1
914.742	7352.77
915.054	7261.02
915.366	7216.05
915.678	7226
915.99	7174.92
916.302	7152.1
916.613	7172.21
916.925	7109.62
917.236	7022.61
917.548	7032.78
917.859	7058.09
918.171	6934.25
918.482	6944.2
918.794	6935.16
919.105	6931.54
919.416	6847.7
919.727	6833.92
920.038	6817.87
920.349	6749.17
920.66	6763.41
920.971	6677.31
921.282	6708.27
921.593	6624.43
921.903	6599.35
922.214	6546.01
922.525	6607.93
922.835	6564.54
923.146	6439.8
923.456	6467.15
923.767	6507.15
924.077	6456.98
924.387	6384.21
924.697	6348.73
925.008	6309.64
925.318	6307.15
925.628	6274.16
925.938	6195.06
926.248	6214.27
926.558	6186.93
926.867	6170.88
927.177	6181.05
927.487	6135.4
927.796	6092.01
928.106	6094.5
928.416	6078.68
928.725	6038.91
929.034	6013.37
929.344	6051.56
929.653	5990.32
929.962	5967.27
930.271	5921.85
930.581	5858.35
930.89	5871.91
931.199	5794.4
931.508	5810.67
931.817	5808.18
932.125	5747.39
932.434	5723.66
932.743	5684.12
933.051	5697.22
933.36	5647.28
933.669	5620.84
933.977	5619.94
934.286	5592.14
934.594	5551.24
934.902	5520.96
935.21	5496.55
935.519	5507.85
935.827	5482.99
936.135	5433.5
936.443	5420.17
936.751	5341.75
937.059	5356.22
937.367	5362.09
937.674	5368.87
937.982	5335.42
938.29	5266.95
938.597	5273.05
938.905	5262.21
939.213	5209.1
939.52	5186.5
939.827	5238.7
940.135	5159.61
940.442	5137.46
940.749	5116.22
941.056	5113.96
941.363	5038.03
941.67	5023.12
941.977	5005.26
942.284	4971.59
942.591	4981.08
942.898	4967.75
943.205	4955.32
943.511	4915.32
943.818	4926.85
944.125	4833.97
944.431	4805.27
944.738	4805.27
945.044	4793.29
945.35	4791.71
945.657	4758.72
945.963	4712.16
946.269	4769.34
946.575	4672.39
946.881	4709.23
947.187	4643.24
947.493	4662.45
947.799	4614.54
948.105	4578.38
948.41	4526.86
948.716	4551.49
949.022	4576.57
949.327	4516.01
949.633	4425.62
949.938	4508.78
950.244	4518.5
950.549	4479.18
950.854	4416.8
951.16	4409.12
951.465	4412.96
951.77	4367.77
952.075	4361.44
952.38	4337.48
952.685	4329.58
952.99	4315.11
953.294	4288.67
953.599	4224.27
953.904	4241.67
954.209	4177.94
954.513	4209.35
954.818	4184.49
955.122	4181.56
955.426	4147.43
955.731	4137.26
956.035	4139.07
956.339	4094.1
956.643	4096.14
956.948	4061.11
957.252	4034.89
957.556	4024.5
957.86	4017.49
958.163	4013.65
958.467	3912.41
958.771	3963.48
959.075	3943.82
959.378	3938.17
959.682	3949.47
959.985	3867.44
960.289	3912.19
960.592	3836.93
960.896	3804.17
961.199	3788.8
961.502	3805.75
961.805	3796.48
962.108	3751.29
962.411	3788.12
962.714	3721.91
963.017	3715.13
963.32	3737.73
963.623	3676.94
963.926	3694.79
964.228	3662.47
964.531	3704.06
964.833	3625.64
965.136	3595.81
965.438	3590.16
965.741	3568.92
966.043	3565.08
966.345	3579.99
966.648	3549.71
966.95	3526.43
967.252	3499.99
967.554	3492.31
967.856	3452.08
968.158	3433.55
968.46	3463.84
968.761	3430.39
969.063	3382.93
969.365	3395.59
969.666	3420.9
969.968	3353.33
970.269	3340.22
970.571	3353.1
970.872	3324.4
971.174	3292.54
971.475	3271.75
971.776	3270.17
972.077	3296.16
972.378	3231.75
972.679	3250.96
972.98	3232.2
973.281	3246.21
973.582	3196.5
973.883	3177.74
974.183	3129.38
974.484	3208.7
974.785	3155.59
975.085	3133.45
975.386	3099.1
975.686	3069.72
975.986	3081.92
976.287	3043.96
976.587	3047.8
976.887	3054.58
977.187	3039.44
977.487	2998.76
977.787	2979.1
978.087	2985.2
978.387	2989.27
978.687	2968.93
978.987	2939.78
979.286	2918.54
979.586	2923.96
979.885	2883.06
980.185	2872.89
980.484	2893.23
980.784	2868.82
981.083	2863.17
981.382	2850.07
981.682	2862.72
981.981	2814.59
982.28	2835.15
982.579	2785.44
982.878	2784.08
983.177	2777.98
983.475	2779.79
983.774	2760.13
984.073	2729.17
984.372	2717.64
984.67	2706.79
984.969	2669.73
985.267	2683.97
985.566	2715.15
985.864	2631.09
986.162	2680.35
986.461	2629.73
986.759	2597.42
987.057	2570.75
987.355	2588.15
987.653	2587.7
987.951	2583.63
988.249	2580.02
988.547	2559.68
988.844	2541.37
989.142	2537.76
989.44	2568.27
989.737	2507.7
990.035	2473.35
990.332	2497.99
990.63	2469.51
990.927	2441.26
991.224	2466.8
991.521	2413.24
991.819	2429.06
992.116	2476.52
992.413	2419.57
992.71	2388.61
993.006	2370.98
993.303	2359.91
993.6	2353.13
993.897	2347.03
994.193	2341.83
994.49	2350.87
994.787	2317.65
995.083	2257.99
995.379	2265.45
995.676	2303.41
995.972	2297.76
996.268	2246.92
996.565	2227.94
996.861	2249.18
997.157	2228.84
997.453	2232.68
997.749	2224.09
998.044	2179.58
998.34	2198.78
998.636	2170.99
998.932	2160.37
999.227	2145.68
999.523	2137.99
999.818	2134.6
1000.114	2108.62
1000.409	2108.84
1000.704	2106.58
1001	2088.96
1001.295	2079.92
1001.59	2070.65
1001.885	2055.51
1002.18	2047.15
1002.475	2029.3
1002.77	2009.86
1003.065	2028.84
1003.359	1978
1003.654	1975.96
1003.949	2007.83
1004.243	1964.89
1004.538	1958.34
1004.832	1971.45
1005.127	1935.51
1005.421	1932.8
1005.715	1910.66
1006.009	1928.96
1006.304	1898.23
1006.598	1871.56
1006.892	1884.44
1007.186	1875.63
1007.48	1868.62
1007.773	1848.96
1008.067	1810.77
1008.361	1815.97
1008.655	1804.44
1008.948	1770.55
1009.242	1790.66
1009.535	1791.79
1009.829	1780.94
1010.122	1775.74
1010.415	1773.71
1010.708	1740.04
1011.001	1722.41
1011.295	1711.34
1011.588	1723.32
1011.881	1719.02
1012.173	1681.06
1012.466	1733.94
1012.759	1678.35
1013.052	1690.55
1013.344	1654.84
1013.637	1656.88
1013.93	1651.23
1014.222	1651.68
1014.514	1635.86
1014.807	1622.75
1015.099	1604.68
1015.391	1589.53
1015.683	1622.98
1015.976	1564.68
1016.268	1586.82
1016.56	1538.46
1016.851	1524.9
1017.143	1556.77
1017.435	1536.2
1017.727	1522.19
1018.018	1498.24
1018.31	1479.93
1018.602	1481.51
1018.893	1480.38
1019.185	1472.48
1019.476	1485.58
1019.767	1461.18
1020.058	1439.71
1020.35	1458.46
1020.641	1431.35
1020.932	1394.51
1021.223	1375.75
1021.514	1375.3
1021.804	1389.54
1022.095	1352.48
1022.386	1358.81
1022.677	1335.98
1022.967	1325.13
1023.258	1349.99
1023.548	1321.74
1023.839	1308.86
1024.129	1318.36
1024.419	1307.28
1024.709	1305.93
1025	1287.62
1025.29	1296.43
1025.58	1284.23
1025.87	1294.85
1026.16	1254.85
1026.449	1234.06
1026.739	1255.08
1027.029	1231.58
1027.319	1205.36
1027.608	1214.86
1027.898	1208.08
1028.187	1199.49
1028.477	1191.13
1028.766	1186.16
1029.055	1176.21
1029.344	1159.49
1029.634	1145.48
1029.923	1131.47
1030.212	1146.16
1030.501	1143.9
1030.79	1122.2
1031.078	1117.91
1031.367	1124.01
1031.656	1085.14
1031.945	1092.82
1032.233	1086.04
1032.522	1115.42
1032.81	1083.79
1033.099	1063.45
1033.387	1055.99
1033.675	1046.05
1033.963	1046.72
1034.251	1060.73
1034.54	1055.31
1034.828	1041.53
1035.116	1023.45
1035.403	1037.91
1035.691	1011.02
1035.979	1014.18
1036.267	1007.85
1036.554	1024.8
1036.842	987.74
1037.129	991.81
1037.417	961.08
1037.704	968.53
1037.992	969.44
1038.279	942.55
1038.566	935.09
1038.853	935.09
1039.14	935.09
