Data from hue_340_FLMS001491_47.txt Node
Date: Mon Feb 06 15:43:10 GMT 2017
User: dcchb
Spectrometer: FLMS00149
Trigger mode: 0
Integration Time (sec): 2.000000E-2
Scans to average: 10
Electric dark correction enabled: true
Nonlinearity correction enabled: false
Boxcar width: 0
XAxis mode: Wavelengths
Number of Pixels in Spectrum: 2048
>>>>>Begin Spectral Data<<<<<
341.393	-1.93
341.776	-1.93
342.16	-1.93
342.543	-56.62
342.927	-68.37
343.31	-69.73
343.693	-61.14
344.077	-68.15
344.46	-79
344.843	-45.78
345.226	-46.91
345.61	-16.4
345.993	-17.53
346.376	-0.81
346.759	7.33
347.142	17.95
347.525	55.92
347.908	44.62
348.291	60.89
348.674	111.28
349.057	107.44
349.44	117.84
349.823	133.88
350.206	144.73
350.588	196.48
350.971	195.57
351.354	231.51
351.737	236.25
352.119	245.74
352.502	260.43
352.884	242.8
353.267	278.74
353.65	291.39
354.032	310.15
354.414	294.78
354.797	312.18
355.179	307.44
355.562	331.84
355.944	305.18
356.326	326.42
356.709	350.15
357.091	338.62
357.473	354.21
357.855	318.06
358.238	357.83
358.62	336.36
359.002	333.42
359.384	332.29
359.766	345.63
360.148	321.67
360.53	334.33
360.912	322.12
361.294	328.23
361.676	328.45
362.057	338.17
362.439	325.29
362.821	310.15
363.203	328.45
363.584	309.92
363.966	316.7
364.348	320.09
364.729	310.83
365.111	292.52
365.493	307.21
365.874	311.05
366.256	305.85
366.637	295.68
367.019	311.5
367.4	316.7
367.781	298.4
368.163	320.54
368.544	337.04
368.925	307.44
369.306	323.48
369.688	298.4
370.069	315.8
370.45	288.9
370.831	320.54
371.212	282.58
371.593	312.41
371.974	297.27
372.355	295.23
372.736	314.21
373.117	320.77
373.498	311.5
373.879	309.7
374.26	310.15
374.641	316.47
375.021	319.64
375.402	308.57
375.783	328.45
376.163	326.19
376.544	311.73
376.925	336.59
377.305	311.73
377.686	296.14
378.066	318.28
378.447	330.94
378.827	314.21
379.208	315.34
379.588	336.36
379.968	322.12
380.349	335.01
380.729	340.65
381.109	337.94
381.489	295.46
381.87	333.88
382.25	325.74
382.63	326.87
383.01	331.16
383.39	330.26
383.77	339.98
384.15	313.31
384.53	335.46
384.91	347.89
385.29	344.27
385.67	318.51
386.049	353.08
386.429	342.69
386.809	341.78
387.189	350.15
387.568	340.43
387.948	329.81
388.328	333.65
388.707	340.88
389.087	363.48
389.466	351.5
389.846	356.25
390.225	344.27
390.605	349.69
390.984	329.13
391.363	336.59
391.743	360.99
392.122	338.4
392.501	345.4
392.881	354.89
393.26	341.33
393.639	363.03
394.018	351.73
394.397	371.61
394.776	341.78
395.155	362.12
395.534	373.87
395.913	353.31
396.292	341.78
396.671	379.75
397.05	407.09
397.429	370.71
397.808	349.02
398.186	378.62
398.565	365.74
398.944	378.62
399.323	367.32
399.701	388.56
400.08	366.87
400.458	368
400.837	370.71
401.215	383.37
401.594	381.56
401.972	368.68
402.351	394.44
402.729	412.97
403.107	379.98
403.486	411.16
403.864	387.66
404.242	408.22
404.62	403.48
404.999	398.96
405.377	386.76
405.755	410.71
406.133	413.87
406.511	393.53
406.889	398.96
407.267	408.22
407.645	406.19
408.023	419.97
408.401	422.46
408.779	419.52
409.156	419.07
409.534	423.59
409.912	443.25
410.29	452.06
410.667	454.78
411.045	454.78
411.422	437.83
411.8	452.29
412.178	478.96
412.555	456.13
412.933	449.58
413.31	467.21
413.687	477.37
414.065	486.64
414.442	470.82
414.819	479.86
415.197	482.12
415.574	487.77
415.951	492.97
416.328	491.39
416.705	509.01
417.082	495.91
417.46	518.28
417.837	526.19
418.214	504.94
418.591	531.84
418.967	516.92
419.344	520.31
419.721	523.02
420.098	499.52
420.475	556.92
420.852	548.33
421.228	539.97
421.605	565.73
421.982	590.14
422.358	582.46
422.735	567.54
423.111	564.6
423.488	569.35
423.864	578.61
424.241	598.28
424.617	597.6
424.994	583.36
425.37	581.33
425.746	590.37
426.123	606.86
426.499	605.05
426.875	611.83
427.251	620.2
427.627	619.97
428.003	634.21
428.379	645.51
428.756	643.92
429.132	626.75
429.507	647.31
429.883	675.34
430.259	660.87
430.635	658.84
431.011	667.88
431.387	678.5
431.763	685.96
432.138	706.52
432.514	711.49
432.89	701.55
433.265	701.55
433.641	719.18
434.016	720.76
434.392	731.61
434.767	741.77
435.143	744.03
435.518	737.25
435.894	742.9
436.269	756.24
436.644	777.71
437.02	759.17
437.395	776.58
437.77	787.2
438.145	772.06
438.52	801.43
438.895	798.72
439.271	807.31
439.646	815.67
440.021	824.71
440.395	847.99
440.77	819.29
441.145	809.12
441.52	839.17
441.895	830.13
442.27	830.81
442.645	855.22
443.019	851.38
443.394	841.66
443.769	851.6
444.143	876.46
444.518	881.21
444.892	866.97
445.267	869.91
445.641	864.48
446.016	870.36
446.39	885.05
446.764	886.63
447.139	876.46
447.513	902.9
447.887	880.08
448.262	912.17
448.636	893.86
449.01	915.56
449.384	917.59
449.758	894.54
450.132	946.74
450.506	925.05
450.88	932.05
451.254	890.7
451.628	972.5
452.002	951.26
452.376	955.1
452.75	963.69
453.123	983.35
453.497	964.14
453.871	951.71
454.244	1007.08
454.618	1003.01
454.992	1000.07
455.365	995.33
455.739	1022.9
456.112	1044.14
456.486	1031.71
456.859	1035.78
457.232	1050.01
457.606	1045.72
457.979	1074.42
458.352	1066.51
458.725	1097.02
459.099	1105.38
459.472	1118.49
459.845	1099.05
460.218	1081.2
460.591	1125.04
460.964	1136.79
461.337	1156
461.71	1155.55
462.083	1169.33
462.456	1173.85
462.829	1185.38
463.201	1165.94
463.574	1168.2
463.947	1203.46
464.32	1215.43
464.692	1224.02
465.065	1231.7
465.438	1235.09
465.81	1253.63
466.183	1262.44
466.555	1254.76
466.928	1307.64
467.3	1303.57
467.672	1302.89
468.045	1353.28
468.417	1335.21
468.789	1352.83
469.161	1385.83
469.534	1384.47
469.906	1403.9
470.278	1408.2
470.65	1416.56
471.022	1452.04
471.394	1504.69
471.766	1491.13
472.138	1506.73
472.51	1500.17
472.882	1555.76
473.253	1517.35
473.625	1563
473.997	1575.65
474.369	1606.16
474.74	1628.53
475.112	1640.28
475.484	1664.91
475.855	1671.92
476.227	1704.69
476.598	1759.83
476.97	1775.87
477.341	1772.48
477.713	1788.75
478.084	1826.72
478.455	1877.56
478.827	1841.63
479.198	1908.75
479.569	1920.95
479.94	1985.81
480.311	1960.05
480.682	2032.36
481.053	2066.26
481.424	2074.62
481.795	2113.72
482.166	2126.37
482.537	2134.28
482.908	2209.98
483.279	2208.18
483.65	2247.5
484.021	2264.67
484.391	2331.34
484.762	2325.24
485.133	2352.81
485.503	2369.98
485.874	2380.83
486.244	2457.89
486.615	2471.45
486.985	2523.2
487.356	2553.7
487.726	2571.56
488.097	2602.29
488.467	2640.03
488.837	2673.93
489.207	2689.97
489.578	2721.38
489.948	2762.29
490.318	2778.1
490.688	2765
491.058	2844.54
491.428	2830.53
491.798	2883.19
492.168	2946.69
492.538	2980.36
492.908	3000.92
493.278	3025.33
493.648	3033.69
494.017	3073.69
494.387	3059
494.757	3118.66
495.126	3130.19
495.496	3119.34
495.866	3148.49
496.235	3207.92
496.605	3190.75
496.974	3256.51
497.344	3264.42
497.713	3286.57
498.082	3269.17
498.452	3338.09
498.821	3329.28
499.19	3366.56
499.559	3410.4
499.928	3405.21
500.298	3448.37
500.667	3443.62
501.036	3452.21
501.405	3489.95
501.774	3502.61
502.143	3514.81
502.512	3532.66
502.88	3566.33
503.249	3561.81
503.618	3562.49
503.987	3550.97
504.356	3648.59
504.724	3607.91
505.093	3602.49
505.462	3644.52
505.83	3659.89
506.199	3630.06
506.567	3691.08
506.936	3703.5
507.304	3736.95
507.672	3741.24
508.041	3795.93
508.409	3790.06
508.777	3781.24
509.145	3806.78
509.514	3856.04
509.882	3850.39
510.25	3821.92
510.618	3854.91
510.986	3849.26
511.354	3917.51
511.722	3914.35
512.09	3936.49
512.458	3911.18
512.826	3936.27
513.193	3960.45
513.561	3955.93
513.929	4005.64
514.297	4033.67
514.664	4049.48
515.032	4029.82
515.4	4045.19
515.767	4041.8
516.135	4084.51
516.502	4063.72
516.869	4116.6
517.237	4125.87
517.604	4100.56
517.972	4131.74
518.339	4159.54
518.706	4150.5
519.073	4175.36
519.44	4172.19
519.808	4168.58
520.175	4185.98
520.542	4262.81
520.909	4238.18
521.276	4217.16
521.643	4251.96
522.009	4289.25
522.376	4288.57
522.743	4312.53
523.11	4347.56
523.477	4364.73
523.843	4367.22
524.21	4392.98
524.577	4371.28
524.943	4442.47
525.31	4458.29
525.676	4494.44
526.043	4492.64
526.409	4545.06
526.776	4559.08
527.142	4529.25
527.508	4533.09
527.874	4627.55
528.241	4596.59
528.607	4629.13
528.973	4683.59
529.339	4699.86
529.705	4717.94
530.071	4740.09
530.437	4787.09
530.803	4751.39
531.169	4808.79
531.535	4813.98
531.901	4797.94
532.267	4865.96
532.632	4945.51
532.998	4877.71
533.364	4887.65
533.73	4938.27
534.095	5004.49
534.461	4961.1
534.826	5046.97
535.192	5017.14
535.557	5060.3
535.923	5059.4
536.288	5052.4
536.653	5067.08
537.019	5078.16
537.384	5139.4
537.749	5130.81
538.114	5163.58
538.479	5155.44
538.845	5182.11
539.21	5169
539.575	5221.66
539.94	5275.21
540.305	5265.95
540.67	5276.57
541.034	5301.2
541.399	5333.97
541.764	5367.87
542.129	5363.12
542.494	5411.03
542.858	5416
543.223	5435.21
543.587	5417.81
543.952	5518.6
544.316	5494.42
544.681	5522.44
545.045	5517.24
545.41	5585.94
545.774	5566.28
546.138	5606.05
546.503	5593.62
546.867	5637.92
547.231	5659.39
547.595	5668.2
547.959	5671.14
548.324	5677.69
548.688	5765.37
549.052	5754.98
549.416	5801.08
549.779	5785.94
550.143	5822.54
550.507	5814.18
550.871	5841.3
551.235	5863.9
551.599	5902.99
551.962	5867.29
552.326	5913.39
552.689	5984.12
553.053	5960.85
553.417	5957.46
553.78	6032.26
554.143	6006.72
554.507	6030
554.87	6037.45
555.234	6110.9
555.597	6070.67
555.96	6060.05
556.323	6115.19
556.686	6105.02
557.05	6192.03
557.413	6203.1
557.776	6183.44
558.139	6241.74
558.502	6240.61
558.865	6189.31
559.228	6279.71
559.59	6320.38
559.953	6248.07
560.316	6333.49
560.679	6338.01
561.041	6370.33
561.404	6363.77
561.767	6429.31
562.129	6420.27
562.492	6432.92
562.854	6485.35
563.217	6415.3
563.579	6476.09
563.941	6469.31
564.304	6601.06
564.666	6580.94
565.028	6573.71
565.39	6560.38
565.753	6613.71
566.115	6670.88
566.477	6719.7
566.839	6652.35
567.201	6719.7
567.563	6710.88
567.925	6826.36
568.287	6815.06
568.648	6800.15
569.01	6831.11
569.372	6867.04
569.734	6849.41
570.095	6947.71
570.457	6961.5
570.819	6980.03
571.18	6957.88
571.542	7012.34
571.903	7090.08
572.265	7149.52
572.626	7169.85
572.987	7139.57
573.349	7228.61
573.71	7328.72
574.071	7323.52
574.432	7389.28
574.794	7547.92
575.155	7492.11
575.516	7533.91
575.877	7593.35
576.238	7618.2
576.599	7700.69
576.96	7720.12
577.32	7784.98
577.681	7895.26
578.042	7983.84
578.403	8039.89
578.763	8119.43
579.124	8227.68
579.485	8309.94
579.845	8376.38
580.206	8476.94
580.566	8573.88
580.927	8695.01
581.287	8822.24
581.648	8895.23
582.008	9034.21
582.368	9179.97
582.728	9287.76
583.089	9455.44
583.449	9551.26
583.809	9719.62
584.169	9867.64
584.529	9956.67
584.889	10279.6
585.249	10372.03
585.609	10458.13
585.969	10771.34
586.329	10903.99
586.688	11115.51
587.048	11386.47
587.408	11513.92
587.768	11751.65
588.127	11941.03
588.487	12083.62
588.846	12413.11
589.206	12587.11
589.565	12871.85
589.925	13182.13
590.284	13298.73
590.643	13578.5
591.003	13785.73
591.362	14107.3
591.721	14326.95
592.08	14611.01
592.44	14960.84
592.799	15116.76
593.158	15410.54
593.517	15764.2
593.876	15950.19
594.235	16265.66
594.593	16505.88
594.952	16739.77
595.311	17005.75
595.67	17348.8
596.029	17688.9
596.387	18053.86
596.746	18207.53
597.104	18521.19
597.463	18756.89
597.822	19039.15
598.18	19287.28
598.538	19564.78
598.897	19904.66
599.255	20038.22
599.613	20510.97
599.972	20660.12
600.33	21044.07
600.688	21233.89
601.046	21522.02
601.404	21942.12
601.762	22035.45
602.12	22412.84
602.478	22726.51
602.836	22998.14
603.194	23130.34
603.552	23441.97
603.91	23629.08
604.268	23940.49
604.625	24196.3
604.983	24433.81
605.341	24606.91
605.698	24829.5
606.056	25181.13
606.413	25291.64
606.771	25582.93
607.128	25928
607.485	25990.38
607.843	26243.48
608.2	26546.29
608.557	26809.34
608.914	26906.74
609.272	27275.09
609.629	27605.25
609.986	27709.88
610.343	27771.57
610.7	28101.73
611.057	28327.94
611.414	28494.49
611.771	28710.53
612.127	28929.51
612.484	29133.57
612.841	29308.25
613.198	29302.38
613.554	29409.27
613.911	29836.6
614.267	29955.24
614.624	30117.95
614.98	30312.52
615.337	30606.53
615.693	30619.86
616.05	30679.29
616.406	30948.66
616.762	31053.75
617.118	31173.52
617.475	31298.03
617.831	31416.45
618.187	31652.15
618.543	31732.6
618.899	32073.83
619.255	32122.19
619.611	32191.12
619.967	32381.85
620.323	32488.06
620.678	32514.5
621.034	32503.88
621.39	32708.17
621.746	32772.8
622.101	33215.5
622.457	33106.35
622.812	33293.91
623.168	33288.49
623.523	33397.64
623.879	33664.75
624.234	33512.66
624.589	33654.58
624.945	33732.09
625.3	33818.64
625.655	33859.1
626.01	34017.51
626.365	33985.65
626.72	34147
627.075	34069.03
627.43	34161.91
627.785	34251.85
628.14	34397.84
628.495	34490.49
628.85	34423.37
629.205	34278.75
629.559	34634.67
629.914	34557.83
630.269	34496.59
630.623	34566.65
630.978	34473.32
631.332	34791.5
631.687	34843.93
632.041	34568.46
632.396	34733.65
632.75	34663.82
633.104	34871.27
633.459	34675.8
633.813	34711.95
634.167	34739.52
634.521	34786.75
634.875	34790.82
635.229	34862.23
635.583	34719.41
635.937	34791.05
636.291	34717.6
636.645	34828.11
636.999	34614.33
637.352	34778.17
637.706	34724.16
638.06	34782.24
638.413	34736.36
638.767	34674.67
639.121	34818.62
639.474	34685.74
639.828	34788.79
640.181	34652.97
640.534	34803.25
640.888	34639.87
641.241	34608.23
641.594	34668.11
641.947	34906.3
642.301	34748.11
642.654	34821.33
643.007	34845.28
643.36	34783.14
643.713	34611.62
644.066	34815.68
644.419	34584.5
644.771	34382.7
645.124	34147.22
645.477	33958.75
645.83	33824.29
646.182	33814.35
646.535	33682.38
646.888	33821.13
647.24	33673.56
647.593	33796.72
647.945	33638.99
648.298	33602.61
648.65	33460.46
649.002	33561.48
649.355	33503.62
649.707	33587.92
650.059	33642.15
650.411	34062.71
650.763	33999.88
651.115	34498.17
651.467	34341.12
651.819	34456.14
652.171	34250.5
652.523	34165.53
652.875	34312.19
653.227	34048.47
653.578	34448.01
653.93	34289.82
654.282	34163.27
654.633	34123.27
654.985	34174.12
655.337	34249.82
655.688	34172.08
656.039	34319.42
656.391	33987.68
656.742	34084.63
657.094	34023.84
657.445	34117.39
657.796	34081.91
658.147	34044.18
658.498	34001.46
658.849	34174.79
659.2	33945.65
659.551	33878.08
659.902	34091.63
660.253	34001.92
660.604	34043.05
660.955	33909.94
661.306	34023.84
661.656	33930.05
662.007	33901.35
662.358	34014.57
662.708	33923.05
663.059	33953.56
663.409	33848.02
663.76	34061.58
664.11	34043.27
664.461	34071.07
664.811	34008.92
665.161	33956.04
665.511	33933.44
665.862	33977.28
666.212	34065.19
666.562	33983.84
666.912	33815.93
667.262	33913.11
667.612	33983.61
667.962	33935.93
668.312	33891.86
668.662	34164.4
669.011	34013.67
669.361	33838.53
669.711	33816.38
670.06	33757.86
670.41	33769.15
670.76	33745.2
671.109	34018.19
671.459	33695.03
671.808	33839.21
672.157	33815.25
672.507	33814.35
672.856	33632.89
673.205	33749.72
673.554	33890.96
673.904	33631.76
674.253	33897.96
674.602	33745.88
674.951	33457.3
675.3	33150.41
675.649	33606.45
675.998	33690.74
676.346	33675.37
676.695	33731.87
677.044	33418.2
677.393	33587.69
677.741	33612.55
678.09	33529.16
678.438	33493.91
678.787	33459.33
679.135	33432.21
679.484	33280.35
679.832	33393.35
680.181	33327.36
680.529	33333.91
680.877	33190.41
681.225	33196.51
681.573	33384.08
681.922	33101.83
682.27	33010.98
682.618	32972.11
682.966	33057.99
683.314	32959.23
683.661	32960.59
684.009	32693.02
684.357	32717.43
684.705	32734.38
685.053	32770.99
685.4	32762.85
685.748	32423.65
686.095	32635.17
686.443	32451
686.79	32492.35
687.138	32482.41
687.485	32508.85
687.832	32328.06
688.18	32364.9
688.527	32129.2
688.874	32155.19
689.221	32035.19
689.568	31854.85
689.915	31899.37
690.262	31987.51
690.609	31865.25
690.956	31703.22
691.303	31578.93
691.65	31530.57
691.997	31465.71
692.344	31372.83
692.69	31322.21
693.037	31383.23
693.383	31126.96
693.73	31263.01
694.077	31093.74
694.423	31119.96
694.769	30861.89
695.116	30838.38
695.462	30824.6
695.808	30917.03
696.155	30756.13
696.501	30514.55
696.847	30569.69
697.193	30484.04
697.539	30570.37
697.885	30304.39
698.231	30140.55
698.577	30099.87
698.923	30140.55
699.269	29962.25
699.614	29916.15
699.96	29833.66
700.306	29717.06
700.651	29802.71
700.997	29715.7
701.342	29708.02
701.688	29594.35
702.033	29420.34
702.379	29349.84
702.724	29297.18
703.069	29378.31
703.415	29099.67
703.76	28959.56
704.105	29067.58
704.45	28949.85
704.795	28826.69
705.14	28735.16
705.485	28711.89
705.83	28617.43
706.175	28630.98
706.52	28569.29
706.865	28466.24
707.209	28420.14
707.554	28198.91
707.899	28331.11
708.243	28184.89
708.588	28161.84
708.932	28015.86
709.277	27887.05
709.621	27955.97
709.966	27817.67
710.31	28022.86
710.654	27591.92
710.998	27801.85
711.342	27653.84
711.687	27597.57
712.031	27555.53
712.375	27432.37
712.719	27384.24
713.063	27384.24
713.407	27464.01
713.75	27221.98
714.094	27232.83
714.438	27205.26
714.782	27253.62
715.125	27058.82
715.469	27097.92
715.812	26916.45
716.156	26905.38
716.499	26867.19
716.843	26936.11
717.186	26620.42
717.53	26828.32
717.873	26880.75
718.216	26735.67
718.559	26640.53
718.902	26373.64
719.246	26498.39
719.589	26506.75
719.932	26280.76
720.275	26359.86
720.617	26391.5
720.96	26123.03
721.303	26261.78
721.646	26196.25
721.989	26095.68
722.331	26012.75
722.674	26087.77
723.016	26058.17
723.359	25948.12
723.701	26026.08
724.044	25846.65
724.386	25662.25
724.729	25849.81
725.071	25709.93
725.413	25686.2
725.755	25666.54
726.097	25608.01
726.439	25479.88
726.782	25535.92
727.124	25529.6
727.465	25418.19
727.807	25431.75
728.149	25350.62
728.491	25371.41
728.833	25350.17
729.175	25241.24
729.516	25203.5
729.858	25168.93
730.199	25176.61
730.541	25174.35
730.882	25074.92
731.224	25139.32
731.565	24803.74
731.906	24941.82
732.248	24973.68
732.589	24808.49
732.93	24855.26
733.271	24742.05
733.612	24825.21
733.953	24829.73
734.294	24694.82
734.635	24671.09
734.976	24718.54
735.317	24512.9
735.658	24598.1
735.999	24557.65
736.339	24622.73
736.68	24542.05
737.021	24505.22
737.361	24261.83
737.702	24490.98
738.042	24357.42
738.383	24255.96
738.723	24314.49
739.063	24165.57
739.404	24334.37
739.744	24168.05
740.084	24196.98
740.424	24186.13
740.764	24029.3
741.104	24216.19
741.444	23921.73
741.784	23937.1
742.124	23987.49
742.464	23851
742.804	23907.27
743.143	23835.4
743.483	23913.82
743.823	23764.67
744.162	23684.22
744.502	23794.5
744.841	23729.19
745.181	23719.93
745.52	23599.25
745.86	23652.13
746.199	23520.84
746.538	23464.34
746.877	23545.69
747.216	23506.15
747.556	23474.74
747.895	23422.53
748.234	23273.84
748.573	23261.86
748.911	23386.38
749.25	23248.53
749.589	23096.67
749.928	23134.41
750.267	23126.04
750.605	23032.71
750.944	23026.16
751.283	23014.18
751.621	22968.53
751.96	22787.52
752.298	22784.58
752.636	22938.03
752.975	22772.61
753.313	22597.47
753.651	22712.72
753.989	22578.94
754.327	22562.22
754.666	22536.46
755.004	22492.39
755.342	22590.69
755.679	22505.5
756.017	22419.62
756.355	22467.98
756.693	22268.21
757.031	22347.99
757.368	22049.24
757.706	22121.33
758.044	22139.63
758.381	22143.7
758.719	21950.71
759.056	22016.92
759.394	21815.34
759.731	21804.95
760.068	21703.93
760.405	21742.58
760.743	21508.01
761.08	21576.03
761.417	21671.39
761.754	21509.82
762.091	21428.46
762.428	21390.72
762.765	21145.98
763.102	21217.62
763.438	21181.24
763.775	21133.1
764.112	20962.94
764.449	21148.47
764.785	20915.71
765.122	20736.5
765.458	20800.23
765.795	20701.7
766.131	20695.15
766.467	20608.82
766.804	20489.5
767.14	20454.7
767.476	20367.92
767.812	20310.3
768.148	20347.36
768.485	20152.11
768.821	20030.76
769.157	20045.45
769.492	19966.58
769.828	20026.01
770.164	19884.1
770.5	19802.06
770.836	19777.66
771.171	19573.37
771.507	19636.64
771.842	19510.09
772.178	19527.5
772.513	19521.62
772.849	19409.31
773.184	19248.86
773.519	19308.07
773.855	19258.35
774.19	19088.86
774.525	19001.86
774.86	18995.08
775.195	19024.68
775.53	18859.26
775.865	18708.31
776.2	18697.91
776.535	18534.53
776.87	18579.05
777.205	18495.88
777.539	18390.35
777.874	18483.91
778.209	18214.31
778.543	18264.93
778.878	18122.79
779.212	18093.41
779.547	17966.63
779.881	18023.58
780.215	17866.52
780.55	17852.74
780.884	17750.14
781.218	17748.56
781.552	17672.18
781.886	17576.13
782.22	17427.44
782.554	17407.78
782.888	17221.79
783.222	17332.52
783.556	17123.49
783.889	17213.21
784.223	17030.39
784.557	17040.78
784.89	17135.69
785.224	16859.77
785.557	16863.16
785.891	16809.6
786.224	16768.7
786.558	16664.97
786.891	16547.23
787.224	16553.79
787.557	16430.18
787.891	16398.99
788.224	16378.65
788.557	16321.7
788.89	16291.65
789.223	16394.02
789.556	16180.92
789.888	16080.35
790.221	16033.35
790.554	15999.45
790.887	15993.12
791.219	15921.71
791.552	15919.23
791.884	15721.04
792.217	15792.68
792.549	15724.88
792.882	15576.41
793.214	15499.8
793.546	15568.05
793.879	15455.06
794.211	15309.53
794.543	15432.91
794.875	15393.59
795.207	15393.37
795.539	15276.53
795.871	15240.15
796.203	15096.65
796.535	15084.67
796.867	14934.4
797.198	14955.19
797.53	15010.55
797.862	14893.72
798.193	14885.36
798.525	14747.06
798.856	14773.5
799.188	14643.56
799.519	14598.59
799.85	14534.18
800.182	14606.95
800.513	14551.35
800.844	14366.95
801.175	14471.58
801.506	14411.7
801.837	14282.44
802.168	14320.4
802.499	14362.66
802.83	14253.51
803.161	14148.43
803.491	14125.83
803.822	14116.34
804.153	14017.81
804.483	13987.3
804.814	13891.03
805.145	13857.59
805.475	13880.86
805.805	13896.46
806.136	13798.38
806.466	13773.52
806.796	13659.4
807.126	13668.89
807.457	13627.99
807.787	13677.03
808.117	13603.58
808.447	13525.17
808.777	13526.75
809.107	13411.5
809.436	13419.41
809.766	13381.89
810.096	13367.21
810.426	13247.21
810.755	13310.26
811.085	13225.97
811.414	13226.19
811.744	13129.7
812.073	13067.33
812.403	13084.95
812.732	13014.45
813.061	13002.92
813.39	12948.23
813.719	12879.76
814.049	13024.84
814.378	12924.05
814.707	12783.72
815.036	12828.01
815.365	12811.51
815.693	12665.53
816.022	12642.93
816.351	12649.03
816.68	12599.32
817.008	12632.99
817.337	12513.89
817.665	12457.4
817.994	12518.19
818.322	12498.3
818.651	12409.26
818.979	12302.6
819.307	12369.27
819.636	12422.82
819.964	12265.77
820.292	12333.33
820.62	12419.21
820.948	12294.69
821.276	12225.31
821.604	12302.15
821.932	12285.43
822.259	12303.5
822.587	12258.99
822.915	12259.66
823.243	12259.21
823.57	12168.82
823.898	12185.09
824.225	12193
824.553	12185.32
824.88	12255.82
825.207	12258.08
825.535	12153.45
825.862	12177.86
826.189	12166.78
826.516	12183.73
826.843	12185.32
827.17	12207.24
827.497	12178.76
827.824	12215.6
828.151	12177.18
828.478	12232.77
828.805	12258.08
829.131	12207.24
829.458	12145.54
829.785	12060.8
830.111	12120.68
830.438	12187.58
830.764	12224.41
831.09	12150.06
831.417	12043.17
831.743	12184.64
832.069	12076.62
832.395	12062.83
832.722	12105.09
833.048	12073.45
833.374	12125.2
833.7	11990.97
834.026	11983.06
834.351	11931.99
834.677	12012.21
835.003	12056.05
835.329	12012.44
835.654	11976.28
835.98	11990.07
836.306	11973.57
836.631	11938.54
836.956	12006.11
837.282	11917.53
837.607	11889.28
837.932	11828.26
838.258	11850.86
838.583	11852.89
838.908	11740.13
839.233	11815.38
839.558	11779.22
839.883	11716.63
840.208	11707.14
840.533	11641.6
840.858	11692.45
841.182	11722.05
841.507	11665.33
841.832	11555.28
842.156	11536.97
842.481	11583.75
842.805	11492.23
843.13	11532.68
843.454	11521.83
843.778	11388.27
844.103	11377.88
844.427	11372.23
844.751	11440.93
845.075	11443.87
845.399	11349.86
845.723	11249.07
846.047	11316.64
846.371	11193.93
846.695	11122.29
847.019	11088.39
847.343	11093.59
847.666	11018.57
847.99	10992.8
848.313	10947.83
848.637	10862.19
848.96	10823.32
849.284	10839.59
849.607	10797.56
849.931	10747.39
850.254	10617.67
850.577	10682.08
850.9	10540.61
851.223	10520.95
851.546	10461.07
851.869	10410.67
852.192	10423.55
852.515	10372.71
852.838	10313.05
853.161	10321.64
853.483	10241.86
853.806	10203.67
854.129	10212.94
854.451	10163.22
854.774	10075.31
855.096	10031.02
855.419	10088.42
855.741	9990.57
856.063	9997.8
856.385	9926.17
856.708	9908.31
857.03	9862.21
857.352	9831.93
857.674	9829.9
857.996	9774.31
858.318	9812.5
858.64	9729.33
858.961	9675.32
859.283	9719.17
859.605	9634.65
859.926	9647.53
860.248	9693.86
860.57	9610.69
860.891	9536.35
861.212	9497.7
861.534	9597.36
861.855	9521.88
862.176	9490.47
862.498	9550.58
862.819	9536.57
863.14	9436.69
863.461	9398.04
863.782	9380.42
864.103	9425.16
864.424	9363.47
864.745	9433.52
865.065	9281.21
865.386	9329.35
865.707	9307.88
866.027	9283.24
866.348	9229.23
866.668	9276.69
866.989	9215.22
867.309	9138.16
867.63	9229.01
867.95	9190.14
868.27	9103.36
868.59	9120.31
868.91	9198.73
869.23	9149.01
869.55	9132.97
869.87	9146.98
870.19	9038.28
870.51	9091.39
870.83	9026.3
871.15	9023.59
871.469	9024.95
871.789	9051.61
872.109	9034.89
872.428	8924.61
872.748	9006.19
873.067	8992.86
873.386	8935.91
873.706	8929.36
874.025	8822.92
874.344	8857.27
874.663	8937.72
874.982	8856.82
875.301	8885.51
875.62	8834.67
875.939	8738.63
876.258	8795.12
876.577	8799.19
876.896	8792.64
877.214	8692.53
877.533	8739.98
877.852	8754.44
878.17	8695.01
878.489	8734.11
878.807	8735.01
879.125	8712.41
879.444	8700.66
879.762	8646.65
880.08	8603.04
880.398	8547.9
880.716	8594
881.034	8558.29
881.352	8556.48
881.67	8558.52
881.988	8537.95
882.306	8472.19
882.624	8464.74
882.941	8467.22
883.259	8358.98
883.577	8394.45
883.894	8389.93
884.212	8388.35
884.529	8382.93
884.846	8391.74
885.164	8378.18
885.481	8301.12
885.798	8319.65
886.115	8238.53
886.432	8229.71
886.75	8247.11
887.067	8208.92
887.383	8199.88
887.7	8153.56
888.017	8165.53
888.334	8137.96
888.651	8144.52
888.967	8075.14
889.284	8024.75
889.6	8000.34
889.917	7986.78
890.233	7985.88
890.55	7968.25
890.866	8008.25
891.182	7954.92
891.498	7965.09
891.815	7810.74
892.131	7855.71
892.447	7828.37
892.763	7777.97
893.079	7807.58
893.395	7771.87
893.71	7743.62
894.026	7736.39
894.342	7739.33
894.657	7639.45
894.973	7677.86
895.289	7601.48
895.604	7628.6
895.92	7558.09
896.235	7539.34
896.55	7522.39
896.865	7475.61
897.181	7484.42
897.496	7476.74
897.811	7432.67
898.126	7365.33
898.441	7361.49
898.756	7397.64
899.071	7297.53
899.386	7307.48
899.7	7295.27
900.015	7221.6
900.33	7189.74
900.644	7189.74
900.959	7111.78
901.273	7153.58
901.588	7092.34
901.902	7049.41
902.216	7021.61
902.531	7050.99
902.845	6964.66
903.159	6979.8
903.473	6979.12
903.787	6909.75
904.101	6899.8
904.415	6900.48
904.729	6869.75
905.042	6840.15
905.356	6792.46
905.67	6773.71
905.984	6804.21
906.297	6764.67
906.611	6727.15
906.924	6688.96
907.237	6667.95
907.551	6661.17
907.864	6589.08
908.177	6611.68
908.491	6591.11
908.804	6574.16
909.117	6486.48
909.43	6484.9
909.743	6468.63
910.056	6471.34
910.368	6425.01
910.681	6400.83
910.994	6373.04
911.307	6345.02
911.619	6281.52
911.932	6295.75
912.244	6260.05
912.557	6227.73
912.869	6236.32
913.181	6193.83
913.494	6193.61
913.806	6120.39
914.118	6139.82
914.43	6141.18
914.742	6110.45
915.054	6016.66
915.366	6022.77
915.678	5972.15
915.99	6001.97
916.302	5962.65
916.613	5932.15
916.925	5896.89
917.236	5911.36
917.548	5866.39
917.859	5882.88
918.171	5804.47
918.482	5789.55
918.794	5770.12
919.105	5705.94
919.416	5663.9
919.727	5752.26
920.038	5681.31
920.349	5629.33
920.66	5574.19
920.971	5630.69
921.282	5627.3
921.593	5550.46
921.903	5491.93
922.214	5471.82
922.525	5436.11
922.835	5465.72
923.146	5406.28
923.456	5358.6
923.767	5360.41
924.077	5392.05
924.387	5324.25
924.697	5343.01
925.008	5310.69
925.318	5319.06
925.628	5286.29
925.938	5244.93
926.248	5192.96
926.558	5174.65
926.867	5159.74
927.177	5124.48
927.487	5070.93
927.796	5077.71
928.106	5051.72
928.416	5059.85
928.725	5027.99
929.034	4987.76
929.344	5031.15
929.653	5018.95
929.962	4947.54
930.271	4905.73
930.581	4899.18
930.89	4864.15
931.199	4860.76
931.508	4813.08
931.817	4870.71
932.125	4839.75
932.434	4782.35
932.743	4760.65
933.051	4729.69
933.36	4738.28
933.669	4704.16
933.977	4687.89
934.286	4686.98
934.594	4693.31
934.902	4575.12
935.21	4610.6
935.519	4590.49
935.827	4555.91
936.135	4510.26
936.443	4488.79
936.751	4524.5
937.059	4479.98
937.367	4480.66
937.674	4498.51
937.982	4448.34
938.29	4409.02
938.597	4424.39
938.905	4360.21
939.213	4366.76
939.52	4330.83
939.827	4366.99
940.135	4316.37
940.442	4295.35
940.749	4288.35
941.056	4267.56
941.363	4220.78
941.67	4263.94
941.977	4202.7
942.284	4193.43
942.591	4230.5
942.898	4125.41
943.205	4134.45
943.511	4164.51
943.818	4080.67
944.125	4051.74
944.431	4079.09
944.738	4035.47
945.044	4031.18
945.35	3997.06
945.657	4038.18
945.963	3939.88
946.269	3931.07
946.575	3931.97
946.881	3968.36
947.187	3893.33
947.493	3868.25
947.799	3851.97
948.105	3916.61
948.41	3812.65
948.716	3851.3
949.022	3798.42
949.327	3808.13
949.633	3781.02
949.938	3740.11
950.244	3757.51
950.549	3706.44
950.854	3705.99
951.16	3654.92
951.465	3647.23
951.77	3644.3
952.075	3617.18
952.38	3646.33
952.685	3611.98
952.99	3622.38
953.294	3608.82
953.599	3570.4
953.904	3548.93
954.209	3492.66
954.513	3523.62
954.818	3497.41
955.122	3503.06
955.426	3486.11
955.731	3442.72
956.035	3445.66
956.339	3452.21
956.643	3438.43
956.948	3366.56
957.252	3421.7
957.556	3401.59
957.86	3363.4
958.163	3338.09
958.467	3337.86
958.771	3302.16
959.075	3318.2
959.378	3307.58
959.682	3288.15
959.985	3263.06
960.289	3258.54
960.592	3231.2
960.896	3194.82
961.199	3202.73
961.502	3227.81
961.805	3173.12
962.108	3156.85
962.411	3158.66
962.714	3144.2
963.017	3119.79
963.32	3117.76
963.623	3075.05
963.926	3086.57
964.228	3125.89
964.531	3074.14
964.833	3076.85
965.136	3009.51
965.438	3006.57
965.741	3007.25
966.043	3000.47
966.345	3033.92
966.648	2955.73
966.95	2989.4
967.252	2906.92
967.554	2938.1
967.856	2950.98
968.158	2916.63
968.46	2922.28
968.761	2904.43
969.063	2868.05
969.365	2840.02
969.666	2824.21
969.968	2841.15
970.269	2818.78
970.571	2809.06
970.872	2843.64
971.174	2780.82
971.475	2770.65
971.776	2768.39
972.077	2746.69
972.378	2750.99
972.679	2719.35
972.98	2709.18
973.281	2703.08
973.582	2710.54
973.883	2707.15
974.183	2675.51
974.484	2643.42
974.785	2650.88
975.085	2629.86
975.386	2639.8
975.686	2583.08
975.986	2606.36
976.287	2618.79
976.587	2585.79
976.887	2548.05
977.187	2532.01
977.487	2581.27
977.787	2529.52
978.087	2533.14
978.387	2526.59
978.687	2531.56
978.987	2482.75
979.286	2490.88
979.586	2469.41
979.885	2510.99
980.185	2416.31
980.484	2431.22
980.784	2426.02
981.083	2382.86
981.382	2426.25
981.682	2374.5
981.981	2398.91
982.28	2397.55
982.579	2370.43
982.878	2333.6
983.177	2356.42
983.475	2324.33
983.774	2359.13
984.073	2304.45
984.372	2343.77
984.67	2306.03
984.969	2278.68
985.267	2281.62
985.566	2255.86
985.864	2255.18
986.162	2258.57
986.461	2224.22
986.759	2244.33
987.057	2182.19
987.355	2195.97
987.653	2209.98
987.951	2217.22
988.249	2158.46
988.547	2177.22
988.844	2143.32
989.142	2134.05
989.44	2121.17
989.737	2139.93
990.035	2114.17
990.332	2113.49
990.63	2130.89
990.927	2099.7
991.224	2116.65
991.521	2082.53
991.819	2045.69
992.116	2102.42
992.413	2039.59
992.71	2055.86
993.006	2021.97
993.303	2045.92
993.6	2045.02
993.897	1990.56
994.193	1995.3
994.49	1975.19
994.787	1981.74
995.083	1960.73
995.379	1951.69
995.676	1952.36
995.972	1939.26
996.268	1937.22
996.565	1918.47
996.861	1942.42
997.157	1887.28
997.453	1888.18
997.749	1901.29
998.044	1887.28
998.34	1865.36
998.636	1828.75
998.932	1844.8
999.227	1826.94
999.523	1834.4
999.818	1821.29
1000.114	1797.79
1000.409	1799.83
1000.704	1798.24
1001	1764.57
1001.295	1762.76
1001.59	1754.63
1001.885	1778.36
1002.18	1720.96
1002.475	1751.47
1002.77	1738.13
1003.065	1716.89
1003.359	1701.98
1003.654	1698.59
1003.949	1703.78
1004.243	1701.98
1004.538	1673.95
1004.832	1717.57
1005.127	1659.72
1005.421	1658.59
1005.715	1638.25
1006.009	1657
1006.304	1626.95
1006.598	1620.85
1006.892	1615.42
1007.186	1611.13
1007.48	1591.92
1007.773	1607.06
1008.067	1559.83
1008.361	1566.61
1008.655	1537.23
1008.948	1527.52
1009.242	1555.09
1009.535	1525.71
1009.829	1527.74
1010.122	1531.36
1010.415	1490.91
1010.708	1499.49
1011.001	1478.93
1011.295	1485.26
1011.588	1478.93
1011.881	1455.65
1012.173	1454.07
1012.466	1443.9
1012.759	1386.5
1013.052	1433.28
1013.344	1438.93
1013.637	1418.59
1013.93	1404.13
1014.222	1410.23
1014.514	1413.4
1014.807	1387.41
1015.099	1378.59
1015.391	1360.97
1015.683	1371.36
1015.976	1363.23
1016.268	1377.24
1016.56	1333.85
1016.851	1342.21
1017.143	1338.82
1017.435	1319.61
1017.727	1308.99
1018.018	1288.65
1018.31	1266.96
1018.602	1298.82
1018.893	1261.53
1019.185	1268.54
1019.476	1253.63
1019.767	1255.43
1020.058	1216.11
1020.35	1249.78
1020.641	1224.93
1020.932	1215.89
1021.223	1217.02
1021.514	1204.36
1021.804	1194.42
1022.095	1190.58
1022.386	1178.15
1022.677	1195.32
1022.967	1174.98
1023.258	1183.8
1023.548	1170.92
1023.839	1121.43
1024.129	1133.18
1024.419	1127.53
1024.709	1130.92
1025	1109.67
1025.29	1136.11
1025.58	1128.2
1025.87	1108.09
1026.16	1116.91
1026.449	1095.44
1026.739	1083.01
1027.029	1075.32
1027.319	1065.83
1027.608	1048.66
1027.898	1056.79
1028.187	1038.26
1028.477	1044.59
1028.766	1052.05
1029.055	1025.83
1029.344	1017.02
1029.634	1014.31
1029.923	1009.11
1030.212	1006.63
1030.501	1005.5
1030.79	984.25
1031.078	996.46
1031.367	1008.21
1031.656	984.25
1031.945	980.64
1032.233	955.55
1032.522	944.71
1032.81	950.58
1033.099	933.41
1033.387	958.94
1033.675	935.22
1033.963	931.83
1034.251	921.88
1034.54	925.05
1034.828	902
1035.116	910.81
1035.403	940.64
1035.691	905.16
1035.979	892.73
1036.267	867.19
1036.554	880.3
1036.842	889.57
1037.129	883.47
1037.417	878.27
1037.704	853.64
1037.992	869
1038.279	859.51
1038.566	843.47
1038.853	843.47
1039.14	843.47
