Data from hue_36_FLMS001491_00029.txt Node
Date: Tue Feb 07 17:29:36 GMT 2017
User: dcchb
Spectrometer: FLMS00149
Trigger mode: 0
Integration Time (sec): 2.000000E-2
Scans to average: 10
Electric dark correction enabled: true
Nonlinearity correction enabled: false
Boxcar width: 0
XAxis mode: Wavelengths
Number of Pixels in Spectrum: 2048
>>>>>Begin Spectral Data<<<<<
341.393	-15.35
341.776	-15.35
342.16	-15.35
342.543	-69.36
342.927	-80.44
343.31	-83.37
343.693	-73.88
344.077	-63.71
344.46	-82.24
344.843	-49.25
345.226	-51.28
345.61	-37.95
345.993	-1.57
346.376	-2.7
346.759	11.99
347.142	30.52
347.525	68.03
347.908	63.97
348.291	68.03
348.674	86.79
349.057	116.62
349.44	121.14
349.823	142.84
350.206	153.46
350.588	186.22
350.971	236.39
351.354	224.42
351.737	242.95
352.119	247.01
352.502	282.72
352.884	280.68
353.267	291.08
353.65	298.76
354.032	313
354.414	318.2
354.797	324.07
355.179	324.07
355.562	325.2
355.944	315.94
356.326	341.02
356.709	348.25
357.091	357.52
357.473	337.63
357.855	334.92
358.238	346.45
358.62	351.19
359.002	333.34
359.384	368.14
359.766	319.78
360.148	332.66
360.53	331.3
360.912	336.95
361.294	334.47
361.676	348.48
362.057	355.71
362.439	321.36
362.821	332.43
363.203	321.59
363.584	333.11
363.966	329.05
364.348	313.9
364.729	329.95
365.111	297.63
365.493	318.42
365.874	317.75
366.256	332.66
366.637	310.06
367.019	310.29
367.4	307.8
367.781	298.54
368.163	315.49
368.544	326.33
368.925	305.54
369.306	322.49
369.688	298.99
370.069	327.92
370.45	311.87
370.831	309.84
371.212	334.02
371.593	312.77
371.974	321.14
372.355	319.55
372.736	326.56
373.117	326.11
373.498	295.6
373.879	307.58
374.26	300.35
374.641	331.76
375.021	309.16
375.402	324.98
375.783	311.19
376.163	323.62
376.544	331.3
376.925	337.86
377.305	328.14
377.686	326.79
378.066	328.14
378.447	336.73
378.827	324.07
379.208	343.28
379.588	335.82
379.968	322.49
380.349	324.75
380.729	341.47
381.109	311.42
381.489	338.76
381.87	326.11
382.25	350.06
382.63	336.95
383.01	362.26
383.39	336.73
383.77	342.6
384.15	345.77
384.53	367.69
384.91	357.74
385.29	327.01
385.67	357.74
386.049	367.24
386.429	332.21
386.809	340.57
387.189	356.84
387.568	354.36
387.948	350.97
388.328	360.68
388.707	354.58
389.087	354.81
389.466	357.52
389.846	350.51
390.225	358.2
390.605	388.25
390.984	355.49
391.363	363.62
391.743	365.2
392.122	373.79
392.501	362.49
392.881	355.26
393.26	384.64
393.639	370.63
394.018	366.78
394.397	369.95
394.776	377.41
395.155	379.89
395.534	392.09
395.913	378.99
396.292	404.75
396.671	383.28
397.05	393.22
397.429	400.46
397.808	370.85
398.186	369.5
398.565	369.27
398.944	365.43
399.323	401.59
399.701	384.86
400.08	409.27
400.458	400.91
400.837	386.9
401.215	389.38
401.594	374.92
401.972	373.56
402.351	391.87
402.729	406.78
403.107	398.42
403.486	421.02
403.864	374.02
404.242	408.59
404.62	403.85
404.999	399.55
405.377	401.36
405.755	407.24
406.133	423.96
406.511	381.02
406.889	429.16
407.267	400.68
407.645	431.87
408.023	442.49
408.401	424.18
408.779	412.21
409.156	417.63
409.534	420.12
409.912	429.83
410.29	419.89
410.667	426.22
411.045	424.86
411.422	445.43
411.8	460.12
412.178	454.24
412.555	458.76
412.933	458.53
413.31	453.34
413.687	458.99
414.065	448.36
414.442	452.21
414.819	477.06
415.197	458.76
415.574	461.47
415.951	470.06
416.328	483.62
416.705	471.64
417.082	480.91
417.46	484.3
417.837	496.95
418.214	504.63
418.591	491.07
418.967	500.34
419.344	476.16
419.721	502.6
420.098	501.02
420.475	484.75
420.852	516.16
421.228	516.61
421.605	525.88
421.982	514.8
422.358	525.2
422.735	519.32
423.111	527.23
423.488	521.81
423.864	538.76
424.241	534.69
424.617	537.18
424.994	535.59
425.37	534.46
425.746	549.15
426.123	553.45
426.499	545.99
426.875	548.02
427.251	566.78
427.627	568.81
428.003	541.47
428.379	566.33
428.756	568.36
429.132	574.69
429.507	600.22
429.883	584.63
430.259	596.83
430.635	589.6
431.011	600.22
431.387	588.47
431.763	621.92
432.138	600.45
432.514	602.03
432.89	600
433.265	647.91
433.641	631.86
434.016	642.26
434.392	650.39
434.767	656.72
435.143	650.39
435.518	651.75
435.894	647.23
436.269	654.46
436.644	666.89
437.02	665.08
437.395	676.61
437.77	677.28
438.145	702.59
438.52	708.47
438.895	705.08
439.271	699.66
439.646	721.8
440.021	719.09
440.395	739.88
440.77	703.05
441.145	714.57
441.52	746.89
441.895	716.15
442.27	737.17
442.645	745.31
443.019	755.02
443.394	733.78
443.769	741.46
444.143	737.85
444.518	767.68
444.892	766.1
445.267	765.19
445.641	771.75
446.016	765.42
446.39	782.14
446.764	782.82
447.139	786.89
447.513	782.37
447.887	751.18
448.262	774.91
448.636	820.11
449.01	796.38
449.384	806.55
449.758	847.45
450.132	835.92
450.506	811.07
450.88	861.91
451.254	829.6
451.628	843.38
452.002	832.08
452.376	844.06
452.75	839.09
453.123	862.82
453.497	884.51
453.871	872.08
454.244	873.21
454.618	917.96
454.992	901.69
455.365	912.53
455.739	930.61
456.112	954.34
456.486	951.4
456.859	950.95
457.232	934.9
457.606	951.18
457.979	965.86
458.352	1017.84
458.725	1008.12
459.099	1009.93
459.472	1023.04
459.845	1022.36
460.218	1040.66
460.591	1050.61
460.964	1058.52
461.337	1069.14
461.71	1065.3
462.083	1095.35
462.456	1096.71
462.829	1107.1
463.201	1105.52
463.574	1124.28
463.947	1147.33
464.32	1133.54
464.692	1159.98
465.065	1190.72
465.438	1211.06
465.81	1198.63
466.183	1225.52
466.555	1235.24
466.928	1283.37
467.3	1252.86
467.672	1275.01
468.045	1298.06
468.417	1319.53
468.789	1354.78
469.161	1381.45
469.534	1377.83
469.906	1399.75
470.278	1417.83
470.65	1433.42
471.022	1478.39
471.394	1500.09
471.766	1519.3
472.138	1543.25
472.51	1577.6
472.882	1617.37
473.253	1615.11
473.625	1655.56
473.997	1716.13
474.369	1724.94
474.74	1742.34
475.112	1807.42
475.484	1843.13
475.855	1902.11
476.227	1916.35
476.598	1961.54
476.97	1970.13
477.341	2036.12
477.713	2085.61
478.084	2121.09
478.455	2181.65
478.827	2229.33
479.198	2274.08
479.569	2344.59
479.94	2408.76
480.311	2467.75
480.682	2553.17
481.053	2613.96
481.424	2653.73
481.795	2666.61
482.166	2776.89
482.537	2883.78
482.908	2925.36
483.279	2969.2
483.65	3083.77
484.021	3174.17
484.391	3201.96
484.762	3314.5
485.133	3291.68
485.503	3436.08
485.874	3533.48
486.244	3593.82
486.615	3691.89
486.985	3779.58
487.356	3915.84
487.726	3942.96
488.097	4089.62
488.467	4136.4
488.837	4246.23
489.207	4382.05
489.578	4469.05
489.948	4550.18
490.318	4651.64
490.688	4722.38
491.058	4775.48
491.428	4924.18
491.798	4996.04
492.168	5124.4
492.538	5231.29
492.908	5288.01
493.278	5389.02
493.648	5459.98
494.017	5542.02
494.387	5678.96
494.757	5769.13
495.126	5832.63
495.496	5956.47
495.866	6031.49
496.235	6076.92
496.605	6186.74
496.974	6236.46
497.344	6392.84
497.713	6447.08
498.082	6505.15
498.452	6661.53
498.821	6781.3
499.19	6784.47
499.559	6909.44
499.928	6968.87
500.298	7048.19
500.667	7194.4
501.036	7155.76
501.405	7304.23
501.774	7288.18
502.143	7391.68
502.512	7480.04
502.88	7558.46
503.249	7657.44
503.618	7639.81
503.987	7768.4
504.356	7874.16
504.724	7935.62
505.093	7969.97
505.462	8083.19
505.83	8085
506.199	8209.52
506.567	8283.64
506.936	8391.66
507.304	8442.05
507.672	8514.59
508.041	8547.81
508.409	8675.04
508.777	8709.39
509.145	8805.66
509.514	8841.36
509.882	8857.63
510.25	8924.3
510.618	9059.89
510.986	9069.38
511.354	9154.35
511.722	9303.27
512.09	9376.49
512.458	9338.98
512.826	9368.81
513.193	9518.63
513.561	9477.73
513.929	9643.15
514.297	9692.64
514.664	9817.16
515.032	9823.48
515.4	9850.15
515.767	9938.51
516.135	10005.17
516.502	9934.67
516.869	10077.72
517.237	10237.94
517.604	10108.45
517.972	10272.06
518.339	10284.49
518.706	10295.34
519.073	10400.19
519.44	10474.54
519.808	10572.84
520.175	10616.68
520.542	10684.93
520.909	10753.4
521.276	10766.28
521.643	10849.67
522.009	10936
522.376	11001.08
522.743	11095.09
523.11	11177.8
523.477	11302.77
523.843	11334.41
524.21	11356.78
524.577	11492.82
524.943	11587.28
525.31	11599.03
525.676	11628.18
526.043	11768.97
526.409	11839.93
526.776	11880.83
527.142	11978
527.508	12009.19
527.874	12109.3
528.241	12171.22
528.607	12209.86
528.973	12342.74
529.339	12395.85
529.705	12574.6
530.071	12574.37
530.437	12633.35
530.803	12665.22
531.169	12711.32
531.535	12763.07
531.901	12810.98
532.267	12863.18
532.632	13076.28
532.998	13055.94
533.364	13181.81
533.73	13076.28
534.095	13210.29
534.461	13250.06
534.826	13375.26
535.192	13439.66
535.557	13522.82
535.923	13538.19
536.288	13587
536.653	13596.27
537.019	13556.27
537.384	13661.8
537.749	13724.63
538.114	13715.36
538.479	13787.67
538.845	13867.67
539.21	13915.81
539.575	13991.28
539.94	14007.78
540.305	14099.76
540.67	14119.64
541.034	14184.73
541.399	14195.12
541.764	14215.91
542.129	14304.27
542.494	14408.45
542.858	14393.76
543.223	14518.95
543.587	14608.9
543.952	14647.76
544.316	14631.72
544.681	14681.21
545.045	14774.09
545.41	14856.12
545.774	14874.43
546.138	14941.32
546.503	15020.64
546.867	15029.68
547.231	15121.88
547.595	15101.99
547.959	15277.13
548.324	15146.06
548.688	15332.27
549.052	15354.64
549.416	15395.99
549.779	15388.76
550.143	15515.09
550.507	15550.11
550.871	15681.86
551.235	15585.37
551.599	15638.92
551.962	15707.4
552.326	15728.41
552.689	15867.39
553.053	15804.34
553.417	15840.5
553.78	16139.25
554.143	16052.25
554.507	16180.15
554.87	16181.28
555.234	16304.22
555.597	16303.09
555.96	16344.9
556.323	16525.23
556.686	16465.57
557.05	16607.94
557.413	16554.83
557.776	16531.78
558.139	16777.65
558.502	16732.91
558.865	16708.73
559.228	16916.18
559.59	16968.16
559.953	16927.93
560.316	17139.9
560.679	17156.63
561.041	17283.63
561.404	17376.96
561.767	17454.47
562.129	17292.67
562.492	17502.38
562.854	17535.15
563.217	17524.98
563.579	17530.17
563.941	17741.24
564.304	17734.46
564.666	17887.91
565.028	17815.82
565.39	17983.27
565.753	18057.39
566.115	18037.96
566.477	18157.95
566.839	18190.27
567.201	18300.55
567.563	18347.1
567.925	18439.53
568.287	18591.39
568.648	18553.88
569.01	18708
569.372	18785.06
569.734	18790.25
570.095	18918.61
570.457	18968.1
570.819	19105.95
571.18	19098.04
571.542	19195.89
571.903	19244.03
572.265	19303.01
572.626	19446.73
572.987	19432.95
573.349	19550.69
573.71	19606.96
574.071	19691.7
574.432	19796.56
574.794	20008.75
575.155	20001.52
575.516	19968.75
575.877	20254.85
576.238	20304.56
576.599	20371
576.96	20472.47
577.32	20491.23
577.681	20618.91
578.042	20881.95
578.403	20955.17
578.763	21076.52
579.124	21133.7
579.485	21439.68
579.845	21497.75
580.206	21591.31
580.566	21629.05
580.927	21870.4
581.287	22053.45
581.648	22230.84
582.008	22401.68
582.368	22453.89
582.728	22741.79
583.089	22799.41
583.449	22954.66
583.809	23191.27
584.169	23372.96
584.529	23409.34
584.889	23844.81
585.249	23775.89
585.609	23904.47
585.969	24326.38
586.329	24398.47
586.688	24678.69
587.048	24874.16
587.408	25089.3
587.768	25205.45
588.127	25451.55
588.487	25547.14
588.846	25984.42
589.206	26039.1
589.565	26218.99
589.925	26620.33
590.284	26795.02
590.643	26969.25
591.003	27171.5
591.362	27459.86
591.721	27653.52
592.08	27849.45
592.44	28206.05
592.799	28265.26
593.158	28563.33
593.517	28677.68
593.876	28996.31
594.235	29006.26
594.593	29404.66
594.952	29557.88
595.311	29722.17
595.67	29921.94
596.029	30339.1
596.387	30521.02
596.746	30779.32
597.104	30828.81
597.463	31081.23
597.822	31482.35
598.18	31443.71
598.538	31570.48
598.897	31967.08
599.255	32033.75
599.613	32586.05
599.972	32495.2
600.33	32812.94
600.688	32791.02
601.046	33199.59
601.404	33478.46
601.762	33497.89
602.12	33751.22
602.478	33941.27
602.836	34012.68
603.194	34030.98
603.552	34342.61
603.91	34355.27
604.268	34678.88
604.625	34804.75
604.983	35067.57
605.341	34938.76
605.698	35285.41
606.056	35642.01
606.413	35606.31
606.771	35824.61
607.128	36007.2
607.485	35941.89
607.843	36128.33
608.2	36311.6
608.557	36498.04
608.914	36461.88
609.272	36869.1
609.629	36964.69
609.986	37019.61
610.343	37202.43
610.7	37441.97
611.057	37445.13
611.414	37579.82
611.771	37635.41
612.127	37938.45
612.484	38010.77
612.841	38227.94
613.198	38184.09
613.554	38275.62
613.911	38603.07
614.267	38523.07
614.624	38601.26
614.98	38741.37
615.337	38879.9
615.693	39006.67
616.05	39003.28
616.406	39441.24
616.762	39346.55
617.118	39348.13
617.475	39436.27
617.831	39713.09
618.187	39808.68
618.543	39722.59
618.899	40077.6
619.255	40096.81
619.611	40128.45
619.967	40362.34
620.323	40441.89
620.678	40395.11
621.034	40330.25
621.39	40406.86
621.746	40420.42
622.101	40897.24
622.457	40668.32
622.812	40834.87
623.168	40891.14
623.523	40845.72
623.879	41102.21
624.234	40806.85
624.589	41130.01
624.945	41199.61
625.3	41268.31
625.655	41117.35
626.01	41237.12
626.365	41315.09
626.72	41223.34
627.075	41332.26
627.43	41433.27
627.785	41454.07
628.14	41418.13
628.495	41398.47
628.85	41456.33
629.205	41358.93
629.559	41492.03
629.914	41516.66
630.269	41537.45
630.623	41362.77
630.978	41370.68
631.332	41550.11
631.687	41691.57
632.041	41432.15
632.396	41556.66
632.75	41379.72
633.104	41489.32
633.459	41450
633.813	41432.37
634.167	41556.89
634.521	41479.15
634.875	41577.68
635.229	41550.11
635.583	41398.7
635.937	41392.6
636.291	41380.4
636.645	41445.93
636.999	41388.53
637.352	41449.55
637.706	41222.89
638.06	41552.14
638.413	41329.77
638.767	41215.88
639.121	41400.28
639.474	41261.3
639.828	41121.42
640.181	41194.86
640.534	41285.03
640.888	41038.48
641.241	41045.94
641.594	41099.5
641.947	41240.96
642.301	41052.49
642.654	41221.53
643.007	41179.72
643.36	41113.28
643.713	41015.43
644.066	41076.45
644.419	40877.13
644.771	40767.08
645.124	40472.85
645.477	40289.12
645.83	40069.24
646.182	39949.92
646.535	39841.68
646.888	39916.93
647.24	39735.47
647.593	39912.41
647.945	39923.03
648.298	39604.4
648.65	39599.88
649.002	39548.35
649.355	39644.62
649.707	39598.29
650.059	39768.91
650.411	40335
650.763	40285.96
651.115	40673.29
651.467	40425.39
651.819	40588.78
652.171	40539.51
652.523	40479.4
652.875	40387.2
653.227	40301.55
653.578	40489.57
653.93	40345.85
654.282	40336.35
654.633	40219.3
654.985	40293.64
655.337	40189.69
655.688	40227.66
656.039	40441.66
656.391	40131.84
656.742	40054.78
657.094	40188.11
657.445	40291.84
657.796	40298.39
658.147	40088.45
658.498	40192.4
658.849	40197.6
659.2	40220.65
659.551	40090.49
659.902	40245.96
660.253	40050.49
660.604	40095.91
660.955	40012.52
661.306	40191.5
661.656	40026.98
662.007	39968
662.358	40123.93
662.708	40123.7
663.059	39933.88
663.409	39800.55
663.76	40111.05
664.11	39960.77
664.461	40106.08
664.811	40121.67
665.161	39984.27
665.511	39896.59
665.862	39867.44
666.212	40073.76
666.562	40090.03
666.912	39931.62
667.262	39923.94
667.612	40038.06
667.962	39843.94
668.312	39822.47
668.662	40089.36
669.011	39824.28
669.361	39814.11
669.711	39829.93
670.06	39718.74
670.41	39700.89
670.76	39793.77
671.109	39847.55
671.459	39694.56
671.808	39686.2
672.157	39754.22
672.507	39565.98
672.856	39625.41
673.205	39659.99
673.554	39714.22
673.904	39619.99
674.253	39757.84
674.602	39538.64
674.951	39016.39
675.3	38926.67
675.649	39617.73
675.998	39547
676.346	39602.14
676.695	39608.46
677.044	39357.17
677.393	39413.44
677.741	39546.09
678.09	39480.11
678.438	39341.58
678.787	39481.69
679.135	39363.72
679.484	39159.89
679.832	39287.57
680.181	39076.95
680.529	39147.46
680.877	39019.55
681.225	39043.73
681.573	39278.3
681.922	38848.26
682.27	38855.94
682.618	38912.44
682.966	38705.21
683.314	38865.66
683.661	38727.81
684.009	38618.21
684.357	38476.74
684.705	38494.6
685.053	38599.68
685.4	38492.34
685.748	38196.3
686.095	38283.53
686.443	38083.98
686.79	38100.71
687.138	38148.84
687.485	38200.59
687.832	38050.54
688.18	37961.95
688.527	37774.61
688.874	37777.1
689.221	37791.11
689.568	37704.56
689.915	37707.5
690.262	37643.32
690.609	37577.33
690.956	37325.59
691.303	37419.14
691.65	37129.43
691.997	37265.47
692.344	36964.69
692.69	36920.4
693.037	36999.27
693.383	36687.19
693.73	36759.73
694.077	36484.03
694.423	36601.09
694.769	36416.91
695.116	36342.79
695.462	36436.34
695.808	36160.87
696.155	36310.02
696.501	36086.52
696.847	36111.83
697.193	35900.31
697.539	35956.36
697.885	35609.25
698.231	35530.38
698.577	35546.42
698.923	35639.53
699.269	35371.97
699.614	35202.93
699.96	35191.86
700.306	35184.63
700.651	34935.37
700.997	34840.45
701.342	34970.85
701.688	34810.17
702.033	34723.17
702.379	34651.31
702.724	34546.9
703.069	34596.17
703.415	34178.1
703.76	34213.35
704.105	34198.66
704.45	34127.93
704.795	33987.37
705.14	33927.03
705.485	33959.12
705.83	33832.34
706.175	33875.06
706.52	33650.88
706.865	33512.81
707.209	33634.16
707.554	33412.02
707.899	33526.82
708.243	33231
708.588	33095.64
708.932	33150.1
709.277	33020.84
709.621	33080.73
709.966	32771.36
710.31	32831.69
710.654	32560.74
710.998	32678.25
711.342	32639.38
711.687	32629.66
712.031	32492.49
712.375	32461.31
712.719	32471.25
713.063	32253.18
713.407	32425.15
713.75	32114.65
714.094	32200.52
714.438	32040.98
714.782	32065.84
715.125	31823.36
715.469	32050.02
715.812	31929.34
716.156	31749.46
716.499	31756.47
716.843	31761.21
717.186	31459.75
717.53	31739.07
717.873	31657.49
718.216	31562.12
718.559	31362.58
718.902	31154
719.246	31243.49
719.589	31074.68
719.932	31118.97
720.275	31090.27
720.617	31004.4
720.96	30984.28
721.303	30996.49
721.646	30971.4
721.989	30826.55
722.331	30859.54
722.674	30713.33
723.016	30770.05
723.359	30727.12
723.701	30749.04
724.044	30528.48
724.386	30429.72
724.729	30540.45
725.071	30387.46
725.413	30432.66
725.755	30361.25
726.097	30265.66
726.439	30023.41
726.782	30075.83
727.124	30239.45
727.465	30046.23
727.807	30009.85
728.149	29944.09
728.491	29965.1
728.833	30070.18
729.175	29798.33
729.516	29726.46
729.858	29623.42
730.199	29695.73
730.541	29677.65
730.882	29610.31
731.224	29648.73
731.565	29404.44
731.906	29510.42
732.248	29359.24
732.589	29309.75
732.93	29234.5
733.271	29196.08
733.612	29321.28
733.953	29301.84
734.294	29130.55
734.635	28972.59
734.976	29129.64
735.317	29076.54
735.658	28925.36
735.999	29013.04
736.339	28931.68
736.68	28949.31
737.021	28910.67
737.361	28673.16
737.702	28863.21
738.042	28814.4
738.383	28767.85
738.723	28784.57
739.063	28673.61
739.404	28730.33
739.744	28478.36
740.084	28516.78
740.424	28554.74
740.764	28342.55
741.104	28591.8
741.444	28320.4
741.784	28230.01
742.124	28334.64
742.464	28242.66
742.804	28156.11
743.143	28121.31
743.483	28156.34
743.823	28029.11
744.162	27956.57
744.502	27959.5
744.841	27877.47
745.181	27927.42
745.52	27775.33
745.86	27915.66
746.199	27725.16
746.538	27658.95
746.877	27784.82
747.216	27798.61
747.556	27769.91
747.895	27687.42
748.234	27500.31
748.573	27532.17
748.911	27409.91
749.25	27462.57
749.589	27412.85
749.928	27419.63
750.267	27487.2
750.605	27334.66
750.944	27043.14
751.283	27086.08
751.621	27264.38
751.96	26978.74
752.298	27047.44
752.636	26949.36
752.975	26877.95
753.313	26795.69
753.651	26960.66
753.989	26834.11
754.327	26803.83
754.666	26551.63
755.004	26603.16
755.342	26692.19
755.679	26624.62
756.017	26493.55
756.355	26460.56
756.693	26272.32
757.031	26283.84
757.368	26092.44
757.706	26190.96
758.044	26027.13
758.381	26116.62
758.719	26011.99
759.056	26073.9
759.394	25898.09
759.731	25684.76
760.068	25688.15
760.405	25621.71
760.743	25439.12
761.08	25585.56
761.417	25477.99
761.754	25460.81
762.091	25260.59
762.428	25219.46
762.765	25059.92
763.102	25086.36
763.438	25006.81
763.775	24909.19
764.112	24949.87
764.449	24872.35
764.785	24747.84
765.122	24612.93
765.458	24592.59
765.795	24413.38
766.131	24455.19
766.467	24416.55
766.804	24265.59
767.14	24153.28
767.476	24199.6
767.812	24060.4
768.148	24116.44
768.485	23891.14
768.821	23802.1
769.157	23743.8
769.492	23670.13
769.828	23723.91
770.164	23510.13
770.5	23441.21
770.836	23359.4
771.171	23192.17
771.507	23236.69
771.842	23104.49
772.178	23025.62
772.513	22938.62
772.849	22865.18
773.184	22815.46
773.519	22865.63
773.855	22756.93
774.19	22574.56
774.525	22492.76
774.86	22551.96
775.195	22399.2
775.53	22347.9
775.865	22291.86
776.2	22030.17
776.535	21871.53
776.87	21919.21
777.205	21838.76
777.539	21766.45
777.874	21810.97
778.209	21661.82
778.543	21584.98
778.878	21399.23
779.212	21441.48
779.547	21286.23
779.881	21364.42
780.215	21103.64
780.55	21140.93
780.884	21043.08
781.218	20952.68
781.552	20905.91
781.886	20889.18
782.22	20711.79
782.554	20584.11
782.888	20546.37
783.222	20415.3
783.556	20344.34
783.889	20302.08
784.223	20105.7
784.557	20056.44
784.89	20095.3
785.224	19993.61
785.557	19924.46
785.891	19862.09
786.224	19809.89
786.558	19703.45
786.891	19622.32
787.224	19652.6
787.557	19511.82
787.891	19467.07
788.224	19388.2
788.557	19393.63
788.89	19265.27
789.223	19306.17
789.556	19221.88
789.888	19110.25
790.221	19067.99
790.554	18946.63
790.887	18873.64
791.219	18774.21
791.552	18767.66
791.884	18797.03
792.217	18643.14
792.549	18557.94
792.882	18510.94
793.214	18405.18
793.546	18400.89
793.879	18312.53
794.211	18211.06
794.543	18276.37
794.875	18112.31
795.207	18127.9
795.539	18084.74
795.871	18039.31
796.203	17888.81
796.535	17793.9
796.867	17771.07
797.198	17696.05
797.53	17684.75
797.862	17517.52
798.193	17596.39
798.525	17484.98
798.856	17530.17
799.188	17288.15
799.519	17279.33
799.85	17136.96
800.182	17205.66
800.513	17243.4
800.844	16933.81
801.175	17056.06
801.506	17039.11
801.837	16873.24
802.168	16970.19
802.499	16930.42
802.83	16783.53
803.161	16718.22
803.491	16810.19
803.822	16716.41
804.153	16636.41
804.483	16500.37
804.814	16456.08
805.145	16390.77
805.475	16501.73
805.805	16331.11
806.136	16256.08
806.466	16332.47
806.796	16316.2
807.126	16078.91
807.457	16122.53
807.787	16117.56
808.117	16122.98
808.447	15904
808.777	16082.08
809.107	15957.79
809.436	15996.2
809.766	15880.27
810.096	15727.06
810.426	15751.92
810.755	15668.08
811.085	15686.38
811.414	15702.43
811.744	15464.47
812.073	15512.15
812.403	15466.73
812.732	15414.07
813.061	15417.01
813.39	15364.36
813.719	15210.46
814.049	15386.95
814.378	15256.34
814.707	15164.81
815.036	15140.86
815.365	15083.01
815.693	14970.92
816.022	15013.4
816.351	14926.63
816.68	14907.42
817.008	14952.84
817.337	14785.61
817.665	14734.09
817.994	14749.46
818.322	14751.49
818.651	14732.73
818.979	14659.52
819.307	14721.89
819.636	14634.21
819.964	14514.89
820.292	14724.15
820.62	14504.94
820.948	14450.26
821.276	14599.4
821.604	14520.54
821.932	14490.25
822.259	14486.86
822.587	14497.26
822.915	14452.29
823.243	14530.93
823.57	14475.34
823.898	14428.11
824.225	14406.19
824.553	14383.14
824.88	14489.58
825.207	14487.09
825.535	14443.48
825.862	14534.1
826.189	14400.77
826.516	14466.07
826.843	14489.35
827.17	14450.93
827.497	14478.96
827.824	14443.7
828.151	14424.27
828.478	14435.11
828.805	14501.33
829.131	14456.13
829.458	14328.45
829.785	14302.91
830.111	14339.3
830.438	14388.34
830.764	14419.97
831.09	14377.94
831.417	14341.11
831.743	14379.98
832.069	14382.69
832.395	14295.46
832.722	14321.9
833.048	14297.94
833.374	14313.99
833.7	14225.4
834.026	14276.47
834.351	14262.92
834.677	14261.79
835.003	14237.61
835.329	14263.37
835.654	14221.34
835.98	14129.36
836.306	14249.13
836.631	14111.51
836.956	14091.17
837.282	14205.29
837.607	14042.58
837.932	14045.52
838.258	14060.66
838.583	14030.38
838.908	13983.38
839.233	13974.79
839.558	13889.14
839.883	13960.78
840.208	13835.13
840.533	13822.25
840.858	13739.31
841.182	13781.8
841.507	13833.55
841.832	13717.17
842.156	13737.73
842.481	13728.24
842.805	13709.03
843.13	13624.97
843.454	13632.65
843.778	13511.75
844.103	13442.82
844.427	13475.14
844.751	13500.22
845.075	13396.5
845.399	13400.57
845.723	13308.36
846.047	13326.67
846.371	13278.08
846.695	13246.67
847.019	13132.1
847.343	13020.46
847.666	13002.38
847.99	12927.81
848.313	12961.71
848.637	12879.9
848.96	12921.93
849.284	12867.02
849.607	12733.01
849.931	12672.9
850.254	12601.72
850.577	12541.15
850.9	12445.34
851.223	12422.51
851.546	12314.27
851.869	12232.46
852.192	12383.42
852.515	12266.13
852.838	12164.21
853.161	12267.26
853.483	12112.92
853.806	12061.17
854.129	12108.62
854.451	11956.54
854.774	11954.05
855.096	11909.98
855.419	11871.11
855.741	11959.25
856.063	11766.26
856.385	11762.87
856.708	11690.78
857.03	11697.56
857.352	11684
857.674	11596.55
857.996	11578.47
858.318	11491.69
858.64	11487.4
858.961	11479.26
859.283	11427.51
859.605	11344.35
859.926	11420.96
860.248	11342.31
860.57	11282.2
860.891	11317.91
861.212	11297.12
861.534	11179.61
861.855	11245.14
862.176	11174.86
862.498	11126.28
862.819	11132.83
863.14	11076.56
863.461	11176.22
863.782	11114.52
864.103	11057.12
864.424	11047.41
864.745	11066.84
865.065	10979.16
865.386	10921.31
865.707	10989.1
866.027	11006.28
866.348	10954.53
866.668	10895.55
866.989	10896.68
867.309	10866.17
867.63	10798.37
867.95	10906.17
868.27	10797.7
868.59	10761.54
868.91	10787.75
869.23	10752.27
869.55	10722.22
869.87	10805.61
870.19	10717.02
870.51	10712.05
870.83	10774.87
871.15	10668.43
871.469	10629.57
871.789	10666.4
872.109	10585.5
872.428	10597.02
872.748	10589.79
873.067	10560.87
873.386	10613.97
873.706	10512.96
874.025	10408.78
874.344	10493.75
874.663	10509.34
874.982	10391.38
875.301	10388.89
875.62	10356.35
875.939	10304.6
876.258	10325.62
876.577	10289.69
876.896	10314.32
877.214	10250.82
877.533	10255.11
877.852	10242.23
878.17	10256.92
878.489	10258.28
878.807	10249.01
879.125	10218.95
879.444	10160.88
879.762	10113.65
880.08	10122.69
880.398	10079.3
880.716	10117.04
881.034	10086.53
881.352	10103.93
881.67	10100.77
881.988	10056.25
882.306	10023.93
882.624	9916.14
882.941	9934.89
883.259	9924.95
883.577	9916.59
883.894	9897.61
884.212	9868.23
884.529	9839.3
884.846	9849.25
885.164	9823.94
885.481	9757.72
885.798	9796.14
886.115	9695.35
886.432	9737.16
886.75	9680.21
887.067	9662.81
887.383	9644.05
887.7	9607.9
888.017	9634.34
888.334	9592.08
888.651	9597.73
888.967	9488.8
889.284	9485.64
889.6	9446.55
889.917	9422.59
890.233	9418.75
890.55	9389.82
890.866	9369.71
891.182	9416.72
891.498	9359.09
891.815	9317.51
892.131	9277.28
892.447	9282.03
892.763	9249.49
893.079	9200.68
893.395	9180.34
893.71	9163.16
894.026	9168.36
894.342	9087.01
894.657	9067.12
894.973	9030.51
895.289	8968.14
895.604	8993.68
895.92	8962.72
896.235	8956.16
896.55	8862.61
896.865	8872.55
897.181	8840.23
897.496	8746.9
897.811	8753
898.126	8742.38
898.441	8672.1
898.756	8685.44
899.071	8669.16
899.386	8643.4
899.7	8557.98
900.015	8554.82
900.33	8460.58
900.644	8471.43
900.959	8486.12
901.273	8416.06
901.588	8409.74
901.902	8383.75
902.216	8315.05
902.531	8334.71
902.845	8306.01
903.159	8220.36
903.473	8153.25
903.787	8227.59
904.101	8145.79
904.415	8134.26
904.729	8095.62
905.042	8115.96
905.356	8063.98
905.67	7926.59
905.984	7990.99
906.297	7977.66
906.611	7868.06
906.924	7928.17
907.237	7858.79
907.551	7810.88
907.864	7802.07
908.177	7822.63
908.491	7772.01
908.804	7769.3
909.117	7637.33
909.43	7631.68
909.743	7538.12
910.056	7558.23
910.368	7508.52
910.681	7508.97
910.994	7503.32
911.307	7430.1
911.619	7395.75
911.932	7396.66
912.244	7353.04
912.557	7365.47
912.869	7283.44
913.181	7213.16
913.494	7262.65
913.806	7181.52
914.118	7192.37
914.43	7108.53
914.742	7101.97
915.054	7136.78
915.366	7086.16
915.678	7034.86
915.99	6981.3
916.302	6945.82
916.613	6969.32
916.925	6929.32
917.236	6858.14
917.548	6844.13
917.859	6853.62
918.171	6790.34
918.482	6779.95
918.794	6759.84
919.105	6739.72
919.416	6689.78
919.727	6642.55
920.038	6628.99
920.349	6626.73
920.66	6591.03
920.971	6532.95
921.282	6537.92
921.593	6451.6
921.903	6453.86
922.214	6432.84
922.525	6426.06
922.835	6358.04
923.146	6378.15
923.456	6302.45
923.767	6325.95
924.077	6312.39
924.387	6222
924.697	6201.43
925.008	6192.17
925.318	6160.53
925.628	6169.8
925.938	6127.08
926.248	6114.2
926.558	6055
926.867	6030.36
927.177	6061.78
927.487	5982.91
927.796	5921.67
928.106	5934.77
928.416	5943.81
928.725	5858.17
929.034	5850.26
929.344	5925.73
929.653	5803.03
929.962	5774.1
930.271	5736.81
930.581	5715.34
930.89	5727.32
931.199	5709.02
931.508	5690.71
931.817	5638.96
932.125	5666.08
932.434	5586.53
932.743	5612.75
933.051	5598.06
933.36	5543.15
933.669	5508.8
933.977	5473.99
934.286	5477.38
934.594	5459.31
934.902	5419.31
935.21	5382.92
935.519	5383.38
935.827	5337.95
936.135	5308.58
936.443	5265.64
936.751	5279.42
937.059	5243.94
937.367	5197.39
937.674	5250.05
937.982	5180.44
938.29	5148.35
938.597	5156.49
938.905	5078.98
939.213	5052.54
939.52	5053.67
939.827	5112.2
940.135	5033.33
940.442	5037.4
940.749	5006.89
941.056	5015.48
941.363	4961.69
941.67	4904.97
941.977	4909.04
942.284	4883.73
942.591	4901.81
942.898	4834.24
943.205	4845.08
943.511	4814.35
943.818	4807.35
944.125	4732.32
944.431	4768.02
944.738	4682.83
945.044	4735.71
945.35	4647.35
945.657	4610.51
945.963	4648.25
946.269	4596.5
946.575	4606.45
946.881	4545.43
947.187	4554.24
947.493	4496.39
947.799	4514.7
948.105	4504.3
948.41	4456.85
948.716	4473.57
949.022	4439.67
949.327	4431.31
949.633	4360.58
949.938	4387.7
950.244	4366
950.549	4341.14
950.854	4288.71
951.16	4306.79
951.465	4290.07
951.77	4286
952.075	4260.92
952.38	4231.54
952.685	4237.19
952.99	4168.94
953.294	4178.21
953.599	4126.01
953.904	4156.29
954.209	4080.81
954.513	4095.05
954.818	4108.83
955.122	4046.01
955.426	4046.24
955.731	4023.19
956.035	3975.5
956.339	3986.58
956.643	3975.28
956.948	3943.87
957.252	3943.64
957.556	3919.69
957.86	3883.98
958.163	3903.41
958.467	3878.1
958.771	3886.92
959.075	3849.4
959.378	3817.09
959.682	3835.85
959.985	3785.9
960.289	3790.87
960.592	3755.62
960.896	3735.06
961.199	3776.19
961.502	3681.05
961.805	3652.12
962.108	3677.88
962.411	3643.31
962.714	3646.7
963.017	3660.26
963.32	3638.11
963.623	3595.17
963.926	3577.1
964.228	3584.78
964.531	3577.32
964.833	3557.66
965.136	3508.85
965.438	3489.19
965.741	3503.2
966.043	3480.37
966.345	3484.89
966.648	3442.18
966.95	3409.42
967.252	3373.48
967.554	3447.16
967.856	3406.48
968.158	3404.9
968.46	3326.93
968.761	3345.46
969.063	3318.8
969.365	3317.22
969.666	3290.55
969.968	3284.45
970.269	3243.54
970.571	3305.46
970.872	3238.12
971.174	3262.75
971.475	3215.07
971.776	3207.84
972.077	3154.06
972.378	3183.66
972.679	3184.79
972.98	3179.59
973.281	3123.77
973.582	3096.2
973.883	3142.08
974.183	3102.08
974.484	3065.7
974.785	3063.44
975.085	3066.83
975.386	3055.08
975.686	3017.79
975.986	3011.46
976.287	3012.36
976.587	2981.4
976.887	2984.57
977.187	2971.01
977.487	2976.21
977.787	2931.01
978.087	2917.23
978.387	2923.55
978.687	2898.02
978.987	2883.1
979.286	2870.67
979.586	2833.39
979.885	2827.51
980.185	2793.39
980.484	2819.15
980.784	2805.14
981.083	2779.15
981.382	2783.44
981.682	2803.78
981.981	2752.03
982.28	2763.11
982.579	2738.47
982.878	2752.03
983.177	2724.01
983.475	2682.88
983.774	2680.17
984.073	2652.6
984.372	2665.25
984.67	2651.47
984.969	2629.55
985.267	2647.85
985.566	2596.56
985.864	2574.64
986.162	2602.66
986.461	2549.78
986.759	2583.68
987.057	2544.58
987.355	2539.61
987.653	2512.94
987.951	2511.36
988.249	2527.18
988.547	2496.45
988.844	2500.06
989.142	2499.84
989.44	2491.02
989.737	2426.17
990.035	2428.2
990.332	2438.14
990.63	2432.72
990.927	2444.92
991.224	2385.04
991.521	2396.56
991.819	2371.48
992.116	2352.95
992.413	2324.02
992.71	2351.36
993.006	2320.86
993.303	2316.11
993.6	2344.81
993.897	2326.28
994.193	2312.72
994.49	2313.17
994.787	2282.44
995.083	2258.03
995.379	2231.14
995.676	2244.93
995.972	2248.77
996.268	2183.91
996.565	2182.1
996.861	2208.09
997.157	2154.53
997.453	2174.19
997.749	2159.05
998.044	2139.39
998.34	2137.81
998.636	2133.52
998.932	2136.46
999.227	2076.8
999.523	2114.99
999.818	2077.25
1000.114	2060.52
1000.409	2062.11
1000.704	2074.08
1001	2047.64
1001.295	2054.88
1001.59	2020.98
1001.885	2037.02
1002.18	2003.35
1002.475	1980.08
1002.77	1973.3
1003.065	1959.96
1003.359	1950.02
1003.654	1956.8
1003.949	1945.73
1004.243	1931.26
1004.538	1911.38
1004.832	1931.26
1005.127	1895.11
1005.421	1896.01
1005.715	1865.95
1006.009	1900.3
1006.304	1827.08
1006.598	1886.74
1006.892	1809.91
1007.186	1813.53
1007.48	1813.3
1007.773	1808.55
1008.067	1786.18
1008.361	1804.26
1008.655	1741.21
1008.948	1763.13
1009.242	1762
1009.535	1724.94
1009.829	1770.36
1010.122	1708.9
1010.415	1711.16
1010.708	1712.51
1011.001	1679.07
1011.295	1686.98
1011.588	1684.72
1011.881	1656.24
1012.173	1646.52
1012.466	1651.95
1012.759	1651.5
1013.052	1616.47
1013.344	1628.67
1013.637	1629.12
1013.93	1613.98
1014.222	1592.51
1014.514	1599.52
1014.807	1570.37
1015.099	1577.6
1015.391	1550.03
1015.683	1560.65
1015.976	1549.13
1016.268	1528.34
1016.56	1514.55
1016.851	1505.96
1017.143	1487.66
1017.435	1468.22
1017.727	1465.29
1018.018	1460.31
1018.31	1501.44
1018.602	1453.99
1018.893	1414.21
1019.185	1442.24
1019.476	1433.65
1019.767	1429.58
1020.058	1424.16
1020.35	1389.36
1020.641	1366.53
1020.932	1393.88
1021.223	1347.78
1021.514	1390.49
1021.804	1358.62
1022.095	1351.84
1022.386	1365.18
1022.677	1326.76
1022.967	1308.68
1023.258	1317.04
1023.548	1304.16
1023.839	1288.12
1024.129	1312.75
1024.419	1263.71
1024.709	1268.23
1025	1240.89
1025.29	1279.3
1025.58	1260.32
1025.87	1235.01
1026.16	1255.8
1026.449	1214.67
1026.739	1214.22
1027.029	1233.88
1027.319	1200.66
1027.608	1197.5
1027.898	1183.49
1028.187	1182.13
1028.477	1185.29
1028.766	1173.54
1029.055	1162.47
1029.344	1165.18
1029.634	1168.34
1029.923	1122.92
1030.212	1174.67
1030.501	1115.92
1030.79	1115.01
1031.078	1108.01
1031.367	1107.1
1031.656	1102.81
1031.945	1083.83
1032.233	1067.78
1032.522	1070.95
1032.81	1078.18
1033.099	1071.85
1033.387	1049.93
1033.675	1030.72
1033.963	1039.31
1034.251	1044.05
1034.54	1045.18
1034.828	1033.89
1035.116	1015.35
1035.403	1027.33
1035.691	994.34
1035.979	1005.64
1036.267	989.82
1036.554	964.73
1036.842	955.7
1037.129	950.05
1037.417	956.37
1037.704	958.18
1037.992	952.53
1038.279	950.05
1038.566	937.62
1038.853	937.62
1039.14	937.62
