Data from hue_320_FLMS001491_34.txt Node
Date: Mon Feb 06 15:47:06 GMT 2017
User: dcchb
Spectrometer: FLMS00149
Trigger mode: 0
Integration Time (sec): 2.000000E-2
Scans to average: 10
Electric dark correction enabled: true
Nonlinearity correction enabled: false
Boxcar width: 0
XAxis mode: Wavelengths
Number of Pixels in Spectrum: 2048
>>>>>Begin Spectral Data<<<<<
341.393	-7.29
341.776	-7.29
342.16	-7.29
342.543	-80.73
342.927	-55.2
343.31	-67.63
343.693	-69.66
344.077	-58.13
344.46	-89.32
344.843	-69.43
345.226	-33.95
345.61	-30.79
345.993	-24.69
346.376	-3.45
346.759	14.86
347.142	39.94
347.525	45.37
347.908	74.07
348.291	67.74
348.674	89.21
349.057	115.87
349.44	130.79
349.823	133.95
350.206	143.44
350.588	207.17
350.971	203.78
351.354	209.2
351.737	243.33
352.119	240.84
352.502	261.63
352.884	272.7
353.267	261.18
353.65	290.11
354.032	287.85
354.414	296.21
354.797	306.38
355.179	318.35
355.562	327.39
355.944	320.16
356.326	317.9
356.709	344.34
357.091	319.71
357.473	342.53
357.855	348.86
358.238	330.1
358.62	335.08
359.002	335.08
359.384	346.15
359.766	348.41
360.148	348.18
360.53	338.69
360.912	352.7
361.294	321.52
361.676	333.72
362.057	342.31
362.439	349.31
362.821	340.73
363.203	312.93
363.584	316.77
363.966	313.83
364.348	334.85
364.729	309.77
365.111	301.4
365.493	290.33
365.874	319.03
366.256	315.64
366.637	308.86
367.019	311.8
367.4	287.39
367.781	312.7
368.163	300.95
368.544	322.42
368.925	295.98
369.306	324.91
369.688	303.44
370.069	321.97
370.45	316.55
370.831	310.44
371.212	305.92
371.593	315.64
371.974	298.47
372.355	302.31
372.736	308.18
373.117	319.48
373.498	307.73
373.879	300.5
374.26	322.19
374.641	304.57
375.021	322.42
375.402	318.81
375.783	319.48
376.163	314.51
376.544	319.71
376.925	334.85
377.305	313.83
377.686	335.53
378.066	341.86
378.447	321.74
378.827	323.55
379.208	317.68
379.588	334.85
379.968	329.2
380.349	337.56
380.729	326.94
381.109	328.52
381.489	339.82
381.87	318.35
382.25	331.01
382.63	318.35
383.01	330.56
383.39	352.02
383.77	353.38
384.15	329.2
384.53	342.53
384.91	334.17
385.29	339.14
385.67	366.04
386.049	345.02
386.429	334.85
386.809	345.7
387.189	346.6
387.568	360.61
387.948	337.34
388.328	344.34
388.707	370.33
389.087	334.85
389.466	364.68
389.846	352.7
390.225	365.81
390.605	355.64
390.984	349.76
391.363	355.41
391.743	349.76
392.122	370.56
392.501	360.84
392.881	378.01
393.26	382.31
393.639	367.62
394.018	382.98
394.397	355.87
394.776	365.58
395.155	362.65
395.534	389.09
395.913	379.82
396.292	375.53
396.671	393.38
397.05	356.09
397.429	390.89
397.808	370.78
398.186	380.27
398.565	387.73
398.944	391.57
399.323	392.7
399.701	384.34
400.08	411.01
400.458	406.03
400.837	409.65
401.215	393.61
401.594	380.72
401.972	408.75
402.351	408.29
402.729	397.22
403.107	401.29
403.486	404.23
403.864	439.25
404.242	420.72
404.62	425.24
404.999	433.38
405.377	432.47
405.755	422.31
406.133	459.82
406.511	426.15
406.889	442.19
407.267	449.42
407.645	439.25
408.023	451.01
408.401	462.98
408.779	472.7
409.156	456.2
409.534	446.03
409.912	470.21
410.29	491
410.667	494.85
411.045	479.93
411.422	482.64
411.8	484.68
412.178	480.61
412.555	511.79
412.933	505.69
413.31	509.99
413.687	498.24
414.065	529.65
414.442	540.95
414.819	543.88
415.197	527.61
415.574	541.17
415.951	565.13
416.328	569.42
416.705	559.25
417.082	564.22
417.46	567.61
417.837	585.69
418.214	564
418.591	614.84
418.967	608.06
419.344	592.02
419.721	601.51
420.098	620.04
420.475	630.89
420.852	643.99
421.228	643.09
421.605	643.77
421.982	641.51
422.358	643.77
422.735	655.29
423.111	669.08
423.488	689.64
423.864	686.93
424.241	693.48
424.617	671.56
424.994	703.43
425.37	702.98
425.746	705.24
426.123	717.21
426.499	721.73
426.875	724.9
427.251	746.59
427.627	739.13
428.003	749.3
428.379	745.69
428.756	773.03
429.132	781.17
429.507	793.37
429.883	807.61
430.259	797.66
430.635	818.45
431.011	807.61
431.387	840.83
431.763	857.32
432.138	846.25
432.514	861.16
432.89	872.46
433.265	891.22
433.641	872.91
434.016	913.82
434.392	893.48
434.767	917.89
435.143	914.27
435.518	923.08
435.894	935.51
436.269	947.04
436.644	948.85
437.02	971.9
437.395	929.18
437.77	984.78
438.145	990.65
438.52	997.43
438.895	975.74
439.271	1022.06
439.646	1018.22
440.021	1032.46
440.395	1036.3
440.77	997.21
441.145	1030.42
441.52	1068.39
441.895	1048.73
442.27	1073.81
442.645	1052.8
443.019	1061.16
443.394	1083.98
443.769	1084.21
444.143	1088.95
444.518	1099.12
444.892	1090.31
445.267	1082.4
445.641	1108.16
446.016	1091.89
446.39	1122.63
446.764	1125.11
447.139	1121.04
447.513	1119.46
447.887	1113.81
448.262	1116.75
448.636	1148.39
449.01	1129.41
449.384	1141.61
449.758	1181.61
450.132	1167.6
450.506	1180.7
450.88	1184.09
451.254	1189.97
451.628	1209.4
452.002	1222.06
452.376	1204.43
452.75	1206.24
453.123	1212.57
453.497	1216.63
453.871	1243.53
454.244	1247.82
454.618	1271.1
454.992	1252.34
455.365	1244.66
455.739	1262.51
456.112	1276.97
456.486	1293.92
456.859	1323.52
457.232	1308.38
457.606	1308.61
457.979	1319.23
458.352	1327.82
458.725	1368.04
459.099	1383.41
459.472	1426.35
459.845	1380.25
460.218	1388.61
460.591	1403.97
460.964	1409.85
461.337	1412.11
461.71	1422.96
462.083	1459.79
462.456	1446.46
462.829	1434.03
463.201	1463.41
463.574	1476.74
463.947	1514.25
464.32	1534.37
464.692	1542.73
465.065	1533.69
465.438	1547.47
465.81	1583.18
466.183	1573.69
466.555	1582.95
466.928	1590.41
467.3	1593.35
467.672	1611.88
468.045	1646.23
468.417	1650.52
468.789	1641.93
469.161	1658.66
469.534	1697.3
469.906	1729.39
470.278	1701.14
470.65	1751.54
471.022	1758.09
471.394	1768.26
471.766	1784.98
472.138	1824.53
472.51	1827.47
472.882	1855.94
473.253	1869.5
473.625	1889.84
473.997	1933.9
474.369	1933.45
474.74	1943.4
475.112	1966.67
475.484	1998.08
475.855	2022.26
476.227	2029.27
476.598	2064.52
476.97	2067.69
477.341	2118.31
477.713	2139.55
478.084	2098.42
478.455	2187.68
478.827	2226.55
479.198	2214.12
479.569	2233.56
479.94	2293.89
480.311	2293.44
480.682	2346.32
481.053	2414.12
481.424	2430.16
481.795	2421.8
482.166	2455.92
482.537	2490.73
482.908	2517.84
483.279	2521.46
483.65	2595.81
484.021	2619.99
484.391	2641.23
484.762	2641
485.133	2632.64
485.503	2683.04
485.874	2719.19
486.244	2728.23
486.615	2773.66
486.985	2789.93
487.356	2876.48
487.726	2855.91
488.097	2923.48
488.467	2931.39
488.837	2953.99
489.207	2982.69
489.578	3042.58
489.948	3014.78
490.318	3071.05
490.688	3077.15
491.058	3106.3
491.428	3150.82
491.798	3183.59
492.168	3250.25
492.538	3238.5
492.908	3247.99
493.278	3331.16
493.648	3274.89
494.017	3347.88
494.387	3387.43
494.757	3412.28
495.126	3442.56
495.496	3425.16
495.866	3496.12
496.235	3438.5
496.605	3473.75
496.974	3524.14
497.344	3558.95
497.713	3557.14
498.082	3537.48
498.452	3596.23
498.821	3586.29
499.19	3593.97
499.559	3653.63
499.928	3643.24
500.298	3683.46
500.667	3680.52
501.036	3679.39
501.405	3722.56
501.774	3730.92
502.143	3741.54
502.512	3736.34
502.88	3788.54
503.249	3802.78
503.618	3800.97
503.987	3830.8
504.356	3846.85
504.724	3837.58
505.093	3900.63
505.462	3885.49
505.83	3876.9
506.199	3925.72
506.567	3943.34
506.936	3941.08
507.304	4018.14
507.672	4005.94
508.041	3981.53
508.409	3988.31
508.777	4049.1
509.145	4044.36
509.514	4075.77
509.882	4029.67
510.25	4059.5
510.618	4078.03
510.986	4094.3
511.354	4118.25
511.722	4131.59
512.09	4214.97
512.458	4185.14
512.826	4193.05
513.193	4195.99
513.561	4168.42
513.929	4179.49
514.297	4221.75
514.664	4205.71
515.032	4255.88
515.4	4271.02
515.767	4279.6
516.135	4258.36
516.502	4295.65
516.869	4366.38
517.237	4362.54
517.604	4319.83
517.972	4307.85
518.339	4385.36
518.706	4339.49
519.073	4397.34
519.44	4400.05
519.808	4408.87
520.175	4450.22
520.542	4491.35
520.909	4440.73
521.276	4464.68
521.643	4423.1
522.009	4504.01
522.376	4533.38
522.743	4538.13
523.11	4586.26
523.477	4644.57
523.843	4620.84
524.21	4660.61
524.577	4656.09
524.943	4650.44
525.31	4682.76
525.676	4710.33
526.043	4748.75
526.409	4731.57
526.776	4785.35
527.142	4806.37
527.508	4803.88
527.874	4903.32
528.241	4931.11
528.607	4909.42
528.973	4918.68
529.339	4943.32
529.705	5003.88
530.071	5012.02
530.437	5060.83
530.803	5068.74
531.169	5064.44
531.535	5068.96
531.901	5136.31
532.267	5133.37
532.632	5156.42
532.998	5152.35
533.364	5195.51
533.73	5193.25
534.095	5249.07
534.461	5224.89
534.826	5308.96
535.192	5274.83
535.557	5383.53
535.923	5336.07
536.288	5350.09
536.653	5402.29
537.019	5371.78
537.384	5456.3
537.749	5424.21
538.114	5458.33
538.479	5502.85
538.845	5534.26
539.21	5492
539.575	5508.73
539.94	5474.15
540.305	5605.67
540.67	5625.56
541.034	5594.82
541.399	5654.03
541.764	5642.28
542.129	5678.66
542.494	5679.57
542.858	5749.17
543.223	5715.73
543.587	5770.41
543.952	5742.84
544.316	5807.25
544.681	5849.73
545.045	5826.46
545.41	5917.75
545.774	5859.22
546.138	5915.27
546.503	5934.48
546.867	5969.05
547.231	6040.46
547.595	6004.98
547.959	6049.73
548.324	6026
548.688	6108.26
549.052	6087.69
549.416	6076.39
549.779	6141.93
550.143	6167.46
550.507	6211.76
550.871	6174.7
551.235	6223.28
551.599	6244.98
551.962	6287.91
552.326	6245.2
552.689	6302.15
553.053	6339.44
553.417	6280.91
553.78	6360.23
554.143	6345.09
554.507	6347.12
554.87	6435.25
555.234	6450.17
555.597	6404.07
555.96	6468.02
556.323	6486.33
556.686	6436.38
557.05	6535.59
557.413	6557.96
557.776	6544.86
558.139	6647.45
558.502	6535.82
558.865	6615.36
559.228	6676.83
559.59	6677.28
559.953	6699.88
560.316	6732.42
560.679	6700.33
561.041	6748.92
561.404	6846.09
561.767	6830.5
562.129	6799.31
562.492	6830.5
562.854	6828.46
563.217	6882.02
563.579	6871.85
563.941	6929.03
564.304	6909.82
564.666	6962.92
565.028	7039.31
565.39	7049.25
565.753	7042.24
566.115	7086.31
566.477	7114.11
566.839	7096.48
567.201	7152.52
567.563	7155.24
567.925	7210.83
568.287	7242.92
568.648	7226.65
569.01	7288.79
569.372	7281.11
569.734	7270.49
570.095	7375.57
570.457	7427.09
570.819	7418.05
571.18	7468.45
571.542	7469.58
571.903	7524.27
572.265	7597.03
572.626	7615.56
572.987	7597.26
573.349	7727.65
573.71	7725.39
574.071	7729.68
574.432	7763.81
574.794	7926.29
575.155	7867.76
575.516	7943.92
575.877	8066.4
576.238	8060.52
576.599	8168.99
576.96	8224.36
577.32	8330.57
577.681	8356.11
578.042	8486.73
578.403	8525.6
578.763	8600.4
579.124	8772.14
579.485	8849.2
579.845	8930.56
580.206	8982.76
580.566	9085.13
580.927	9162.19
581.287	9340.94
581.648	9465.68
582.008	9604.89
582.368	9678.11
582.728	9808.95
583.089	9980.25
583.449	10128.94
583.809	10290.52
584.169	10449.84
584.529	10636.73
584.889	10897.28
585.249	10986.77
585.609	11105.87
585.969	11455.91
586.329	11571.62
586.688	11813.87
587.048	12028.1
587.408	12195.56
587.768	12466.06
588.127	12575.66
588.487	12909.66
588.846	13147.17
589.206	13308.97
589.565	13663.54
589.925	13784.89
590.284	14103.75
590.643	14400.02
591.003	14733.12
591.362	14931.08
591.721	15275.47
592.08	15552.75
592.44	15861.22
592.799	16079.97
593.158	16279.97
593.517	16601.77
593.876	16911.82
594.235	17218.25
594.593	17368.07
594.952	17807.16
595.311	18130.09
595.67	18396.52
596.029	18803.52
596.387	18991.31
596.746	19369.15
597.104	19618.41
597.463	19852.75
597.822	20271.73
598.18	20449.58
598.538	20752.39
598.897	21141.76
599.255	21221.98
599.613	21898.35
599.972	21927.95
600.33	22331.33
600.688	22519.8
601.046	22811.77
601.404	23097.64
601.762	23298.31
602.12	23722.03
602.478	24033.21
602.836	24222.36
603.194	24555.68
603.552	24741.89
603.91	24919.97
604.268	25413.96
604.625	25347.3
604.983	25782.99
605.341	25888.3
605.698	26291.46
606.056	26619.13
606.413	26829.07
606.771	27118.55
607.128	27365.78
607.485	27420.24
607.843	27642.15
608.2	28066.1
608.557	28251.18
608.914	28429.03
609.272	28767.1
609.629	28915.34
609.986	29234.2
610.343	29328.66
610.7	29667.41
611.057	29803.91
611.414	30022.88
611.771	30348.52
612.127	30523.21
612.484	30685.24
612.841	30993.48
613.198	31013.37
613.554	31129.29
613.911	31493.13
614.267	31587.36
614.624	31799.11
614.98	32048.59
615.337	32196.84
615.693	32295.14
616.05	32422.59
616.406	32643.15
616.762	32870.72
617.118	32844.96
617.475	33100.99
617.831	33282.23
618.187	33289.92
618.543	33458.27
618.899	33872.05
619.255	33839.73
619.611	34028.65
619.967	34170.34
620.323	34341.19
620.678	34412.37
621.034	34412.6
621.39	34514.29
621.746	34587.06
622.101	35020.72
622.457	34900.95
622.812	34942.98
623.168	35185.01
623.523	35304.78
623.879	35403.76
624.234	35265.91
624.589	35596.3
624.945	35593.58
625.3	35724.43
625.655	35762.62
626.01	35815.05
626.365	35944.31
626.72	35920.58
627.075	35924.87
627.43	36018.66
627.785	36001.93
628.14	36206
628.495	36338.2
628.85	36210.74
629.205	36296.62
629.559	36470.85
629.914	36358.76
630.269	36483.5
630.623	36472.66
630.978	36454.13
631.332	36639.88
631.687	36741.12
632.041	36596.27
632.396	36799.65
632.75	36715.59
633.104	36762.37
633.459	36702.93
633.813	36671.75
634.167	36636.72
634.521	36839.2
634.875	36982.25
635.229	36706.32
635.583	36627.46
635.937	36849.82
636.291	36775.25
636.645	36808.24
636.999	36756.94
637.352	36875.81
637.706	36666.55
638.06	36823.83
638.413	36752.2
638.767	36679.43
639.121	36789.26
639.474	36716.04
639.828	36716.27
640.181	36898.41
640.534	36782.25
640.888	36721.24
641.241	36532.54
641.594	36714.68
641.947	36912.65
642.301	36737.06
642.654	36730.5
643.007	36676.72
643.36	36651.64
643.713	36614.35
644.066	36910.16
644.419	36696.15
644.771	36347.91
645.124	35989.96
645.477	36138.65
645.83	35817.53
646.182	35735.5
646.535	35699.8
646.888	35652.79
647.24	35475.39
647.593	35738.21
647.945	35689.85
648.298	35534.38
648.65	35622.28
649.002	35222.52
649.355	35566.01
649.707	35448.95
650.059	35638.33
650.411	36099.11
650.763	36075.15
651.115	36396.05
651.467	36275.37
651.819	36414.81
652.171	36321.7
652.523	36278.31
652.875	36251.42
653.227	35950.64
653.578	36365.99
653.93	36161.03
654.282	36085.1
654.633	36096.17
654.985	36068.15
655.337	36147.92
655.688	36022.27
656.039	36157.64
656.391	35960.13
656.742	35954.48
657.094	36118.09
657.445	36279.22
657.796	36029.96
658.147	36033.35
658.498	36030.18
658.849	36213.68
659.2	36003.29
659.551	35945.21
659.902	36158.54
660.253	36010.3
660.604	36109.28
660.955	35900.24
661.306	35849.62
661.656	36049.39
662.007	36003.97
662.358	35943.63
662.708	35920.81
663.059	35904.31
663.409	35745.9
663.76	35954.93
664.11	35984.99
664.461	36051.2
664.811	35964.2
665.161	35976.17
665.511	35910.64
665.862	36103.4
666.212	35982.05
666.562	36019.79
666.912	36040.58
667.262	35918.32
667.612	36018.66
667.962	35955.61
668.312	35673.36
668.662	36042.84
669.011	35876.97
669.361	35891.88
669.711	35817.31
670.06	35808.49
670.41	35690.3
670.76	35649.63
671.109	35883.29
671.459	35686.24
671.808	35796.52
672.157	35743.18
672.507	35448.05
672.856	35593.58
673.205	35709.06
673.554	35614.6
673.904	35628.16
674.253	35715.61
674.602	35655.28
674.951	35083.99
675.3	35011.9
675.649	35545.45
675.998	35479.91
676.346	35454.38
676.695	35642.62
677.044	35231.56
677.393	35566.69
677.741	35511.33
678.09	35458.22
678.438	35401.72
678.787	35340.48
679.135	35354.72
679.484	35193.37
679.832	35249.86
680.181	35232.24
680.529	35200.15
680.877	35102.3
681.225	35032.69
681.573	35314.27
681.922	34988.4
682.27	34864.79
682.618	35048.29
682.966	34973.26
683.314	34905.01
683.661	34819.14
684.009	34598.13
684.357	34632.48
684.705	34518.81
685.053	34579.37
685.4	34584.8
685.748	34446.5
686.095	34323.33
686.443	34281.3
686.79	34106.39
687.138	34205.82
687.485	34288.76
687.832	34042.66
688.18	34114.53
688.527	34020.74
688.874	34102.1
689.221	33974.19
689.568	33834.76
689.915	33711.15
690.262	33842.67
690.609	33558.38
690.956	33622.34
691.303	33471.38
691.65	33290.14
691.997	33345.73
692.344	33104.61
692.69	33267.77
693.037	33217.6
693.383	32950.26
693.73	32989.81
694.077	33044.95
694.423	33019.19
694.769	32857.16
695.116	32709.14
695.462	32630.27
695.808	32519.54
696.155	32597.28
696.501	32421.69
696.847	32332.65
697.193	32177.18
697.539	32334.23
697.885	32000.23
698.231	31923.62
698.577	31915.04
698.923	31928.14
699.269	31909.61
699.614	31674.82
699.96	31523.63
700.306	31596.4
700.651	31473.92
700.997	31379.46
701.342	31295.62
701.688	31226.92
702.033	31143.53
702.379	31150.31
702.724	31054.72
703.069	31076.19
703.415	30677.33
703.76	30792.81
704.105	30681.17
704.45	30562.76
704.795	30519.37
705.14	30482.76
705.485	30433.49
705.83	30261.52
706.175	30347.62
706.52	30190.79
706.865	30187.85
707.209	30117.12
707.554	29967.74
707.899	30113.73
708.243	29892.49
708.588	29834.41
708.932	29700.41
709.277	29547.19
709.621	29661.76
709.966	29408.44
710.31	29576.79
710.654	29264.94
710.998	29274.65
711.342	29329.79
711.687	29257.71
712.031	29007.54
712.375	28938.17
712.719	29068.78
713.063	28961.22
713.407	29075.79
713.75	29016.36
714.094	28905.17
714.438	28673.31
714.782	28732.97
715.125	28596.25
715.469	28644.84
715.812	28512.41
716.156	28392.64
716.499	28406.43
716.843	28427.9
717.186	28204.63
717.53	28414.79
717.873	28475.13
718.216	28377.73
718.559	28108.81
718.902	28050.73
719.246	28114.68
719.589	28049.15
719.932	27868.14
720.275	27805.54
720.617	27841.47
720.96	27950.85
721.303	27913.56
721.646	27791.53
721.989	27680.57
722.331	27725.09
722.674	27672.44
723.016	27544.3
723.359	27492.33
723.701	27521.48
724.044	27354.25
724.386	27239.68
724.729	27391.09
725.071	27225.44
725.413	27233.13
725.755	27332.33
726.097	27067.93
726.439	26994.71
726.782	27012.79
727.124	27017.76
727.465	26991.55
727.807	26855.51
728.149	26852.12
728.491	26796.75
728.833	26970.76
729.175	26695.74
729.516	26677.43
729.858	26648.96
730.199	26666.81
730.541	26599.92
730.882	26576.65
731.224	26609.64
731.565	26522.64
731.906	26471.34
732.248	26473.37
732.589	26400.83
732.93	26296.2
733.271	26283.32
733.612	26288.07
733.953	26383.43
734.294	26223.66
734.635	26164.45
734.976	26225.02
735.317	26022.99
735.658	26146.15
735.999	26078.58
736.339	25914.06
736.68	26011.69
737.021	25906.38
737.361	25846.27
737.702	26006.27
738.042	25889.43
738.383	25761.3
738.723	25724.92
739.063	25608.08
739.404	25657.8
739.744	25691.47
740.084	25614.19
740.424	25576.67
740.764	25386.85
741.104	25580.29
741.444	25469.78
741.784	25294.42
742.124	25421.65
742.464	25211.94
742.804	25264.59
743.143	25269.79
743.483	25218.04
743.823	25131.26
744.162	25145.5
744.502	25194.99
744.841	25097.81
745.181	25231.14
745.52	25004.94
745.86	25036.8
746.199	24876.13
746.538	24877.48
746.877	24845.17
747.216	24889.46
747.556	24819.63
747.895	24899.18
748.234	24645.85
748.573	24682.91
748.911	24700.31
749.25	24588.68
749.589	24536.02
749.928	24556.13
750.267	24646.3
750.605	24443.82
750.944	24465.29
751.283	24217.84
751.621	24327.21
751.96	24332.64
752.298	24287.89
752.636	24273.66
752.975	24117.73
753.313	24169.03
753.651	24160.21
753.989	24029.82
754.327	24045.64
754.666	23870.95
755.004	24016.71
755.342	23786.89
755.679	23899.65
756.017	23731.3
756.355	23829.6
756.693	23627.8
757.031	23825.08
757.368	23514.58
757.706	23583.96
758.044	23445.43
758.381	23436.84
758.719	23379.44
759.056	23304.87
759.394	23267.13
759.731	23106
760.068	23070.52
760.405	22962.96
760.743	22864.65
761.08	22952.79
761.417	22833.69
761.754	22756.63
762.091	22760.25
762.428	22632.34
762.765	22565.68
763.102	22619.91
763.438	22381.28
763.775	22332.46
764.112	22325.23
764.449	22361.84
764.785	22323.65
765.122	22122.07
765.458	21907.84
765.795	21954.85
766.131	21905.81
766.467	21774.96
766.804	21756.66
767.14	21605.48
767.476	21653.16
767.812	21510.11
768.148	21510.56
768.485	21454.29
768.821	21334.3
769.157	21325.26
769.492	21192.38
769.828	21142.44
770.164	20971.6
770.5	20952.61
770.836	20978.83
771.171	20909
771.507	20838.49
771.842	20658.61
772.178	20682.34
772.513	20673.75
772.849	20619.06
773.184	20521.21
773.519	20453.19
773.855	20344.04
774.19	20191.05
774.525	20243.48
774.86	20293.65
775.195	20104.73
775.53	20103.6
775.865	19902.47
776.2	19795.36
776.535	19766.43
776.87	19735.92
777.205	19645.08
777.539	19516.72
777.874	19486.44
778.209	19377.74
778.543	19356.27
778.878	19224.75
779.212	19202.15
779.547	19025.88
779.881	19064.3
780.215	18949.5
780.55	19004.19
780.884	18828.15
781.218	18849.62
781.552	18850.52
781.886	18712.45
782.22	18612.79
782.554	18534.37
782.888	18255.28
783.222	18311.33
783.556	18296.41
783.889	18261.84
784.223	18157.21
784.557	18114.72
784.89	18085.34
785.224	18099.58
785.557	17902.75
785.891	17793.15
786.224	17829.76
786.558	17714.28
786.891	17575.75
787.224	17545.02
787.557	17492.14
787.891	17491.69
788.224	17500.05
788.557	17458.69
788.89	17341.63
789.223	17314.52
789.556	17263.9
789.888	17187.29
790.221	17142.54
790.554	16991.36
790.887	16978.93
791.219	16886.28
791.552	16902.32
791.884	16809.67
792.217	16792.27
792.549	16612.39
792.882	16513.18
793.214	16492.62
793.546	16579.17
793.879	16372.62
794.211	16260.98
794.543	16400.64
794.875	16250.36
795.207	16266.41
795.539	16172.17
795.871	16125.4
796.203	16112.74
796.535	15957.04
796.867	15937.38
797.198	15944.38
797.53	15918.62
797.862	15697.38
798.193	15835.23
798.525	15680.21
798.856	15719.53
799.188	15537.16
799.519	15545.98
799.85	15437.73
800.182	15363.83
800.513	15453.77
800.844	15313.89
801.175	15282.48
801.506	15352.31
801.837	15164.06
802.168	15176.04
802.499	15124.74
802.83	15049.49
803.161	15027.8
803.491	15036.16
803.822	14923.17
804.153	14957.97
804.483	14787.35
804.814	14768.14
805.145	14772.66
805.475	14768.37
805.805	14623.74
806.136	14676.39
806.466	14635.94
806.796	14617.64
807.126	14448.38
807.457	14420.36
807.787	14403.41
808.117	14355.5
808.447	14356.4
808.777	14444.31
809.107	14299.68
809.436	14202.51
809.766	14119.8
810.096	14123.41
810.426	14152.57
810.755	14110.53
811.085	14064.66
811.414	14090.87
811.744	13948.5
812.073	13825.34
812.403	13928.39
812.732	13835.29
813.061	13814.72
813.39	13766.14
813.719	13737.66
814.049	13736.53
814.378	13702.63
814.707	13616.53
815.036	13614.27
815.365	13581.96
815.693	13418.35
816.022	13407.5
816.351	13316.66
816.68	13349.2
817.008	13346.26
817.337	13249.99
817.665	13146.72
817.994	13249.76
818.322	13298.8
818.651	13215.87
818.979	13045.02
819.307	13158.47
819.636	13139.49
819.964	12995.31
820.292	13051.35
820.62	13068.75
820.948	12980.62
821.276	13021.75
821.604	13043.67
821.932	13041.63
822.259	13031.92
822.587	12968.87
822.915	12961.86
823.243	13023.78
823.57	12924.12
823.898	12958.02
824.225	12956.89
824.553	12894.07
824.88	12916.89
825.207	12982.2
825.535	12910.56
825.862	12955.76
826.189	12881.64
826.516	12959.15
826.843	13052.03
827.17	12934.52
827.497	12983.33
827.824	12908.98
828.151	12940.17
828.478	12911.24
828.805	12952.82
829.131	12886.61
829.458	12835.76
829.785	12908.08
830.111	12857.01
830.438	12961.64
830.764	12967.06
831.09	12967.29
831.417	12811.13
831.743	12909.89
832.069	12884.35
832.395	12851.81
832.722	12876.44
833.048	12812.94
833.374	12797.35
833.7	12753.51
834.026	12748.76
834.351	12828.31
834.677	12832.6
835.003	12789.66
835.329	12803.22
835.654	12698.37
835.98	12671.02
836.306	12680.74
836.631	12649.78
836.956	12723.9
837.282	12717.8
837.607	12573.17
837.932	12587.64
838.258	12625.37
838.583	12555.77
838.908	12556.45
839.233	12488.65
839.558	12535.43
839.883	12453.18
840.208	12362.33
840.533	12431.26
840.858	12426.51
841.182	12431.48
841.507	12423.12
841.832	12248.89
842.156	12325.04
842.481	12226.51
842.805	12268.32
843.13	12254.99
843.454	12153.97
843.778	12154.2
844.103	12029.68
844.427	12122.79
844.751	12109
845.075	12045.73
845.399	11967.99
845.723	11987.42
846.047	11957.37
846.371	11794.89
846.695	11819.07
847.019	11725.28
847.343	11738.39
847.666	11664.27
847.99	11596.25
848.313	11532.97
848.637	11577.27
848.96	11479.19
849.284	11483.94
849.607	11368.46
849.931	11403.26
850.254	11321.91
850.577	11223.15
850.9	11159.42
851.223	11094.79
851.546	11115.81
851.869	11065.19
852.192	11096.6
852.515	10967.34
852.838	10878.98
853.161	10895.02
853.483	10846.44
853.806	10874.69
854.129	10775.25
854.451	10803.95
854.774	10721.92
855.096	10714.24
855.419	10646.44
855.741	10645.99
856.063	10576.61
856.385	10552.43
856.708	10526.45
857.03	10509.72
857.352	10406.9
857.674	10467.92
857.996	10411.87
858.318	10351.31
858.64	10353.57
858.961	10307.92
859.283	10303.63
859.605	10258.66
859.926	10303.63
860.248	10162.16
860.57	10231.09
860.891	10189.51
861.212	10143.18
861.534	10108.83
861.855	10094.37
862.176	10049.17
862.498	10139.34
862.819	10041.49
863.14	10041.71
863.461	9977.31
863.782	9972.56
864.103	9966.01
864.424	9943.41
864.745	9933.24
865.065	9912.45
865.386	9890.98
865.707	9858.44
866.027	9825
866.348	9784.09
866.668	9828.61
866.989	9791.78
867.309	9743.64
867.63	9775.28
867.95	9716.3
868.27	9684.89
868.59	9695.51
868.91	9670.2
869.23	9676.3
869.55	9579.35
869.87	9677.66
870.19	9648.5
870.51	9604.66
870.83	9649.86
871.15	9577.09
871.469	9587.26
871.789	9565.57
872.109	9524.66
872.428	9566.02
872.748	9507.49
873.067	9532.8
873.386	9454.61
873.706	9454.38
874.025	9390.43
874.344	9434.72
874.663	9407.38
874.982	9354.05
875.301	9351.79
875.62	9296.87
875.939	9331.45
876.258	9364.9
876.577	9331.9
876.896	9315.86
877.214	9284.67
877.533	9251.9
877.852	9229.98
878.17	9225.24
878.489	9195.63
878.807	9252.13
879.125	9185.01
879.444	9148.4
879.762	9123.77
880.08	9149.31
880.398	9086.71
880.716	9139.59
881.034	9041.29
881.352	9107.27
881.67	9002.42
881.988	9016.66
882.306	8994.06
882.624	8955.64
882.941	8943.21
883.259	8944.12
883.577	8895.98
883.894	8902.76
884.212	8828.19
884.529	8829.32
884.846	8856.89
885.164	8820.05
885.481	8797
885.798	8747.51
886.115	8735.76
886.432	8669.09
886.75	8714.97
887.067	8717.68
887.383	8642.88
887.7	8697.79
888.017	8619.6
888.334	8603.11
888.651	8547.06
888.967	8547.06
889.284	8508.19
889.6	8507.74
889.917	8445.37
890.233	8438.59
890.55	8411.25
890.866	8388.88
891.182	8366.28
891.498	8322.44
891.815	8313.4
892.131	8348.88
892.447	8345.03
892.763	8309.1
893.079	8252.38
893.395	8157.24
893.71	8176.23
894.026	8159.95
894.342	8155.89
894.657	8136.45
894.973	8103.46
895.289	8162.67
895.604	8080.63
895.92	7985.27
896.235	7988.21
896.55	7951.6
896.865	7916.8
897.181	7891.94
897.496	7902.56
897.811	7833.18
898.126	7826.86
898.441	7897.59
898.756	7861.66
899.071	7760.19
899.386	7710.7
899.7	7714.09
900.015	7679.74
900.33	7626.41
900.644	7595.9
900.959	7580.31
901.273	7525.4
901.588	7533.08
901.902	7425.06
902.216	7447.21
902.531	7472.74
902.845	7326.76
903.159	7349.58
903.473	7341.22
903.787	7351.16
904.101	7267.32
904.415	7280.2
904.729	7275.91
905.042	7201.34
905.356	7162.47
905.67	7149.36
905.984	7173.09
906.297	7105.75
906.611	7138.74
906.924	7061.23
907.237	7051.06
907.551	7033.43
907.864	7029.14
908.177	6944.85
908.491	7034.11
908.804	6935.35
909.117	6954.11
909.43	6897.84
909.743	6808.35
910.056	6799.54
910.368	6792.31
910.681	6711.41
910.994	6720.44
911.307	6693.78
911.619	6632.09
911.932	6695.13
912.244	6614.46
912.557	6651.75
912.869	6585.99
913.181	6564.74
913.494	6584.18
913.806	6520.45
914.118	6461.92
914.43	6438.87
914.742	6384.18
915.054	6337.63
915.366	6397.52
915.678	6306.22
915.99	6316.61
916.302	6346.9
916.613	6218.31
916.925	6213.79
917.236	6214.47
917.548	6153.91
917.859	6136.51
918.171	6131.53
918.482	6050.41
918.794	6055.6
919.105	6044.53
919.416	6051.31
919.727	6023.74
920.038	6026.23
920.349	5896.29
920.66	5872.11
920.971	5889.05
921.282	5919.79
921.593	5855.16
921.903	5837.3
922.214	5813.58
922.525	5793.69
922.835	5781.03
923.146	5782.16
923.456	5702.84
923.767	5687.48
924.077	5715.73
924.387	5654.48
924.697	5637.99
925.008	5595.73
925.318	5573.36
925.628	5532.68
925.938	5534.26
926.248	5474.38
926.558	5469.18
926.867	5432.12
927.177	5455.85
927.487	5361.16
927.796	5339.01
928.106	5369.97
928.416	5372.91
928.725	5378.33
929.034	5251.56
929.344	5299.92
929.653	5280.71
929.962	5222.41
930.271	5204.55
930.581	5180.15
930.89	5122.75
931.199	5093.37
931.508	5135.18
931.817	5109.87
932.125	5070.54
932.434	5042.3
932.743	4979.93
933.051	4965.01
933.36	4972.47
933.669	4934.73
933.977	4955.07
934.286	4913.03
934.594	4929.31
934.902	4870.55
935.21	4849.31
935.519	4829.87
935.827	4827.61
936.135	4782.64
936.443	4720.5
936.751	4746.49
937.059	4718.69
937.367	4726.15
937.674	4730.67
937.982	4685.24
938.29	4652.48
938.597	4624.45
938.905	4575.64
939.213	4628.07
939.52	4571.12
939.827	4582.87
940.135	4530.45
940.442	4546.04
940.749	4520.73
941.056	4491.58
941.363	4403.67
941.67	4440.73
941.977	4463.33
942.284	4378.81
942.591	4394.18
942.898	4376.78
943.205	4391.92
943.511	4357.8
943.818	4358.7
944.125	4249.32
944.431	4269.89
944.738	4264.46
945.044	4306.95
945.35	4245.48
945.657	4200.06
945.963	4198.48
946.269	4146.5
946.575	4207.97
946.881	4151.92
947.187	4134.07
947.493	4106.5
947.799	4084.13
948.105	4091.36
948.41	4045.26
948.716	4070.8
949.022	4029.44
949.327	4033.96
949.633	3996.67
949.938	3979.73
950.244	3929.78
950.549	3918.26
950.854	3943.79
951.16	3909.9
951.465	3904.02
951.77	3898.15
952.075	3852.72
952.38	3824.93
952.685	3809.33
952.99	3781.76
953.294	3761.65
953.599	3782.22
953.904	3749
954.209	3725.04
954.513	3715.33
954.818	3694.76
955.122	3670.81
955.426	3650.02
955.731	3656.57
956.035	3635.78
956.339	3615.89
956.643	3608.21
956.948	3599.85
957.252	3588.55
957.556	3602.11
957.86	3559.85
958.163	3526.63
958.467	3501.09
958.771	3518.04
959.075	3536.35
959.378	3484.15
959.682	3458.16
959.985	3469
960.289	3415.22
960.592	3403.24
960.896	3398.05
961.199	3377.26
961.502	3395.79
961.805	3313.08
962.108	3358.5
962.411	3283.92
962.714	3309.24
963.017	3306.52
963.32	3311.27
963.623	3248.22
963.926	3261.78
964.228	3235.11
964.531	3225.17
964.833	3208.22
965.136	3200.31
965.438	3179.07
965.741	3179.52
966.043	3139.3
966.345	3138.39
966.648	3125.06
966.95	3118.51
967.252	3076.92
967.554	3111.5
967.856	3083.48
968.158	3069.69
968.46	3059.07
968.761	3055.23
969.063	3015.46
969.365	2998.28
969.666	2984.5
969.968	2949.02
970.269	2952.41
970.571	2935.23
970.872	2976.59
971.174	2883.71
971.475	2925.06
971.776	2891.84
972.077	2900.88
972.378	2889.81
972.679	2870.6
972.98	2866.08
973.281	2830.15
973.582	2829.93
973.883	2777.05
974.183	2797.38
974.484	2801.23
974.785	2766.65
975.085	2784.28
975.386	2737.5
975.686	2729.14
975.986	2745.18
976.287	2714.45
976.587	2704.28
976.887	2712.19
977.187	2699.31
977.487	2673.09
977.787	2665.41
978.087	2634.45
978.387	2645.3
978.687	2628.8
978.987	2631.06
979.286	2583.6
979.586	2622.47
979.885	2587.67
980.185	2547
980.484	2571.4
980.784	2544.06
981.083	2536.37
981.382	2531.63
981.682	2522.14
981.981	2500.44
982.28	2461.12
982.579	2454.57
982.878	2488.69
983.177	2448.47
983.475	2434.91
983.774	2477.17
984.073	2414.57
984.372	2422.93
984.67	2436.49
984.969	2409.82
985.267	2380.22
985.566	2407.11
985.864	2396.72
986.162	2343.61
986.461	2381.12
986.759	2327.79
987.057	2338.19
987.355	2286.44
987.653	2301.8
987.951	2315.14
988.249	2314.01
988.547	2278.75
988.844	2267.68
989.142	2262.03
989.44	2274.01
989.737	2214.35
990.035	2225.87
990.332	2203.28
990.63	2216.16
990.927	2225.42
991.224	2204.86
991.521	2201.02
991.819	2167.57
992.116	2125.76
992.413	2128.93
992.71	2136.61
993.006	2122.83
993.303	2107.91
993.6	2132.54
993.897	2076.27
994.193	2102.94
994.49	2111.3
994.787	2087.8
995.083	2071.08
995.379	2032.66
995.676	2038.99
995.972	2047.35
996.268	2018.2
996.565	2011.42
996.861	2019.78
997.157	1960.34
997.453	1980.68
997.749	2014.81
998.044	1953.34
998.34	1994.69
998.636	1962.15
998.932	1930.74
999.227	1923.06
999.523	1907.69
999.818	1910.4
1000.114	1908.37
1000.409	1867.24
1000.704	1849.16
1001	1864.98
1001.295	1860.23
1001.59	1844.41
1001.885	1854.58
1002.18	1816.17
1002.475	1852.1
1002.77	1821.14
1003.065	1792.21
1003.359	1813.46
1003.654	1808.48
1003.949	1779.56
1004.243	1791.31
1004.538	1730.52
1004.832	1730.75
1005.127	1747.69
1005.421	1736.62
1005.715	1677.64
1006.009	1712.89
1006.304	1724.42
1006.598	1702.05
1006.892	1707.47
1007.186	1689.84
1007.48	1659.33
1007.773	1650.52
1008.067	1642.84
1008.361	1686.9
1008.655	1640.13
1008.948	1657.98
1009.242	1609.62
1009.535	1582.5
1009.829	1573.69
1010.122	1583.86
1010.415	1579.34
1010.708	1568.04
1011.001	1555.61
1011.295	1523.29
1011.588	1564.2
1011.881	1545.67
1012.173	1524.42
1012.466	1516.06
1012.759	1510.64
1013.052	1516.97
1013.344	1479.45
1013.637	1522.16
1013.93	1485.1
1014.222	1481.71
1014.514	1466.35
1014.807	1451.88
1015.099	1446.46
1015.391	1419.57
1015.683	1440.58
1015.976	1426.35
1016.268	1406.91
1016.56	1407.14
1016.851	1376.86
1017.143	1382.51
1017.435	1389.74
1017.727	1357.87
1018.018	1347.7
1018.31	1350.64
1018.602	1354.94
1018.893	1314.71
1019.185	1335.05
1019.476	1337.76
1019.767	1321.26
1020.058	1322.39
1020.35	1313.36
1020.641	1285.11
1020.932	1280.81
1021.223	1258.67
1021.514	1259.35
1021.804	1242.85
1022.095	1245.79
1022.386	1233.81
1022.677	1229.97
1022.967	1221.83
1023.258	1212.12
1023.548	1210.08
1023.839	1208.05
1024.129	1216.86
1024.419	1176.18
1024.709	1148.84
1025	1180.48
1025.29	1165.34
1025.58	1165.11
1025.87	1159.91
1026.16	1144.77
1026.449	1134.6
1026.739	1116.52
1027.029	1122.85
1027.319	1116.98
1027.608	1115.17
1027.898	1115.17
1028.187	1092.57
1028.477	1100.93
1028.766	1064.32
1029.055	1079.24
1029.344	1052.8
1029.634	1055.06
1029.923	1040.14
1030.212	1057.99
1030.501	1035.4
1030.79	1026.13
1031.078	1039.69
1031.367	998.79
1031.656	989.97
1031.945	1011.22
1032.233	1001.95
1032.522	987.94
1032.81	997.88
1033.099	977.77
1033.387	978
1033.675	987.26
1033.963	966.92
1034.251	969.64
1034.54	943.42
1034.828	943.65
1035.116	960.37
1035.403	905.23
1035.691	923.31
1035.979	949.07
1036.267	913.37
1036.554	926.02
1036.842	889.86
1037.129	891.9
1037.417	897.55
1037.704	906.36
1037.992	895.97
1038.279	883.31
1038.566	894.61
1038.853	894.61
1039.14	894.61
