Data from hue_300_FLMS001491_00083.txt Node
Date: Tue Feb 07 15:51:19 GMT 2017
User: dcchb
Spectrometer: FLMS00149
Trigger mode: 0
Integration Time (sec): 2.000000E-2
Scans to average: 10
Electric dark correction enabled: true
Nonlinearity correction enabled: false
Boxcar width: 0
XAxis mode: Wavelengths
Number of Pixels in Spectrum: 2048
>>>>>Begin Spectral Data<<<<<
341.393	-37.68
341.776	-37.68
342.16	-37.68
342.543	-57.57
342.927	-60.51
343.31	-77.23
343.693	-63.9
344.077	-37.46
344.46	-49.21
344.843	-47.63
345.226	-37.91
345.61	-25.48
345.993	-12.82
346.376	-23.67
346.759	28.3
347.142	17.23
347.525	32.6
347.908	46.83
348.291	76.66
348.674	78.25
349.057	95.42
349.44	122.31
349.823	158.47
350.206	163.44
350.588	202.99
350.971	217.45
351.354	242.76
351.737	237.11
352.119	259.03
352.502	279.37
352.884	284.79
353.267	287.96
353.65	314.62
354.032	291.8
354.414	298.35
354.797	313.95
355.179	326.38
355.562	318.01
355.944	331.12
356.326	320.5
356.709	338.35
357.091	344.45
357.473	339.26
357.855	363.89
358.238	335.19
358.62	343.78
359.002	345.58
359.384	340.16
359.766	341.97
360.148	339.71
360.53	354.85
360.912	344
361.294	338.35
361.676	339.03
362.057	339.48
362.439	345.13
362.821	327.28
363.203	355.08
363.584	334.74
363.966	333.38
364.348	329.54
364.729	335.41
365.111	317.34
365.493	316.21
365.874	320.27
366.256	311.23
366.637	314.4
367.019	344.45
367.4	359.6
367.781	319.14
368.163	319.6
368.544	312.82
368.925	306.72
369.306	341.52
369.688	312.36
370.069	320.05
370.45	324.57
370.831	319.6
371.212	316.43
371.593	317.11
371.974	297
372.355	313.95
372.736	306.26
373.117	338.8
373.498	329.77
373.879	310.78
374.26	319.37
374.641	308.52
375.021	313.27
375.402	327.96
375.783	331.35
376.163	333.83
376.544	334.51
376.925	339.26
377.305	327.96
377.686	326.6
378.066	324.12
378.447	318.92
378.827	320.27
379.208	343.1
379.588	350.33
379.968	326.15
380.349	355.75
380.729	350.1
381.109	363.44
381.489	374.06
381.87	376.54
382.25	348.07
382.63	351.23
383.01	349.43
383.39	363.21
383.77	352.14
384.15	384.91
384.53	364.11
384.91	355.08
385.29	345.13
385.67	361.63
386.049	366.37
386.429	347.39
386.809	343.55
387.189	373.83
387.568	381.06
387.948	352.36
388.328	349.43
388.707	365.24
389.087	374.06
389.466	382.19
389.846	372.7
390.225	388.52
390.605	381.97
390.984	406.6
391.363	388.75
391.743	403.44
392.122	393.27
392.501	387.16
392.881	383.78
393.26	402.98
393.639	406.37
394.018	398.92
394.397	398.24
394.776	403.66
395.155	411.8
395.534	410.22
395.913	407.05
396.292	403.89
396.671	415.86
397.05	408.63
397.429	424.45
397.808	445.47
398.186	443.66
398.565	435.75
398.944	422.42
399.323	435.3
399.701	432.81
400.08	433.27
400.458	432.81
400.837	440.95
401.215	452.7
401.594	467.61
401.972	452.25
402.351	454.96
402.729	470.33
403.107	451.12
403.486	474.85
403.864	470.78
404.242	488.41
404.62	472.59
404.999	510.1
405.377	488.41
405.755	506.48
406.133	489.31
406.511	506.94
406.889	507.61
407.267	519.36
407.645	505.13
408.023	538.12
408.401	517.56
408.779	532.25
409.156	541.06
409.534	563.21
409.912	565.01
410.29	585.35
410.667	588.52
411.045	582.19
411.422	605.01
411.8	602.98
412.178	633.26
412.555	612.7
412.933	626.93
413.31	652.24
413.687	674.39
414.065	656.76
414.442	679.36
414.819	702.41
415.197	686.37
415.574	696.31
415.951	715.07
416.328	741.51
416.705	732.24
417.082	747.16
417.46	753.71
417.837	787.83
418.214	776.31
418.591	790.54
418.967	800.49
419.344	791.9
419.721	824.22
420.098	801.84
420.475	829.41
420.852	867.38
421.228	841.16
421.605	860.15
421.982	874.38
422.358	889.07
422.735	916.19
423.111	907.15
423.488	943.53
423.864	935.85
424.241	956.42
424.617	932.46
424.994	927.72
425.37	944.66
425.746	976.75
426.123	1014.27
426.499	971.56
426.875	1009.97
427.251	1034.61
427.627	1055.17
428.003	1048.39
428.379	1068.95
428.756	1065.34
429.132	1084.55
429.507	1108.73
429.883	1132.68
430.259	1117.99
430.635	1115.06
431.011	1153.92
431.387	1201.15
431.763	1219.23
432.138	1228.27
432.514	1201.38
432.89	1233.7
433.265	1265.56
433.641	1279.57
434.016	1304.88
434.392	1284.77
434.767	1316.41
435.143	1314.6
435.518	1360.02
435.894	1352.34
436.269	1374.48
436.644	1346.91
437.02	1394.14
437.395	1393.01
437.77	1415.61
438.145	1440.02
438.52	1432.79
438.895	1466.23
439.271	1451.32
439.646	1490.64
440.021	1511.66
440.395	1491.32
440.77	1514.82
441.145	1499.68
441.52	1550.98
441.895	1542.61
442.27	1541.48
442.645	1585.33
443.019	1600.69
443.394	1578.09
443.769	1589.85
444.143	1581.26
444.518	1587.59
444.892	1611.31
445.267	1591.2
445.641	1613.12
446.016	1615.38
446.39	1640.01
446.764	1650.18
447.139	1613.57
447.513	1674.59
447.887	1654.25
448.262	1642.27
448.636	1635.95
449.01	1674.81
449.384	1687.47
449.758	1681.37
450.132	1705.1
450.506	1729.05
450.88	1723.85
451.254	1741.25
451.628	1734.25
452.002	1768.15
452.376	1765.43
452.75	1760.01
453.123	1754.36
453.497	1795.72
453.871	1806.34
454.244	1844.53
454.618	1823.29
454.992	1853.57
455.365	1841.36
455.739	1894.92
456.112	1915.49
456.486	1925.2
456.859	1927.92
457.232	1946.9
457.606	1937.18
457.979	1950.51
458.352	2029.83
458.725	2047.91
459.099	2036.16
459.472	2037.97
459.845	2077.52
460.218	2067.35
460.591	2056.27
460.964	2084.97
461.337	2118.64
461.71	2150.51
462.083	2195.93
462.456	2190.96
462.829	2165.42
463.201	2197.29
463.574	2169.94
463.947	2216.72
464.32	2295.14
464.692	2259.21
465.065	2309.6
465.438	2313.44
465.81	2286.32
466.183	2376.04
466.555	2385.3
466.928	2367
467.3	2384.85
467.672	2403.61
468.045	2457.17
468.417	2440.67
468.789	2452.65
469.161	2520.89
469.534	2496.04
469.906	2566.54
470.278	2613.1
470.65	2575.81
471.022	2606.99
471.394	2696.48
471.766	2684.51
472.138	2637.05
472.51	2794.79
472.882	2761.34
473.253	2805.18
473.625	2843.15
473.997	2848.8
474.369	2884.95
474.74	2894.9
475.112	2937.15
475.484	2964.72
475.855	2990.03
476.227	3001.33
476.598	3113.87
476.97	3095.79
477.341	3157.94
477.713	3174.89
478.084	3198.62
478.455	3235.23
478.827	3268.45
479.198	3315.9
479.569	3361.1
479.94	3396.35
480.311	3408.55
480.682	3491.72
481.053	3544.37
481.424	3554.31
481.795	3576.01
482.166	3664.37
482.537	3648.1
482.908	3721.77
483.279	3732.16
483.65	3820.3
484.021	3839.28
484.391	3875.21
484.762	3875.66
485.133	3912.27
485.503	3969.9
485.874	4021.65
486.244	4014.64
486.615	4073.17
486.985	4088.99
487.356	4175.54
487.726	4201.3
488.097	4253.96
488.467	4261.64
488.837	4309.1
489.207	4381.64
489.578	4419.15
489.948	4481.07
490.318	4535.3
490.688	4520.39
491.058	4575.98
491.428	4553.61
491.798	4631.8
492.168	4642.65
492.538	4727.84
492.908	4764
493.278	4766.26
493.648	4803.77
494.017	4855.52
494.387	4861.62
494.757	4897.33
495.126	4942.75
495.496	4929.64
495.866	4985.01
496.235	5035.86
496.605	5024.78
496.974	5051.45
497.344	5116.08
497.713	5143.65
498.082	5117.89
498.452	5198.11
498.821	5211.22
499.19	5204.89
499.559	5258.45
499.928	5223.2
500.298	5293.25
500.667	5334.83
501.036	5303.19
501.405	5355.17
501.774	5308.84
502.143	5395.39
502.512	5446.24
502.88	5433.13
503.249	5414.15
503.618	5506.13
503.987	5464.77
504.356	5543.87
504.724	5534.6
505.093	5561.49
505.462	5562.62
505.83	5577.76
506.199	5625.67
506.567	5653.02
506.936	5677.87
507.304	5707.25
507.672	5726.69
508.041	5762.84
508.409	5816.17
508.777	5777.98
509.145	5846.23
509.514	5888.72
509.882	5844.2
510.25	5855.27
510.618	5845.1
510.986	5919
511.354	5944.98
511.722	5979.79
512.09	6008.03
512.458	6023.4
512.826	6050.97
513.193	6071.31
513.561	6034.47
513.929	6135.71
514.297	6116.05
514.664	6148.14
515.032	6180.01
515.4	6170.97
515.767	6231.31
516.135	6188.37
516.502	6144.98
516.869	6217.07
517.237	6225.66
517.604	6258.2
517.972	6320.12
518.339	6326.22
518.706	6324.18
519.073	6343.62
519.44	6341.81
519.808	6419.32
520.175	6432.88
520.542	6412.77
520.909	6521.69
521.276	6461.36
521.643	6547
522.009	6564.63
522.376	6584.29
522.743	6582.71
523.11	6660.22
523.477	6664.97
523.843	6750.16
524.21	6778.41
524.577	6862.02
524.943	6791.97
525.31	6859.76
525.676	6903.6
526.043	6966.65
526.409	6906.77
526.776	6948.12
527.142	7027.67
527.508	7029.25
527.874	7147.67
528.241	7110.15
528.607	7172.75
528.973	7240.32
529.339	7184.5
529.705	7226.08
530.071	7310.15
530.437	7342.69
530.803	7324.16
531.169	7408.45
531.535	7463.14
531.901	7436.92
532.267	7480.76
532.632	7524.83
532.998	7539.52
533.364	7650.93
533.73	7650.48
534.095	7724.37
534.461	7649.12
534.826	7772.28
535.192	7731.83
535.557	7844.37
535.923	7783.13
536.288	7815.67
536.653	7900.19
537.019	7935.67
537.384	7921.88
537.749	7973.63
538.114	7991.94
538.479	7973.63
538.845	8031.48
539.21	8018.15
539.575	8057.47
539.94	8132.95
540.305	8200.97
540.67	8140.18
541.034	8195.55
541.399	8247.3
541.764	8221.31
542.129	8328.43
542.494	8330.23
542.858	8393.73
543.223	8394.64
543.587	8442.32
543.952	8473.05
544.316	8485.03
544.681	8527.52
545.045	8582.66
545.41	8558.93
545.774	8608.87
546.138	8662.2
546.503	8647.29
546.867	8692.71
547.231	8816.55
547.595	8804.57
547.959	8827.62
548.324	8832.14
548.688	8857.22
549.052	9028.29
549.416	8971.35
549.779	8934.28
550.143	9016.77
550.507	9049.08
550.871	9065.35
551.235	8980.39
551.599	9160.95
551.962	9103.32
552.326	9148.74
552.689	9212.24
553.053	9187.39
553.417	9154.39
553.78	9333.14
554.143	9263.99
554.507	9330.66
554.87	9294.95
555.234	9391.67
555.597	9403.2
555.96	9463.99
556.323	9435.06
556.686	9431.45
557.05	9495.85
557.413	9532.46
557.776	9540.37
558.139	9642.06
558.502	9593.48
558.865	9640.93
559.228	9724.32
559.59	9706.24
559.953	9733.59
560.316	9850.87
560.679	9794.38
561.041	9893.13
561.404	9953.02
561.767	9924.54
562.129	9972.45
562.492	10012
562.854	9993.69
563.217	9998.66
563.579	10058.78
563.941	10099.23
564.304	10087.93
564.666	10226.91
565.028	10197.08
565.39	10201.6
565.753	10355.49
566.115	10325.43
566.477	10331.99
566.839	10323.63
567.201	10466.22
567.563	10429.39
567.925	10533.56
568.287	10500.12
568.648	10556.16
569.01	10595.03
569.372	10754.12
569.734	10686.78
570.095	10690.17
570.457	10795.03
570.819	10844.07
571.18	10816.5
571.542	10890.39
571.903	11004.29
572.265	11002.93
572.626	11035.7
572.987	11158.86
573.349	11150.27
573.71	11242.47
574.071	11356.59
574.432	11420.1
574.794	11456.25
575.155	11469.36
575.516	11545.74
575.877	11645.63
576.238	11748.9
576.599	11903.7
576.96	11925.17
577.32	11997.03
577.681	12162.9
578.042	12253.07
578.403	12318.6
578.763	12454.87
579.124	12592.95
579.485	12759.04
579.845	12876.78
580.206	12971.69
580.566	13001.97
580.927	13260.72
581.287	13527.38
581.648	13615.29
582.008	13773.48
582.368	13957.2
582.728	14082.4
583.089	14388.15
583.449	14468.38
583.809	14618.43
584.169	14964.41
584.529	15187.91
584.889	15447.11
585.249	15545.41
585.609	15823.14
585.969	16133.19
586.329	16420.19
586.688	16601.2
587.048	16994.41
587.408	17122.09
587.768	17499.03
588.127	17710.78
588.487	17929.3
588.846	18383.98
589.206	18642.96
589.565	18833.91
589.925	19260.34
590.284	19566.1
590.643	19935.13
591.003	20251.28
591.362	20628.21
591.721	20950.01
592.08	21297.12
592.44	21655.53
592.799	21849.2
593.158	22179.59
593.517	22587.71
593.876	22967.59
594.235	23244.87
594.593	23685.08
594.952	24041.23
595.311	24295.01
595.67	24614.32
596.029	25005.05
596.387	25442.55
596.746	25778.81
597.104	26015.87
597.463	26324.56
597.822	26721.61
598.18	26983.53
598.538	27486.11
598.897	27862.6
599.255	27925.65
599.613	28659.87
599.972	28784.84
600.33	29226.86
600.688	29308.44
601.046	29780.29
601.404	30124.24
601.762	30340.73
602.12	30835.86
602.478	31159.46
602.836	31389.29
603.194	31531.66
603.552	31825.21
603.91	32063.62
604.268	32509.03
604.625	32634
604.983	33107.21
605.341	33199.41
605.698	33482.11
606.056	33872.61
606.413	34050.23
606.771	34397.57
607.128	34747.84
607.485	34744
607.843	35020.38
608.2	35559.35
608.557	35812.9
608.914	35996.17
609.272	36416.95
609.629	36545.99
609.986	36915.02
610.343	36806.55
610.7	37240.66
611.057	37386.42
611.414	37479.75
611.771	37948.44
612.127	38177.36
612.484	38366.28
612.841	38667.97
613.198	38688.08
613.554	38873.84
613.911	39123.77
614.267	39253.49
614.624	39474.05
614.98	39566.7
615.337	39970.08
615.693	39965.11
616.05	40161.94
616.406	40406.68
616.762	40391.76
617.118	40561.02
617.475	40716.73
617.831	41031.75
618.187	41305.19
618.543	41149.26
618.899	41695.23
619.255	41620.43
619.611	41673.09
619.967	41875.11
620.323	42195.78
620.678	42138.16
621.034	42255.22
621.39	42192.85
621.746	42184.94
622.101	42991.02
622.457	42573.85
622.812	42725.26
623.168	43158.47
623.523	43022.88
623.879	43298.35
624.234	43066.49
624.589	43212.48
624.945	43406.37
625.3	43389.65
625.655	43594.39
626.01	43632.58
626.365	43844.33
626.72	43700.6
627.075	43729.3
627.43	43792.8
627.785	43593.03
628.14	43972.69
628.495	43974.04
628.85	43969.07
629.205	44076.86
629.559	44306.91
629.914	44082.06
630.269	44298.55
630.623	44132.91
630.978	43967.49
631.332	44304.65
631.687	44510.52
632.041	44207.48
632.396	44384.2
632.75	44230.31
633.104	44351.88
633.459	44259.68
633.813	44336.74
634.167	44366.35
634.521	44214.94
634.875	44282.28
635.229	44251.55
635.583	44202.74
635.937	44173.13
636.291	44190.98
636.645	44289.06
636.999	44206.13
637.352	44295.61
637.706	44255.62
638.06	44235.05
638.413	44195.96
638.767	44132
639.121	44309.17
639.474	44049.29
639.828	44112.79
640.181	44156.64
640.534	44214.04
640.888	44005.45
641.241	44058.33
641.594	44046.13
641.947	44188.73
642.301	44135.39
642.654	44017.66
643.007	44196.41
643.36	44026.47
643.713	43972.01
644.066	44300.81
644.419	43942.86
644.771	43701.05
645.124	43175.64
645.477	43202.08
645.83	43059.26
646.182	42938.36
646.535	42767.52
646.888	42824.69
647.24	42709.67
647.593	42938.81
647.945	42800.06
648.298	42689.33
648.65	42620.18
649.002	42586.28
649.355	42833.96
649.707	42773.4
650.059	42828.99
650.411	43272.14
650.763	43424.9
651.115	43744.89
651.467	43657.67
651.819	43688.4
652.171	43528.86
652.523	43449.08
652.875	43524.56
653.227	43324.57
653.578	43672.13
653.93	43541.51
654.282	43394.85
654.633	43170.45
654.985	43433.49
655.337	43468.29
655.688	43438.24
656.039	43562.75
656.391	43141.97
656.742	43395.07
657.094	43320.5
657.445	43522.08
657.796	43272.14
658.147	43361.85
658.498	43268.75
658.849	43331.12
659.2	43402.31
659.551	43202.99
659.902	43362.98
660.253	43258.81
660.604	43336.09
660.955	43111.24
661.306	43275.98
661.656	43133.16
662.007	43276.88
662.358	43143.78
662.708	43061.98
663.059	43296.77
663.409	42975.88
663.76	43299.26
664.11	43115.76
664.461	43177
664.811	43265.81
665.161	43129.32
665.511	43057.46
665.862	43083.9
666.212	43191.01
666.562	43195.53
666.912	43220.84
667.262	43041.86
667.612	43032.37
667.962	43141.75
668.312	43054.07
668.662	43329.99
669.011	43151.46
669.361	42888.87
669.711	43000.28
670.06	42975.42
670.41	42845.26
670.76	42941.3
671.109	42989.43
671.459	42914.18
671.808	42871.92
672.157	42910.11
672.507	42716.67
672.856	42798.03
673.205	42797.8
673.554	42807.74
673.904	42796.9
674.253	42953.73
674.602	42717.58
674.951	42213.64
675.3	42119.63
675.649	42688.2
675.998	42719.39
676.346	42604.81
676.695	42677.58
677.044	42366.17
677.393	42449.34
677.741	42640.52
678.09	42582.21
678.438	42388.77
678.787	42357.36
679.135	42460.18
679.484	42173.18
679.832	42377.47
680.181	42048.22
680.529	42187.2
680.877	42064.26
681.225	42061.55
681.573	42316.46
681.922	42031.95
682.27	42149.68
682.618	41930.03
682.966	41922.34
683.314	42004.83
683.661	41697.49
684.009	41657.04
684.357	41516.03
684.705	41441.45
685.053	41515.8
685.4	41491.85
685.748	41250.05
686.095	41284.39
686.443	41128.69
686.79	41141.57
687.138	41275.81
687.485	41041.46
687.832	40993.1
688.18	41107.22
688.527	40817.06
688.874	40905.42
689.221	40766.89
689.568	40556.5
689.915	40471.31
690.262	40567.58
690.609	40439.9
690.956	40189.06
691.303	40189.96
691.65	40032.9
691.997	40075.16
692.344	39860.48
692.69	39847.82
693.037	39884.43
693.383	39498.9
693.73	39650.99
694.077	39356.54
694.423	39402.86
694.769	39317.89
695.116	39153.83
695.462	39192.47
695.808	38964.91
696.155	39211
696.501	38705.93
696.847	38838.36
697.193	38519.5
697.539	38631.13
697.885	38426.16
698.231	38200.18
698.577	38216.68
698.923	38194.08
699.269	38001.09
699.614	37798.38
699.96	37833.19
700.306	37868.67
700.651	37559.29
700.997	37569.24
701.342	37530.6
701.688	37534.89
702.033	37169.02
702.379	37376.25
702.724	37155.92
703.069	37223.26
703.415	36886.77
703.76	36846.77
704.105	36955.24
704.45	36831.63
704.795	36470.06
705.14	36445.88
705.485	36351.64
705.83	36218.09
706.175	36270.29
706.52	36184.64
706.865	36093.34
707.209	36116.39
707.554	35866.01
707.899	35974.7
708.243	35729.29
708.588	35715.28
708.932	35501.95
709.277	35474.38
709.621	35452.46
709.966	35170.88
710.31	35261.73
710.654	34974.96
710.998	35283.65
711.342	35068.51
711.687	34903.09
712.031	34886.82
712.375	34761.85
712.719	34868.29
713.063	34840.72
713.407	34892.47
713.75	34666.04
714.094	34654.29
714.438	34416.78
714.782	34469.43
715.125	34265.82
715.469	34339.72
715.812	34156.22
716.156	33997.58
716.499	34013.17
716.843	34020.86
717.186	33887.3
717.53	33971.37
717.873	33915.77
718.216	33847.08
718.559	33719.62
718.902	33480.98
719.246	33506.52
719.589	33512.4
719.932	33419.06
720.275	33326.64
720.617	33412.96
720.96	33372.29
721.303	33360.31
721.646	33275.79
721.989	33178.62
722.331	33171.16
722.674	33052.52
723.016	32946.31
723.359	33050.49
723.701	33045.29
724.044	32724.39
724.386	32699.54
724.729	32758.07
725.071	32667.45
725.413	32813.88
725.755	32749.48
726.097	32346.32
726.439	32343.61
726.782	32380
727.124	32508.81
727.465	32252.77
727.807	32364.86
728.149	32231.98
728.491	32191.53
728.833	32116.95
729.175	32109.72
729.516	32094.35
729.858	31962.38
730.199	32053.9
730.541	31959.89
730.882	31851.42
731.224	31959.89
731.565	31735.27
731.906	31648.72
732.248	31811.88
732.589	31626.8
732.93	31566.68
733.271	31444.2
733.612	31586.8
733.953	31626.57
734.294	31348.61
734.635	31397.87
734.976	31384.54
735.317	31240.59
735.658	31100.93
735.999	31190.87
736.339	31264.55
736.68	31188.16
737.021	31119.69
737.361	30906.36
737.702	31151.55
738.042	30921.5
738.383	30910.2
738.723	30934.38
739.063	30764.9
739.404	30928.28
739.744	30822.52
740.084	30747.27
740.424	30770.09
740.764	30642.19
741.104	30902.07
741.444	30620.49
741.784	30498.01
742.124	30612.58
742.464	30468.18
742.804	30455.75
743.143	30335.53
743.483	30399.48
743.823	30104.58
744.162	30237.45
744.502	30313.16
744.841	30024.35
745.181	30257.79
745.52	30100.73
745.86	30095.31
746.199	30207.4
746.538	30115.2
746.877	30116.33
747.216	30137.34
747.556	29992.04
747.895	30008.76
748.234	29840.63
748.573	29883.79
748.911	29888.99
749.25	29860.51
749.589	29704.36
749.928	29802.21
750.267	29855.32
750.605	29665.72
750.944	29632.72
751.283	29529.22
751.621	29598.37
751.96	29541.88
752.298	29561.54
752.636	29551.82
752.975	29375.1
753.313	29331.26
753.651	29386.63
753.989	29290.59
754.327	29269.57
754.666	29219.18
755.004	29123.58
755.342	29229.12
755.679	29227.99
756.017	29017.82
756.355	28998.16
756.693	28856.25
757.031	28938.96
757.368	28713.43
757.706	28882.69
758.044	28697.38
758.381	28748.68
758.719	28693.77
759.056	28538.97
759.394	28483.83
759.731	28320.89
760.068	28433.21
760.405	28199.99
760.743	28258.52
761.08	28355.7
761.417	28136.72
761.754	28162.71
762.091	27995.93
762.428	27938.98
762.765	27883.39
763.102	27898.76
763.438	27720.46
763.775	27762.94
764.112	27674.58
764.449	27716.62
764.785	27583.96
765.122	27432.78
765.458	27337.87
765.795	27325.89
766.131	27342.16
766.467	27117.31
766.804	27093.13
767.14	26870.31
767.476	26939.91
767.812	26693.59
768.148	26833.25
768.485	26645.01
768.821	26511.9
769.157	26485.69
769.492	26504.22
769.828	26341.28
770.164	26137.67
770.5	26047.28
770.836	26228.29
771.171	25987.85
771.507	25964.57
771.842	25664.24
772.178	25794.63
772.513	25661.75
772.849	25538.82
773.184	25515.77
773.519	25433.29
773.855	25336.79
774.19	25167.3
774.525	25245.49
774.86	25172.05
775.195	25157.36
775.53	24910.14
775.865	24786.98
776.2	24755.11
776.535	24428.79
776.87	24672.63
777.205	24422.24
777.539	24356.93
777.874	24356.93
778.209	24093.43
778.543	24136.15
778.878	23926.66
779.212	23994
779.547	23844.18
779.881	23820
780.215	23631.75
780.55	23795.59
780.884	23615.03
781.218	23518.08
781.552	23473.79
781.886	23363.28
782.22	23162.61
782.554	23155.15
782.888	23008.72
783.222	22939.57
783.556	22879.45
783.889	22822.06
784.223	22631.78
784.557	22598.56
784.89	22616.86
785.224	22492.35
785.557	22422.74
785.891	22292.13
786.224	22233.14
786.558	22291
786.891	21938.46
787.224	21899.14
787.557	21993.83
787.891	21799.94
788.224	21768.75
788.557	21766.04
788.89	21685.81
789.223	21725.59
789.556	21472.26
789.888	21387.97
790.221	21281.08
790.554	21171.25
790.887	21204.47
791.219	21204.47
791.552	21017.81
791.884	20960.64
792.217	20884.93
792.549	20795.67
792.882	20596.58
793.214	20590.48
793.546	20653.3
793.879	20428.22
794.211	20415.56
794.543	20419.86
794.875	20359.52
795.207	20286.3
795.539	20191.39
795.871	20276.59
796.203	20001.56
796.535	20016.48
796.867	19941.23
797.198	19931.28
797.53	19809.93
797.862	19665.98
798.193	19738.29
798.525	19552.31
798.856	19630.5
799.188	19350.28
799.519	19358.19
799.85	19211.53
800.182	19222.38
800.513	19325.88
800.844	19125.88
801.175	19183.96
801.506	19086.56
801.837	19032.1
802.168	18986.68
802.499	18867.36
802.83	18849.05
803.161	18788.04
803.491	18647.7
803.822	18687.02
804.153	18628.27
804.483	18493.81
804.814	18488.16
805.145	18433.47
805.475	18362.96
805.805	18391.89
806.136	18241.16
806.466	18331.55
806.796	18283.19
807.126	18038
807.457	18032.58
807.787	18107.83
808.117	18026.02
808.447	17965.69
808.777	17897.21
809.107	17913.94
809.436	17739.48
809.766	17775.86
810.096	17713.49
810.426	17719.14
810.755	17649.76
811.085	17562.76
811.414	17588.97
811.744	17443.89
812.073	17440.95
812.403	17392.14
812.732	17401.41
813.061	17359.15
813.39	17193.05
813.719	17174.07
814.049	17240.96
814.378	17025.82
814.707	17088.19
815.036	17085.71
815.365	16984.69
815.693	16810.01
816.022	16838.94
816.351	16841.65
816.68	16618.6
817.008	16765.04
817.337	16537.7
817.665	16488.21
817.994	16673.06
818.322	16528.21
818.651	16414.09
818.979	16340.64
819.307	16493.86
819.636	16398.95
819.964	16328.21
820.292	16330.47
820.62	16369.12
820.948	16202.12
821.276	16228.1
821.604	16283.02
821.932	16278.05
822.259	16203.7
822.587	16298.39
822.915	16168.44
823.243	16226.97
823.57	16164.83
823.898	16200.53
824.225	16099.75
824.553	16215
824.88	16157.6
825.207	16194.21
825.535	16109.92
825.862	16139.75
826.189	16085.74
826.516	16157.37
826.843	16281.89
827.17	16106.98
827.497	16161.21
827.824	16183.13
828.151	16281.66
828.478	16126.86
828.805	16293.19
829.131	16082.8
829.458	16136.13
829.785	16040.76
830.111	16074.89
830.438	16146.75
830.764	16141.78
831.09	16058.39
831.417	15999.41
831.743	16042.12
832.069	16078.73
832.395	15975.23
832.722	16091.16
833.048	16013.42
833.374	16008.68
833.7	15966.19
834.026	15857.49
834.351	15921.45
834.677	15871.05
835.003	15993.99
835.329	15895.01
835.654	15875.35
835.98	15827.66
836.306	15884.38
836.631	15801.45
836.956	15848
837.282	15791.05
837.607	15704.73
837.932	15709.7
838.258	15631.96
838.583	15752.86
838.908	15643.71
839.233	15615.47
839.558	15549.7
839.883	15537.95
840.208	15552.87
840.533	15448.69
840.858	15433.1
841.182	15428.35
841.507	15451.4
841.832	15297.06
842.156	15325.76
842.481	15288.92
842.805	15289.37
843.13	15249.83
843.454	15269.03
843.778	15151.97
844.103	15189.71
844.427	15116.72
844.751	15076.72
845.075	15031.98
845.399	14919.44
845.723	14887.57
846.047	14899.55
846.371	14756.5
846.695	14798.54
847.019	14589.5
847.343	14632.67
847.666	14504.76
847.99	14445.78
848.313	14509.28
848.637	14359
848.96	14347.25
849.284	14344.99
849.607	14258.44
849.931	14223.41
850.254	14095.51
850.577	13982.97
850.9	13934.15
851.223	13882.63
851.546	13810.77
851.869	13735.51
852.192	13841.05
852.515	13684.89
852.838	13617.55
853.161	13679.24
853.483	13607.16
853.806	13496.65
854.129	13545.92
854.451	13451
854.774	13370.55
855.096	13319.03
855.419	13363.77
855.741	13222.99
856.063	13246.26
856.385	13224.79
856.708	13185.92
857.03	13121.97
857.352	13136.43
857.674	13001.52
857.996	12964.69
858.318	12873.39
858.64	12910
858.961	12868.19
859.283	12783
859.605	12796.33
859.926	12831.81
860.248	12750.91
860.57	12731.02
860.891	12627.75
861.212	12636.56
861.534	12564.92
861.855	12586.84
862.176	12582.78
862.498	12574.19
862.819	12544.13
863.14	12430.01
863.461	12470.92
863.782	12486.51
864.103	12419.16
864.424	12434.76
864.745	12347.3
865.065	12279.51
865.386	12238.38
865.707	12286.51
866.027	12314.99
866.348	12199.06
866.668	12184.37
866.989	12107.08
867.309	12139.85
867.63	12139.17
867.95	12155.9
868.27	11989.35
868.59	12075.9
868.91	12076.35
869.23	12098.72
869.55	12014.43
869.87	11947.09
870.19	12002
870.51	11967.88
870.83	11947.99
871.15	11855.11
871.469	11875
871.789	11856.92
872.109	11904.83
872.428	11835.45
872.748	11851.72
873.067	11756.81
873.386	11881.78
873.706	11738.96
874.025	11761.56
874.344	11658.96
874.663	11639.98
874.982	11624.16
875.301	11647.21
875.62	11625.97
875.939	11555.91
876.258	11653.54
876.577	11489.47
876.896	11594.33
877.214	11571.28
877.533	11529.7
877.852	11496.25
878.17	11500.77
878.489	11491.51
878.807	11452.18
879.125	11389.14
879.444	11361.34
879.762	11351.4
880.08	11383.49
880.398	11336.48
880.716	11309.36
881.034	11242.92
881.352	11248.12
881.67	11233.66
881.988	11233.21
882.306	11224.17
882.624	11102.59
882.941	11071.4
883.259	11094.91
883.577	11096.71
883.894	11121.57
884.212	11045.64
884.529	10982.37
884.846	10981.01
885.164	10941.69
885.481	10950.05
885.798	10916.15
886.115	10879.77
886.432	10781.24
886.75	10890.17
887.067	10730.4
887.383	10758.64
887.7	10745.08
888.017	10715.25
888.334	10708.7
888.651	10721.81
888.967	10648.59
889.284	10573.79
889.6	10576.05
889.917	10504.19
890.233	10493.34
890.55	10503.28
890.866	10482.04
891.182	10417.86
891.498	10449.95
891.815	10332.89
892.131	10401.14
892.447	10264.42
892.763	10280.69
893.079	10278.66
893.395	10217.87
893.71	10196.17
894.026	10169.96
894.342	10129.06
894.657	10101.03
894.973	10038.44
895.289	10054.26
895.604	10060.13
895.92	9999.12
896.235	9921.38
896.55	9889.74
896.865	9924.99
897.181	9778.33
897.496	9796.86
897.811	9795.51
898.126	9703.3
898.441	9647.71
898.756	9708.73
899.071	9624.66
899.386	9647.49
899.7	9489.3
900.015	9488.17
900.33	9441.16
900.644	9481.39
900.959	9407.04
901.273	9437.32
901.588	9397.55
901.902	9275.29
902.216	9311.22
902.531	9274.16
902.845	9222.86
903.159	9171.79
903.473	9193.04
903.787	9111.68
904.101	9066.26
904.415	9059.48
904.729	8991.68
905.042	8940.84
905.356	8956.66
905.67	8878.92
905.984	8881.63
906.297	8916.21
906.611	8842.54
906.924	8836.43
907.237	8749.43
907.551	8747.62
907.864	8697
908.177	8691.13
908.491	8631.02
908.804	8575.88
909.117	8563.45
909.43	8516.89
909.743	8472.15
910.056	8468.76
910.368	8430.34
910.681	8351.02
910.994	8340.85
911.307	8357.58
911.619	8237.81
911.932	8287.07
912.244	8243.68
912.557	8155.55
912.869	8128.66
913.181	8107.64
913.494	8133.85
913.806	8024.25
914.118	7998.04
914.43	8005.72
914.742	7960.75
915.054	7967.76
915.366	7918.94
915.678	7817.25
915.99	7879.85
916.302	7769.12
916.613	7776.35
916.925	7718.05
917.236	7704.03
917.548	7631.04
917.859	7652.28
918.171	7536.13
918.482	7566.64
918.794	7599.86
919.105	7479.18
919.416	7435.79
919.727	7504.27
920.038	7423.14
920.349	7321.45
920.66	7338.17
920.971	7289.58
921.282	7271.5
921.593	7194.67
921.903	7138.4
922.214	7189.47
922.525	7113.77
922.835	7053.2
923.146	7041.45
923.456	7083.94
923.767	6990.16
924.077	7006.43
924.387	6939.31
924.697	6950.16
925.008	6852.08
925.318	6836.26
925.628	6848.24
925.938	6815.7
926.248	6754.91
926.558	6735.47
926.867	6684.17
927.177	6610.96
927.487	6624.74
927.796	6608.92
928.106	6603.5
928.416	6583.61
928.725	6530.73
929.034	6496.38
929.344	6481.69
929.653	6510.85
929.962	6424.97
930.271	6424.29
930.581	6365.31
930.89	6316.5
931.199	6270.17
931.508	6249.16
931.817	6284.86
932.125	6208.71
932.434	6222.94
932.743	6185.88
933.051	6139.1
933.36	6106.79
933.669	6058.2
933.977	6076.05
934.286	6100.69
934.594	6066.11
934.902	5961.71
935.21	5969.62
935.519	5957.87
935.827	5899.56
936.135	5907.92
936.443	5824.08
936.751	5840.35
937.059	5791.54
937.367	5773.46
937.674	5757.65
937.982	5759.91
938.29	5719.68
938.597	5714.71
938.905	5632.45
939.213	5675.84
939.52	5624.32
939.827	5594.94
940.135	5552.9
940.442	5587.48
940.749	5558.1
941.056	5524.21
941.363	5463.19
941.67	5486.47
941.977	5468.39
942.284	5385
942.591	5380.93
942.898	5352.46
943.205	5373.02
943.511	5330.09
943.818	5285.57
944.125	5261.39
944.431	5285.34
944.738	5229.3
945.044	5218.45
945.35	5165.12
945.657	5137.1
945.963	5145.68
946.269	5103.2
946.575	5097.78
946.881	5062.97
947.187	5028.85
947.493	4990.89
947.799	5013.03
948.105	4992.47
948.41	4989.98
948.716	4969.19
949.022	4907.5
949.327	4952.92
949.633	4871.11
949.938	4883.77
950.244	4844.45
950.549	4784.11
950.854	4843.32
951.16	4770.1
951.465	4740.5
951.77	4711.8
952.075	4691.01
952.38	4677
952.685	4646.26
952.99	4600.16
953.294	4588.86
953.599	4578.92
953.904	4568.75
954.209	4537.56
954.513	4486.49
954.818	4489.2
955.122	4496.21
955.426	4497.11
955.731	4447.85
956.035	4432.93
956.339	4379.6
956.643	4355.42
956.948	4349.77
957.252	4362.2
957.556	4317.91
957.86	4327.4
958.163	4338.7
958.467	4297.34
958.771	4267.51
959.075	4236.1
959.378	4199.27
959.682	4222.77
959.985	4149.55
960.289	4173.05
960.592	4113.17
960.896	4100.06
961.199	4145.71
961.502	4097.58
961.805	4029.1
962.108	4057.12
962.411	4027.3
962.714	4046.05
963.017	4005.37
963.32	4009.22
963.623	3994.08
963.926	3960.86
964.228	3963.79
964.531	3886.28
964.833	3904.59
965.136	3878.6
965.438	3827.07
965.741	3834.08
966.043	3850.8
966.345	3783.46
966.648	3777.36
966.95	3789.79
967.252	3753.86
967.554	3787.3
967.856	3714.08
968.158	3722.67
968.46	3692.61
968.761	3682.22
969.063	3669.79
969.365	3643.58
969.666	3630.47
969.968	3611.71
970.269	3605.39
970.571	3579.85
970.872	3559.51
971.174	3553.18
971.475	3562.22
971.776	3544.14
972.077	3523.58
972.378	3516.8
972.679	3512.96
972.98	3509.79
973.281	3427.99
973.582	3403.81
973.883	3397.71
974.183	3405.62
974.484	3364.26
974.785	3379.4
975.085	3378.27
975.386	3350.25
975.686	3358.61
975.986	3275.68
976.287	3301.44
976.587	3281.1
976.887	3313.64
977.187	3264.6
977.487	3210.59
977.787	3198.39
978.087	3203.59
978.387	3199.52
978.687	3203.36
978.987	3182.57
979.286	3096.47
979.586	3157.26
979.885	3125.62
980.185	3118.39
980.484	3064.38
980.784	3114.78
981.083	3067.77
981.382	3047.43
981.682	3042.01
981.981	3042.24
982.28	3049.92
982.579	2997.49
982.878	3018.73
983.177	2988.23
983.475	3002.92
983.774	2960.66
984.073	2930.15
984.372	2918.85
984.67	2919.3
984.969	2913.2
985.267	2896.25
985.566	2894.22
985.864	2870.04
986.162	2823.49
986.461	2849.25
986.759	2815.58
987.057	2771.28
987.355	2780.55
987.653	2802.69
987.951	2746.42
988.249	2740.32
988.547	2733.32
988.844	2703.94
989.142	2750.94
989.44	2695.13
989.737	2677.73
990.035	2655.81
990.332	2673.66
990.63	2637.05
990.927	2635.92
991.224	2618.97
991.521	2603.6
991.819	2594.34
992.116	2604.51
992.413	2577.39
992.71	2580.78
993.006	2534.45
993.303	2532.65
993.6	2487
993.897	2512.08
994.193	2459.88
994.49	2480.9
994.787	2454.23
995.083	2493.78
995.379	2475.47
995.676	2438.64
995.972	2425.08
996.268	2422.59
996.565	2403.84
996.861	2395.7
997.157	2354.34
997.453	2383.27
997.749	2344.4
998.044	2340.79
998.34	2316.38
998.636	2319.09
998.932	2328.13
999.227	2283.39
999.523	2289.26
999.818	2261.24
1000.114	2263.73
1000.409	2248.81
1000.704	2229.6
1001	2223.05
1001.295	2204.29
1001.59	2201.58
1001.885	2215.14
1002.18	2160.68
1002.475	2145.08
1002.77	2179.89
1003.065	2121.13
1003.359	2118.87
1003.654	2103.05
1003.949	2120
1004.243	2073.9
1004.538	2055.6
1004.832	2075.48
1005.127	2051.98
1005.421	2028.93
1005.715	2021.25
1006.009	1993.68
1006.304	1985.54
1006.598	1997.52
1006.892	1979.89
1007.186	1985.99
1007.48	1981.02
1007.773	1969.5
1008.067	1955.71
1008.361	1952.32
1008.655	1898.99
1008.948	1910.06
1009.242	1877.97
1009.535	1875.49
1009.829	1853.12
1010.122	1849.5
1010.415	1883.62
1010.708	1859.67
1011.001	1832.78
1011.295	1827.13
1011.588	1799.11
1011.881	1783.96
1012.173	1782.16
1012.466	1821.03
1012.759	1756.39
1013.052	1751.65
1013.344	1770.63
1013.637	1732.44
1013.93	1727.69
1014.222	1723.4
1014.514	1702.16
1014.807	1701.93
1015.099	1706.68
1015.391	1694.93
1015.683	1659
1015.976	1651.99
1016.268	1660.13
1016.56	1646.57
1016.851	1600.92
1017.143	1621.48
1017.435	1619
1017.727	1579.68
1018.018	1601.37
1018.31	1593.69
1018.602	1562.73
1018.893	1530.19
1019.185	1532.22
1019.476	1529.73
1019.767	1530.19
1020.058	1506.91
1020.35	1487.02
1020.641	1495.84
1020.932	1467.14
1021.223	1453.13
1021.514	1461.26
1021.804	1443.63
1022.095	1436.85
1022.386	1437.31
1022.677	1429.17
1022.967	1440.24
1023.258	1404.31
1023.548	1416.29
1023.839	1397.53
1024.129	1371.32
1024.419	1386.91
1024.709	1352.79
1025	1356.18
1025.29	1351.21
1025.58	1360.02
1025.87	1303.53
1026.16	1290.42
1026.449	1304.43
1026.739	1334.48
1027.029	1304.43
1027.319	1250.19
1027.608	1283.19
1027.898	1260.81
1028.187	1246.13
1028.477	1266.92
1028.766	1249.74
1029.055	1254.71
1029.344	1230.53
1029.634	1221.72
1029.923	1205.22
1030.212	1229.18
1030.501	1195.51
1030.79	1196.86
1031.078	1157.99
1031.367	1170.87
1031.656	1181.04
1031.945	1151.66
1032.233	1154.6
1032.522	1139.24
1032.81	1146.24
1033.099	1132
1033.387	1123.19
1033.675	1120.03
1033.963	1087.26
1034.251	1089.07
1034.54	1098.33
1034.828	1093.36
1035.116	1076.86
1035.403	1069.86
1035.691	1033.48
1035.979	1062.63
1036.267	1064.66
1036.554	1036.41
1036.842	1036.41
1037.129	1030.76
1037.417	1003.19
1037.704	1010.43
1037.992	1018.33
1038.279	988.51
1038.566	1014.72
1038.853	1014.72
1039.14	1014.72
