Data from hue_70_FLMS001491_22.txt Node
Date: Mon Feb 06 15:20:20 GMT 2017
User: dcchb
Spectrometer: FLMS00149
Trigger mode: 0
Integration Time (sec): 2.000000E-2
Scans to average: 10
Electric dark correction enabled: true
Nonlinearity correction enabled: false
Boxcar width: 0
XAxis mode: Wavelengths
Number of Pixels in Spectrum: 2048
>>>>>Begin Spectral Data<<<<<
341.393	-21.47
341.776	-21.47
342.16	-21.47
342.543	-70.96
342.927	-59.21
343.31	-70.28
343.693	-75.93
344.077	-75.93
344.46	-59.43
344.843	-51.3
345.226	-29.83
345.61	-20.11
345.993	-13.78
346.376	-10.4
346.759	10.85
347.142	11.98
347.525	48.59
347.908	62.15
348.291	68.25
348.674	93.33
349.057	111.86
349.44	128.13
349.823	137.62
350.206	175.14
350.588	197.06
350.971	209.03
351.354	236.38
351.737	244.74
352.119	251.74
352.502	261.69
352.884	283.38
353.267	278.64
353.65	292.42
354.032	292.42
354.414	309.14
354.797	307.79
355.179	312.99
355.562	317.73
355.944	328.35
356.326	358.18
356.709	336.04
357.091	325.87
357.473	351.63
357.855	328.8
358.238	335.81
358.62	339.88
359.002	373.1
359.384	344.85
359.766	340.56
360.148	328.35
360.53	326.09
360.912	348.92
361.294	347.34
361.676	320.22
362.057	343.49
362.439	334
362.821	338.75
363.203	340.33
363.584	322.93
363.966	331.74
364.348	320.22
364.729	318.64
365.111	312.99
365.493	331.06
365.874	309.37
366.256	321.8
366.637	318.18
367.019	314.57
367.4	295.59
367.781	340.78
368.163	311.18
368.544	315.92
368.925	312.08
369.306	317.96
369.688	300.56
370.069	326.32
370.45	310.5
370.831	313.89
371.212	340.33
371.593	315.02
371.974	325.19
372.355	326.55
372.736	325.64
373.117	323.38
373.498	290.84
373.879	313.21
374.26	312.08
374.641	309.37
375.021	317.51
375.402	313.44
375.783	310.95
376.163	332.19
376.544	310.73
376.925	323.61
377.305	335.13
377.686	326.32
378.066	331.29
378.447	326.55
378.827	335.13
379.208	336.94
379.588	332.19
379.968	338.52
380.349	317.73
380.729	335.13
381.109	321.57
381.489	348.01
381.87	345.3
382.25	316.6
382.63	340.78
383.01	329.93
383.39	359.99
383.77	356.6
384.15	356.37
384.53	350.05
384.91	345.75
385.29	354.79
385.67	350.95
386.049	343.72
386.429	358.86
386.809	340.78
387.189	367.67
387.568	352.76
387.948	357.73
388.328	352.76
388.707	336.94
389.087	354.57
389.466	367.67
389.846	362.93
390.225	358.63
390.605	366.54
390.984	344.85
391.363	385.98
391.743	367
392.122	343.49
392.501	357.28
392.881	370.61
393.26	357.96
393.639	361.8
394.018	362.02
394.397	369.48
394.776	380.55
395.155	374.45
395.534	377.84
395.913	369.93
396.292	384.4
396.671	393.21
397.05	380.55
397.429	396.37
397.808	377.84
398.186	396.6
398.565	390.05
398.944	392.98
399.323	386.43
399.701	385.3
400.08	375.13
400.458	373.78
400.837	377.62
401.215	380.1
401.594	390.05
401.972	402.25
402.351	397.73
402.729	386.2
403.107	391.18
403.486	388.92
403.864	400.67
404.242	407.45
404.62	403.61
404.999	411.74
405.377	395.7
405.755	410.16
406.133	399.99
406.511	404.74
406.889	406.32
407.267	414.23
407.645	437.73
408.023	436.82
408.401	406.99
408.779	441.57
409.156	418.97
409.534	430.72
409.912	441.12
410.29	444.51
410.667	429.82
411.045	445.41
411.422	445.86
411.8	425.98
412.178	447.45
412.555	437.95
412.933	450.38
413.31	458.07
413.687	479.99
414.065	449.03
414.442	469.59
414.819	468.24
415.197	458.97
415.574	493.32
415.951	492.19
416.328	492.87
416.705	482.25
417.082	460.33
417.46	487.9
417.837	475.69
418.214	504.39
418.591	478.86
418.967	493.55
419.344	484.28
419.721	494.45
420.098	491.96
420.475	521.79
420.852	505.07
421.228	509.37
421.605	500.1
421.982	507.56
422.358	498.97
422.735	547.56
423.111	518.4
423.488	514.34
423.864	516.82
424.241	560.44
424.617	540.1
424.994	517.73
425.37	553.88
425.746	535.58
426.123	527.22
426.499	528.12
426.875	554.11
427.251	554.79
427.627	545.3
428.003	546.65
428.379	582.36
428.756	577.16
429.132	583.71
429.507	572.41
429.883	591.17
430.259	583.26
430.635	580.78
431.011	572.64
431.387	582.13
431.763	592.53
432.138	586.2
432.514	602.92
432.89	626.42
433.265	621
433.641	598.18
434.016	611.51
434.392	632.3
434.767	636.37
435.143	617.38
435.518	633.2
435.894	649.47
436.269	663.71
436.644	642.69
437.02	637.5
437.395	685.18
437.77	680.66
438.145	698.74
438.52	677.04
438.895	701.68
439.271	698.29
439.646	712.07
440.021	694.22
440.395	692.86
440.77	691.06
441.145	717.27
441.52	727.66
441.895	729.7
442.27	698.74
442.645	719.08
443.019	739.64
443.394	720.43
443.769	748
444.143	752.97
444.518	741.9
444.892	742.58
445.267	763.14
445.641	742.81
446.016	750.26
446.39	752.3
446.764	768.34
447.139	763.14
447.513	776.48
447.887	776.25
448.262	789.36
448.636	795.01
449.01	809.24
449.384	799.08
449.758	796.36
450.132	801.11
450.506	809.47
450.88	825.29
451.254	837.49
451.628	823.03
452.002	853.76
452.376	843.59
452.75	875.68
453.123	852.41
453.497	873.88
453.871	877.27
454.244	863.25
454.618	886.76
454.992	878.39
455.365	893.76
455.739	926.3
456.112	915.91
456.486	931.95
456.859	939.64
457.232	960.88
457.606	952.07
457.979	962.69
458.352	988.9
458.725	984.83
459.099	974.44
459.472	1024.83
459.845	1002.46
460.218	1022.8
460.591	1032.06
460.964	1020.31
461.337	1043.14
461.71	1095.56
462.083	1084.94
462.456	1080.65
462.829	1088.56
463.201	1121.55
463.574	1110.71
463.947	1151.83
464.32	1169.23
464.692	1184.83
465.065	1175.34
465.438	1205.17
465.81	1227.76
466.183	1246.07
466.555	1295.33
466.928	1290.59
467.3	1290.81
467.672	1277.93
468.045	1339.63
468.417	1337.82
468.789	1354.99
469.161	1398.16
469.534	1428.21
469.906	1427.99
470.278	1424.14
470.65	1507.3
471.022	1531.03
471.394	1539.85
471.766	1545.5
472.138	1554.76
472.51	1613.74
472.882	1647.41
473.253	1678.6
473.625	1690.58
473.997	1747.75
474.369	1776
474.74	1803.12
475.112	1864.36
475.484	1943.9
475.855	1946.84
476.227	1972.15
476.598	2044.24
476.97	2109.1
477.341	2157.01
477.713	2194.29
478.084	2222.54
478.455	2321.52
478.827	2387.73
479.198	2424.34
479.569	2492.14
479.94	2576.88
480.311	2645.58
480.682	2721.51
481.053	2828.63
481.424	2935.52
481.795	2959.92
482.166	3041.28
482.537	3124.21
482.908	3238.78
483.279	3308.39
483.65	3381.83
484.021	3541.15
484.391	3588.38
484.762	3684.87
485.133	3781.14
485.503	3846.68
485.874	4006.22
486.244	4093
486.615	4208.25
486.985	4320.34
487.356	4424.06
487.726	4609.82
488.097	4713.32
488.467	4763.49
488.837	4914.45
489.207	5092.3
489.578	5220.43
489.948	5348.79
490.318	5499.29
490.688	5567.54
491.058	5748.55
491.428	5831.71
491.798	6031.03
492.168	6174.3
492.538	6274.41
492.908	6398.7
493.278	6635.76
493.648	6655.42
494.017	6822.87
494.387	6991.91
494.757	7133.82
495.126	7279.36
495.496	7331.11
495.866	7501.5
496.235	7675.05
496.605	7838.44
496.974	7911.66
497.344	8041.6
497.713	8238.88
498.082	8337.41
498.452	8509.83
498.821	8603.62
499.19	8748.02
499.559	8855.13
499.928	8965.87
500.298	9095.81
500.667	9272.75
501.036	9343.26
501.405	9461.45
501.774	9542.35
502.143	9740.99
502.512	9860.08
502.88	9999.96
503.249	10030.92
503.618	10202.44
503.987	10239.05
504.356	10456.45
504.724	10555.88
505.093	10616.9
505.462	10721.07
505.83	10864.8
506.199	11020.73
506.567	11199.71
506.936	11161.74
507.304	11418.68
507.672	11442.86
508.041	11613.48
508.409	11650.54
508.777	11795.85
509.145	11963.08
509.514	11943.64
509.882	12124.65
510.25	12153.35
510.618	12301.15
510.986	12408.04
511.354	12540.01
511.722	12670.63
512.09	12792.43
512.458	12812.09
512.826	12926.67
513.193	12991.75
513.561	13087.34
513.929	13250.95
514.297	13408.24
514.664	13435.13
515.032	13553.09
515.4	13611.17
515.767	13644.84
516.135	13843.48
516.502	13763.25
516.869	13944.49
517.237	14128.67
517.604	14073.98
517.972	14248.44
518.339	14301.54
518.706	14436.68
519.073	14501.31
519.44	14581.09
519.808	14725.26
520.175	14657.02
520.542	14803.68
520.909	14917.8
521.276	15006.16
521.643	15019.72
522.009	15225.14
522.376	15287.96
522.743	15461.06
523.11	15520.27
523.477	15629.87
523.843	15749.19
524.21	15871.45
524.577	15871.9
524.943	16048.39
525.31	16119.8
525.676	16190.53
526.043	16274.15
526.409	16351.89
526.776	16501.04
527.142	16418.33
527.508	16623.97
527.874	16753.23
528.241	16844.98
528.607	16882.04
528.973	16935.6
529.339	16943.51
529.705	17105.54
530.071	17215.82
530.437	17242.71
530.803	17339.43
531.169	17429.15
531.535	17366.55
531.901	17474.12
532.267	17440.9
532.632	17586.66
532.998	17599.99
533.364	17752.98
533.73	17674.11
534.095	17770.15
534.461	17876.37
534.826	17902.81
535.192	18011.73
535.557	18001.33
535.923	17973.31
536.288	18052.41
536.653	18152.74
537.019	17994.33
537.384	18044.27
537.749	18189.58
538.114	18219.63
538.479	18268.45
538.845	18305.73
539.21	18337.14
539.575	18335.79
539.94	18247.2
540.305	18404.94
540.67	18431.15
541.034	18417.82
541.399	18412.85
541.764	18442.23
542.129	18493.75
542.494	18439.29
542.858	18530.59
543.223	18610.81
543.587	18617.59
543.952	18498.95
544.316	18592.51
544.681	18548.66
545.045	18634.31
545.41	18687.42
545.774	18726.97
546.138	18681.77
546.503	18736.23
546.867	18686.97
547.231	18800.41
547.595	18802.67
547.959	18893.29
548.324	18794.08
548.688	18902.55
549.052	18899.16
549.416	18817.81
549.779	18859.84
550.143	18913.85
550.507	18953.4
550.871	19072.27
551.235	18952.27
551.599	19043.79
551.962	19117.24
552.326	19058.26
552.689	19095.77
553.053	19056.9
553.417	19118.59
553.78	19274.75
554.143	19162.43
554.507	19235.2
554.87	19298.7
555.234	19523.33
555.597	19284.46
555.96	19222.77
556.323	19406.95
556.686	19441.75
557.05	19544.34
557.413	19587.96
557.776	19561.29
558.139	19615.98
558.502	19560.16
558.865	19661.4
559.228	19692.59
559.59	19778.46
559.953	19791.34
560.316	20036.31
560.679	19890.55
561.041	20024.11
561.404	20108.17
561.767	20234.95
562.129	20143.88
562.492	20280.6
562.854	20187.49
563.217	20253.7
563.579	20240.82
563.941	20474.94
564.304	20483.76
564.666	20551.78
565.028	20542.51
565.39	20567.82
565.753	20635.62
566.115	20698.89
566.477	20793.8
566.839	20807.36
567.201	21003.52
567.563	21051.2
567.925	21105.66
568.287	21052.33
568.648	21035.38
569.01	21210.29
569.372	21301.13
569.734	21223.4
570.095	21329.61
570.457	21393.11
570.819	21514.46
571.18	21331.87
571.542	21535.7
571.903	21408.7
572.265	21589.49
572.626	21633.78
572.987	21647.57
573.349	21788.81
573.71	21830.16
574.071	21813.21
574.432	21852.53
574.794	22061.34
575.155	21990.83
575.516	21771.4
575.877	22026.54
576.238	22163.94
576.599	22056.82
576.96	22173.65
577.32	22036.71
577.681	22257.95
578.042	22175.24
578.403	22206.65
578.763	22167.55
579.124	22265.18
579.485	22236.48
579.845	22302.24
580.206	22336.59
580.566	22313.99
580.927	22354.89
581.287	22440.99
581.648	22356.7
582.008	22552.4
582.368	22424.72
582.728	22513.08
583.089	22489.8
583.449	22442.57
583.809	22451.84
584.169	22493.42
584.529	22351.73
584.889	22610.7
585.249	22486.87
585.609	22439.18
585.969	22541.55
586.329	22393.99
586.688	22442.35
587.048	22607.32
587.408	22393.08
587.768	22358.28
588.127	22461.78
588.487	22390.15
588.846	22553.31
589.206	22295.01
589.565	22461.56
589.925	22435.57
590.284	22402.57
590.643	22355.57
591.003	22477.38
591.362	22654.55
591.721	22439.41
592.08	22490.71
592.44	22526.87
592.799	22514.89
593.158	22482.8
593.517	22567.32
593.876	22559.41
594.235	22502.23
594.593	22500.65
594.952	22592.63
595.311	22431.5
595.67	22403.93
596.029	22600.08
596.387	22642.34
596.746	22546.53
597.104	22549.92
597.463	22528.67
597.822	22575
598.18	22507.88
598.538	22429.01
598.897	22614.32
599.255	22447.55
599.613	22862.45
599.972	22566.86
600.33	22695.22
600.688	22561.67
601.046	22660.42
601.404	22772.51
601.762	22695.67
602.12	22878.49
602.478	22865.61
602.836	22694.77
603.194	22603.02
603.552	22871.71
603.91	22661.78
604.268	22780.64
604.625	22744.49
604.983	22784.94
605.341	22752.17
605.698	22813.86
606.056	22775.45
606.413	22854.31
606.771	22822.9
607.128	22954.65
607.485	22746.97
607.843	22802.11
608.2	23070.58
608.557	23072.16
608.914	22934.09
609.272	23114.87
609.629	23101.54
609.986	23238.03
610.343	23088.66
610.7	23298.82
611.057	23316.68
611.414	23097.02
611.771	23215.21
612.127	23376.11
612.484	23344.24
612.841	23456.78
613.198	23298.82
613.554	23367.75
613.911	23511.25
614.267	23490.91
614.624	23475.54
614.98	23447.29
615.337	23599.61
615.693	23692.94
616.05	23531.36
616.406	23667.85
616.762	23642.77
617.118	23573.62
617.475	23694.29
617.831	23784.01
618.187	23822.2
618.543	23763.67
618.899	23879.6
619.255	23845.47
619.611	23781.52
619.967	23896.09
620.323	23943.33
620.678	23795.31
621.034	23713.73
621.39	23796.89
621.746	23669.66
622.101	24117.78
622.457	23849.09
622.812	23866.72
623.168	23921.86
623.523	23959.6
623.879	23911.69
624.234	23888.19
624.589	23951.01
624.945	24073.27
625.3	24080.5
625.655	24037.56
626.01	24091.12
626.365	24061.06
626.72	24033.04
627.075	24098.58
627.43	24037.56
627.785	23973.83
628.14	24063.32
628.495	24064.68
628.85	24016.32
629.205	23932.48
629.559	24095.19
629.914	24007.96
630.269	23985.58
630.623	23939.71
630.978	23889.32
631.332	24046.6
631.687	24097.22
632.041	23942.2
632.396	23967.73
632.75	23912.82
633.104	23845.47
633.459	23868.98
633.813	23901.07
634.167	23813.16
634.521	23830.79
634.875	23809.32
635.229	23778.81
635.583	23586.72
635.937	23765.25
636.291	23674.41
636.645	23626.95
636.999	23707.17
637.352	23706.27
637.706	23627.18
638.06	23695.42
638.413	23654.07
638.767	23539.04
639.121	23602.54
639.474	23439.61
639.828	23511.7
640.181	23539.04
640.534	23586.27
640.888	23503.56
641.241	23420.63
641.594	23369.33
641.947	23451.81
642.301	23371.36
642.654	23432.15
643.007	23438.93
643.36	23309.67
643.713	23328.88
644.066	23441.19
644.419	23243.68
644.771	23139.05
645.124	22921.66
645.477	22767.08
645.83	22727.09
646.182	22614.77
646.535	22644.38
646.888	22688.44
647.24	22584.04
647.593	22619.74
647.945	22672.62
648.298	22490.93
648.65	22461.78
649.002	22348.79
649.355	22474.89
649.707	22449.81
650.059	22540.42
650.411	22881.66
650.763	22865.16
651.115	23158.94
651.467	22985.84
651.819	23041.65
652.171	22953.07
652.523	22867.2
652.875	22899.96
653.227	22979.06
653.578	22950.58
653.93	22940.41
654.282	22959.62
654.633	22751.27
654.985	22856.8
655.337	22966.4
655.688	22864.94
656.039	22968.44
656.391	22760.76
656.742	22827.2
657.094	22868.33
657.445	22919.85
657.796	22800.3
658.147	22823.81
658.498	22848.21
658.849	22853.41
659.2	22830.36
659.551	22786.97
659.902	22885.05
660.253	22939.74
660.604	22838.95
660.955	22814.54
661.306	22972.73
661.656	22866.07
662.007	22802.11
662.358	22860.87
662.708	22845.95
663.059	22770.47
663.409	22740.87
663.76	22854.09
664.11	22934.54
664.461	22876.01
664.811	23078.04
665.161	22844.15
665.511	22789.68
665.862	22837.59
666.212	23007.08
666.562	22852.05
666.912	22852.96
667.262	22772.96
667.612	22740.65
667.962	22850.02
668.312	22803.92
668.662	22925.95
669.011	22776.35
669.361	22757.82
669.711	22803.69
670.06	22718.72
670.41	22686.18
670.76	22747.88
671.109	22681.66
671.459	22747.42
671.808	22610.48
672.157	22660.65
672.507	22538.39
672.856	22588.78
673.205	22613.19
673.554	22734.32
673.904	22575.45
674.253	22737.03
674.602	22663.36
674.951	22291.39
675.3	22217.95
675.649	22611.61
675.998	22561.89
676.346	22497.49
676.695	22580.2
677.044	22440.99
677.393	22510.82
677.741	22514.89
678.09	22398.28
678.438	22333.2
678.787	22470.82
679.135	22461.56
679.484	22233.99
679.832	22412.29
680.181	22261.79
680.529	22330.26
680.877	22128.68
681.225	22138.85
681.573	22328.68
681.922	22113.77
682.27	22026.09
682.618	22015.92
682.966	22016.82
683.314	22056.6
683.661	21900.67
684.009	21867.22
684.357	21770.05
684.705	21810.73
685.053	21834.68
685.4	21743.84
685.748	21619.09
686.095	21597.62
686.443	21522.82
686.79	21545.65
687.138	21553.56
687.485	21620.9
687.832	21509.49
688.18	21426.33
688.527	21475.82
688.874	21382.49
689.221	21251.19
689.568	21281.25
689.915	21138.65
690.262	21081.48
690.609	21120.12
690.956	21031.54
691.303	20968.04
691.65	20903.41
691.997	20868.6
692.344	20767.82
692.69	20643.07
693.037	20768.27
693.383	20524.21
693.73	20549.29
694.077	20427.94
694.423	20493.25
694.769	20401.95
695.116	20353.82
695.462	20215.97
695.808	20089.64
696.155	20225.91
696.501	20073.14
696.847	20098.68
697.193	19924.67
697.539	20023.2
697.885	19846.03
698.231	19714.96
698.577	19754.06
698.923	19745.92
699.269	19593.38
699.614	19497.11
699.96	19445.82
700.306	19434.97
700.651	19378.93
700.997	19246.5
701.342	19305.93
701.688	19276.78
702.033	19163.56
702.379	19144.36
702.724	19105.03
703.069	18980.07
703.415	18857.81
703.76	18882.22
704.105	18898.94
704.45	18770.13
704.795	18709.34
705.14	18615.78
705.485	18636.35
705.83	18427.09
706.175	18600.41
706.52	18478.38
706.865	18401.78
707.209	18461.66
707.554	18311.38
707.899	18270.48
708.243	18187.77
708.588	18176.7
708.932	18058.06
709.277	18070.03
709.621	18016.02
709.966	17977.15
710.31	17947.55
710.654	17858.97
710.998	17864.84
711.342	17770.83
711.687	17724.05
712.031	17644.73
712.375	17597.96
712.719	17616.49
713.063	17634.34
713.407	17481.35
713.75	17564.74
714.094	17500.33
714.438	17484.74
714.782	17452.65
715.125	17295.59
715.469	17368.81
715.812	17230.28
716.156	17109.15
716.499	17183.28
716.843	17217.4
717.186	17110.28
717.53	17179.66
717.873	17197.74
718.216	17179.89
718.559	17029.83
718.902	17004.75
719.246	17007.24
719.589	17043.17
719.932	16944.87
720.275	16893.12
720.617	16927.46
720.96	16851.99
721.303	16846.34
721.646	16833.68
721.989	16810.18
722.331	16773.34
722.674	16748.49
723.016	16726.57
723.359	16681.14
723.701	16755.04
724.044	16826.45
724.386	16587.36
724.729	16718.88
725.071	16536.06
725.413	16572.45
725.755	16629.62
726.097	16501.04
726.439	16431.66
726.782	16385.11
727.124	16514.59
727.465	16454.48
727.807	16424.65
728.149	16460.58
728.491	16325.67
728.833	16370.87
729.175	16327.03
729.516	16340.59
729.858	16232.57
730.199	16248.39
730.541	16286.13
730.882	16230.08
731.224	16258.33
731.565	16151.44
731.906	16275.05
732.248	16226.01
732.589	16077.09
732.93	16139.24
733.271	16093.81
733.612	16084.32
733.953	16125.45
734.294	16103.08
734.635	16116.19
734.976	16134.49
735.317	16033.7
735.658	16075.28
735.999	16165
736.339	16030.31
736.68	16072.57
737.021	15953.03
737.361	16050.2
737.702	16084.55
738.042	16085.68
738.383	16123.19
738.723	15982.4
739.063	15948.96
739.404	16007.04
739.744	16000.71
740.084	15950.99
740.424	15915.74
740.764	16000.26
741.104	15972.01
741.444	15885.91
741.784	15953.7
742.124	15903.08
742.464	15945.34
742.804	15965.46
743.143	16006.13
743.483	15985.79
743.823	15965
744.162	15981.5
744.502	16056.07
744.841	16005.45
745.181	16147.15
745.52	16024.21
745.86	16174.26
746.199	16143.76
746.538	16067.15
746.877	16183.98
747.216	16217.2
747.556	16228.5
747.895	16250.87
748.234	16224.66
748.573	16205.9
748.911	16322.28
749.25	16302.4
749.589	16335.62
749.928	16368.61
750.267	16509.4
750.605	16443.41
750.944	16506.01
751.283	16554.14
751.621	16636.62
751.96	16704.42
752.298	16643.4
752.636	16783.06
752.975	16781.25
753.313	16789.39
753.651	16976.5
753.989	16979.89
754.327	17075.03
754.666	17027.12
755.004	17060.79
755.342	17239.77
755.679	17240.9
756.017	17239.77
756.355	17509.6
756.693	17423.27
757.031	17537.17
757.368	17507.56
757.706	17645.19
758.044	17633.66
758.381	17804.28
758.719	17857.61
759.056	17850.6
759.394	17979.19
759.731	17916.59
760.068	17991.84
760.405	18043.37
760.743	18178.51
761.08	18251.27
761.417	18206.3
761.754	18358.39
762.091	18334.43
762.428	18472.73
762.765	18368.56
763.102	18497.14
763.438	18493.98
763.775	18465.96
764.112	18635.67
764.449	18624.14
764.785	18650.13
765.122	18615.1
765.458	18691.71
765.795	18764.03
766.131	18741.2
766.467	18720.41
766.804	18710.02
767.14	18766.29
767.476	18823.69
767.812	18849.67
768.148	18906.4
768.485	18860.52
768.821	18826.85
769.157	18877.24
769.492	18758.38
769.828	18911.82
770.164	18701.2
770.5	18708.21
770.836	18778.26
771.171	18631.15
771.507	18741.88
771.842	18676.12
772.178	18665.05
772.513	18605.39
772.849	18706.63
773.184	18630.02
773.519	18683.8
773.855	18602.67
774.19	18556.12
774.525	18480.64
774.86	18540.3
775.195	18518.84
775.53	18558.16
775.865	18441.77
776.2	18399.74
776.535	18246.53
776.87	18278.39
777.205	18241.78
777.539	18215.79
777.874	18211.5
778.209	18066.19
778.543	18116.59
778.878	17991.62
779.212	18068.68
779.547	17972.41
779.881	18070.49
780.215	17846.54
780.55	17979.87
780.884	17834.79
781.218	17802.92
781.552	17788.68
781.886	17709.59
782.22	17581.46
782.554	17643.15
782.888	17413.55
783.222	17380.33
783.556	17378.3
783.889	17316.38
784.223	17196.61
784.557	17260.79
784.89	17304.4
785.224	17204.97
785.557	17101.7
785.891	17065.09
786.224	17064.18
786.558	17090.85
786.891	16874.58
787.224	16872.55
787.557	16792.55
787.891	16747.81
788.224	16796.62
788.557	16775.83
788.89	16672.56
789.223	16635.49
789.556	16540.13
789.888	16465.56
790.221	16508.49
790.554	16375.61
790.887	16374.71
791.219	16358.89
791.552	16249.29
791.884	16197.09
792.217	16179.24
792.549	16083.87
792.882	16007.26
793.214	15944.67
793.546	16014.72
793.879	15948.51
794.211	15814.95
794.543	15838.68
794.875	15754.16
795.207	15772.47
795.539	15661.06
795.871	15647.5
796.203	15568.63
796.535	15362.53
796.867	15484.11
797.198	15358.24
797.53	15431.91
797.862	15323.44
798.193	15281.41
798.525	15202.76
798.856	15293.38
799.188	15036.44
799.519	15033.05
799.85	14989.44
800.182	15036.44
800.513	15005.26
800.844	14836.22
801.175	14910.79
801.506	14875.54
801.837	14771.81
802.168	14705.6
802.499	14731.82
802.83	14651.37
803.161	14698.37
803.491	14477.81
803.822	14629.9
804.153	14549.9
804.483	14407.53
804.814	14346.97
805.145	14398.04
805.475	14356.68
805.805	14359.4
806.136	14299.06
806.466	14277.14
806.796	14220.42
807.126	14154.43
807.457	14111.72
807.787	14147.2
808.117	14033.08
808.447	14011.83
808.777	13981.55
809.107	13954.66
809.436	13967.09
809.766	13917.37
810.096	13780.2
810.426	13798.96
810.755	13825.17
811.085	13810.03
811.414	13732.29
811.744	13645.06
812.073	13579.3
812.403	13602.81
812.732	13539.76
813.061	13528.91
813.39	13471.74
813.719	13407.11
814.049	13460.21
814.378	13352.42
814.707	13346.09
815.036	13386.31
815.365	13212.99
815.693	13201.46
816.022	13227
816.351	13221.57
816.68	13104.74
817.008	13148.58
817.337	12990.39
817.665	12891.86
817.994	13037.85
818.322	13023.39
818.651	12982.03
818.979	12888.02
819.307	12965.31
819.636	12869.04
819.964	12802.38
820.292	12796.27
820.62	12885.08
820.948	12747.91
821.276	12742.72
821.604	12727.35
821.932	12774.35
822.259	12832.88
822.587	12700.91
822.915	12688.48
823.243	12742.04
823.57	12683.96
823.898	12736.39
824.225	12643.06
824.553	12674.69
824.88	12681.25
825.207	12776.61
825.535	12655.49
825.862	12703.17
826.189	12738.87
826.516	12718.08
826.843	12772.09
827.17	12736.16
827.497	12751.76
827.824	12722.6
828.151	12762.38
828.478	12742.49
828.805	12641.02
829.131	12699.55
829.458	12663.85
829.785	12680.57
830.111	12612.55
830.438	12758.08
830.764	12733.9
831.09	12713.79
831.417	12620.69
831.743	12622.27
832.069	12705.65
832.395	12614.13
832.722	12672.44
833.048	12647.58
833.374	12667.92
833.7	12564.87
834.026	12573
834.351	12607.58
834.677	12599.67
835.003	12574.81
835.329	12567.81
835.654	12620.01
835.98	12517.86
836.306	12511.31
836.631	12521.7
836.956	12438.32
837.282	12515.15
837.607	12407.58
837.932	12403.74
838.258	12383.86
838.583	12453.01
838.908	12302.95
839.233	12387.47
839.558	12297.76
839.883	12227.48
840.208	12196.06
840.533	12294.37
840.858	12214.37
841.182	12208.49
841.507	12192
841.832	12042.62
842.156	12103.18
842.481	12150.64
842.805	12028.61
843.13	11952.23
843.454	12060.7
843.778	11916.3
844.103	11939.57
844.427	11824.1
844.751	11939.35
845.075	11919.91
845.399	11825.45
845.723	11666.36
846.047	11879.46
846.371	11645.34
846.695	11685.79
847.019	11594.72
847.343	11571.9
847.666	11519.92
847.99	11496.65
848.313	11431.79
848.637	11340.94
848.96	11368.29
849.284	11351.57
849.607	11224.79
849.931	11253.94
850.254	11141.85
850.577	11126.94
850.9	10999.26
851.223	11016.66
851.546	10997.9
851.869	10899.6
852.192	10950.45
852.515	10886.95
852.838	10790.68
853.161	10774.18
853.483	10705.03
853.806	10668.19
854.129	10661.41
854.451	10629.55
854.774	10564.24
855.096	10490.57
855.419	10516.79
855.741	10517.24
856.063	10447.63
856.385	10334.42
856.708	10402.89
857.03	10339.62
857.352	10362.67
857.674	10365.6
857.996	10271.59
858.318	10232.95
858.64	10212.84
858.961	10152.28
859.283	10142.33
859.605	10103.92
859.926	10124.93
860.248	10075.22
860.57	10004.03
860.891	9973.98
861.212	9980.98
861.534	9960.42
861.855	9916.58
862.176	9936.01
862.498	9885.16
862.819	9966.74
863.14	9884.94
863.461	9746.86
863.782	9782.79
864.103	9786.41
864.424	9745.96
864.745	9779.4
865.065	9738.28
865.386	9722.23
865.707	9716.81
866.027	9686.07
866.348	9664.6
866.668	9575.79
866.989	9606.75
867.309	9543.93
867.63	9550.03
867.95	9600.65
868.27	9483.37
868.59	9524.04
868.91	9589.8
869.23	9523.14
869.55	9473.42
869.87	9477.26
870.19	9549.13
870.51	9471.84
870.83	9522.01
871.15	9430.71
871.469	9441.11
871.789	9409.24
872.109	9336.48
872.428	9336.48
872.748	9320.66
873.067	9393.43
873.386	9406.98
873.706	9317.27
874.025	9310.72
874.344	9283.37
874.663	9203.83
874.982	9275.46
875.301	9199.31
875.62	9185.52
875.939	9255.8
876.258	9152.3
876.577	9177.61
876.896	9186.2
877.214	9167.44
877.533	9162.92
877.852	9122.02
878.17	9108.46
878.489	9074.56
878.807	9088.35
879.125	9050.38
879.444	9080.21
879.762	8993.21
880.08	9029.37
880.398	8945.3
880.716	8978.97
881.034	8978.3
881.352	8916.15
881.67	8891.07
881.988	8879.77
882.306	8869.82
882.624	8826.21
882.941	8850.16
883.259	8840.9
883.577	8795.47
883.894	8763.16
884.212	8715.03
884.529	8720
884.846	8724.74
885.164	8669.38
885.481	8658.53
885.798	8664.86
886.115	8582.6
886.432	8583.96
886.75	8559.55
887.067	8588.93
887.383	8564.97
887.7	8533.33
888.017	8481.58
888.334	8586.21
888.651	8487.69
888.967	8470.74
889.284	8404.07
889.6	8378.31
889.917	8325.43
890.233	8344.64
890.55	8272.32
890.866	8305.54
891.182	8275.71
891.498	8316.62
891.815	8210.41
892.131	8214.47
892.447	8250.18
892.763	8174.02
893.079	8122.27
893.395	8019.68
893.71	8033.69
894.026	8091.54
894.342	8008.83
894.657	8001.15
894.973	7974.71
895.289	7961.82
895.604	7945.1
895.92	7870.98
896.235	7860.58
896.55	7949.62
896.865	7796.18
897.181	7821.04
897.496	7801.6
897.811	7730.42
898.126	7716.63
898.441	7710.08
898.756	7718.44
899.071	7630.76
899.386	7654.49
899.7	7515.06
900.015	7579.01
900.33	7516.19
900.644	7525
900.959	7470.99
901.273	7445.68
901.588	7435.28
901.902	7369.52
902.216	7359.35
902.531	7357.55
902.845	7335.63
903.159	7324.1
903.473	7241.84
903.787	7251.56
904.101	7143.99
904.415	7190.55
904.729	7178.34
905.042	7098.12
905.356	7089.31
905.67	7071.68
905.984	7124.78
906.297	7027.16
906.611	6961.17
906.924	6987.16
907.237	6964.34
907.551	6927.28
907.864	6874.85
908.177	6859.03
908.491	6805.92
908.804	6809.99
909.117	6848.18
909.43	6804.34
909.743	6761.86
910.056	6742.42
910.368	6638.92
910.681	6649.77
910.994	6654.97
911.307	6591.24
911.619	6568.87
911.932	6570.9
912.244	6475.76
912.557	6473.95
912.869	6424.24
913.181	6450.23
913.494	6435.31
913.806	6371.13
914.118	6319.38
914.43	6298.59
914.742	6332.26
915.054	6258.82
915.366	6250.46
915.678	6225.15
915.99	6195.54
916.302	6137.92
916.613	6170.91
916.925	6114.19
917.236	6107.41
917.548	6088.88
917.859	6068.32
918.171	6052.95
918.482	6027.86
918.794	6015.21
919.105	5985.15
919.416	5934.76
919.727	5952.16
920.038	5897.47
920.349	5866.29
920.66	5864.48
920.971	5844.14
921.282	5789.9
921.593	5724.6
921.903	5716.01
922.214	5712.17
922.525	5697.48
922.835	5683.01
923.146	5618.84
923.456	5652.73
923.767	5587.65
924.077	5547.65
924.387	5576.58
924.697	5572.96
925.008	5539.06
925.318	5496.35
925.628	5478.95
925.938	5480.08
926.248	5421.78
926.558	5393.53
926.867	5365.28
927.177	5362.8
927.487	5293.87
927.796	5279.41
928.106	5298.39
928.416	5281.44
928.725	5254.33
929.034	5205.29
929.344	5187.66
929.653	5199.86
929.962	5154.89
930.271	5129.36
930.581	5140.2
930.89	5052.75
931.199	5071.73
931.508	5083.48
931.817	5049.81
932.125	5072.63
932.434	5011.39
932.743	4905.41
933.051	4929.14
933.36	4884.84
933.669	4883.49
933.977	4918.51
934.286	4842.58
934.594	4876.71
934.902	4846.65
935.21	4810.49
935.519	4815.01
935.827	4785.41
936.135	4703.83
936.443	4687.56
936.751	4702.93
937.059	4683.72
937.367	4654.79
937.674	4640.78
937.982	4655.92
938.29	4588.58
938.597	4556.94
938.905	4556.26
939.213	4540.67
939.52	4485.08
939.827	4515.81
940.135	4474.01
940.442	4465.65
940.749	4461.13
941.056	4444.4
941.363	4393.56
941.67	4422.03
941.977	4418.41
942.284	4328.25
942.591	4354.01
942.898	4323.05
943.205	4294.12
943.511	4260.45
943.818	4245.09
944.125	4189.04
944.431	4249.15
944.738	4214.35
945.044	4187.23
945.35	4161.47
945.657	4148.37
945.963	4122.38
946.269	4073.57
946.575	4120.8
946.881	4114.47
947.187	4081.7
947.493	4055.03
947.799	4025.43
948.105	4006.9
948.41	3993.79
948.716	3989.27
949.022	3996.05
949.327	3982.95
949.633	3938.88
949.938	3965.77
950.244	3893.23
950.549	3867.69
950.854	3839.22
951.16	3802.84
951.465	3845.77
951.77	3839.9
952.075	3780.24
952.38	3773.46
952.685	3774.14
952.99	3747.92
953.294	3760.35
953.599	3743.86
953.904	3720.58
954.209	3681.94
954.513	3683.52
954.818	3680.58
955.122	3695.95
955.426	3636.97
955.731	3603.07
956.035	3582.28
956.339	3565.33
956.643	3596.29
956.948	3538.21
957.252	3531.43
957.556	3534.37
957.86	3531.21
958.163	3483.52
958.467	3497.99
958.771	3518.55
959.075	3477.42
959.378	3417.09
959.682	3439.23
959.985	3426.8
960.289	3410.08
960.592	3367.37
960.896	3342.96
961.199	3325.34
961.502	3330.76
961.805	3313.81
962.108	3297.09
962.411	3276.98
962.714	3255.28
963.017	3250.31
963.32	3262.29
963.623	3238.11
963.926	3218.9
964.228	3189.07
964.531	3182.52
964.833	3201.27
965.136	3164.44
965.438	3137.54
965.741	3145.45
966.043	3117.21
966.345	3118.34
966.648	3114.49
966.95	3082.63
967.252	3095.51
967.554	3050.54
967.856	3048.73
968.158	3012.35
968.46	3028.85
968.761	3031.11
969.063	2986.59
969.365	3012.12
969.666	2963.76
969.968	2952.92
970.269	2929.64
970.571	2908.62
970.872	2929.19
971.174	2937.32
971.475	2884.44
971.776	2906.82
972.077	2873.37
972.378	2877.89
972.679	2811.9
972.98	2815.97
973.281	2839.02
973.582	2806.93
973.883	2774.84
974.183	2773.94
974.484	2766.48
974.785	2740.72
975.085	2728.52
975.386	2764.67
975.686	2727.16
975.986	2705.01
976.287	2685.58
976.587	2655.52
976.887	2636.54
977.187	2651.68
977.487	2660.04
977.787	2630.44
978.087	2626.6
978.387	2618.46
978.687	2602.19
978.987	2612.59
979.286	2590.67
979.586	2580.27
979.885	2537.79
980.185	2546.83
980.484	2509.31
980.784	2483.1
981.083	2530.78
981.382	2484.23
981.682	2505.92
981.981	2505.24
982.28	2477.67
982.579	2426.15
982.878	2467.73
983.177	2440.84
983.475	2431.35
983.774	2417.11
984.073	2381.86
984.372	2405.13
984.67	2392.48
984.969	2387.73
985.267	2336.89
985.566	2398.58
985.864	2366.27
986.162	2342.76
986.461	2316.1
986.759	2343.44
987.057	2293.27
987.355	2330.79
987.653	2276.32
987.951	2272.26
988.249	2258.7
988.547	2272.71
988.844	2204.91
989.142	2269.54
989.44	2231.81
989.737	2230.22
990.035	2215.31
990.332	2214.18
990.63	2176.44
990.927	2185.25
991.224	2147.51
991.521	2130.57
991.819	2120.62
992.116	2133.05
992.413	2116.78
992.71	2095.76
993.006	2099.61
993.303	2112.71
993.6	2095.54
993.897	2095.54
994.193	2077.91
994.49	2070.68
994.787	2060.74
995.083	2048.31
995.379	2043.34
995.676	2039.27
995.972	2043.11
996.268	2013.96
996.565	1998.59
996.861	1998.59
997.157	1982.77
997.453	1969.44
997.749	1958.59
998.044	1932.38
998.34	1926.28
998.636	1933.06
998.932	1940.06
999.227	1905.94
999.523	1896.9
999.818	1879.27
1000.114	1881.31
1000.409	1877.92
1000.704	1881.08
1001	1884.24
1001.295	1810.57
1001.59	1835.21
1001.885	1852.83
1002.18	1850.12
1002.475	1801.76
1002.77	1782.1
1003.065	1770.35
1003.359	1769.67
1003.654	1783
1003.949	1743.01
1004.243	1726.73
1004.538	1732.61
1004.832	1743.91
1005.127	1708.66
1005.421	1721.54
1005.715	1711.59
1006.009	1726.51
1006.304	1675.21
1006.598	1684.7
1006.892	1656
1007.186	1648.32
1007.48	1669.33
1007.773	1623.91
1008.067	1627.75
1008.361	1615.1
1008.655	1617.36
1008.948	1608.09
1009.242	1621.43
1009.535	1624.14
1009.829	1576
1010.122	1566.06
1010.415	1535.55
1010.708	1570.13
1011.001	1537.81
1011.295	1528.55
1011.588	1551.6
1011.881	1503.01
1012.173	1499.4
1012.466	1497.14
1012.759	1469.11
1013.052	1490.36
1013.344	1503.24
1013.637	1448.32
1013.93	1489.23
1014.222	1428.66
1014.514	1415.33
1014.807	1418.27
1015.099	1438.83
1015.391	1404.48
1015.683	1405.16
1015.976	1412.84
1016.268	1414.2
1016.56	1397.25
1016.851	1393.86
1017.143	1373.98
1017.435	1376.91
1017.727	1330.81
1018.018	1324.26
1018.31	1334.65
1018.602	1317.71
1018.893	1288.33
1019.185	1299.4
1019.476	1307.08
1019.767	1277.93
1020.058	1301.21
1020.35	1281.55
1020.641	1268.67
1020.932	1233.41
1021.223	1280.42
1021.514	1264.83
1021.804	1235.22
1022.095	1227.09
1022.386	1249.91
1022.677	1217.37
1022.967	1217.82
1023.258	1219.85
1023.548	1200.87
1023.839	1195.9
1024.129	1191.61
1024.419	1188.67
1024.709	1194.77
1025	1177.37
1025.29	1135.11
1025.58	1129.91
1025.87	1134.66
1026.16	1112.29
1026.449	1131.72
1026.739	1138.28
1027.029	1135.11
1027.319	1096.47
1027.608	1076.36
1027.898	1081.33
1028.187	1067.09
1028.477	1073.42
1028.766	1064.83
1029.055	1052.85
1029.344	1067.77
1029.634	1069.58
1029.923	1042.01
1030.212	1046.98
1030.501	1021.22
1030.79	1018.28
1031.078	1036.13
1031.367	1031.16
1031.656	987.32
1031.945	1017.15
1032.233	997.71
1032.522	1003.14
1032.81	992.06
1033.099	1006.53
1033.387	956.13
1033.675	952.29
1033.963	996.58
1034.251	948.68
1034.54	936.47
1034.828	950.26
1035.116	908.68
1035.403	931.73
1035.691	912.29
1035.979	907.32
1036.267	890.37
1036.554	896.25
1036.842	905.74
1037.129	890.15
1037.417	900.77
1037.704	875.91
1037.992	877.04
1038.279	881.78
1038.566	884.04
1038.853	884.04
1039.14	884.04
