Data from hue_60_FLMS001491_6.txt Node
Date: Mon Feb 06 15:11:51 GMT 2017
User: dcchb
Spectrometer: FLMS00149
Trigger mode: 0
Integration Time (sec): 2.000000E-2
Scans to average: 10
Electric dark correction enabled: true
Nonlinearity correction enabled: false
Boxcar width: 0
XAxis mode: Wavelengths
Number of Pixels in Spectrum: 2048
>>>>>Begin Spectral Data<<<<<
341.393	5.97
341.776	5.97
342.16	5.97
342.543	-63.85
342.927	-73.8
343.31	-72.44
343.693	-67.92
344.077	-66.79
344.46	-72.22
344.843	-56.62
345.226	-36.74
345.61	-29.5
345.993	-20.69
346.376	3.94
346.759	19.08
347.142	19.76
347.525	41.91
347.908	47.1
348.291	55.01
348.674	120.55
349.057	115.58
349.44	115.58
349.823	134.78
350.206	175.24
350.588	207.55
350.971	232.86
351.354	210.26
351.737	256.82
352.119	257.04
352.502	273.09
352.884	286.19
353.267	273.76
353.65	305.18
354.032	297.94
354.414	314.21
354.797	309.47
355.179	318.28
355.562	341.78
355.944	349.24
356.326	335.23
356.709	350.6
357.091	313.99
357.473	348.56
357.855	327.55
358.238	367.09
358.62	343.37
359.002	359.86
359.384	370.03
359.766	367.09
360.148	363.25
360.53	341.33
360.912	350.6
361.294	358.73
361.676	351.5
362.057	344.27
362.439	335.68
362.821	336.36
363.203	343.59
363.584	324.84
363.966	317.6
364.348	339.75
364.729	345.85
365.111	351.28
365.493	326.64
365.874	326.87
366.256	325.29
366.637	328.68
367.019	311.5
367.4	313.76
367.781	301.56
368.163	332.75
368.544	309.24
368.925	307.89
369.306	306.53
369.688	296.36
370.069	311.05
370.45	307.66
370.831	330.26
371.212	330.94
371.593	330.49
371.974	328
372.355	320.09
372.736	344.5
373.117	328.23
373.498	326.42
373.879	314.44
374.26	324.84
374.641	316.02
375.021	332.29
375.402	346.53
375.783	320.99
376.163	332.07
376.544	355.57
376.925	342.46
377.305	329.36
377.686	336.59
378.066	349.02
378.447	322.58
378.827	361.67
379.208	347.89
379.588	356.93
379.968	344.04
380.349	335.23
380.729	347.43
381.109	373.65
381.489	360.32
381.87	338.4
382.25	373.87
382.63	343.14
383.01	368.68
383.39	351.28
383.77	348.79
384.15	348.34
384.53	346.76
384.91	342.91
385.29	347.66
385.67	370.94
386.049	370.94
386.429	356.7
386.809	346.98
387.189	356.25
387.568	357.6
387.948	351.95
388.328	354.21
388.707	333.88
389.087	338.4
389.466	372.97
389.846	352.63
390.225	365.06
390.605	377.94
390.984	365.96
391.363	384.5
391.743	383.59
392.122	385.63
392.501	370.03
392.881	368.22
393.26	367.77
393.639	365.29
394.018	375.68
394.397	365.96
394.776	370.94
395.155	393.08
395.534	382.91
395.913	386.3
396.292	388.11
396.671	389.24
397.05	381.56
397.429	392.18
397.808	389.69
398.186	389.69
398.565	387.21
398.944	393.53
399.323	401.9
399.701	403.03
400.08	403.7
400.458	391.95
400.837	389.47
401.215	418.39
401.594	407.32
401.972	404.16
402.351	403.7
402.729	402.12
403.107	415
403.486	411.84
403.864	414.1
404.242	423.36
404.62	441.44
404.999	435.12
405.377	408.68
405.755	427.88
406.133	413.87
406.511	437.83
406.889	417.49
407.267	429.01
407.645	433.31
408.023	427.43
408.401	447.09
408.779	445.96
409.156	427.88
409.534	436.25
409.912	452.74
410.29	448.45
410.667	444.83
411.045	450.26
411.422	457.71
411.8	460.88
412.178	470.14
412.555	466.98
412.933	462.01
413.31	474.21
413.687	457.04
414.065	484.38
414.442	482.12
414.819	475.11
415.197	495.68
415.574	476.47
415.951	497.03
416.328	478.5
416.705	497.03
417.082	487.09
417.46	502.46
417.837	512.4
418.214	497.49
418.591	513.08
418.967	512.85
419.344	511.27
419.721	513.98
420.098	535.68
420.475	539.97
420.852	527.54
421.228	541.55
421.605	535
421.982	536.81
422.358	542.91
422.735	529.8
423.111	553.98
423.488	569.35
423.864	534.77
424.241	578.61
424.617	558.5
424.994	564.15
425.37	547.66
425.746	577.48
426.123	567.99
426.499	564.38
426.875	563.7
427.251	582.91
427.627	576.81
428.003	595.56
428.379	597.6
428.756	601.21
429.132	601.89
429.507	591.5
429.883	602.79
430.259	596.69
430.635	603.7
431.011	623.36
431.387	624.94
431.763	650.48
432.138	646.64
432.514	625.62
432.89	647.99
433.265	663.81
433.641	668.56
434.016	648.44
434.392	673.98
434.767	678.73
435.143	668.56
435.518	695.45
435.894	677.6
436.269	705.17
436.644	693.87
437.02	709.01
437.395	697.26
437.77	698.39
438.145	702.45
438.52	734.09
438.895	722.11
439.271	726.86
439.646	741.77
440.021	723.24
440.395	732.28
440.77	753.07
441.145	725.05
441.52	759.17
441.895	740.19
442.27	764.6
442.645	767.99
443.019	799.63
443.394	802.79
443.769	786.07
444.143	798.27
444.518	802.11
444.892	794.2
445.267	800.08
445.641	805.05
446.016	782.68
446.39	816.8
446.764	827.2
447.139	808.67
447.513	787.65
447.887	835.56
448.262	830.81
448.636	817.48
449.01	845.95
449.384	832.39
449.758	864.71
450.132	841.66
450.506	839.4
450.88	888.21
451.254	838.04
451.628	882.34
452.002	847.76
452.376	905.61
452.75	894.54
453.123	901.54
453.497	906.97
453.871	914.88
454.244	937.93
454.618	920.98
454.992	961.2
455.365	943.35
455.739	980.86
456.112	979.06
456.486	988.77
456.859	965.27
457.232	1027.19
457.606	992.62
457.979	1018.38
458.352	1030.58
458.725	1038.72
459.099	1052.5
459.472	1085.49
459.845	1088.21
460.218	1092.5
460.591	1089.79
460.964	1109
461.337	1113.06
461.71	1139.28
462.083	1179.05
462.456	1155.32
462.829	1141.99
463.201	1176.11
463.574	1184.47
463.947	1222.21
464.32	1242.1
464.692	1244.36
465.065	1244.81
465.438	1274.19
465.81	1259.27
466.183	1307.18
466.555	1323
466.928	1366.62
467.3	1352.83
467.672	1408.42
468.045	1423.79
468.417	1411.14
468.789	1449.55
469.161	1468.31
469.534	1519.61
469.906	1542.21
470.278	1568.65
470.65	1568.42
471.022	1572.26
471.394	1649.77
471.766	1661.07
472.138	1694.52
472.51	1745.36
472.882	1810.67
473.253	1831.69
473.625	1853.38
473.997	1891.35
474.369	1905.81
474.74	1965.47
475.112	2014.06
475.484	2065.36
475.855	2125.01
476.227	2157.33
476.598	2234.84
476.97	2280.94
477.341	2347.61
477.713	2389.87
478.084	2472.58
478.455	2554.38
478.827	2600.93
479.198	2712.8
479.569	2744.89
479.94	2831.89
480.311	2903.07
480.682	3021.94
481.053	3124.76
481.424	3246.12
481.795	3290.18
482.166	3390.29
482.537	3441.59
482.908	3633.22
483.279	3694.47
483.65	3809.04
484.021	3936.04
484.391	4023.27
484.762	4123.61
485.133	4166.09
485.503	4305.3
485.874	4475.24
486.244	4566.98
486.615	4732.63
486.985	4882.46
487.356	5005.17
487.726	5117.7
488.097	5289.68
488.467	5404.48
488.837	5614.64
489.207	5759.72
489.578	5928.3
489.948	6042.88
490.318	6255.75
490.688	6338.01
491.058	6519.93
491.428	6674.5
491.798	6848.05
492.168	7006.69
492.538	7174.15
492.908	7357.42
493.278	7535.95
493.648	7714.02
494.017	7883.96
494.387	8051.64
494.757	8154.01
495.126	8381.57
495.496	8537.73
495.866	8683.94
496.235	8872.86
496.605	9036.7
496.974	9178.61
497.344	9346.52
497.713	9522.79
498.082	9717.81
498.452	9861.99
498.821	10073.05
499.19	10180.62
499.559	10310.79
499.928	10536.32
500.298	10737.22
500.667	10898.34
501.036	10957.78
501.405	11165.68
501.774	11290.65
502.143	11487.93
502.512	11654.26
502.88	11811.31
503.249	11963.85
503.618	12129.95
503.987	12257.4
504.356	12430.28
504.724	12611.07
505.093	12669.6
505.462	12898.52
505.83	13093.99
506.199	13146.19
506.567	13445.62
506.936	13531.49
507.304	13748.21
507.672	13880.19
508.041	13976.91
508.409	14154.3
508.777	14347.07
509.145	14515.42
509.514	14554.07
509.882	14785.47
510.25	14966.71
510.618	15086.03
510.986	15128.97
511.354	15365.8
511.722	15547.26
512.09	15782.06
512.458	15796.07
512.826	15996.51
513.193	16045.1
513.561	16286
513.929	16535.26
514.297	16614.35
514.664	16743.61
515.032	16848.24
515.4	17105.86
515.767	17188.35
516.135	17292.75
516.502	17335.69
516.869	17677.15
517.237	17733.87
517.604	17878.05
517.972	18016.57
518.339	18169.56
518.706	18168.89
519.073	18365.04
519.44	18506.5
519.808	18805.48
520.175	18852.26
520.542	19136.09
520.909	19162.76
521.276	19278.46
521.643	19558.23
522.009	19692.46
522.376	19948.5
522.743	20031.21
523.11	20336.29
523.477	20474.59
523.843	20600.01
524.21	20854.24
524.577	21027.34
524.943	21073.9
525.31	21248.13
525.676	21462.36
526.043	21610.15
526.409	21677.04
526.776	21952.52
527.142	22024.6
527.508	22165.84
527.874	22344.37
528.241	22468.89
528.607	22506.85
528.973	22863.23
529.339	22788.88
529.705	23096.21
530.071	23174.86
530.437	23399.71
530.803	23478.35
531.169	23755.41
531.535	23709.98
531.901	23777.1
532.267	23957.66
532.632	24154.27
532.998	24188.84
533.364	24331.66
533.73	24491.21
534.095	24654.37
534.461	24754.02
534.826	24858.2
535.192	24965.09
535.557	25202.15
535.923	25219.55
536.288	25317.63
536.653	25405.53
537.019	25369.15
537.384	25476.72
537.749	25531.4
538.114	25713.77
538.479	25705.19
538.845	25926.2
539.21	25918.97
539.575	26088.45
539.94	26181.78
540.305	26321.67
540.67	26399.63
541.034	26433.08
541.399	26586.52
541.764	26665.61
542.129	26731.37
542.494	26787.64
542.858	26980.41
543.223	26890.24
543.587	27063.79
543.952	27088.65
544.316	27360.51
544.681	27285.48
545.045	27455.87
545.41	27523.67
545.774	27596.66
546.138	27678.92
546.503	27798.69
546.867	27739.03
547.231	27978.8
547.595	27962.98
547.959	28119.59
548.324	28208.85
548.688	28242.97
549.052	28396.41
549.416	28358.9
549.779	28487.94
550.143	28527.48
550.507	28766.57
550.871	28912.33
551.235	28806.57
551.599	29117.3
551.962	29133.34
552.326	29218.77
552.689	29381.02
553.053	29311.87
553.417	29422.83
553.78	29893.1
554.143	29781.01
554.507	29900.33
554.87	29884.28
555.234	30171.51
555.597	30023.26
555.96	30162.7
556.323	30332.63
556.686	30470.26
557.05	30642.46
557.413	30736.69
557.776	30833.86
558.139	30969
558.502	31019.17
558.865	31112.28
559.228	31325.83
559.59	31508.2
559.953	31416
560.316	32015.75
560.679	31801.75
561.041	32076.77
561.404	32213.49
561.767	32401.28
562.129	32353.37
562.492	32611.22
562.854	32643.31
563.217	32759.69
563.579	32851.44
563.941	32989.74
564.304	33162.62
564.666	33479.22
565.028	33411.2
565.39	33603.06
565.753	33681.93
566.115	33926.89
566.477	33947
566.839	34114.23
567.201	34326.43
567.563	34471.73
567.925	34612.75
568.287	34530.72
568.648	34692.97
569.01	34911.95
569.372	35145.39
569.734	34987.2
570.095	35227.42
570.457	35431.71
570.819	35433.74
571.18	35579.5
571.542	35751.93
571.903	35757.35
572.265	35896.56
572.626	35974.97
572.987	35950.79
573.349	36224.23
573.71	36268.07
574.071	36400.72
574.432	36421.97
574.794	36685.24
575.155	36792.58
575.516	36545.8
575.877	36788.51
576.238	36830.99
576.599	37142.63
576.96	37140.59
577.32	37180.82
577.681	37245.9
578.042	37250.42
578.403	37301.72
578.763	37357.08
579.124	37532.9
579.485	37545.78
579.845	37677.98
580.206	37696.28
580.566	37816.05
580.927	37762.5
581.287	37899.44
581.648	37778.54
582.008	38069.61
582.368	37962.49
582.728	37969.95
583.089	38072.09
583.449	37957.74
583.809	38015.82
584.169	38212.65
584.529	38147.8
584.889	38262.82
585.249	38053.56
585.609	38146.44
585.969	38303.05
586.329	38170.39
586.688	38157.97
587.048	38299.43
587.408	38200.9
587.768	38282.26
588.127	38218.75
588.487	38240.68
588.846	38370.84
589.206	38336.27
589.565	38234.8
589.925	38565.41
590.284	38254.91
590.643	38489.48
591.003	38442.93
591.362	38534.23
591.721	38675.69
592.08	38436.83
592.44	38635.02
592.799	38705.52
593.158	38474.79
593.517	38615.81
593.876	38764.05
594.235	38737.61
594.593	38649.03
594.952	38775.8
595.311	38613.32
595.67	38853.99
596.029	39109.13
596.387	39004.95
596.746	39058.73
597.104	38764.05
597.463	38999.53
597.822	39035.46
598.18	38902.8
598.538	38893.99
598.897	39159.52
599.255	38806.54
599.613	39496.69
599.972	39232.06
600.33	39290.59
600.688	39318.16
601.046	39397.71
601.404	39541.66
601.762	39347.31
602.12	39571.94
602.478	39699.85
602.836	39560.41
603.194	39486.74
603.552	39558.83
603.91	39427.76
604.268	39616.68
604.625	39570.36
604.983	39813.74
605.341	39649
605.698	39827.3
606.056	39959.5
606.413	40038.37
606.771	40228.19
607.128	40228.87
607.485	40012.61
607.843	40150
608.2	40261.87
608.557	40410.56
608.914	40264.8
609.272	40516.1
609.629	40551.35
609.986	40799.03
610.343	40616.66
610.7	40862.75
611.057	40738.01
611.414	40747.28
611.771	40850.1
612.127	41102.29
612.484	41052.13
612.841	41049.64
613.198	41081.5
613.554	41090.09
613.911	41313.36
614.267	41302.52
614.624	41191.11
614.98	41552.23
615.337	41437.88
615.693	41518.78
616.05	41484.88
616.406	41733.24
616.762	41662.05
617.118	41679
617.475	41655.05
617.831	41893.01
618.187	41836.29
618.543	41941.82
618.899	42167.35
619.255	42030.86
619.611	41996.06
619.967	42260
620.323	42238.99
620.678	42096.62
621.034	42166
621.39	42199.44
621.746	42205.99
622.101	42662.25
622.457	42296.39
622.812	42441.02
623.168	42589.26
623.523	42594.91
623.879	42710.61
624.234	42334.35
624.589	42623.38
624.945	42574.35
625.3	42690.73
625.655	42655.02
626.01	42719.65
626.365	42600.11
626.72	42678.52
627.075	42615.48
627.43	42566.44
627.785	42684.85
628.14	42782.7
628.495	42696.83
628.85	42687.11
629.205	42558.53
629.559	42845.75
629.914	42548.36
630.269	42690.05
630.623	42505.42
630.978	42456.38
631.332	42719.43
631.687	42748.35
632.041	42609.37
632.396	42661.8
632.75	42388.14
633.104	42566.21
633.459	42467.46
633.813	42409.83
634.167	42490.73
634.521	42343.62
634.875	42458.64
635.229	42318.53
635.583	42294.35
635.937	42287.57
636.291	42254.36
636.645	42322.83
636.999	42032.21
637.352	42305.43
637.706	42049.84
638.06	42214.81
638.413	42147.47
638.767	42180.68
639.121	42021.37
639.474	41846.68
639.828	42017.98
640.181	42014.81
640.534	42064.3
640.888	41903.18
641.241	41631.32
641.594	41884.42
641.947	41855.5
642.301	41790.86
642.654	41709.06
643.007	41768.27
643.36	41806.68
643.713	41698.89
644.066	41748.83
644.419	41540.02
644.771	41286.02
645.124	40942.07
645.477	40883.32
645.83	40604.91
646.182	40512.48
646.535	40506.15
646.888	40575.98
647.24	40208.76
647.593	40500.5
647.945	40468.19
648.298	40175.31
648.65	40199.04
649.002	39982.78
649.355	40298.47
649.707	40179.83
650.059	40369.88
650.411	40725.58
650.763	40921.73
651.115	41290.54
651.467	41024.56
651.819	41109.75
652.171	40960.6
652.523	40969.42
652.875	40920.38
653.227	40708.86
653.578	40996.31
653.93	40918.8
654.282	40777.33
654.633	40723.32
654.985	40876.99
655.337	40724.9
655.688	40661.18
656.039	40827.73
656.391	40353.16
656.742	40604
657.094	40590.22
657.445	40664.34
657.796	40586.6
658.147	40526.72
658.498	40447.85
658.849	40551.57
659.2	40541.41
659.551	40412.82
659.902	40557.45
660.253	40358.59
660.604	40584.12
660.955	40256.89
661.306	40582.08
661.656	40342.54
662.007	40495.76
662.358	40382.09
662.708	40320.85
663.059	40480.62
663.409	40168.08
663.76	40476.55
664.11	40384.12
664.461	40447.85
664.811	40450.11
665.161	40331.24
665.511	40252.6
665.862	40335.31
666.212	40410.56
666.562	40295.08
666.912	40183.9
667.262	40236.78
667.612	40208.08
667.962	40292.82
668.312	40147.97
668.662	40365.82
669.011	40337.12
669.361	40231.36
669.711	40118.82
670.06	39983.68
670.41	39992.04
670.76	40043.34
671.109	40194.75
671.459	40041.08
671.808	39957.92
672.157	40056.67
672.507	39872.04
672.856	39819.84
673.205	39851.03
673.554	39884.93
673.904	39755.44
674.253	40000.63
674.602	39931.93
674.951	39269.57
675.3	39189.58
675.649	39788.21
675.998	39581.43
676.346	39762.44
676.695	39887.19
677.044	39594.54
677.393	39807.87
677.741	39805.83
678.09	39712.05
678.438	39549.12
678.787	39689.22
679.135	39644.25
679.484	39394.54
679.832	39484.26
680.181	39350.7
680.529	39453.07
680.877	39320.87
681.225	39251.04
681.573	39512.28
681.922	39170.82
682.27	39156.36
682.618	39057.83
682.966	39014.21
683.314	39022.58
683.661	38957.94
684.009	38800.89
684.357	38816.03
684.705	38823.71
685.053	38800.89
685.4	38616.71
685.748	38437.73
686.095	38421.69
686.443	38351.86
686.79	38124.97
687.138	38388.47
687.485	38310.5
687.832	38153.67
688.18	38237.29
688.527	37983.73
688.874	37957.07
689.221	37821.25
689.568	37833.91
689.915	37797.52
690.262	37675.49
690.609	37576.51
690.956	37411.77
691.303	37280.25
691.65	37237.31
691.997	37227.82
692.344	37033.93
692.69	37001.84
693.037	37032.12
693.383	36716.65
693.73	36936.3
694.077	36695.86
694.423	36675.97
694.769	36573.15
695.116	36498.57
695.462	36437.56
695.808	36297.45
696.155	36360.95
696.501	36027.4
696.847	36037.12
697.193	35936.33
697.539	35953.73
697.885	35647.07
698.231	35667.41
698.577	35580.63
698.923	35600.07
699.269	35393.97
699.614	35348.55
699.96	35329.57
700.306	35174.99
700.651	35098.16
700.997	35037.6
701.342	34997.37
701.688	34888.9
702.033	34845.96
702.379	34742.69
702.724	34612.52
703.069	34798.28
703.415	34341.12
703.76	34375.24
704.105	34322.36
704.45	34313.09
704.795	33978.41
705.14	33919.88
705.485	34054.12
705.83	33739.55
706.175	33961.24
706.52	33725.99
706.865	33653.68
707.209	33623.17
707.554	33514.25
707.899	33496.62
708.243	33363.97
708.588	33374.81
708.932	33064.77
709.277	33070.19
709.621	32915.17
709.966	32971.89
710.31	32926.24
710.654	32663.65
710.998	32752.68
711.342	32807.6
711.687	32610.54
712.031	32510.66
712.375	32376.42
712.719	32431.79
713.063	32441.51
713.407	32500.49
713.75	32212.13
714.094	32108.41
714.438	31925.81
714.782	32042.42
715.125	31915.64
715.469	31944.12
715.812	31729.43
716.156	31648.98
716.499	31705.48
716.843	31742.77
717.186	31427.75
717.53	31752.94
717.873	31577.57
718.216	31477.24
718.559	31343.68
718.902	31162.67
719.246	31243.12
719.589	31172.61
719.932	31020.53
720.275	31047.87
720.617	30937.82
720.96	31031.15
721.303	30889.46
721.646	30988.89
721.989	30781.21
722.331	30859.4
722.674	30747.31
723.016	30779.4
723.359	30602.23
723.701	30681.55
724.044	30574.44
724.386	30346.87
724.729	30394.33
725.071	30418.06
725.413	30351.39
725.755	30381.22
726.097	30150.27
726.439	29986.88
726.782	29993.66
727.124	30210.38
727.465	30012.87
727.807	29922.7
728.149	30005.19
728.491	29751.18
728.833	29870.95
729.175	29745.08
729.516	29811.07
729.858	29566.33
730.199	29672.54
730.541	29611.75
730.882	29638.42
731.224	29583.5
731.565	29407.69
731.906	29388.48
732.248	29453.79
732.589	29379.89
732.93	29181.03
733.271	29054.93
733.612	29174.92
733.953	29195.72
734.294	29171.31
734.635	29028.71
734.976	29047.92
735.317	28847.02
735.658	28951.88
735.999	28902.62
736.339	28873.92
736.68	28833.24
737.021	28756.4
737.361	28670.31
737.702	28764.09
738.042	28748.5
738.383	28568.39
738.723	28675.28
739.063	28628.05
739.404	28642.28
739.744	28485
740.084	28319.35
740.424	28427.15
740.764	28282.29
741.104	28426.92
741.444	28263.31
741.784	28113.26
742.124	28186.02
742.464	28090.43
742.804	28048.63
743.143	28101.73
743.483	28054.5
743.823	27941.06
744.162	27865.13
744.502	27938.8
744.841	27667.62
745.181	27811.12
745.52	27720.5
745.86	27690.22
746.199	27592.59
746.538	27612.48
746.877	27606.15
747.216	27614.06
747.556	27442.77
747.895	27521.41
748.234	27232.83
748.573	27241.19
748.911	27272.6
749.25	27254.75
749.589	27153.51
749.928	27226.95
750.267	27169.78
750.605	27037.13
750.944	27007.3
751.283	27052.27
751.621	26961.65
751.96	26874.65
752.298	26815.44
752.636	26803.46
752.975	26621.55
753.313	26538.84
753.651	26676.46
753.989	26588.55
754.327	26588.55
754.666	26393.53
755.004	26437.37
755.342	26436.01
755.679	26363.7
756.017	26197.15
756.355	26261.1
756.693	26109.24
757.031	26090.49
757.368	25859.08
757.706	26050.26
758.044	25867.44
758.381	25868.57
758.719	25786.77
759.056	25741.57
759.394	25645.07
759.731	25561.23
760.068	25598.75
760.405	25396.72
760.743	25335.7
761.08	25293.22
761.417	25217.74
761.754	25158.99
762.091	25108.82
762.428	25044.86
762.765	24774.59
763.102	24932.1
763.438	24658.43
763.775	24662.28
764.112	24723.29
764.449	24629.28
764.785	24533.24
765.122	24381.38
765.458	24189.29
765.795	24341.83
766.131	24186.81
766.467	24234.94
766.804	24008.06
767.14	23954.05
767.476	23890.77
767.812	23711.57
768.148	23815.29
768.485	23666.14
768.821	23551.8
769.157	23481.74
769.492	23366.94
769.828	23456.66
770.164	23125.37
770.5	23139.6
770.836	23100.73
771.171	22948.2
771.507	22957.91
771.842	22750.24
772.178	22762.44
772.513	22693.74
772.849	22591.14
773.184	22531.48
773.519	22495.78
773.855	22469.79
774.19	22277.48
774.525	22190.02
774.86	22338.49
775.195	22217.59
775.53	22006.53
775.865	22035.9
776.2	21905.06
776.535	21702.81
776.87	21686.53
777.205	21636.59
777.539	21608.57
777.874	21525.18
778.209	21323.83
778.543	21287.9
778.878	21183.04
779.212	21130.84
779.547	21097.17
779.881	21170.62
780.215	20903.73
780.55	20979.21
780.884	20749.61
781.218	20676.62
781.552	20717.07
781.886	20586.22
782.22	20484.98
782.554	20497.19
782.888	20269.17
783.222	20112.11
783.556	20088.61
783.889	20096.97
784.223	19975.84
784.557	19868.28
784.89	19901.95
785.224	19758.45
785.557	19655.4
785.891	19676.42
786.224	19574.5
786.558	19649.07
786.891	19388.74
787.224	19307.61
787.557	19292.7
787.891	19306.94
788.224	19195.53
788.557	19203.66
788.89	19172.7
789.223	19195.98
789.556	18930.45
789.888	18880.96
790.221	18776.1
790.554	18584.24
790.887	18672.83
791.219	18458.14
791.552	18453.85
791.884	18403.68
792.217	18355.77
792.549	18225.38
792.882	18169.34
793.214	18166.63
793.546	18099.28
793.879	18086.18
794.211	17958.04
794.543	18027.2
794.875	17834.66
795.207	17907.2
795.539	17834.43
795.871	17843.47
796.203	17618.84
796.535	17539.3
796.867	17503.82
797.198	17432.86
797.53	17463.82
797.862	17274.45
798.193	17301.34
798.525	17302.69
798.856	17290.94
799.188	17009.82
799.519	17128.24
799.85	16947.45
800.182	16968.69
800.513	16903.61
800.844	16879.43
801.175	16892.99
801.506	16852.54
801.837	16743.61
802.168	16735.48
802.499	16688.47
802.83	16577.29
803.161	16560.57
803.491	16496.16
803.822	16473.11
804.153	16329.16
804.483	16321.93
804.814	16281.03
805.145	16254.59
805.475	16202.38
805.805	16151.09
806.136	16041.26
806.466	16153.57
806.796	16027.93
807.126	15890.08
807.457	15944.31
807.787	15859.34
808.117	15760.14
808.447	15672
808.777	15712.91
809.107	15729.85
809.436	15516.98
809.766	15633.81
810.096	15590.88
810.426	15423.2
810.755	15558.11
811.085	15417.09
811.414	15378.9
811.744	15322.63
812.073	15230.21
812.403	15272.24
812.732	15158.12
813.061	15147.27
813.39	15109.98
813.719	15071.12
814.049	15118.35
814.378	15038.35
814.707	14965.81
815.036	14952.7
815.365	14967.84
815.693	14794.29
816.022	14804.46
816.351	14646.72
816.68	14665.7
817.008	14749.32
817.337	14589.55
817.665	14577.34
817.994	14575.08
818.322	14551.13
818.651	14498.93
818.979	14418.02
819.307	14506.38
819.636	14437.91
819.964	14257.58
820.292	14386.16
820.62	14335.77
820.948	14291.25
821.276	14372.38
821.604	14240.63
821.932	14317.69
822.259	14314.3
822.587	14253.96
822.915	14225.71
823.243	14232.72
823.57	14233.4
823.898	14274.53
824.225	14153.63
824.553	14138.03
824.88	14269.55
825.207	14295.77
825.535	14204.7
825.862	14249.22
826.189	14157.92
826.516	14261.64
826.843	14266.62
827.17	14221.42
827.497	14209.22
827.824	14207.86
828.151	14233.4
828.478	14238.37
828.805	14199.95
829.131	14193.62
829.458	14159.27
829.785	14181.42
830.111	14165.15
830.438	14184.13
830.764	14096.45
831.09	14187.52
831.417	14070.92
831.743	14178.48
832.069	14066.85
832.395	14096
832.722	14201.76
833.048	14130.12
833.374	14041.09
833.7	13980.52
834.026	14027.3
834.351	13966.74
834.677	14031.14
835.003	13971.03
835.329	14000.63
835.654	13978.94
835.98	13885.84
836.306	13917.7
836.631	13873.41
836.956	13905.04
837.282	13918.15
837.607	13820.98
837.932	13716.12
838.258	13841.99
838.583	13785.95
838.908	13728.1
839.233	13728.33
839.558	13645.84
839.883	13587.54
840.208	13613.07
840.533	13645.84
840.858	13591.15
841.182	13587.54
841.507	13635.9
841.832	13461.67
842.156	13480.87
842.481	13554.32
842.805	13469.12
843.13	13326.75
843.454	13436.13
843.778	13390.48
844.103	13291.95
844.427	13238.85
844.751	13320.65
845.075	13239.3
845.399	13094.9
845.723	13119.75
846.047	13120.66
846.371	12978.29
846.695	13014.22
847.019	12943.26
847.343	12878.18
847.666	12796.37
847.99	12701.46
848.313	12763.15
848.637	12620.11
848.96	12618.07
849.284	12576.72
849.607	12442.71
849.931	12505.53
850.254	12367.01
850.577	12383.95
850.9	12219.21
851.223	12266.67
851.546	12184.64
851.869	12070.74
852.192	12152.55
852.515	11950.52
852.838	12028.26
853.161	11974.93
853.483	11878.43
853.806	11800.92
854.129	11820.35
854.451	11823.06
854.774	11769.51
855.096	11780.35
855.419	11725.44
855.741	11669.62
856.063	11665.33
856.385	11603.86
856.708	11536.97
857.03	11477.09
857.352	11559.34
857.674	11406.13
857.996	11425.34
858.318	11346.02
858.64	11427.37
858.961	11316.86
859.283	11258.56
859.605	11242.97
859.926	11179.69
860.248	11144.89
860.57	11156.87
860.891	11078.9
861.212	11057.66
861.534	11091.78
861.855	11108.96
862.176	11113.48
862.498	11043.65
862.819	11043.65
863.14	10943.54
863.461	10866.93
863.782	10912.81
864.103	10859.47
864.424	10846.82
864.745	10850.89
865.065	10746.03
865.386	10742.64
865.707	10738.57
866.027	10733.15
866.348	10777.22
866.668	10728.63
866.989	10685.47
867.309	10631.68
867.63	10680.5
867.95	10637.33
868.27	10633.27
868.59	10620.16
868.91	10601.85
869.23	10580.16
869.55	10581.97
869.87	10564.34
870.19	10545.13
870.51	10499.48
870.83	10506.94
871.15	10430.33
871.469	10378.13
871.789	10417.23
872.109	10438.92
872.428	10324.35
872.748	10412.48
873.067	10422.42
873.386	10365.48
873.706	10311.01
874.025	10341.97
874.344	10277.57
874.663	10313.05
874.982	10370
875.301	10233.05
875.62	10292.71
875.939	10170.23
876.258	10137.69
876.577	10097.01
876.896	10151.02
877.214	10146.72
877.533	10167.52
877.852	10035.32
878.17	10061.53
878.489	10146.27
878.807	10074.86
879.125	10033.96
879.444	10024.92
879.762	10002.1
880.08	10035.54
880.398	9968.42
880.716	9975.43
881.034	9926.84
881.352	9920.29
881.67	9961.42
881.988	9924.58
882.306	9839.84
882.624	9783.12
882.941	9813.4
883.259	9756
883.577	9754.64
883.894	9685.72
884.212	9736.57
884.529	9655.21
884.846	9675.1
885.164	9655.89
885.481	9636.68
885.798	9671.71
886.115	9542.67
886.432	9556.91
886.75	9550.81
887.067	9562.79
887.383	9516.46
887.7	9461.77
888.017	9425.84
888.334	9434.88
888.651	9368.21
888.967	9343.81
889.284	9310.36
889.6	9323.7
889.917	9218.16
890.233	9269.01
890.55	9252.51
890.866	9254.54
891.182	9211.83
891.498	9187.43
891.815	9076.47
892.131	9168.22
892.447	9028.79
892.763	9092.74
893.079	9005.96
893.395	9034.44
893.71	8994.66
894.026	8947.66
894.342	8913.31
894.657	8908.57
894.973	8895.01
895.289	8774.56
895.604	8870.6
895.92	8850.04
896.235	8749.25
896.55	8666.99
896.865	8678.06
897.181	8666.99
897.496	8633.09
897.811	8604.62
898.126	8531.85
898.441	8516.71
898.756	8513.1
899.071	8454.57
899.386	8444.4
899.7	8411.4
900.015	8323.27
900.33	8359.65
900.644	8289.82
900.959	8311.07
901.273	8282.14
901.588	8241.24
901.902	8201.92
902.216	8207.11
902.531	8174.12
902.845	8135.93
903.159	8048.47
903.473	8025.2
903.787	8008.93
904.101	8037.63
904.415	7945.43
904.729	7910.85
905.042	7917.4
905.356	7813.68
905.67	7869.72
905.984	7820.68
906.297	7843.73
906.611	7805.32
906.924	7744.53
907.237	7786.56
907.551	7702.27
907.864	7664.3
908.177	7656.85
908.491	7623.85
908.804	7544.76
909.117	7528.26
909.43	7502.73
909.743	7432.9
910.056	7405.78
910.368	7358.55
910.681	7347.02
910.994	7341.15
911.307	7275.39
911.619	7262.96
911.932	7263.41
912.244	7213.02
912.557	7235.39
912.869	7145.45
913.181	7142.06
913.494	7133.47
913.806	7013.25
914.118	7050.31
914.43	6948.39
914.742	6979.8
915.054	6946.13
915.366	6944.1
915.678	6899.35
915.99	6911.1
916.302	6826.36
916.613	6846.02
916.925	6760.37
917.236	6807.83
917.548	6741.39
917.859	6698.45
918.171	6640.6
918.482	6663.2
918.794	6647.38
919.105	6631.11
919.416	6537.1
919.727	6536.65
920.038	6491
920.349	6483.54
920.66	6413.49
920.971	6490.1
921.282	6433.38
921.593	6364.45
921.903	6316.32
922.214	6331.68
922.525	6251.91
922.835	6251.69
923.146	6272.02
923.456	6217.11
923.767	6164
924.077	6139.82
924.387	6171.24
924.697	6106.38
925.008	6031.8
925.318	6031.8
925.628	6072.93
925.938	6044.46
926.248	5959.49
926.558	5979.38
926.867	5946.84
927.177	5895.54
927.487	5889.21
927.796	5865.03
928.106	5795.43
928.416	5785.71
928.725	5792.49
929.034	5754.3
929.344	5771.47
929.653	5791.81
929.962	5701.42
930.271	5631.82
930.581	5677.46
930.89	5648.76
931.199	5626.62
931.508	5557.01
931.817	5593.85
932.125	5517.69
932.434	5493.51
932.743	5420.75
933.051	5438.83
933.36	5447.41
933.669	5345.27
933.977	5370.35
934.286	5325.16
934.594	5356.57
934.902	5318.38
935.21	5294.65
935.519	5256.01
935.827	5253.97
936.135	5192.28
936.443	5173.75
936.751	5150.02
937.059	5171.71
937.367	5138.27
937.674	5105.95
937.982	5072.96
938.29	5046.75
938.597	5063.92
938.905	5004.94
939.213	4960.42
939.52	4977.37
939.827	5013.3
940.135	4917.26
940.442	4925.39
940.749	4908.9
941.056	4944.15
941.363	4818.28
941.67	4867.09
941.977	4794.1
942.284	4769.69
942.591	4769.69
942.898	4744.38
943.205	4731.95
943.511	4759.07
943.818	4727.66
944.125	4646.76
944.431	4649.02
944.738	4642.24
945.044	4595.68
945.35	4562.92
945.657	4573.99
945.963	4544.39
946.269	4552.3
946.575	4524.27
946.881	4504.84
947.187	4459.42
947.493	4475.24
947.799	4459.19
948.105	4411.06
948.41	4420.77
948.716	4422.81
949.022	4337.16
949.327	4361.11
949.633	4316.6
949.938	4301.45
950.244	4300.55
950.549	4300.78
950.854	4219.2
951.16	4239.54
951.465	4212.64
951.77	4157.05
952.075	4145.07
952.38	4189.14
952.685	4159.54
952.99	4105.3
953.294	4108.24
953.599	4063.27
953.904	4045.64
954.209	4044.29
954.513	4019.2
954.818	4061.69
955.122	3993.21
955.426	3962.48
955.731	3954.8
956.035	3975.81
956.339	3912.09
956.643	3902.6
956.948	3909.83
957.252	3852.88
957.556	3874.12
957.86	3870.51
958.163	3856.49
958.467	3804.29
958.771	3829.83
959.075	3804.52
959.378	3727.01
959.682	3800.9
959.985	3710.06
960.289	3752.99
960.592	3720
960.896	3708.48
961.199	3642.94
961.502	3687.69
961.805	3673.9
962.108	3588.25
962.411	3562.94
962.714	3601.81
963.017	3592.77
963.32	3578.76
963.623	3540.57
963.926	3536.96
964.228	3500.8
964.531	3464.19
964.833	3517.52
965.136	3444.98
965.438	3437.97
965.741	3434.36
966.043	3428.03
966.345	3429.84
966.648	3396.85
966.95	3369.95
967.252	3337.19
967.554	3341.93
967.856	3351.42
968.158	3321.59
968.46	3307.13
968.761	3276.17
969.063	3264.42
969.365	3261.48
969.666	3225.1
969.968	3196.17
970.269	3230.3
970.571	3225.78
970.872	3209.05
971.174	3187.59
971.475	3188.04
971.776	3140.81
972.077	3126.57
972.378	3129.73
972.679	3087.02
972.98	3114.37
973.281	3114.82
973.582	3060.36
973.883	3012.22
974.183	2983.07
974.484	3014.93
974.785	2993.01
975.085	2963.86
975.386	3004.77
975.686	2988.04
975.986	2936.29
976.287	2922.73
976.587	2907.37
976.887	2951.21
977.187	2916.63
977.487	2876.86
977.787	2905.79
978.087	2907.59
978.387	2846.35
978.687	2852.68
978.987	2826.47
979.286	2800.25
979.586	2814.26
979.885	2785.79
980.185	2790.76
980.484	2747.82
980.784	2737.2
981.083	2736.75
981.382	2751.66
981.682	2718.67
981.981	2719.12
982.28	2684.1
982.579	2653.81
982.878	2645.45
983.177	2659.92
983.475	2703.53
983.774	2644.55
984.073	2621.5
984.372	2614.72
984.67	2602.29
984.969	2603.42
985.267	2581.27
985.566	2547.83
985.864	2554.83
986.162	2562.07
986.461	2525.46
986.759	2523.65
987.057	2479.81
987.355	2517.09
987.653	2451.56
987.951	2470.99
988.249	2494.27
988.547	2458.11
988.844	2444.78
989.142	2423.99
989.44	2389.87
989.737	2398.68
990.035	2385.8
990.332	2398.45
990.63	2414.72
990.927	2386.48
991.224	2378.34
991.521	2336.53
991.819	2336.99
992.116	2356.65
992.413	2313.26
992.71	2329.98
993.006	2283.43
993.303	2290.89
993.6	2311.22
993.897	2255.86
994.193	2267.61
994.49	2260.38
994.787	2232.36
995.083	2211.11
995.379	2229.42
995.676	2202.98
995.972	2196.43
996.268	2178.35
996.565	2171.79
996.861	2149.42
997.157	2156.43
997.453	2165.47
997.749	2129.76
998.044	2139.48
998.34	2095.86
998.636	2087.5
998.932	2100.38
999.227	2071.46
999.523	2039.59
999.818	2065.13
1000.114	2070.1
1000.409	2048.63
1000.704	2031.23
1001	1999.59
1001.295	2000.72
1001.59	1984
1001.885	1969.76
1002.18	1960.95
1002.475	1946.26
1002.77	1927.96
1003.065	1943.32
1003.359	1944.23
1003.654	1929.54
1003.949	1924.34
1004.243	1929.54
1004.538	1901.07
1004.832	1880.05
1005.127	1856.32
1005.421	1861.74
1005.715	1877.34
1006.009	1854.74
1006.304	1816.32
1006.598	1806.83
1006.892	1824.01
1007.186	1781.52
1007.48	1769.32
1007.773	1799.6
1008.067	1763.67
1008.361	1738.13
1008.655	1758.47
1008.948	1718.47
1009.242	1727.96
1009.535	1725.03
1009.829	1708.53
1010.122	1713.95
1010.415	1690.68
1010.708	1678.7
1011.001	1688.42
1011.295	1674.86
1011.588	1609.32
1011.881	1659.94
1012.173	1637.34
1012.466	1624.46
1012.759	1629.89
1013.052	1617.91
1013.344	1581.3
1013.637	1598.47
1013.93	1561.41
1014.222	1567.29
1014.514	1552.6
1014.807	1543.34
1015.099	1553.28
1015.391	1541.98
1015.683	1522.32
1015.976	1522.54
1016.268	1522.54
1016.56	1489.1
1016.851	1462.89
1017.143	1484.13
1017.435	1465.82
1017.727	1462.89
1018.018	1466.73
1018.31	1452.49
1018.602	1446.61
1018.893	1433.28
1019.185	1431.47
1019.476	1419.95
1019.767	1405.71
1020.058	1387.18
1020.35	1359.39
1020.641	1373.85
1020.932	1369.1
1021.223	1344.92
1021.514	1341.31
1021.804	1323.91
1022.095	1325.26
1022.386	1320.97
1022.677	1307.41
1022.967	1295.43
1023.258	1309.22
1023.548	1298.37
1023.839	1287.75
1024.129	1279.84
1024.419	1261.08
1024.709	1261.99
1025	1273.51
1025.29	1273.96
1025.58	1244.81
1025.87	1214.76
1026.16	1217.92
1026.449	1205.72
1026.739	1205.72
1027.029	1208.2
1027.319	1188.09
1027.608	1189.45
1027.898	1167.75
1028.187	1184.47
1028.477	1164.81
1028.766	1153.74
1029.055	1116
1029.344	1119.84
1029.634	1101.76
1029.923	1122.1
1030.212	1123.01
1030.501	1147.41
1030.79	1095.21
1031.078	1088.21
1031.367	1093.63
1031.656	1076.68
1031.945	1062.44
1032.233	1058.83
1032.522	1064.25
1032.81	1072.16
1033.099	1038.94
1033.387	1029.68
1033.675	1026.74
1033.963	1030.81
1034.251	1004.37
1034.54	1008.66
1034.828	1012.5
1035.116	988.77
1035.403	999.39
1035.691	981.77
1035.979	960.3
1036.267	989
1036.554	980.64
1036.842	999.17
1037.129	956.01
1037.417	962.11
1037.704	939.06
1037.992	955.78
1038.279	947.19
1038.566	937.7
1038.853	937.7
1039.14	937.7
