Data from hue_140_FLMS001491_00013.txt Node
Date: Tue Feb 07 16:55:29 GMT 2017
User: dcchb
Spectrometer: FLMS00149
Trigger mode: 0
Integration Time (sec): 2.000000E-2
Scans to average: 10
Electric dark correction enabled: true
Nonlinearity correction enabled: false
Boxcar width: 0
XAxis mode: Wavelengths
Number of Pixels in Spectrum: 2048
>>>>>Begin Spectral Data<<<<<
341.393	-16.3
341.776	-16.3
342.16	-16.3
342.543	-46.35
342.927	-62.63
343.31	-69.86
343.693	-75.73
344.077	-70.31
344.46	-48.61
344.843	-42.51
345.226	-21.72
345.61	-49.29
345.993	-1.38
346.376	-4.1
346.759	13.53
347.142	20.99
347.525	52.85
347.908	57.82
348.291	50.14
348.674	85.62
349.057	102.57
349.44	130.59
349.823	147.54
350.206	160.19
350.588	185.05
350.971	211.27
351.354	205.84
351.737	221.43
352.119	250.81
352.502	260.3
352.884	259.85
353.267	286.29
353.65	287.2
354.032	308.89
354.414	287.42
354.797	294.2
355.179	313.18
355.562	335.56
355.944	323.58
356.326	336.69
356.709	326.97
357.091	314.77
357.473	344.37
357.855	329.91
358.238	348.89
358.62	342.34
359.002	330.13
359.384	326.74
359.766	340.3
360.148	330.58
360.53	336.91
360.912	345.5
361.294	334.43
361.676	327.87
362.057	341.88
362.439	335.56
362.821	340.53
363.203	317.93
363.584	320.19
363.966	313.86
364.348	329
364.729	300.98
365.111	309.57
365.493	323.35
365.874	329
366.256	316.12
366.637	317.93
367.019	297.14
367.4	334.2
367.781	293.75
368.163	315.22
368.544	314.99
368.925	316.12
369.306	303.92
369.688	331.94
370.069	316.35
370.45	314.99
370.831	307.99
371.212	325.39
371.593	300.98
371.974	324.03
372.355	309.57
372.736	319.29
373.117	305.73
373.498	301.21
373.879	318.83
374.26	322.68
374.641	308.44
375.021	304.6
375.402	314.77
375.783	328.1
376.163	336.46
376.544	325.39
376.925	317.03
377.305	328.78
377.686	330.81
378.066	328.78
378.447	317.93
378.827	338.27
379.208	355.22
379.588	340.3
379.968	340.75
380.349	326.97
380.729	358.38
381.109	338.72
381.489	351.83
381.87	349.57
382.25	329.45
382.63	336.46
383.01	343.47
383.39	336.91
383.77	361.77
384.15	323.35
384.53	350.47
384.91	340.53
385.29	345.95
385.67	362.45
386.049	363.8
386.429	352.05
386.809	359.74
387.189	338.72
387.568	371.71
387.948	358.15
388.328	358.15
388.707	354.09
389.087	361.09
389.466	373.52
389.846	351.6
390.225	378.94
390.605	376.69
390.984	366.06
391.363	388.44
391.743	371.26
392.122	365.61
392.501	373.52
392.881	366.97
393.26	381.88
393.639	391.83
394.018	359.51
394.397	364.93
394.776	384.37
395.155	371.94
395.534	370.81
395.913	391.6
396.292	392.96
396.671	395.89
397.05	380.98
397.429	380.75
397.808	394.54
398.186	369.45
398.565	404.71
398.944	386.4
399.323	402.22
399.701	413.52
400.08	412.16
400.458	401.77
400.837	392.28
401.215	373.07
401.594	394.54
401.972	395.22
402.351	409.68
402.729	389.34
403.107	411.94
403.486	406.51
403.864	407.64
404.242	409
404.62	436.8
404.999	418.72
405.377	422.79
405.755	416.68
406.133	432.5
406.511	434.99
406.889	429.79
407.267	436.12
407.645	429.56
408.023	435.89
408.401	437.47
408.779	447.42
409.156	459.62
409.534	444.48
409.912	472.28
410.29	460.3
410.667	454.65
411.045	451.71
411.422	462.78
411.8	469.56
412.178	465.72
412.555	475.21
412.933	466.4
413.31	484.25
413.687	487.42
414.065	466.63
414.442	510.47
414.819	504.82
415.197	473.63
415.574	485.83
415.951	490.81
416.328	502.78
416.705	489
417.082	499.62
417.46	518.6
417.837	509.56
418.214	504.82
418.591	519.51
418.967	519.96
419.344	515.44
419.721	505.95
420.098	540.97
420.475	527.87
420.852	523.57
421.228	542.78
421.605	538.26
421.982	537.36
422.358	543.46
422.735	559.05
423.111	541.65
423.488	565.61
423.864	570.58
424.241	565.38
424.617	580.97
424.994	586.17
425.37	576
425.746	581.2
426.123	568.32
426.499	590.01
426.875	601.09
427.251	584.82
427.627	591.37
428.003	606.51
428.379	607.19
428.756	607.64
429.132	636.79
429.507	614.64
429.883	623.23
430.259	629.79
430.635	642.89
431.011	640.41
431.387	650.58
431.763	651.25
432.138	665.94
432.514	654.19
432.89	660.75
433.265	660.07
433.641	674.98
434.016	711.59
434.392	691.25
434.767	706.85
435.143	707.75
435.518	707.52
435.894	709.56
436.269	751.59
436.644	726.05
437.02	722.21
437.395	730.8
437.77	728.31
438.145	737.35
438.52	764.02
438.895	774.87
439.271	757.47
439.646	776.9
440.021	773.06
440.395	783.91
440.77	770.12
441.145	788.65
441.52	799.95
441.895	799.5
442.27	831.36
442.645	831.59
443.019	824.13
443.394	814.19
443.769	818.93
444.143	835.66
444.518	858.71
444.892	840.18
445.267	863.23
445.641	856.9
446.016	855.54
446.39	881.98
446.764	863
447.139	867.75
447.513	852.15
447.887	881.08
448.262	905.26
448.636	893.73
449.01	883.56
449.384	906.84
449.758	912.26
450.132	924.24
450.506	938.03
450.88	925.15
451.254	934.41
451.628	939.16
452.002	942.32
452.376	947.07
452.75	991.36
453.123	985.71
453.497	969.89
453.871	971.25
454.244	1008.76
454.618	1024.8
454.992	1048.76
455.365	1032.71
455.739	1039.94
456.112	1058.93
456.486	1095.99
456.859	1083.79
457.232	1116.55
457.606	1107.06
457.979	1105.48
458.352	1159.26
458.725	1158.36
459.099	1154.07
459.472	1193.84
459.845	1211.92
460.218	1164.23
460.591	1222.09
460.964	1212.37
461.337	1252.82
461.71	1253.95
462.083	1257.11
462.456	1256.44
462.829	1287.4
463.201	1323.1
463.574	1292.59
463.947	1359.26
464.32	1382.31
464.692	1395.19
465.065	1426.37
465.438	1433.38
465.81	1446.49
466.183	1459.37
466.555	1543.21
466.928	1512.93
467.3	1509.76
467.672	1533.72
468.045	1599.25
468.417	1608.74
468.789	1619.14
469.161	1657.78
469.534	1685.8
469.906	1686.48
470.278	1736.88
470.65	1768.06
471.022	1815.07
471.394	1833.14
471.766	1868.4
472.138	1876.98
472.51	1938.45
472.882	1956.08
473.253	1961.73
473.625	2064.55
473.997	2088.28
474.369	2140.03
474.74	2179.35
475.112	2218.22
475.484	2298.44
475.855	2333.02
476.227	2376.41
476.598	2456.4
476.97	2495.27
477.341	2599.9
477.713	2594.93
478.084	2691.88
478.455	2775.49
478.827	2870.4
479.198	2924.87
479.569	2961.25
479.94	3052.55
480.311	3102.72
480.682	3250.51
481.053	3344.06
481.424	3445.08
481.795	3511.74
482.166	3573.89
482.537	3667.45
482.908	3765.75
483.279	3843.26
483.65	3949.92
484.021	4119.64
484.391	4158.96
484.762	4266.3
485.133	4342
485.503	4474.2
485.874	4645.05
486.244	4707.64
486.615	4801.43
486.985	4952.38
487.356	5117.8
487.726	5212.49
488.097	5361.19
488.467	5424.69
488.837	5577.68
489.207	5743.55
489.578	5911.91
489.948	5972.7
490.318	6154.16
490.688	6246.59
491.058	6365.45
491.428	6539.01
491.798	6620.36
492.168	6855.84
492.538	6927.02
492.908	7075.04
493.278	7196.62
493.648	7298.99
494.017	7357.52
494.387	7569.94
494.757	7676.15
495.126	7861.91
495.496	7899.65
495.866	8062.36
496.235	8221
496.605	8257.38
496.974	8387.55
497.344	8539.41
497.713	8687.65
498.082	8745.96
498.452	8858.72
498.821	8991.6
499.19	9065.5
499.559	9191.37
499.928	9266.62
500.298	9396.79
500.667	9465.71
501.036	9525.6
501.405	9662.99
501.774	9713.16
502.143	9869.99
502.512	9881.29
502.88	10025.24
503.249	10107.28
503.618	10187.05
503.987	10249.87
504.356	10392.69
504.724	10429.3
505.093	10465.91
505.462	10590.65
505.83	10644.21
506.199	10767.15
506.567	10910.19
506.936	10918.33
507.304	11079
507.672	11067.25
508.041	11156.97
508.409	11250.75
508.777	11294.59
509.145	11294.14
509.514	11413.91
509.882	11475.15
510.25	11530.06
510.618	11542.27
510.986	11603.06
511.354	11640.34
511.722	11823.16
512.09	11935.93
512.458	11791.98
512.826	11929.15
513.193	11973.44
513.561	11980.22
513.929	12095.7
514.297	12196.04
514.664	12232.42
515.032	12229.93
515.4	12304.28
515.767	12262.93
516.135	12397.39
516.502	12286.2
516.869	12505.41
517.237	12518.29
517.604	12518.06
517.972	12552.64
518.339	12660.88
518.706	12644.61
519.073	12612.97
519.44	12756.25
519.808	12721.22
520.175	12734.33
520.542	12897.94
520.909	12820.2
521.276	12778.39
521.643	12963.47
522.009	13007.77
522.376	13023.58
522.743	13040.98
523.11	13176.57
523.477	13191.72
523.843	13222.9
524.21	13353.07
524.577	13292.28
524.943	13322.33
525.31	13326.4
525.676	13398.04
526.043	13500.41
526.409	13420.86
526.776	13605.94
527.142	13483.69
527.508	13494.76
527.874	13633.74
528.241	13617.01
528.607	13522.55
528.973	13692.72
529.339	13681.19
529.705	13737.92
530.071	13682.78
530.437	13682.55
530.803	13702.44
531.169	13739.05
531.535	13675.54
531.901	13620.63
532.267	13627.41
532.632	13711.48
532.998	13677.8
533.364	13657.92
533.73	13695.88
534.095	13732.49
534.461	13725.26
534.826	13637.13
535.192	13700.85
535.557	13786.5
535.923	13634.64
536.288	13629.9
536.653	13650.91
537.019	13567.3
537.384	13465.38
537.749	13520.75
538.114	13533.18
538.479	13427.42
538.845	13456.57
539.21	13360.3
539.575	13436.68
539.94	13357.81
540.305	13462.22
540.67	13414.99
541.034	13391.48
541.399	13369.79
541.764	13350.81
542.129	13262.9
542.494	13341.54
542.858	13154.43
543.223	13095.67
543.587	13180.42
543.952	13063.81
544.316	13080.76
544.681	13003.47
545.045	13094.77
545.41	13068.55
545.774	12966.86
546.138	12932.29
546.503	12935.22
546.867	12875.11
547.231	12904.72
547.595	12882.57
547.959	12858.62
548.324	12803.93
548.688	12796.47
549.052	12766.42
549.416	12782.23
549.779	12719.19
550.143	12652.52
550.507	12657.49
550.871	12699.52
551.235	12582.24
551.599	12603.71
551.962	12539.53
552.326	12549.7
552.689	12539.98
553.053	12449.14
553.417	12476.93
553.78	12542.47
554.143	12482.13
554.507	12406.43
554.87	12387.89
555.234	12483.71
555.597	12297.28
555.96	12354.68
556.323	12417.27
556.686	12318.52
557.05	12288.91
557.413	12325.98
557.776	12326.88
558.139	12339.08
558.502	12236.94
558.865	12324.85
559.228	12279.65
559.59	12325.52
559.953	12271.29
560.316	12497.72
560.679	12361.68
561.041	12438.97
561.404	12338.18
561.767	12395.35
562.129	12342.7
562.492	12382.02
562.854	12341.34
563.217	12328.01
563.579	12399.42
563.941	12362.81
564.304	12505.86
564.666	12469.25
565.028	12407.56
565.39	12441.23
565.753	12391.28
566.115	12431.28
566.477	12445.29
566.839	12424.73
567.201	12476.71
567.563	12431.74
567.925	12525.52
568.287	12545.4
568.648	12508.12
569.01	12567.32
569.372	12600.77
569.734	12595.12
570.095	12581.79
570.457	12649.58
570.819	12669.24
571.18	12608.23
571.542	12631.73
571.903	12637.15
572.265	12606.42
572.626	12657.49
572.987	12664.95
573.349	12658.17
573.71	12689.58
574.071	12713.99
574.432	12721.9
574.794	12822.23
575.155	12845.06
575.516	12647.32
575.877	12724.16
576.238	12816.36
576.599	12786.53
576.96	12784.04
577.32	12855
577.681	12843.7
578.042	12781.1
578.403	12793.76
578.763	12946.07
579.124	12865.4
579.485	12847.32
579.845	12848
580.206	12803.25
580.566	12774.78
580.927	12838.73
581.287	12858.16
581.648	12782.91
582.008	12864.49
582.368	12854.77
582.728	12748.79
583.089	12799.64
583.449	12772.97
583.809	12835.34
584.169	12819.75
584.529	12735.46
584.889	12856.36
585.249	12771.84
585.609	12628.57
585.969	12680.09
586.329	12713.54
586.688	12775
587.048	12757.38
587.408	12672.41
587.768	12709.24
588.127	12690.94
588.487	12699.07
588.846	12764.16
589.206	12633.09
589.565	12659.98
589.925	12683.03
590.284	12685.97
590.643	12685.97
591.003	12651.62
591.362	12697.04
591.721	12662.01
592.08	12602.8
592.44	12696.59
592.799	12624.95
593.158	12647.32
593.517	12572.52
593.876	12683.93
594.235	12543.37
594.593	12610.26
594.952	12634.22
595.311	12606.19
595.67	12628.57
596.029	12578.62
596.387	12583.6
596.746	12669.24
597.104	12570.04
597.463	12455.92
597.822	12569.36
598.18	12492.3
598.538	12450.04
598.897	12544.5
599.255	12466.31
599.613	12658.17
599.972	12557.83
600.33	12574.1
600.688	12523.48
601.046	12606.87
601.404	12550.83
601.762	12555.35
602.12	12557.83
602.478	12607.78
602.836	12651.39
603.194	12629.24
603.552	12548.12
603.91	12487.78
604.268	12525.29
604.625	12476.03
604.983	12581.34
605.341	12453.2
605.698	12656.36
606.056	12638.28
606.413	12598.96
606.771	12597.15
607.128	12644.84
607.485	12568.91
607.843	12649.36
608.2	12571.62
608.557	12732.29
608.914	12584.27
609.272	12690.03
609.629	12677.38
609.986	12693.65
610.343	12712.86
610.7	12725.29
611.057	12659.07
611.414	12749.92
611.771	12735.46
612.127	12764.38
612.484	12763.25
612.841	12774.33
613.198	12784.49
613.554	12775.23
613.911	12791.95
614.267	12731.61
614.624	12760.31
614.98	12754.21
615.337	12860.42
615.693	12742.91
616.05	12832.63
616.406	12916.92
616.762	12841.22
617.118	12832.63
617.475	12825.62
617.831	12907.65
618.187	12935.9
618.543	12895.9
618.899	12986.97
619.255	13010.7
619.611	13002.79
619.967	13047.31
620.323	12971.61
620.678	12899.97
621.034	12845.06
621.39	13025.39
621.746	12845.74
622.101	13072.17
622.457	12927.09
622.812	12857.26
623.168	13028.78
623.523	13008.22
623.879	12978.84
624.234	12912.17
624.589	13024.04
624.945	13071.72
625.3	13064.49
625.655	12918.95
626.01	12927.32
626.365	12947.65
626.72	12985.62
627.075	12967.54
627.43	12931.84
627.785	12919.63
628.14	12961.21
628.495	12973.87
628.85	13020.42
629.205	12824.49
629.559	12982.68
629.914	12949.46
630.269	12938.16
630.623	12879.86
630.978	12974.55
631.332	12865.4
631.687	12899.97
632.041	12840.31
632.396	12846.64
632.75	12819.75
633.104	12836.7
633.459	12731.61
633.813	12689.13
634.167	12725.74
634.521	12771.84
634.875	12795.57
635.229	12710.15
635.583	12636.02
635.937	12732.74
636.291	12579.98
636.645	12600.32
636.999	12638.51
637.352	12627.66
637.706	12532.52
638.06	12652.97
638.413	12549.92
638.767	12553.09
639.121	12598.51
639.474	12495.24
639.828	12507.67
640.181	12554.9
640.534	12531.85
640.888	12458.4
641.241	12390.83
641.594	12464.28
641.947	12472.64
642.301	12400.1
642.654	12389.48
643.007	12440.55
643.36	12363.26
643.713	12440.32
644.066	12478.74
644.419	12449.36
644.771	12279.2
645.124	12274.23
645.477	12231.97
645.83	12091.86
646.182	12069.71
646.535	12008.02
646.888	12085.76
647.24	11976.61
647.593	12078.98
647.945	12038.3
648.298	12004.18
648.65	11941.8
649.002	11921.47
649.355	11935.25
649.707	11971.86
650.059	11989.04
650.411	12138.64
650.763	12154.23
651.115	12227.22
651.467	12249.82
651.819	12235.36
652.171	12264.73
652.523	12199.65
652.875	12189.26
653.227	12123.95
653.578	12328.01
653.93	12235.81
654.282	12179.76
654.633	12123.72
654.985	12284.39
655.337	12220.22
655.688	12284.39
656.039	12269.03
656.391	12212.31
656.742	12186.54
657.094	12226.77
657.445	12273.77
657.796	12239.42
658.147	12234.23
658.498	12188.35
658.849	12259.08
659.2	12210.27
659.551	12220.89
659.902	12278.07
660.253	12305.18
660.604	12294.34
660.955	12182.48
661.306	12292.08
661.656	12197.17
662.007	12309.03
662.358	12290.72
662.708	12243.04
663.059	12233.1
663.409	12134.57
663.76	12306.54
664.11	12295.92
664.461	12293.21
664.811	12292.76
665.161	12277.16
665.511	12271.29
665.862	12340.66
666.212	12259.08
666.562	12325.75
666.912	12281.23
667.262	12296.15
667.612	12362.58
667.962	12357.16
668.312	12295.02
668.662	12361.91
669.011	12226.54
669.361	12203.94
669.711	12256.37
670.06	12330.95
670.41	12279.2
670.76	12209.37
671.109	12299.54
671.459	12259.76
671.808	12262.7
672.157	12146.55
672.507	12123.72
672.856	12212.76
673.205	12228.12
673.554	12249.59
673.904	12160.56
674.253	12252.53
674.602	12236.71
674.951	12072.87
675.3	11958.75
675.649	12167.79
675.998	12146.77
676.346	12052.76
676.695	12215.7
677.044	12138.64
677.393	12001.69
677.741	12160.1
678.09	11990.84
678.438	12026.32
678.787	12079.88
679.135	12052.99
679.484	12015.93
679.832	12039.2
680.181	11918.3
680.529	11926.66
680.877	11876.04
681.225	11826.78
681.573	11912.65
681.922	11846.44
682.27	11841.24
682.618	11816.61
682.966	11790.85
683.314	11794.24
683.661	11798.76
684.009	11741.58
684.357	11747.46
684.705	11680.12
685.053	11696.84
685.4	11671.98
685.748	11532.78
686.095	11556.5
686.443	11468.82
686.79	11455.72
687.138	11570.74
687.485	11528.71
687.832	11343.85
688.18	11523.51
688.527	11333.01
688.874	11438.99
689.221	11411.2
689.568	11367.13
689.915	11315.83
690.262	11240.13
690.609	11317.64
690.956	11201.03
691.303	11176.4
691.65	11171.66
691.997	11124.88
692.344	10994.26
692.69	11049.62
693.037	11029.74
693.383	10872.45
693.73	10963.53
694.077	10869.97
694.423	10859.57
694.769	10931.44
695.116	10816.64
695.462	10785.9
695.808	10703.65
696.155	10668.62
696.501	10662.06
696.847	10636.75
697.193	10603.76
697.539	10619.58
697.885	10488.96
698.231	10465.01
698.577	10486.93
698.923	10399.25
699.269	10404.22
699.614	10289.64
699.96	10265.46
700.306	10235.18
700.651	10209.65
700.997	10150.89
701.342	10172.59
701.688	10149.54
702.033	10066.83
702.379	10089.2
702.724	10024.57
703.069	10110.44
703.415	9889.88
703.76	9939.37
704.105	9862.31
704.45	9871.8
704.795	9796.55
705.14	9820.73
705.485	9757.46
705.83	9781.41
706.175	9793.39
706.52	9701.19
706.865	9681.3
707.209	9639.72
707.554	9555.43
707.899	9586.61
708.243	9602.88
708.588	9533.05
708.932	9513.62
709.277	9447.41
709.621	9494.86
709.966	9458.03
710.31	9416
710.654	9322.89
710.998	9400.4
711.342	9370.35
711.687	9349.78
712.031	9273.85
712.375	9281.08
712.719	9256.23
713.063	9281.99
713.407	9240.18
713.75	9240.63
714.094	9174.65
714.438	9171.03
714.782	9198.83
715.125	9116.79
715.469	9111.82
715.812	9080.64
716.156	9011.03
716.499	9010.13
716.843	9050.58
717.186	8989.79
717.53	9012.62
717.873	9038.6
718.216	9004.71
718.559	8972.17
718.902	8921.32
719.246	8915.67
719.589	8945.27
719.932	8885.84
720.275	8862.56
720.617	8865.28
720.96	8784.15
721.303	8754.32
721.646	8829.8
721.989	8843.58
722.331	8881.32
722.674	8821.43
723.016	8834.99
723.359	8774.66
723.701	8812.4
724.044	8736.01
724.386	8701.44
724.729	8798.84
725.071	8712.29
725.413	8700.99
725.755	8755.45
726.097	8701.89
726.439	8601.55
726.782	8723.36
727.124	8730.36
727.465	8667.54
727.807	8657.15
728.149	8665.51
728.491	8622.12
728.833	8665.73
729.175	8624.6
729.516	8617.82
729.858	8619.41
730.199	8663.92
730.541	8592.74
730.882	8598.62
731.224	8673.64
731.565	8625.28
731.906	8556.13
732.248	8615.34
732.589	8561.33
732.93	8591.84
733.271	8546.19
733.612	8537.6
733.953	8507.77
734.294	8590.93
734.635	8542.12
734.976	8538.5
735.317	8478.17
735.658	8533.31
735.999	8542.8
736.339	8553.87
736.68	8575.34
737.021	8562.68
737.361	8493.99
737.702	8592.29
738.042	8523.36
738.383	8597.71
738.723	8587.09
739.063	8576.92
739.404	8582.8
739.744	8637.03
740.084	8594.77
740.424	8625.28
740.764	8696.24
741.104	8661.66
741.444	8715.67
741.784	8638.39
742.124	8700.76
742.464	8647.88
742.804	8741.21
743.143	8730.82
743.483	8845.61
743.823	8784.15
744.162	8753.19
744.502	8908.66
744.841	8861.43
745.181	8931.49
745.52	8912.73
745.86	8922.9
746.199	8962.67
746.538	9006.97
746.877	9040.19
747.216	9115.89
747.556	9092.39
747.895	9201.09
748.234	9206.96
748.573	9269.78
748.911	9255.77
749.25	9358.82
749.589	9354.08
749.928	9499.83
750.267	9531.25
750.605	9587.29
750.944	9688.53
751.283	9726.72
751.621	9839.49
751.96	9811.92
752.298	9947.28
752.636	10068.63
752.975	10113.6
753.313	10140.72
753.651	10381.62
753.989	10433.82
754.327	10422.97
754.666	10572.8
755.004	10764.43
755.342	10916.75
755.679	10984.32
756.017	11099.57
756.355	11200.13
756.693	11304.08
757.031	11510.86
757.368	11646.22
757.706	11715.6
758.044	11860.45
758.381	12022.93
758.719	12107.45
759.056	12396.48
759.394	12520.32
759.731	12570.04
760.068	12799.18
760.405	12930.48
760.743	13103.36
761.08	13260.41
761.417	13363.46
761.754	13544.7
762.091	13636.68
762.428	13777.91
762.765	13971.81
763.102	14178.36
763.438	14213.61
763.775	14403.21
764.112	14577.44
764.449	14733.6
764.785	14966.81
765.122	14939.01
765.458	15099.01
765.795	15216.52
766.131	15374.48
766.467	15529.05
766.804	15575.38
767.14	15832.1
767.476	15884.3
767.812	16051.75
768.148	16223.27
768.485	16237.96
768.821	16274.35
769.157	16485.64
769.492	16568.8
769.828	16716.37
770.164	16798.63
770.5	16871.17
770.836	17055.34
771.171	17030.26
771.507	17255.56
771.842	17220.54
772.178	17356.35
772.513	17411.94
772.849	17496.23
773.184	17603.8
773.519	17669.79
773.855	17749.79
774.19	17758.15
774.525	17769.22
774.86	17930.35
775.195	17998.14
775.53	18017.35
775.865	17920.18
776.2	17969.44
776.535	17996.11
776.87	18133.73
777.205	18135.09
777.539	18121.3
777.874	18328.08
778.209	18037.01
778.543	18138.93
778.878	18135.77
779.212	18183.67
779.547	18223
779.881	18350.22
780.215	18329.89
780.55	18345.03
780.884	18283.11
781.218	18297.34
781.552	18340.51
781.886	18349.32
782.22	18320.62
782.554	18274.29
782.888	18239.94
783.222	18181.87
783.556	18264.12
783.889	18293.28
784.223	18071.59
784.557	18140.74
784.89	18260.73
785.224	18125.6
785.557	18151.81
785.891	18050.12
786.224	18067.97
786.558	18119.95
786.891	18102.09
787.224	18012.38
787.557	18059.38
787.891	17997.24
788.224	18064.81
788.557	18036.56
788.89	17950.23
789.223	17936.9
789.556	17820.29
789.888	17925.6
790.221	17830.46
790.554	17664.14
790.887	17752.95
791.219	17796.57
791.552	17697.59
791.884	17621.2
792.217	17610.81
792.549	17630.47
792.882	17539.17
793.214	17467.99
793.546	17617.81
793.879	17377.82
794.211	17312.96
794.543	17488.33
794.875	17357.71
795.207	17387.54
795.539	17308.9
795.871	17275.68
796.203	17176.92
796.535	17129.92
796.867	17127.43
797.198	17109.8
797.53	17128.33
797.862	16995.46
798.193	17062.57
798.525	16941
798.856	16878.62
799.188	16735.58
799.519	16784.62
799.85	16608.12
800.182	16700.32
800.513	16838.85
800.844	16599.76
801.175	16696.48
801.506	16632.3
801.837	16553.43
802.168	16544.4
802.499	16412.65
802.83	16347.56
803.161	16331.52
803.491	16353.89
803.822	16332.2
804.153	16264.85
804.483	16107.34
804.814	16144.41
805.145	16122.49
805.475	16134.46
805.805	16036.84
806.136	16061.24
806.466	16012.88
806.796	15956.61
807.126	15946.9
807.457	15794.81
807.787	15874.81
808.117	15809.95
808.447	15747.13
808.777	15824.64
809.107	15726.79
809.436	15641.82
809.766	15732.44
810.096	15563.63
810.426	15518.21
810.755	15523.18
811.085	15519.56
811.414	15508.94
811.744	15407.7
812.073	15390.08
812.403	15448.15
812.732	15336.97
813.061	15286.8
813.39	15311.89
813.719	15216.75
814.049	15303.75
814.378	15227.59
814.707	15139.69
815.036	15199.57
815.365	15166.13
815.693	14966.13
816.022	15027.83
816.351	15036.41
816.68	14947.38
817.008	14913.93
817.337	14852.46
817.665	14839.58
817.994	14843.42
818.322	14859.02
818.651	14761.84
818.979	14728.4
819.307	14795.74
819.636	14688.63
819.964	14663.77
820.292	14728.85
820.62	14704.44
820.948	14618.34
821.276	14609.53
821.604	14642.52
821.932	14653.82
822.259	14666.93
822.587	14603.43
822.915	14655.41
823.243	14651.34
823.57	14529.76
823.898	14592.36
824.225	14588.51
824.553	14535.18
824.88	14600.49
825.207	14588.06
825.535	14651.56
825.862	14626.93
826.189	14570.66
826.516	14565.01
826.843	14592.58
827.17	14683.88
827.497	14626.03
827.824	14543.32
828.151	14569.31
828.478	14629.64
828.805	14732.69
829.131	14630.32
829.458	14562.3
829.785	14548.97
830.111	14616.31
830.438	14672.81
830.764	14644.56
831.09	14712.13
831.417	14595.75
831.743	14559.14
832.069	14609.31
832.395	14533.83
832.722	14582.87
833.048	14494.73
833.374	14597.78
833.7	14502.42
834.026	14499.03
834.351	14504.68
834.677	14521.17
835.003	14444.34
835.329	14465.35
835.654	14516.65
835.98	14425.81
836.306	14440.27
836.631	14358.01
836.956	14489.76
837.282	14413.6
837.607	14332.93
837.932	14275.98
838.258	14272.59
838.583	14247.05
838.908	14244.12
839.233	14231.69
839.558	14174.51
839.883	14083.44
840.208	14176.55
840.533	14126.83
840.858	14113.5
841.182	14099.71
841.507	14083.22
841.832	13988.08
842.156	13986.5
842.481	13968.42
842.805	14006.84
843.13	13974.29
843.454	13865.6
843.778	13844.13
844.103	13865.6
844.427	13770.91
844.751	13845.26
845.075	13737.46
845.399	13724.36
845.723	13569.33
846.047	13668.09
846.371	13553.29
846.695	13589.44
847.019	13557.36
847.343	13391.26
847.666	13381.54
847.99	13264.03
848.313	13300.41
848.637	13208.89
848.96	13165.05
849.284	13188.55
849.607	13011.61
849.931	13018.16
850.254	12855.68
850.577	12848.67
850.9	12735
851.223	12772.74
851.546	12683.25
851.869	12588.34
852.192	12625.85
852.515	12510.83
852.838	12507.89
853.161	12571.17
853.483	12422.47
853.806	12379.99
854.129	12319.65
854.451	12253.89
854.774	12246.43
855.096	12195.36
855.419	12150.61
855.741	12154.68
856.063	12056.15
856.385	12115.59
856.708	12078.98
857.03	12014.57
857.352	12030.16
857.674	11885.99
857.996	11949.26
858.318	11796.05
858.64	11856.84
858.961	11854.35
859.283	11818.87
859.605	11711.08
859.926	11701.36
860.248	11694.13
860.57	11692.09
860.891	11681.47
861.212	11559.67
861.534	11540.01
861.855	11493.23
862.176	11558.54
862.498	11595.83
862.819	11578.88
863.14	11447.35
863.461	11425.43
863.782	11383.85
864.103	11470.86
864.424	11411.2
864.745	11337.07
865.065	11336.4
865.386	11201.94
865.707	11254.14
866.027	11215.5
866.348	11254.59
866.668	11225.67
866.989	11186.8
867.309	11136.4
867.63	11159.45
867.95	11088.95
868.27	11042.17
868.59	11141.6
868.91	11027.7
869.23	11015.05
869.55	11037.65
869.87	11106.35
870.19	11032.45
870.51	11014.82
870.83	10976.63
871.15	10990.42
871.469	10913.36
871.789	11015.95
872.109	10955.39
872.428	10815.96
872.748	10917.42
873.067	10857.77
873.386	10828.39
873.706	10799.69
874.025	10809.41
874.344	10731.22
874.663	10765.11
874.982	10701.84
875.301	10734.38
875.62	10657.09
875.939	10665.68
876.258	10745
876.577	10667.26
876.896	10677.21
877.214	10649.41
877.533	10581.16
877.852	10592.69
878.17	10550.2
878.489	10646.25
878.807	10600.37
879.125	10498.9
879.444	10556.76
879.762	10429.98
880.08	10503.2
880.398	10430.21
880.716	10392.24
881.034	10392.92
881.352	10425.91
881.67	10319.93
881.988	10309.76
882.306	10360.83
882.624	10363.99
882.941	10236.99
883.259	10168.52
883.577	10205.13
883.894	10155.86
884.212	10186.6
884.529	10187.5
884.846	10136.2
885.164	10169.87
885.481	10065.7
885.798	10048.07
886.115	9983.21
886.432	10016.43
886.75	9989.77
887.067	9964.23
887.383	9873.16
887.7	9942.54
888.017	9859.15
888.334	9901.86
888.651	9863.67
888.967	9876.32
889.284	9801.75
889.6	9784.8
889.917	9632.26
890.233	9720.17
890.55	9674.97
890.866	9631.13
891.182	9613.28
891.498	9559.04
891.815	9592.26
892.131	9511.13
892.447	9479.72
892.763	9522.89
893.079	9471.81
893.395	9398.59
893.71	9452.83
894.026	9414.87
894.342	9352.49
894.657	9258.26
894.973	9288.99
895.289	9311.14
895.604	9239.73
895.92	9163.57
896.235	9100.98
896.55	9064.37
896.865	9127.87
897.181	9074.76
897.496	9050.13
897.811	9025.5
898.126	9024.59
898.441	8955.89
898.756	8927.19
899.071	8888.78
899.386	8877.7
899.7	8745.28
900.015	8822.79
900.33	8724.49
900.644	8702.12
900.959	8738.73
901.273	8668.67
901.588	8609.24
901.902	8537.83
902.216	8556.81
902.531	8520.43
902.845	8467.77
903.159	8402.46
903.473	8416.02
903.787	8402.46
904.101	8370.37
904.415	8370.6
904.729	8291.51
905.042	8246.53
905.356	8225.07
905.67	8193.88
905.984	8155.46
906.297	8119.98
906.611	8087.67
906.924	8142.13
907.237	8050.83
907.551	8101.68
907.864	7963.15
908.177	7970.61
908.491	7957.5
908.804	7866.66
909.117	7788.47
909.43	7768.58
909.743	7751.63
910.056	7769.48
910.368	7700.11
910.681	7714.8
910.994	7648.13
911.307	7660.11
911.619	7548.93
911.932	7568.13
912.244	7595.25
912.557	7506.22
912.869	7449.49
913.181	7397.07
913.494	7400.46
913.806	7302.15
914.118	7312.77
914.43	7244.53
914.742	7309.61
915.054	7249.72
915.366	7193
915.678	7206.34
915.99	7166.34
916.302	7150.52
916.613	7095.15
916.925	7145.55
917.236	7125.43
917.548	7021.48
917.859	6974.03
918.171	7008.38
918.482	6953.01
918.794	6933.12
919.105	6925.67
919.416	6819
919.727	6785.56
920.038	6816.74
920.349	6736.97
920.66	6741.49
920.971	6699.68
921.282	6703.52
921.593	6709.63
921.903	6570.42
922.214	6539.01
922.525	6597.54
922.835	6572.23
923.146	6509.18
923.456	6506.92
923.767	6473.93
924.077	6453.81
924.387	6426.02
924.697	6377.43
925.008	6327.94
925.318	6296.98
925.628	6318.68
925.938	6327.04
926.248	6244.55
926.558	6271.67
926.867	6252.01
927.177	6174.05
927.487	6141.51
927.796	6112.81
928.106	6139.02
928.416	6080.49
928.725	6054.95
929.034	6026.93
929.344	5998.46
929.653	6015.63
929.962	5946.93
930.271	5934.05
930.581	5963.43
930.89	5871.23
931.199	5870.1
931.508	5850.44
931.817	5846.82
932.125	5841.85
932.434	5751.68
932.743	5789.2
933.051	5714.62
933.36	5709.65
933.669	5639.15
933.977	5688.86
934.286	5663.1
934.594	5624.68
934.902	5584.68
935.21	5526.15
935.519	5549.66
935.827	5540.17
936.135	5472.14
936.443	5404.12
936.751	5461.07
937.059	5387.63
937.367	5345.14
937.674	5378.14
937.982	5387.63
938.29	5300.62
938.597	5291.13
938.905	5284.58
939.213	5276.9
939.52	5211.36
939.827	5262.43
940.135	5187.18
940.442	5173.62
940.749	5174.52
941.056	5162.77
941.363	5082.32
941.67	5078.48
941.977	5041.2
942.284	5030.8
942.591	5021.99
942.898	4993.96
943.205	5032.61
943.511	4943.57
943.818	4916.9
944.125	4904.02
944.431	4880.52
944.738	4889.33
945.044	4868.32
945.35	4783.35
945.657	4785.38
945.963	4791.03
946.269	4758.04
946.575	4778.6
946.881	4711.49
947.187	4737.25
947.493	4676.23
947.799	4671.49
948.105	4624.48
948.41	4620.19
948.716	4639.85
949.022	4596.01
949.327	4560.3
949.633	4543.36
949.938	4515.56
950.244	4522.56
950.549	4462.45
950.854	4490.02
951.16	4455.22
951.465	4460.42
951.77	4388.56
952.075	4413.42
952.38	4378.16
952.685	4378.16
952.99	4365.05
953.294	4293.19
953.599	4276.92
953.904	4288.22
954.209	4254.1
954.513	4241.44
954.818	4228.79
955.122	4220.88
955.426	4179.3
955.731	4169.35
956.035	4176.36
956.339	4132.97
956.643	4161.67
956.948	4118.06
957.252	4110.6
957.556	4100.88
957.86	4048.68
958.163	4053.42
958.467	4028.57
958.771	4016.36
959.075	3975.46
959.378	3981.79
959.682	3974.56
959.985	3960.55
960.289	3901.34
960.592	3871.96
960.896	3888.01
961.199	3869.47
961.502	3899.76
961.805	3813.88
962.108	3795.35
962.411	3824.73
962.714	3776.37
963.017	3762.36
963.32	3753.09
963.623	3744.96
963.926	3708.12
964.228	3666.09
964.531	3681
964.833	3719.42
965.136	3637.84
965.438	3637.62
965.741	3640.78
966.043	3642.14
966.345	3591.97
966.648	3616.15
966.95	3568.69
967.252	3551.97
967.554	3536.38
967.856	3521.91
968.158	3460.45
968.46	3528.47
968.761	3492.76
969.063	3459.77
969.365	3436.72
969.666	3443.95
969.968	3404.4
970.269	3386.32
970.571	3406.44
970.872	3384.06
971.174	3365.98
971.475	3372.99
971.776	3340.22
972.077	3292.54
972.378	3323.27
972.679	3331.18
972.98	3307
973.281	3265.2
973.582	3254.35
973.883	3206.44
974.183	3214.58
974.484	3212.77
974.785	3217.74
975.085	3176.16
975.386	3158.08
975.686	3167.12
975.986	3133
976.287	3113.11
976.587	3090.29
976.887	3087.12
977.187	3054.35
977.487	3083.28
977.787	3048.93
978.087	3023.62
978.387	3008.25
978.687	3020.68
978.987	2991.53
979.286	2967.58
979.586	2963.96
979.885	2957.41
980.185	2949.05
980.484	2929.39
980.784	2887.13
981.083	2885.32
981.382	2894.36
981.682	2861.82
981.981	2836.06
982.28	2870.86
982.579	2852.1
982.878	2838.09
983.177	2775.94
983.475	2796.06
983.774	2786.34
984.073	2800.12
984.372	2729.62
984.67	2758.32
984.969	2737.98
985.267	2719.67
985.566	2729.39
985.864	2682.84
986.162	2693.91
986.461	2658.21
986.759	2647.13
987.057	2643.29
987.355	2637.87
987.653	2650.75
987.951	2606.68
988.249	2602.39
988.547	2603.75
988.844	2563.97
989.142	2584.54
989.44	2570.07
989.737	2529.17
990.035	2548.61
990.332	2533.92
990.63	2501.37
990.927	2504.76
991.224	2493.01
991.521	2493.69
991.819	2479.91
992.116	2432
992.413	2421.15
992.71	2404.88
993.006	2416.41
993.303	2417.08
993.6	2410.76
993.897	2383.19
994.193	2374.15
994.49	2372.79
994.787	2344.54
995.083	2361.04
995.379	2327.37
995.676	2314.26
995.972	2296.18
996.268	2274.26
996.565	2269.97
996.861	2269.29
997.157	2279.91
997.453	2257.99
997.749	2211.21
998.044	2187.48
998.34	2240.36
998.636	2193.81
998.932	2222.96
999.227	2201.95
999.523	2158.33
999.818	2135.96
1000.114	2149.52
1000.409	2105
1000.704	2120.59
1001	2113.36
1001.295	2131.67
1001.59	2092.12
1001.885	2089.18
1002.18	2070.43
1002.475	2074.72
1002.77	2037.66
1003.065	2047.38
1003.359	2003.76
1003.654	2001.05
1003.949	2020.94
1004.243	1987.04
1004.538	1993.82
1004.832	1949.3
1005.127	1977.55
1005.421	1963.99
1005.715	1919.02
1006.009	1929.64
1006.304	1916.98
1006.598	1907.72
1006.892	1875.18
1007.186	1843.09
1007.48	1901.84
1007.773	1852.58
1008.067	1844.89
1008.361	1840.6
1008.655	1819.81
1008.948	1830.66
1009.242	1788.4
1009.535	1819.58
1009.829	1784.33
1010.122	1780.26
1010.415	1754.28
1010.708	1790.66
1011.001	1763.99
1011.295	1756.99
1011.588	1721.96
1011.881	1705.69
1012.173	1717.44
1012.466	1702.53
1012.759	1684
1013.052	1662.75
1013.344	1704.56
1013.637	1661.17
1013.93	1649.65
1014.222	1636.54
1014.514	1646.48
1014.807	1623.21
1015.099	1616.43
1015.391	1583.88
1015.683	1608.29
1015.976	1583.43
1016.268	1587.95
1016.56	1529.88
1016.851	1537.78
1017.143	1542.98
1017.435	1524.9
1017.727	1535.3
1018.018	1518.58
1018.31	1496.43
1018.602	1524.68
1018.893	1516.77
1019.185	1460.27
1019.476	1474.74
1019.767	1489.42
1020.058	1458.69
1020.35	1413.27
1020.641	1426.6
1020.932	1400.84
1021.223	1404
1021.514	1391.8
1021.804	1387.28
1022.095	1401.06
1022.386	1377.11
1022.677	1397.9
1022.967	1373.72
1023.258	1354.51
1023.548	1315.87
1023.839	1342.31
1024.129	1344.34
1024.419	1295.3
1024.709	1296.21
1025	1280.16
1025.29	1308.41
1025.58	1268.64
1025.87	1272.03
1026.16	1262.54
1026.449	1265.25
1026.739	1241.97
1027.029	1229.32
1027.319	1234.29
1027.608	1229.54
1027.898	1203.1
1028.187	1197.23
1028.477	1228.19
1028.766	1179.83
1029.055	1178.92
1029.344	1179.83
1029.634	1174.18
1029.923	1164.46
1030.212	1136.89
1030.501	1154.52
1030.79	1145.03
1031.078	1129.89
1031.367	1145.25
1031.656	1112.26
1031.945	1109.1
1032.233	1094.63
1032.522	1104.8
1032.81	1117
1033.099	1106.16
1033.387	1065.48
1033.675	1065.48
1033.963	1041.98
1034.251	1065.71
1034.54	1028.19
1034.828	1045.37
1035.116	1008.08
1035.403	1048.31
1035.691	983.9
1035.979	1024.35
1036.267	1032.71
1036.554	1014.63
1036.842	1003.56
1037.129	1000.17
1037.417	1008.98
1037.704	966.95
1037.992	981.87
1038.279	971.7
1038.566	954.52
1038.853	954.52
1039.14	954.52
