Data from hue_24_FLMS001491_00066.txt Node
Date: Tue Feb 07 17:12:36 GMT 2017
User: dcchb
Spectrometer: FLMS00149
Trigger mode: 0
Integration Time (sec): 2.000000E-2
Scans to average: 10
Electric dark correction enabled: true
Nonlinearity correction enabled: false
Boxcar width: 0
XAxis mode: Wavelengths
Number of Pixels in Spectrum: 2048
>>>>>Begin Spectral Data<<<<<
341.393	-25.69
341.776	-25.69
342.16	-25.69
342.543	-64.33
342.927	-69.08
343.31	-74.96
343.693	-62.98
344.077	-63.43
344.46	-60.27
344.843	-60.49
345.226	-40.61
345.61	-39.25
345.993	-17.1
346.376	-1.29
346.759	17.02
347.142	32.16
347.525	44.59
347.908	33.52
348.291	89.11
348.674	96.79
349.057	107.19
349.44	116.68
349.823	140.18
350.206	164.36
350.588	193.51
350.971	221.53
351.354	226.28
351.737	239.39
352.119	255.21
352.502	273.51
352.884	285.26
353.267	287.97
353.65	322.32
354.032	315.99
354.414	325.71
354.797	321.19
355.179	317.8
355.562	327.52
355.944	325.94
356.326	337.69
356.709	331.14
357.091	334.98
357.473	341.08
357.855	362.77
358.238	356.9
358.62	351.7
359.002	330.68
359.384	345.15
359.766	374.07
360.148	349.89
360.53	330.46
360.912	348.54
361.294	371.59
361.676	347.18
362.057	325.26
362.439	345.6
362.821	335.88
363.203	346.73
363.584	365.94
363.966	351.02
364.348	332.27
364.729	350.57
365.111	345.15
365.493	350.12
365.874	329.1
366.256	343.34
366.637	324.58
367.019	328.2
367.4	317.58
367.781	316.67
368.163	335.43
368.544	320.06
368.925	336.33
369.306	336.78
369.688	333.85
370.069	327.97
370.45	320.51
370.831	329.55
371.212	320.29
371.593	324.13
371.974	311.7
372.355	336.78
372.736	333.85
373.117	315.32
373.498	348.31
373.879	318.25
374.26	332.27
374.641	331.14
375.021	321.42
375.402	335.66
375.783	327.97
376.163	337.69
376.544	344.69
376.925	337.69
377.305	341.3
377.686	356.45
378.066	319.16
378.447	347.18
378.827	347.86
379.208	339.04
379.588	365.03
379.968	346.95
380.349	361.64
380.729	347.63
381.109	358.48
381.489	330.23
381.87	359.84
382.25	370.23
382.63	363.9
383.01	374.52
383.39	338.82
383.77	367.07
384.15	373.17
384.53	360.06
384.91	365.48
385.29	362.09
385.67	369.55
386.049	396.67
386.429	373.17
386.809	389.89
387.189	360.97
387.568	361.42
387.948	379.27
388.328	386.28
388.707	385.37
389.087	398.25
389.466	388.31
389.846	390.12
390.225	412.94
390.605	397.57
390.984	385.6
391.363	380.17
391.743	369.78
392.122	378.14
392.501	400.29
392.881	399.83
393.26	401.42
393.639	419.04
394.018	420.62
394.397	399.38
394.776	403.68
395.155	403.9
395.534	427.86
395.913	409.78
396.292	427.18
396.671	417.46
397.05	426.05
397.429	405.26
397.808	428.08
398.186	426.73
398.565	407.74
398.944	429.89
399.323	416.1
399.701	437.57
400.08	409.1
400.458	456.56
400.837	443.9
401.215	438.48
401.594	440.29
401.972	446.61
402.351	442.32
402.729	453.39
403.107	479.38
403.486	461.3
403.864	461.3
404.242	439.83
404.62	446.16
404.999	459.49
405.377	471.24
405.755	479.15
406.133	477.35
406.511	480.51
406.889	487.74
407.267	483.9
407.645	477.35
408.023	503.33
408.401	497.91
408.779	516.22
409.156	514.63
409.534	502.88
409.912	492.94
410.29	494.75
410.667	539.27
411.045	517.8
411.422	527.97
411.8	507.4
412.178	527.51
412.555	511.7
412.933	549.21
413.31	549.89
413.687	557.8
414.065	541.3
414.442	551.92
414.819	555.54
415.197	552.6
415.574	567.74
415.951	559.83
416.328	570.45
416.705	571.13
417.082	583.33
417.46	567.06
417.837	598.7
418.214	602.99
418.591	558.93
418.967	597.12
419.344	619.94
419.721	606.61
420.098	596.67
420.475	630.11
420.852	588.76
421.228	634.18
421.605	640.05
421.982	634.86
422.358	640.96
422.735	638.7
423.111	651.13
423.488	661.07
423.864	661.07
424.241	652.26
424.617	652.71
424.994	665.36
425.37	661.52
425.746	679.83
426.123	670.11
426.499	692.93
426.875	714.4
427.251	682.54
427.627	722.31
428.003	719.15
428.379	736.1
428.756	726.83
429.132	735.87
429.507	725.7
429.883	730.22
430.259	762.76
430.635	770.9
431.011	741.97
431.387	758.24
431.763	784.23
432.138	796.43
432.514	813.61
432.89	794.63
433.265	823.1
433.641	807.28
434.016	807.96
434.392	808.64
434.767	863.32
435.143	857
435.518	861.97
435.894	859.48
436.269	869.65
436.644	884.57
437.02	875.75
437.395	879.82
437.77	888.41
438.145	918.92
438.52	903.1
438.895	910.56
439.271	920.95
439.646	922.31
440.021	961.4
440.395	945.13
440.77	951.91
441.145	960.72
441.52	963.89
441.895	982.42
442.27	985.36
442.645	982.42
443.019	1000.5
443.394	1004.34
443.769	998.24
444.143	990.33
444.518	1003.66
444.892	990.55
445.267	1019.93
445.641	1031.91
446.016	1023.32
446.39	1066.26
446.764	1042.76
447.139	1050.21
447.513	1040.04
447.887	1046.82
448.262	1064.45
448.636	1055.86
449.01	1065.35
449.384	1098.35
449.758	1101.96
450.132	1113.71
450.506	1119.59
450.88	1123.88
451.254	1124.33
451.628	1140.15
452.002	1128.85
452.376	1173.83
452.75	1174.28
453.123	1163.2
453.497	1148.97
453.871	1178.34
454.244	1186.48
454.618	1242.52
454.992	1237.33
455.365	1248.85
455.739	1256.76
456.112	1309.19
456.486	1288.17
456.859	1311.45
457.232	1308.74
457.606	1320.94
457.979	1333.59
458.352	1373.37
458.725	1400.49
459.099	1391.67
459.472	1423.76
459.845	1428.28
460.218	1409.53
460.591	1444.55
460.964	1445.91
461.337	1489.52
461.71	1482.74
462.083	1528.39
462.456	1520.03
462.829	1546.02
463.201	1548.5
463.574	1573.59
463.947	1586.47
464.32	1626.92
464.692	1610.65
465.065	1650.42
465.438	1650.87
465.81	1691.33
466.183	1689.29
466.555	1749.86
466.928	1795.05
467.3	1742.85
467.672	1783.98
468.045	1838.21
468.417	1833.69
468.789	1862.85
469.161	1887.7
469.534	1925.67
469.906	1929.96
470.278	1947.59
470.65	1970.64
471.022	2012.45
471.394	2039.34
471.766	2099.9
472.138	2113.46
472.51	2133.8
472.882	2190.52
473.253	2222.84
473.625	2241.14
473.997	2301.48
474.369	2308.48
474.74	2342.38
475.112	2356.62
475.484	2439.78
475.855	2464.19
476.227	2518.87
476.598	2550.74
476.97	2603.84
477.341	2677.97
477.713	2731.75
478.084	2721.35
478.455	2788.7
478.827	2838.87
479.198	2926.55
479.569	2951.18
479.94	3024.4
480.311	3067.56
480.682	3172.19
481.053	3204.96
481.424	3250.83
481.795	3262.81
482.166	3369.02
482.537	3414.22
482.908	3499.87
483.279	3549.58
483.65	3596.36
484.021	3688.56
484.391	3720.42
484.762	3787.54
485.133	3785.51
485.503	3898.95
485.874	3967.88
486.244	4046.29
486.615	4096.46
486.985	4159.28
487.356	4253.29
487.726	4300.52
488.097	4375.55
488.467	4450.8
488.837	4541.19
489.207	4590.23
489.578	4669.78
489.948	4753.39
490.318	4769.44
490.688	4818.93
491.058	4907.96
491.428	4975.76
491.798	5016.21
492.168	5166.49
492.538	5178.92
492.908	5240.84
493.278	5339.14
493.648	5380.49
494.017	5447.84
494.387	5448.74
494.757	5497.55
495.126	5650.09
495.496	5630.88
495.866	5688.96
496.235	5763.53
496.605	5806.25
496.974	5868.39
497.344	5950.42
497.713	5964.21
498.082	6036.52
498.452	6117.42
498.821	6132.11
499.19	6144.77
499.559	6194.26
499.928	6281.04
500.298	6272.22
500.667	6358.32
501.036	6380.69
501.405	6458.88
501.774	6499.56
502.143	6541.14
502.512	6540.46
502.88	6563.29
503.249	6650.29
503.618	6642.38
503.987	6761.47
504.356	6785.65
504.724	6838.53
505.093	6852.55
505.462	6831.08
505.83	6904.75
506.199	6942.03
506.567	6977.51
506.936	7043.95
507.304	7098.19
507.672	7179.32
508.041	7170.5
508.409	7215.93
508.777	7234
509.145	7377.5
509.514	7369.59
509.882	7399.65
510.25	7399.88
510.618	7480.1
510.986	7491.63
511.354	7597.16
511.722	7632.86
512.09	7673.99
512.458	7664.95
512.826	7781.33
513.193	7750.38
513.561	7767.1
513.929	7804.61
514.297	7939.97
514.664	7990.14
515.032	7934.55
515.4	8070.82
515.767	8088.45
516.135	8115.34
516.502	8044.15
516.869	8212.51
517.237	8184.04
517.604	8155.56
517.972	8268.33
518.339	8330.7
518.706	8342.9
519.073	8411.6
519.44	8450.47
519.808	8513.97
520.175	8496.12
520.542	8609.34
520.909	8608.66
521.276	8650.01
521.643	8723.68
522.009	8684.14
522.376	8804.36
522.743	8830.12
523.11	8941.3
523.477	9007.74
523.843	9011.36
524.21	9080.74
524.577	9157.57
524.943	9170.9
525.31	9254.74
525.676	9267.62
526.043	9360.73
526.409	9427.17
526.776	9443.44
527.142	9445.92
527.508	9514.62
527.874	9594.39
528.241	9681.4
528.607	9754.39
528.973	9843.43
529.339	9814.5
529.705	9869.42
530.071	9969.3
530.437	10000.26
530.803	10024.67
531.169	10127.49
531.535	10055.17
531.901	10165
532.267	10206.36
532.632	10321.61
532.998	10248.61
533.364	10409.97
533.73	10354.6
534.095	10442.06
534.461	10484.77
534.826	10514.37
535.192	10586.01
535.557	10621.26
535.923	10733.57
536.288	10719.56
536.653	10809.28
537.019	10764.76
537.384	10894.7
537.749	10910.97
538.114	10957.52
538.479	10965.43
538.845	11035.71
539.21	11029.16
539.575	11134.69
539.94	11147.35
540.305	11183.51
540.67	11262.15
541.034	11240.68
541.399	11371.07
541.764	11384.86
542.129	11378.53
542.494	11440.22
542.858	11476.83
543.223	11516.6
543.587	11614
543.952	11608.13
544.316	11641.35
544.681	11625.75
545.045	11725.64
545.41	11823.49
545.774	11816.48
546.138	11817.61
546.503	11859.19
546.867	11821.45
547.231	12010.6
547.595	12053.99
547.959	12095.8
548.324	12052.64
548.688	12051.51
549.052	12199.98
549.416	12146.42
549.779	12306.19
550.143	12224.16
550.507	12364.72
550.871	12449.46
551.235	12421.89
551.599	12540.76
551.962	12469.35
552.326	12625.5
552.689	12664.82
553.053	12595.22
553.417	12622.34
553.78	12831.6
554.143	12742.33
554.507	12783.24
554.87	12861.43
555.234	12969.9
555.597	12962.22
555.96	13010.12
556.323	12997.02
556.686	13023.46
557.05	13123.34
557.413	13154.98
557.776	13183
558.139	13284.69
558.502	13260.06
558.865	13359.95
559.228	13449.21
559.59	13516.1
559.953	13530.79
560.316	13587.96
560.679	13614.63
561.041	13683.78
561.404	13749.09
561.767	13873.83
562.129	13781.86
562.492	13972.36
562.854	13900.5
563.217	13920.61
563.579	13919.03
563.941	14098.01
564.304	14142.3
564.666	14222.07
565.028	14110.89
565.39	14248.28
565.753	14389.52
566.115	14364.21
566.477	14423.65
566.839	14420.03
567.201	14517.88
567.563	14564.21
567.925	14604.66
568.287	14635.39
568.648	14772.34
569.01	14868.38
569.372	14886.01
569.734	14923.97
570.095	14970.75
570.457	15084.19
570.819	15087.81
571.18	15176.39
571.542	15273.12
571.903	15244.19
572.265	15368.25
572.626	15383.17
572.987	15450.51
573.349	15497.97
573.71	15597.85
574.071	15630.39
574.432	15729.15
574.794	15938.18
575.155	15934.34
575.516	15937.5
575.877	16073.77
576.238	16033.32
576.599	16219.76
576.96	16269.93
577.32	16403.71
577.681	16537.04
578.042	16627.43
578.403	16763.02
578.763	16847.99
579.124	16964.82
579.485	17069.68
579.845	17299.73
580.206	17389.9
580.566	17541.3
580.927	17551.25
581.287	17866.04
581.648	17913.05
582.008	18227.61
582.368	18266.71
582.728	18480.71
583.089	18505.8
583.449	18777.66
583.809	18956.63
584.169	19248.6
584.529	19404.76
584.889	19689.72
585.249	19797.52
585.609	19966.33
585.969	20247.9
586.329	20398.4
586.688	20757.72
587.048	21003.36
587.408	21233.86
587.768	21449
588.127	21717.47
588.487	22006.72
588.846	22418.46
589.206	22503.89
589.565	22872.24
589.925	23236.97
590.284	23376.18
590.643	23775.94
591.003	24170.28
591.362	24411.63
591.721	24733.66
592.08	24908.34
592.44	25290.25
592.799	25594.65
593.158	25931.14
593.517	26246.16
593.876	26629.65
594.235	26837.33
594.593	27223.99
594.952	27593.47
595.311	27839.79
595.67	28349.61
596.029	28721.35
596.387	29169.7
596.746	29428.22
597.104	29624.38
597.463	30002.67
597.822	30219.16
598.18	30545.93
598.538	30880.61
598.897	31400.15
599.255	31504.1
599.613	32220.92
599.972	32370.52
600.33	32722.6
600.688	33034.46
601.046	33407.33
601.404	33819.07
601.762	34029.23
602.12	34473.97
602.478	34733.62
602.836	35012.48
603.194	35169.09
603.552	35593.26
603.91	35800.26
604.268	36229.17
604.625	36262.17
604.983	36887.91
605.341	36958.42
605.698	37432.08
606.056	37723.15
606.413	37863.48
606.771	38270.02
607.128	38473.41
607.485	38647.64
607.843	39001.31
608.2	39271.13
608.557	39733.04
608.914	39813.49
609.272	40228.39
609.629	40433.58
609.986	40795.16
610.343	40687.36
610.7	41385.65
611.057	41359.21
611.414	41639.88
611.771	41854.11
612.127	42153.09
612.484	42300.2
612.841	42628.55
613.198	42657.93
613.554	42735.67
613.911	43213.17
614.267	43409.55
614.624	43432.83
614.98	43632.14
615.337	44085.47
615.693	44152.36
616.05	44306.93
616.406	44722.96
616.762	44693.81
617.118	44798.67
617.475	44913.01
617.831	45214.02
618.187	45386.9
618.543	45540.57
618.899	45749.15
619.255	45807.23
619.611	45965.42
619.967	46267.78
620.323	46299.64
620.678	46370.83
621.034	46272.53
621.39	46528.56
621.746	46565.17
622.101	47136.68
622.457	46785.28
622.812	46937.37
623.168	47044.26
623.523	47244.25
623.879	47501.87
624.234	47224.59
624.589	47425.94
624.945	47430.91
625.3	47612.83
625.655	47681.75
626.01	47771.92
626.365	47984.35
626.72	47870.68
627.075	47910
627.43	47851.24
627.785	47827.51
628.14	48148.86
628.495	48060.05
628.85	48149.31
629.205	48042.2
629.559	48281.96
629.914	48119.26
630.269	48318.57
630.623	48342.75
630.978	48198.13
631.332	48439.47
631.687	48479.47
632.041	48457.78
632.396	48412.58
632.75	48365.13
633.104	48590.21
633.459	48348.4
633.813	48418.68
634.167	48473.15
634.521	48385.92
634.875	48643.76
635.229	48511.34
635.583	48416.88
635.937	48402.41
636.291	48484.9
636.645	48418.01
636.999	48267.05
637.352	48592.47
637.706	48304.34
638.06	48533.48
638.413	48404.67
638.767	48441.73
639.121	48500.04
639.474	48268.63
639.828	48351.34
640.181	48349.08
640.534	48402.64
640.888	48298.69
641.241	48209.2
641.594	48322.42
641.947	48464.56
642.301	48242.64
642.654	48333.49
643.007	48406.03
643.36	48302.08
643.713	48206.03
644.066	48260.04
644.419	48142.08
644.771	47871.35
645.124	47526.73
645.477	47480.4
645.83	47212.84
646.182	47103.92
646.535	47248.77
646.888	47279.51
647.24	47005.61
647.593	47289.45
647.945	47136.23
648.298	47017.14
648.65	46952.51
649.002	46846.3
649.355	47134.65
649.707	46991.6
650.059	47191.37
650.411	47612.83
650.763	47699.61
651.115	48028.19
651.467	47902.77
651.819	47891.01
652.171	47915.87
652.523	47649.44
652.875	47798.14
653.227	47658.25
653.578	47818.25
653.93	47690.57
654.282	47541.87
654.633	47559.95
654.985	47638.14
655.337	47680.85
655.688	47707.52
656.039	47715.88
656.391	47445.6
656.742	47462.33
657.094	47476.11
657.445	47608.76
657.796	47597.46
658.147	47506.39
658.498	47517.92
658.849	47578.93
659.2	47579.84
659.551	47427.98
659.902	47672.04
660.253	47521.08
660.604	47575.32
660.955	47321.09
661.306	47405.38
661.656	47410.12
662.007	47512.04
662.358	47451.93
662.708	47476.56
663.059	47404.02
663.409	47146.85
663.76	47520.86
664.11	47488.09
664.461	47487.18
664.811	47460.97
665.161	47463.91
665.511	47331.03
665.862	47374.87
666.212	47564.24
666.562	47492.38
666.912	47472.72
667.262	47334.65
667.612	47332.84
667.962	47376.68
668.312	47245.61
668.662	47497.58
669.011	47330.58
669.361	47227.76
669.711	47157.7
670.06	47251.94
670.41	47156.12
670.76	47122.67
671.109	47180.52
671.459	47148.44
671.808	47007.42
672.157	47209.45
672.507	46881.55
672.856	46940.76
673.205	47112.96
673.554	47140.53
673.904	47136.23
674.253	47236.12
674.602	47117.02
674.951	46588.9
675.3	46324.5
675.649	46898.72
675.998	46960.42
676.346	46826.41
676.695	47013.75
677.044	46759.52
677.393	46802.23
677.741	46931.94
678.09	46943.02
678.438	46797.94
678.787	46804.04
679.135	46816.24
679.484	46540.09
679.832	46746.64
680.181	46422.8
680.529	46558.39
680.877	46351.85
681.225	46228.23
681.573	46720.2
681.922	46321.56
682.27	46287.89
682.618	46239.53
682.966	45986.43
683.314	46177.16
683.661	46154.56
684.009	46002.02
684.357	45947.79
684.705	45789.15
685.053	45782.37
685.4	45777.17
685.748	45507.8
686.095	45572.21
686.443	45499.21
686.79	45287.47
687.138	45549.16
687.485	45481.13
687.832	45479.55
688.18	45225.1
688.527	45179.45
688.874	45001.83
689.221	45055.84
689.568	44820.81
689.915	44895.39
690.262	44956.18
690.609	44790.76
690.956	44598.45
691.303	44581.72
691.65	44383.99
691.997	44477.55
692.344	44130.89
692.69	44069.19
693.037	44176.08
693.383	43797.34
693.73	43960.72
694.077	43782.65
694.423	43723.21
694.769	43525.03
695.116	43533.62
695.462	43456.78
695.808	43319.38
696.155	43428.53
696.501	43090.69
696.847	43047.07
697.193	42819.74
697.539	43042.55
697.885	42651.15
698.231	42569.8
698.577	42660.42
698.923	42525.96
699.269	42424.94
699.614	42112.41
699.96	42208.23
700.306	42031.06
700.651	41992.86
700.997	41875.35
701.342	41780.44
701.688	41759.42
702.033	41520.11
702.379	41522.82
702.724	41511.97
703.069	41451.64
703.415	40939.79
703.76	41129.84
704.105	41093
704.45	40984.76
704.795	40637.87
705.14	40665.67
705.485	40659.11
705.83	40422.74
706.175	40541.83
706.52	40369.4
706.865	40258
707.209	40255.74
707.554	40133.48
707.899	40199.69
708.243	39907.72
708.588	40016.65
708.932	39631.57
709.277	39615.75
709.621	39695.98
709.966	39527.84
710.31	39538.47
710.654	39161.53
710.998	39293.73
711.342	39280.39
711.687	39206.72
712.031	39100.51
712.375	38762.44
712.719	38914.3
713.063	38855.55
713.407	38933.96
713.75	38695.32
714.094	38667.3
714.438	38659.39
714.782	38487.87
715.125	38372.17
715.469	38538.94
715.812	38245.17
716.156	38112.97
716.499	38074.78
716.843	38005.17
717.186	37881.11
717.53	37971.5
717.873	37996.59
718.216	37955.68
718.559	37658.52
718.902	37470.95
719.246	37582.59
719.589	37556.15
719.932	37367
720.275	37360.67
720.617	37319.99
720.96	37346.89
721.303	37347.34
721.646	37343.72
721.989	36863.28
722.331	37117.51
722.674	37007.23
723.016	36957.29
723.359	36957.52
723.701	36923.39
724.044	36722.49
724.386	36655.15
724.729	36774.02
725.071	36654.47
725.413	36633.91
725.755	36528.6
726.097	36458.77
726.439	36305.78
726.782	36117.54
727.124	36504.42
727.465	36195.96
727.807	36085.22
728.149	36045.68
728.491	36009.52
728.833	35912.35
729.175	35858.11
729.516	35867.38
729.858	35769.07
730.199	35877.55
730.541	35616.99
730.882	35543.32
731.224	35769.98
731.565	35569.76
731.906	35489.98
732.248	35484.79
732.589	35329.31
732.93	35309.65
733.271	35315.98
733.612	35184
733.953	35259.93
734.294	35073.95
734.635	35014.52
734.976	35175.87
735.317	34926.61
735.658	34930.45
735.999	34842.54
736.339	34864.69
736.68	34927.74
737.021	34855.2
737.361	34662.44
737.702	34749.67
738.042	34658.37
738.383	34553.74
738.723	34680.06
739.063	34551.03
739.404	34634.41
739.744	34478.94
740.084	34450.01
740.424	34413.4
740.764	34312.39
741.104	34392.84
741.444	34203.69
741.784	34068.78
742.124	34170.25
742.464	34102.45
742.804	34023.36
743.143	33937.03
743.483	33994.66
743.823	33791.5
744.162	33883.7
744.502	34016.58
744.841	33709.47
745.181	33758.51
745.52	33723.93
745.86	33743.82
746.199	33647.32
746.538	33541.79
746.877	33640.32
747.216	33584.5
747.556	33464.05
747.895	33439.87
748.234	33309.48
748.573	33252.98
748.911	33302.92
749.25	33285.3
749.589	33098.86
749.928	33180.44
750.267	33227.67
750.605	33034.46
750.944	32956.04
751.283	32964.4
751.621	32969.83
751.96	32799.66
752.298	32884.18
752.636	32840.56
752.975	32700.68
753.313	32542.27
753.651	32638.99
753.989	32378.65
754.327	32334.81
754.666	32245.32
755.004	32411.2
755.342	32373.91
755.679	32211.65
756.017	32025.67
756.355	32161.71
756.693	31959.46
757.031	32114.25
757.368	31808.27
757.706	31687.82
758.044	31711.33
758.381	31663.42
758.719	31637.66
759.056	31650.99
759.394	31505.46
759.731	31386.36
760.068	31283.99
760.405	31116.77
760.743	30934.4
761.08	31124.45
761.417	30918.58
761.754	30928.3
762.091	30878.58
762.428	30759.71
762.765	30623.9
763.102	30729.66
763.438	30485.37
763.775	30279.95
764.112	30416.22
764.449	30285.6
764.785	30184.36
765.122	30086.74
765.458	29861.43
765.795	29919.28
766.131	29811.94
766.467	29795.45
766.804	29691.49
767.14	29570.59
767.476	29476.58
767.812	29274.56
768.148	29334.67
768.485	29060.32
768.821	28943.04
769.157	29014.9
769.492	28958.63
769.828	28867.11
770.164	28693.55
770.5	28431.87
770.836	28505.31
771.171	28395.48
771.507	28210.4
771.842	27990.97
772.178	28166.56
772.513	28038.43
772.849	27852.9
773.184	27720.02
773.519	27807.93
773.855	27695.39
774.19	27563.87
774.525	27465.79
774.86	27403.64
775.195	27351.67
775.53	27232.12
775.865	27009.3
776.2	27015.41
776.535	26801.17
776.87	26975.41
777.205	26715.07
777.539	26609.31
777.874	26631.23
778.209	26443.22
778.543	26229.89
778.878	26159.61
779.212	26118.03
779.547	26085.26
779.881	26099.27
780.215	25855.21
780.55	25939.95
780.884	25706.29
781.218	25701.99
781.552	25662.67
781.886	25388.1
782.22	25429.01
782.554	25268.11
782.888	25056.36
783.222	24965.74
783.556	24796.93
783.889	24766.43
784.223	24658.18
784.557	24657.05
784.89	24600.55
785.224	24431.07
785.557	24463.16
785.891	24234.01
786.224	24182.03
786.558	24215.03
786.891	24062.94
787.224	23891.87
787.557	23864.75
787.891	23898.2
788.224	23819.11
788.557	23761.03
788.89	23735.04
789.223	23649.84
789.556	23499.34
789.888	23399.46
790.221	23279.23
790.554	23147.71
790.887	23080.59
791.219	22914.72
791.552	22935.96
791.884	22836.98
792.217	22843.09
792.549	22755.18
792.882	22667.72
793.214	22497.33
793.546	22624.79
793.879	22420.95
794.211	22244.46
794.543	22253.27
794.875	22293.04
795.207	22242.65
795.539	22149.32
795.871	22116.55
796.203	21964.92
796.535	21772.15
796.867	21728.54
797.198	21703
797.53	21569
797.862	21536.91
798.193	21622.1
798.525	21423.69
798.856	21359.51
799.188	21263.01
799.519	21115.45
799.85	20961.55
800.182	20970.37
800.513	21030.25
800.844	20833.42
801.175	20964.27
801.506	20870.48
801.837	20761.33
802.168	20779.86
802.499	20758.17
802.83	20576.93
803.161	20553.2
803.491	20430.27
803.822	20362.02
804.153	20268.01
804.483	20126.1
804.814	20174.91
805.145	20041.8
805.475	20109.15
805.805	20034.35
806.136	19935.37
806.466	20063.72
806.796	19991.64
807.126	19615.37
807.457	19769.49
807.787	19752.32
808.117	19592.32
808.447	19504.64
808.777	19571.08
809.107	19395.27
809.436	19361.6
809.766	19280.47
810.096	19301.03
810.426	19253.35
810.755	19165.67
811.085	19166.57
811.414	19066.91
811.744	18917.77
812.073	19033.47
812.403	18890.87
812.732	18914.38
813.061	18847.26
813.39	18749.41
813.719	18718.22
814.049	18638.22
814.378	18726.58
814.707	18662.86
815.036	18547.83
815.365	18514.16
815.693	18347.84
816.022	18323.88
816.351	18316.65
816.68	18149.2
817.008	18335.63
817.337	18090.89
817.665	18034.85
817.994	18084.79
818.322	18018.58
818.651	17994.63
818.979	17911.46
819.307	18097.67
819.636	17937.23
819.964	17893.39
820.292	17908.53
820.62	17843.44
820.948	17711.92
821.276	17846.38
821.604	17805.25
821.932	17713.5
822.259	17716.89
822.587	17785.14
822.915	17728.19
823.243	17748.76
823.57	17730.9
823.898	17731.13
824.225	17638.7
824.553	17597.35
824.88	17691.58
825.207	17699.72
825.535	17651.36
825.862	17725.93
826.189	17615.88
826.516	17692.49
826.843	17654.07
827.17	17680.74
827.497	17692.26
827.824	17719.83
828.151	17719.83
828.478	17782.2
828.805	17837.79
829.131	17696.78
829.458	17562.09
829.785	17523.68
830.111	17593.28
830.438	17626.73
830.764	17586.73
831.09	17720.73
831.417	17554.86
831.743	17638.48
832.069	17585.6
832.395	17487.75
832.722	17561.64
833.048	17518.48
833.374	17569.78
833.7	17371.59
834.026	17392.83
834.351	17426.51
834.677	17429.67
835.003	17440.06
835.329	17430.12
835.654	17386.51
835.98	17310.58
836.306	17431.7
836.631	17261.76
836.956	17365.72
837.282	17348.54
837.607	17264.93
837.932	17247.07
838.258	17175.44
838.583	17187.19
838.908	17099.73
839.233	17156
839.558	17085.72
839.883	17024.93
840.208	17020.19
840.533	16928.44
840.858	16940.19
841.182	16916.01
841.507	16905.16
841.832	16843.47
842.156	16818.61
842.481	16810.25
842.805	16751.27
843.13	16639.18
843.454	16622.91
843.778	16577.94
844.103	16505.17
844.427	16496.59
844.751	16492.97
845.075	16386.98
845.399	16392.18
845.723	16237.61
846.047	16241.68
846.371	16151.74
846.695	16189.48
847.019	16097.27
847.343	15977.05
847.666	15833.55
847.99	15815.25
848.313	15734.35
848.637	15807.56
848.96	15678.98
849.284	15639.89
849.607	15599.89
849.931	15422.26
850.254	15350.4
850.577	15293.23
850.9	15226.79
851.223	15243.51
851.546	15045.1
851.869	15003.74
852.192	15052.33
852.515	14893.92
852.838	14796.29
853.161	14867.93
853.483	14798.1
853.806	14725.56
854.129	14676.75
854.451	14687.59
854.774	14599.91
855.096	14519.69
855.419	14447.37
855.741	14407.83
856.063	14417.32
856.385	14396.75
856.708	14383.87
857.03	14325.34
857.352	14256.87
857.674	14218.91
857.996	14205.35
858.318	14101.39
858.64	14163.99
858.961	14017.33
859.283	14044.22
859.605	13968.97
859.926	13995.41
860.248	13976.88
860.57	13890.55
860.891	14026.37
861.212	13824.11
861.534	13697.34
861.855	13670.45
862.176	13768.75
862.498	13697.34
862.819	13766.71
863.14	13594.29
863.461	13601.29
863.782	13541.18
864.103	13585.7
864.424	13519.72
864.745	13573.73
865.065	13427.97
865.386	13367.18
865.707	13411.7
866.027	13384.8
866.348	13338.48
866.668	13404.01
866.989	13339.83
867.309	13353.62
867.63	13238.59
867.95	13314.07
868.27	13176
868.59	13160.4
868.91	13065.94
869.23	13122.89
869.55	13072.04
869.87	13126.28
870.19	13101.42
870.51	13184.36
870.83	13112.72
871.15	13072.95
871.469	13018.49
871.789	13017.81
872.109	12997.92
872.428	12832.73
872.748	12902.33
873.067	12906.85
873.386	12960.18
873.706	12841.99
874.025	12765.84
874.344	12758.15
874.663	12790.92
874.982	12790.47
875.301	12771.03
875.62	12717.7
875.939	12709.57
876.258	12727.87
876.577	12672.73
876.896	12676.35
877.214	12572.4
877.533	12643.81
877.852	12562.23
878.17	12534.2
878.489	12592.51
878.807	12464.6
879.125	12480.87
879.444	12439.74
879.762	12438.16
880.08	12486.07
880.398	12402.68
880.716	12399.74
881.034	12398.16
881.352	12367.43
881.67	12234.1
881.988	12209.47
882.306	12238.39
882.624	12229.58
882.941	12157.72
883.259	12084.72
883.577	12043.14
883.894	12096.48
884.212	12100.32
884.529	11992.3
884.846	12073.88
885.164	11999.76
885.481	11950.49
885.798	11891.06
886.115	11862.13
886.432	11924.5
886.75	11782.36
887.067	11798.18
887.383	11765.41
887.7	11808.8
888.017	11703.27
888.334	11768.57
888.651	11700.55
888.967	11663.04
889.284	11604.74
889.6	11696.71
889.917	11412.2
890.233	11512.31
890.55	11532.42
890.866	11451.52
891.182	11392.31
891.498	11364.29
891.815	11414.23
892.131	11346.21
892.447	11258.53
892.763	11291.07
893.079	11202.94
893.395	11175.37
893.71	11231.41
894.026	11105.32
894.342	11081.59
894.657	11023.51
894.973	11056.73
895.289	11017.41
895.604	10967.01
895.92	10893.12
896.235	10868.49
896.55	10834.59
896.865	10835.27
897.181	10763.63
897.496	10750.52
897.811	10713.24
898.126	10690.86
898.441	10611.99
898.756	10554.82
899.071	10572.67
899.386	10544.65
899.7	10460.36
900.015	10436.63
900.33	10281.61
900.644	10328.16
900.959	10356.63
901.273	10298.1
901.588	10276.18
901.902	10192.8
902.216	10138.79
902.531	10171.33
902.845	10099.47
903.159	10074.83
903.473	10021.28
903.787	10007.27
904.101	9915.06
904.415	9960.26
904.729	9848.17
905.042	9820.15
905.356	9817.21
905.67	9763.88
905.984	9789.64
906.297	9689.99
906.611	9648.4
906.924	9656.54
907.237	9622.64
907.551	9540.61
907.864	9523.66
908.177	9493.61
908.491	9491.12
908.804	9422.2
909.117	9349.88
909.43	9330.67
909.743	9283.44
910.056	9271.24
910.368	9170.68
910.681	9211.35
910.994	9162.32
911.307	9131.36
911.619	9042.32
911.932	9047.29
912.244	8963.45
912.557	8969.33
912.869	8932.27
913.181	8836.45
913.494	8891.59
913.806	8847.75
914.118	8843.45
914.43	8700.86
914.742	8786.51
915.054	8638.94
915.366	8670.13
915.678	8630.35
915.99	8575.89
916.302	8482.79
916.613	8443.92
916.925	8445.72
917.236	8425.39
917.548	8424.71
917.859	8336.8
918.171	8372.96
918.482	8307.87
918.794	8259.74
919.105	8214.54
919.416	8187.43
919.727	8181.55
920.038	8193.08
920.349	8026.3
920.66	8025.4
920.971	8099.29
921.282	8035.34
921.593	7984.95
921.903	7930.71
922.214	7937.72
922.525	7841.67
922.835	7742.69
923.146	7759.41
923.456	7729.13
923.767	7760.09
924.077	7650.26
924.387	7654.11
924.697	7515.13
925.008	7560.78
925.318	7547.89
925.628	7482.36
925.938	7475.13
926.248	7436.26
926.558	7386.32
926.867	7356.26
927.177	7375.7
927.487	7334.57
927.796	7272.2
928.106	7185.64
928.416	7160.56
928.725	7201.46
929.034	7074.91
929.344	7098.87
929.653	7117.4
929.962	7058.42
930.271	6988.59
930.581	6985.65
930.89	6885.31
931.199	6895.48
931.508	6900.91
931.817	6847.12
932.125	6823.17
932.434	6802.15
932.743	6753.34
933.051	6744.98
933.36	6714.47
933.669	6640.57
933.977	6664.08
934.286	6607.81
934.594	6618.43
934.902	6531.42
935.21	6473.35
935.519	6527.81
935.827	6499.11
936.135	6469.05
936.443	6439.9
936.751	6420.69
937.059	6422.27
937.367	6276.97
937.674	6320.58
937.982	6373.01
938.29	6275.16
938.597	6245.33
938.905	6226.12
939.213	6224.54
939.52	6104.77
939.827	6158.33
940.135	6107.25
940.442	6041.95
940.749	6029.97
941.056	6061.15
941.363	6029.52
941.67	5949.74
941.977	5921.72
942.284	5893.25
942.591	5903.19
942.898	5846.24
943.205	5886.47
943.511	5863.87
943.818	5754.5
944.125	5775.29
944.431	5732.35
944.738	5729.41
945.044	5699.58
945.35	5652.8
945.657	5637.66
945.963	5662.97
946.269	5553.14
946.575	5636.76
946.881	5502.75
947.187	5540.94
947.493	5506.59
947.799	5488.51
948.105	5475.63
948.41	5428.18
948.716	5441.74
949.022	5356.77
949.327	5355.18
949.633	5295.07
949.938	5293.72
950.244	5314.96
950.549	5241.74
950.854	5249.42
951.16	5226.83
951.465	5189.09
951.77	5162.42
952.075	5126.94
952.38	5137.79
952.685	5120.16
952.99	5084.68
953.294	5054.18
953.599	5011.46
953.904	5029.32
954.209	4975.98
954.513	4970.34
954.818	4955.87
955.122	4926.95
955.426	4865.03
955.731	4889.21
956.035	4876.78
956.339	4845.59
956.643	4824.35
956.948	4754.07
957.252	4732.83
957.556	4750.91
957.86	4682.66
958.163	4667.07
958.467	4685.6
958.771	4660.97
959.075	4664.35
959.378	4626.39
959.682	4617.8
959.985	4603.57
960.289	4558.59
960.592	4540.06
960.896	4507.75
961.199	4536.22
961.502	4484.92
961.805	4445.15
962.108	4418.26
962.411	4396.34
962.714	4377.58
963.017	4385.27
963.32	4367.87
963.623	4328.54
963.926	4326.74
964.228	4314.53
964.531	4292.16
964.833	4268.43
965.136	4242.22
965.438	4206.74
965.741	4207.19
966.043	4169.23
966.345	4177.14
966.648	4114.76
966.95	4143.92
967.252	4100.53
967.554	4129.45
967.856	4122.9
968.158	4058.04
968.46	4060.98
968.761	4058.49
969.063	4034.09
969.365	3990.02
969.666	3985.28
969.968	3975.79
970.269	3915.45
970.571	3955.22
970.872	3924.26
971.174	3869.8
971.475	3856.92
971.776	3809.46
972.077	3808.11
972.378	3863.02
972.679	3792.51
972.98	3770.37
973.281	3762.23
973.582	3774.21
973.883	3742.35
974.183	3735.57
974.484	3703.48
974.785	3736.24
975.085	3696.7
975.386	3669.58
975.686	3662.57
975.986	3616.47
976.287	3637.26
976.587	3597.04
976.887	3594.78
977.187	3576.47
977.487	3559.07
977.787	3530.6
978.087	3499.19
978.387	3528.79
978.687	3515.01
978.987	3476.59
979.286	3486.98
979.586	3432.3
979.885	3441.56
980.185	3408.34
980.484	3367.89
980.784	3376.93
981.083	3314.79
981.382	3383.48
981.682	3356.59
981.981	3346.65
982.28	3328.57
982.579	3270.04
982.878	3253.32
983.177	3249.48
983.475	3277.5
983.774	3221.23
984.073	3214.22
984.372	3202.47
984.67	3193.88
984.969	3173.55
985.267	3170.16
985.566	3133.32
985.864	3112.31
986.162	3109.82
986.461	3114.11
986.759	3072.31
987.057	3058.07
987.355	3068.24
987.653	3064.62
987.951	3024.62
988.249	3012.65
988.547	3005.19
988.844	3033.66
989.142	3003.83
989.44	2961.35
989.737	2957.96
990.035	2946.89
990.332	2904.63
990.63	2913.21
990.927	2884.74
991.224	2907.56
991.521	2872.99
991.819	2832.09
992.116	2837.28
992.413	2822.6
992.71	2809.04
993.006	2814.46
993.303	2775.59
993.6	2778.3
993.897	2763.39
994.193	2747.34
994.49	2730.62
994.787	2706.21
995.083	2701.47
995.379	2707.12
995.676	2687.01
995.972	2640.23
996.268	2640.91
996.565	2623.96
996.861	2605.2
997.157	2578.76
997.453	2605.2
997.749	2624.63
998.044	2565.2
998.34	2583.96
998.636	2567.23
998.932	2516.61
999.227	2490.17
999.523	2493.56
999.818	2521.81
1000.114	2481.59
1000.409	2473
1000.704	2438.88
1001	2477.29
1001.295	2440.23
1001.59	2437.52
1001.885	2414.24
1002.18	2418.54
1002.475	2358.43
1002.77	2354.36
1003.065	2337.64
1003.359	2351.2
1003.654	2320.91
1003.949	2295.6
1004.243	2336.05
1004.538	2291.76
1004.832	2280.91
1005.127	2274.14
1005.421	2256.73
1005.715	2202.5
1006.009	2209.96
1006.304	2218.32
1006.598	2186
1006.892	2222.84
1007.186	2165.44
1007.48	2162.27
1007.773	2125.21
1008.067	2140.81
1008.361	2144.65
1008.655	2117.3
1008.948	2099.68
1009.242	2078.66
1009.535	2063.97
1009.829	2063.97
1010.122	2064.42
1010.415	2046.8
1010.708	2028.49
1011.001	2024.88
1011.295	1998.21
1011.588	1985.78
1011.881	1953.47
1012.173	1963.86
1012.466	1951.88
1012.759	1937.42
1013.052	1929.51
1013.344	1938.1
1013.637	1917.53
1013.93	1882.96
1014.222	1852.9
1014.514	1879.8
1014.807	1866.01
1015.099	1861.26
1015.391	1847.48
1015.683	1810.87
1015.976	1855.62
1016.268	1798.67
1016.56	1787.14
1016.851	1793.7
1017.143	1764.09
1017.435	1741.49
1017.727	1736.07
1018.018	1763.64
1018.31	1701.95
1018.602	1709.18
1018.893	1706.47
1019.185	1690.42
1019.476	1687.48
1019.767	1642.06
1020.058	1650.42
1020.35	1634.15
1020.641	1620.37
1020.932	1623.53
1021.223	1649.74
1021.514	1589.18
1021.804	1596.41
1022.095	1593.02
1022.386	1590.09
1022.677	1594.38
1022.967	1548.05
1023.258	1518.9
1023.548	1558
1023.839	1545.11
1024.129	1510.09
1024.419	1518.45
1024.709	1513.7
1025	1462.18
1025.29	1488.39
1025.58	1466.25
1025.87	1457.89
1026.16	1440.48
1026.449	1449.98
1026.739	1425.8
1027.029	1433.03
1027.319	1418.79
1027.608	1383.09
1027.898	1404.1
1028.187	1408.62
1028.477	1379.92
1028.766	1361.16
1029.055	1341.5
1029.344	1357.32
1029.634	1314.84
1029.923	1339.7
1030.212	1308.51
1030.501	1291.34
1030.79	1281.84
1031.078	1285.91
1031.367	1279.81
1031.656	1267.38
1031.945	1252.24
1032.233	1239.36
1032.522	1242.3
1032.81	1244.56
1033.099	1230.09
1033.387	1233.94
1033.675	1230.09
1033.963	1202.75
1034.251	1199.36
1034.54	1183.77
1034.828	1166.82
1035.116	1157.78
1035.403	1156.2
1035.691	1159.59
1035.979	1145.35
1036.267	1122.98
1036.554	1141.51
1036.842	1134.73
1037.129	1141.51
1037.417	1093.15
1037.704	1114.17
1037.992	1094.05
1038.279	1078.01
1038.566	1078.01
1038.853	1078.01
1039.14	1078.01
