Data from hue_210_FLMS001491_00025.txt Node
Date: Tue Feb 07 16:40:57 GMT 2017
User: dcchb
Spectrometer: FLMS00149
Trigger mode: 0
Integration Time (sec): 2.000000E-2
Scans to average: 10
Electric dark correction enabled: true
Nonlinearity correction enabled: false
Boxcar width: 0
XAxis mode: Wavelengths
Number of Pixels in Spectrum: 2048
>>>>>Begin Spectral Data<<<<<
341.393	-8.21
341.776	-8.21
342.16	-8.21
342.543	-62.89
342.927	-55.21
343.31	-82.33
343.693	-68.77
344.077	-59.28
344.46	-72.61
344.843	-54.76
345.226	-43.46
345.61	-24.02
345.993	-23.8
346.376	-23.8
346.759	22.3
347.142	28.86
347.525	37.89
347.908	78.8
348.291	69.53
348.674	102.75
349.057	112.69
349.44	131.68
349.823	158.8
350.206	171.68
350.588	179.81
350.971	210.09
351.354	214.16
351.737	243.76
352.119	264.78
352.502	259.81
352.884	258.68
353.267	270.66
353.65	299.13
354.032	317.89
354.414	307.94
354.797	304.33
355.179	324.21
355.562	298.9
355.944	315.18
356.326	343.42
356.709	331.22
357.091	316.98
357.473	334.38
357.855	353.14
358.238	346.13
358.62	338.23
359.002	315.18
359.384	327.38
359.766	347.94
360.148	335.51
360.53	327.15
360.912	332.58
361.294	311.33
361.676	319.92
362.057	328.96
362.439	339.81
362.821	340.94
363.203	324.67
363.584	319.47
363.966	311.33
364.348	308.17
364.729	316.98
365.111	321.95
365.493	330.77
365.874	325.8
366.256	306.14
366.637	310.66
367.019	308.4
367.4	281.5
367.781	307.94
368.163	311.56
368.544	310.43
368.925	300.71
369.306	325.8
369.688	306.14
370.069	313.14
370.45	305.01
370.831	316.31
371.212	302.52
371.593	305.23
371.974	301.39
372.355	317.44
372.736	315.18
373.117	335.06
373.498	316.98
373.879	321.28
374.26	307.49
374.641	296.42
375.021	310.2
375.402	330.54
375.783	314.27
376.163	327.15
376.544	321.28
376.925	330.32
377.305	324.44
377.686	317.44
378.066	322.86
378.447	318.79
378.827	338.9
379.208	337.77
379.588	330.99
379.968	325.57
380.349	331.22
380.729	332.12
381.109	329.86
381.489	330.99
381.87	337.55
382.25	324.67
382.63	327.15
383.01	356.3
383.39	325.57
383.77	326.25
384.15	338.23
384.53	349.52
384.91	352.24
385.29	348.17
385.67	328.96
386.049	362.18
386.429	384.33
386.809	356.3
387.189	342.29
387.568	328.96
387.948	361.05
388.328	366.7
388.707	349.07
389.087	364.44
389.466	355.4
389.846	371.22
390.225	368.28
390.605	377.55
390.984	377.09
391.363	389.3
391.743	380.03
392.122	345.68
392.501	375.06
392.881	375.06
393.26	371.67
393.639	376.42
394.018	369.86
394.397	372.35
394.776	403.08
395.155	389.3
395.534	375.51
395.913	380.26
396.292	387.04
396.671	387.26
397.05	391.11
397.429	382.97
397.808	411.67
398.186	404.89
398.565	406.92
398.944	392.69
399.323	401.73
399.701	406.02
400.08	396.98
400.458	416.87
400.837	428.62
401.215	426.13
401.594	411.44
401.972	428.84
402.351	420.48
402.729	429.97
403.107	451.89
403.486	418
403.864	432.46
404.242	440.37
404.62	439.24
404.999	434.27
405.377	449.64
405.755	454.15
406.133	447.83
406.511	457.09
406.889	469.07
407.267	491.67
407.645	460.03
408.023	470.88
408.401	460.26
408.779	483.31
409.156	494.38
409.534	495.51
409.912	499.35
410.29	525.34
410.667	558.33
411.045	535.96
411.422	545.9
411.8	520.82
412.178	537.09
412.555	566.47
412.933	568.5
413.31	583.42
413.687	556.07
414.065	598.33
414.442	617.31
414.819	593.13
415.197	624.09
415.574	628.61
415.951	620.7
416.328	645.34
416.705	666.8
417.082	653.25
417.46	674.26
417.837	686.47
418.214	692.11
418.591	696.18
418.967	695.96
419.344	700.02
419.721	711.1
420.098	722.62
420.475	754.49
420.852	734.15
421.228	768.95
421.605	787.03
421.982	814.82
422.358	806.69
422.735	825.22
423.111	839.68
423.488	848.27
423.864	862.73
424.241	886.69
424.617	896.63
424.994	894.14
425.37	911.54
425.746	915.16
426.123	935.72
426.499	934.59
426.875	977.76
427.251	976.63
427.627	1002.61
428.003	995.61
428.379	1048.49
428.756	1015.27
429.132	1050.3
429.507	1081.26
429.883	1070.64
430.259	1080.35
430.635	1095.72
431.011	1091.2
431.387	1118.54
431.763	1132.1
432.138	1139.79
432.514	1181.37
432.89	1198.09
433.265	1214.13
433.641	1253.23
434.016	1272.66
434.392	1263.62
434.767	1298.43
435.143	1297.75
435.518	1310.4
435.894	1359.22
436.269	1409.38
436.644	1421.81
437.02	1406.9
437.395	1455.71
437.77	1479.89
438.145	1504.75
438.52	1526.89
438.895	1536.16
439.271	1573
439.646	1612.32
440.021	1616.84
440.395	1623.16
440.77	1624.29
441.145	1666.33
441.52	1719.43
441.895	1701.13
442.27	1744.06
442.645	1729.38
443.019	1765.31
443.394	1776.38
443.769	1780.9
444.143	1810.28
444.518	1815.47
444.892	1814.8
445.267	1872.2
445.641	1897.51
446.016	1881.69
446.39	1935.92
446.764	1946.77
447.139	1928.69
447.513	1925.75
447.887	1956.04
448.262	1967.11
448.636	1980.89
449.01	1996.49
449.384	2008.69
449.758	2036.49
450.132	2059.08
450.506	2077.61
450.88	2090.72
451.254	2097.5
451.628	2116.26
452.002	2208.23
452.376	2153.77
452.75	2190.83
453.123	2202.36
453.497	2224.5
453.871	2234.67
454.244	2290.94
454.618	2285.52
454.992	2318.06
455.365	2336.14
455.739	2425.85
456.112	2422.69
456.486	2425.63
456.859	2467.66
457.232	2508.11
457.606	2455.01
457.979	2547.66
458.352	2559.64
458.725	2593.53
459.099	2621.33
459.472	2653.87
459.845	2698.39
460.218	2688.67
460.591	2736.35
460.964	2748.33
461.337	2786.3
461.71	2842.11
462.083	2878.95
462.456	2871.72
462.829	2865.39
463.201	2933.41
463.574	2957.14
463.947	2997.59
464.32	3041.88
464.692	3067.42
465.065	3098.83
465.438	3076.46
465.81	3160.52
466.183	3210.24
466.555	3280.75
466.928	3271.93
467.3	3312.38
467.672	3333.4
468.045	3388.31
468.417	3467.41
468.789	3448.2
469.161	3498.82
469.534	3590.34
469.906	3632.38
470.278	3621.98
470.65	3686.61
471.022	3760.96
471.394	3788.08
471.766	3848.87
472.138	3835.53
472.51	3908.98
472.882	4014.74
473.253	4004.8
473.625	4051.12
473.997	4179.25
474.369	4139.26
474.74	4228.07
475.112	4292.02
475.484	4339.7
475.855	4373.37
476.227	4475.52
476.598	4563.43
476.97	4546.25
477.341	4632.8
477.713	4699.47
478.084	4752.12
478.455	4838.9
478.827	4915.51
479.198	5075.28
479.569	5059.91
479.94	5192.56
480.311	5199.79
480.682	5258.77
481.053	5341.71
481.424	5487.02
481.795	5482.95
482.166	5582.61
482.537	5607.24
482.908	5702.15
483.279	5820.12
483.65	5867.12
484.021	5976.5
484.391	6045.42
484.762	6061.69
485.133	6129.26
485.503	6184.63
485.874	6305.3
486.244	6303.72
486.615	6433.66
486.985	6501
487.356	6669.58
487.726	6662.81
488.097	6742.35
488.467	6789.13
488.837	6872.97
489.207	6975.57
489.578	7038.16
489.948	7110.25
490.318	7209.68
490.688	7184.83
491.058	7319.96
491.428	7429.11
491.798	7438.38
492.168	7630.01
492.538	7537.58
492.908	7587.75
493.278	7752.04
493.648	7728.09
494.017	7839.27
494.387	7846.05
494.757	7931.47
495.126	7959.04
495.496	7968.76
495.866	8048.98
496.235	8150.22
496.605	8185.7
496.974	8192.26
497.344	8257.34
497.713	8345.02
498.082	8307.51
498.452	8439.93
498.821	8405.81
499.19	8425.47
499.559	8482.19
499.928	8558.35
500.298	8589.53
500.667	8666.37
501.036	8612.81
501.405	8713.37
501.774	8672.47
502.143	8710.89
502.512	8766.7
502.88	8803.31
503.249	8768.96
503.618	8859.13
503.987	8821.39
504.356	8908.17
504.724	8900.49
505.093	8905.91
505.462	9004.89
505.83	8983.42
506.199	9000.37
506.567	9145
506.936	9052.12
507.304	9176.64
507.672	9140.25
508.041	9203.98
508.409	9228.61
508.777	9270.42
509.145	9320.59
509.514	9240.36
509.882	9303.87
510.25	9312.68
510.618	9268.84
510.986	9329.18
511.354	9402.85
511.722	9448.95
512.09	9497.53
512.458	9448.72
512.826	9489.17
513.193	9547.25
513.561	9512.45
513.929	9498.66
514.297	9605.1
514.664	9585.21
515.032	9543.18
515.4	9639.45
515.767	9606.68
516.135	9633.12
516.502	9590.64
516.869	9719.45
517.237	9697.3
517.604	9569.4
517.972	9734.36
518.339	9769.39
518.706	9698.66
519.073	9701.37
519.44	9702.5
519.808	9849.39
520.175	9703.86
520.542	9810.52
520.909	9854.13
521.276	9722.16
521.643	9825.66
522.009	9850.07
522.376	9799.45
522.743	9824.76
523.11	9870.18
523.477	9883.06
523.843	9893.68
524.21	9965.32
524.577	9937.3
524.943	10010.29
525.31	10001.02
525.676	9967.12
526.043	9955.83
526.409	9986.79
526.776	10096.84
527.142	10041.7
527.508	10105.88
527.874	10051.42
528.241	10083.96
528.607	10075.6
528.973	10096.61
529.339	10073.56
529.705	10111.53
530.071	10108.59
530.437	10103.17
530.803	10121.25
531.169	10114.24
531.535	10052.55
531.901	10093.45
532.267	10019.33
532.632	10015.03
532.998	9984.3
533.364	10057.52
533.73	9950.4
534.095	10022.94
534.461	10017.97
534.826	9975.26
535.192	9980.23
535.557	10009.38
535.923	9980.46
536.288	9935.71
536.653	9926.45
537.019	9868.14
537.384	9847.81
537.749	9854.81
538.114	9854.81
538.479	9828.15
538.845	9757.64
539.21	9732.33
539.575	9731.2
539.94	9713.35
540.305	9762.84
540.67	9596.97
541.034	9663.63
541.399	9609.39
541.764	9557.19
542.129	9569.62
542.494	9492.79
542.858	9542.73
543.223	9505.44
543.587	9484.88
543.952	9448.04
544.316	9426.8
544.681	9390.19
545.045	9368.95
545.41	9333.7
545.774	9311.1
546.138	9282.17
546.503	9246.01
546.867	9338.44
547.231	9266.13
547.595	9283.98
547.959	9194.72
548.324	9145.23
548.688	9154.04
549.052	9133.25
549.416	9107.26
549.779	9040.6
550.143	8982.29
550.507	9061.39
550.871	9000.37
551.235	8919.92
551.599	8934.16
551.962	8932.35
552.326	8856.65
552.689	8935.97
553.053	8828.17
553.417	8825.91
553.78	8871.11
554.143	8795.63
554.507	8767.61
554.87	8764.22
555.234	8795.4
555.597	8745.46
555.96	8747.27
556.323	8711.34
556.686	8699.59
557.05	8631.11
557.413	8678.57
557.776	8615.3
558.139	8667.27
558.502	8593.38
558.865	8613.94
559.228	8609.42
559.59	8629.08
559.953	8588.4
560.316	8671.34
560.679	8612.13
561.041	8698.23
561.404	8589.08
561.767	8646.71
562.129	8529.87
562.492	8608.97
562.854	8583.88
563.217	8564
563.579	8623.88
563.941	8629.08
564.304	8546.6
564.666	8711.79
565.028	8629.31
565.39	8684.67
565.753	8666.14
566.115	8693.49
566.477	8626.37
566.839	8565.58
567.201	8665.01
567.563	8665.92
567.925	8698.23
568.287	8744.56
568.648	8718.12
569.01	8725.12
569.372	8763.54
569.734	8734.39
570.095	8784.11
570.457	8752.24
570.819	8713.82
571.18	8825.23
571.542	8833.6
571.903	8801.96
572.265	8784.11
572.626	8756.54
572.987	8791.34
573.349	8798.12
573.71	8839.92
574.071	8792.01
574.432	8784.78
574.794	8910.66
575.155	8933.03
575.516	8851.45
575.877	8870.43
576.238	8895.97
576.599	8909.3
576.96	8970.77
577.32	8944.78
577.681	8935.29
578.042	8984.33
578.403	9047.83
578.763	9036.75
579.124	8939.81
579.485	9031.56
579.845	9027.04
580.206	9013.03
580.566	9066.58
580.927	9025.45
581.287	9042.86
581.648	9025.45
582.008	9103.64
582.368	9085.57
582.728	9071.56
583.089	9098.45
583.449	9036.3
583.809	9091.22
584.169	9117.88
584.529	9110.2
584.889	9110.2
585.249	9126.92
585.609	9088.73
585.969	9138.67
586.329	9127.82
586.688	9149.29
587.048	9132.12
587.408	9142.74
587.768	9119.46
588.127	9090.76
588.487	9102.29
588.846	9162.4
589.206	9142.74
589.565	9142.29
589.925	9145.9
590.284	9232.45
590.643	9237.2
591.003	9232.45
591.362	9283.75
591.721	9197.65
592.08	9197.88
592.44	9243.3
592.799	9293.7
593.158	9293.24
593.517	9227.48
593.876	9296.41
594.235	9280.59
594.593	9268.84
594.952	9237.88
595.311	9201.5
595.67	9216.86
596.029	9284.88
596.387	9329.18
596.746	9356.52
597.104	9280.14
597.463	9252.79
597.822	9244.66
598.18	9218.44
598.538	9239.01
598.897	9358.1
599.255	9217.09
599.613	9359.91
599.972	9287.59
600.33	9269.97
600.688	9240.14
601.046	9270.19
601.404	9411.21
601.762	9360.14
602.12	9321.72
602.478	9307.03
602.836	9312.45
603.194	9295.96
603.552	9382.73
603.91	9328.5
604.268	9345.45
604.625	9297.76
604.983	9321.04
605.341	9261.15
605.698	9380.7
606.056	9354.49
606.413	9356.29
606.771	9406.24
607.128	9316.75
607.485	9304.32
607.843	9327.14
608.2	9441.94
608.557	9417.53
608.914	9382.51
609.272	9381.6
609.629	9429.51
609.986	9463.18
610.343	9367.14
610.7	9388.84
611.057	9447.36
611.414	9416.4
611.771	9466.57
612.127	9447.14
612.484	9498.44
612.841	9500.47
613.198	9494.59
613.554	9470.19
613.911	9518.32
614.267	9495.05
614.624	9523.97
614.98	9509.96
615.337	9608.26
615.693	9542.28
616.05	9571.2
616.406	9627.47
616.762	9521.71
617.118	9488.72
617.475	9589.96
617.831	9587.25
618.187	9561.71
618.543	9506.57
618.899	9630.41
619.255	9661.14
619.611	9631.77
619.967	9664.53
620.323	9659.56
620.678	9568.94
621.034	9617.3
621.39	9519.91
621.746	9607.59
622.101	9695.49
622.457	9642.61
622.812	9616.63
623.168	9692.1
623.523	9693.01
623.879	9695.72
624.234	9579.11
624.589	9628.83
624.945	9603.52
625.3	9677.87
625.655	9652.56
626.01	9604.42
626.365	9643.29
626.72	9655.49
627.075	9585.21
627.43	9600.13
627.785	9645.55
628.14	9655.04
628.495	9612.78
628.85	9637.87
629.205	9559.45
629.559	9630.18
629.914	9546.8
630.269	9574.59
630.623	9538.21
630.978	9545.22
631.332	9516.29
631.687	9496.18
632.041	9489.4
632.396	9523.29
632.75	9486.69
633.104	9486.01
633.459	9404.65
633.813	9464.54
634.167	9395.16
634.521	9419.12
634.875	9481.49
635.229	9404.2
635.583	9363.3
635.937	9418.66
636.291	9392.68
636.645	9383.64
636.999	9348.16
637.352	9334.15
637.706	9350.42
638.06	9431.32
638.413	9337.31
638.767	9311.55
639.121	9263.41
639.474	9247.6
639.828	9285.79
640.181	9254.6
640.534	9276.07
640.888	9270.42
641.241	9199.91
641.594	9199.69
641.947	9220.03
642.301	9191.1
642.654	9227.94
643.007	9273.81
643.36	9206.24
643.713	9215.05
644.066	9232
644.419	9146.81
644.771	9079.01
645.124	9079.24
645.477	8966.7
645.83	8902.75
646.182	8909.07
646.535	8882.41
646.888	8907.04
647.24	8784.56
647.593	8934.38
647.945	8834.73
648.298	8794.73
648.65	8778.46
649.002	8840.37
649.355	8847.61
649.707	8893.48
650.059	8916.08
650.411	9001.5
650.763	9040.6
651.115	9029.52
651.467	9022.29
651.819	9070.2
652.171	9142.51
652.523	9045.57
652.875	9033.36
653.227	9029.52
653.578	9129.18
653.93	9081.05
654.282	9033.59
654.633	8982.52
654.985	9016.87
655.337	9027.49
655.688	9002.63
656.039	9074.72
656.391	9040.14
656.742	9063.42
657.094	9100.71
657.445	9032.23
657.796	9082.4
658.147	9054.83
658.498	9036.3
658.849	9121.95
659.2	9126.92
659.551	9071.56
659.902	9146.36
660.253	9127.15
660.604	9165.56
660.955	9061.39
661.306	9173.93
661.656	9111.33
662.007	9119.69
662.358	9098.67
662.708	9070.88
663.059	9149.29
663.409	9109.97
663.76	9187.94
664.11	9115.62
664.461	9161.95
664.811	9136.19
665.161	9174.6
665.511	9074.49
665.862	9171.44
666.212	9118.33
666.562	9187.71
666.912	9161.04
667.262	9125.57
667.612	9107.49
667.962	9180.93
668.312	9145
668.662	9115.62
669.011	9154.26
669.361	9088.96
669.711	9065.91
670.06	9098.67
670.41	9154.26
670.76	9046.7
671.109	9111.55
671.459	9043.31
671.808	9077.88
672.157	9137.77
672.507	9025
672.856	9028.17
673.205	9039.47
673.554	9011.67
673.904	9069.3
674.253	9105
674.602	9063.65
674.951	8896.87
675.3	8841.5
675.649	8946.59
675.998	9030.2
676.346	8962.86
676.695	9018.45
677.044	8961.5
677.393	8945.23
677.741	8958.79
678.09	8916.53
678.438	8866.81
678.787	8934.61
679.135	8928.28
679.484	8851.67
679.832	8866.14
680.181	8819.36
680.529	8905.46
680.877	8816.65
681.225	8777.78
681.573	8857.55
681.922	8812.81
682.27	8747.27
682.618	8686.93
682.966	8772.13
683.314	8775.29
683.661	8740.49
684.009	8695.07
684.357	8665.46
684.705	8660.94
685.053	8677.22
685.4	8630.21
685.748	8578.46
686.095	8602.42
686.443	8523.77
686.79	8534.85
687.138	8586.14
687.485	8551.79
687.832	8536.2
688.18	8439.03
688.527	8447.84
688.874	8413.27
689.221	8385.25
689.568	8400.39
689.915	8413.49
690.262	8391.35
690.609	8312.93
690.956	8296.66
691.303	8277.45
691.65	8273.84
691.997	8222.09
692.344	8184.12
692.69	8183.44
693.037	8117.68
693.383	8097.57
693.73	8101.64
694.077	7994.07
694.423	8046.05
694.769	8007.4
695.116	7959.49
695.462	7910.23
695.808	7903.22
696.155	7909.78
696.501	7842.44
696.847	7835.2
697.193	7815.77
697.539	7807.41
697.885	7684.47
698.231	7739.16
698.577	7710.24
698.923	7687.41
699.269	7609.45
699.614	7594.76
699.96	7499.17
700.306	7615.1
700.651	7512.95
700.997	7473.41
701.342	7495.33
701.688	7463.46
702.033	7454.65
702.379	7415.55
702.724	7380.3
703.069	7379.4
703.415	7302.11
703.76	7326.29
704.105	7292.84
704.45	7299.4
704.795	7223.69
705.14	7193.64
705.485	7133.53
705.83	7105.96
706.175	7159.06
706.52	7114.09
706.865	7109.35
707.209	7078.84
707.554	7053.53
707.899	7081.1
708.243	7009.46
708.588	6997.71
708.932	6957.49
709.277	6907.09
709.621	6959.52
709.966	6856.47
710.31	6910.48
710.654	6797.72
710.998	6836.36
711.342	6815.8
711.687	6744.84
712.031	6785.74
712.375	6755.46
712.719	6813.08
713.063	6774.44
713.407	6776.47
713.75	6702.35
714.094	6735.12
714.438	6690.6
714.782	6679.75
715.125	6701.22
715.469	6635.91
715.812	6608.34
716.156	6621.45
716.499	6557.72
716.843	6660.77
717.186	6555.92
717.53	6580.32
717.873	6618.74
718.216	6621.68
718.559	6588.46
718.902	6535.58
719.246	6557.95
719.589	6507.78
719.932	6498.97
720.275	6556.14
720.617	6501
720.96	6505.75
721.303	6563.82
721.646	6519.98
721.989	6477.5
722.331	6519.98
722.674	6491.96
723.016	6482.47
723.359	6486.99
723.701	6424.39
724.044	6386.65
724.386	6399.76
724.729	6463.94
725.071	6402.92
725.413	6439.53
725.755	6407.67
726.097	6419.65
726.439	6334.68
726.782	6385.75
727.124	6358.86
727.465	6407.44
727.807	6398.41
728.149	6349.14
728.491	6345.98
728.833	6366.77
729.175	6377.61
729.516	6337.62
729.858	6384.39
730.199	6318.86
730.541	6329.71
730.882	6381.68
731.224	6392.3
731.565	6363.6
731.906	6379.42
732.248	6338.97
732.589	6331.51
732.93	6315.7
733.271	6349.82
733.612	6335.58
733.953	6354.11
734.294	6331.74
734.635	6295.13
734.976	6376.71
735.317	6355.92
735.658	6329.03
735.999	6375.81
736.339	6355.02
736.68	6330.61
737.021	6374.23
737.361	6370.38
737.702	6320.67
738.042	6391.4
738.383	6372.19
738.723	6410.83
739.063	6396.15
739.404	6351.85
739.744	6449.93
740.084	6419.2
740.424	6479.76
740.764	6477.5
741.104	6508.23
741.444	6468.46
741.784	6458.52
742.124	6525.63
742.464	6520.89
742.804	6509.81
743.143	6566.08
743.483	6584.62
743.823	6539.42
744.162	6582.13
744.502	6658.96
744.841	6625.74
745.181	6670.04
745.52	6712.97
745.86	6792.52
746.199	6796.81
746.538	6840.2
746.877	6862.57
747.216	6899.41
747.556	6943.02
747.895	7032.51
748.234	6986.41
748.573	6995
748.911	7100.31
749.25	7140.53
749.589	7197.71
749.928	7255.78
750.267	7360.41
750.605	7417.81
750.944	7448.32
751.283	7490.58
751.621	7585.49
751.96	7700.29
752.298	7736.22
752.636	7844.47
752.975	7948.87
753.313	8023.67
753.651	8135.08
753.989	8172.14
754.327	8294.4
754.666	8377.56
755.004	8525.58
755.342	8627.05
755.679	8747.5
756.017	8905.46
756.355	8975.96
756.693	9065.45
757.031	9302.51
757.368	9349.74
757.706	9501.83
758.044	9563.07
758.381	9777.75
758.719	9966.22
759.056	10104.07
759.394	10196.95
759.731	10383.61
760.068	10558.75
760.405	10659.54
760.743	10810.94
761.08	10926.65
761.417	11158.51
761.754	11317.15
762.091	11486.86
762.428	11655.22
762.765	11804.82
763.102	12007.52
763.438	12134.98
763.775	12251.36
764.112	12478.92
764.449	12743.32
764.785	12866.03
765.122	12864.9
765.458	13072.81
765.795	13221.28
766.131	13443.42
766.467	13541.72
766.804	13594.37
767.14	13744.88
767.476	13990.07
767.812	14062.61
768.148	14312.1
768.485	14401.36
768.821	14496.27
769.157	14631.86
769.492	14699.88
769.828	14958.18
770.164	14956.37
770.5	15171.06
770.836	15213.77
771.171	15279.53
771.507	15456.7
771.842	15430.94
772.178	15622.57
772.513	15759.52
772.849	15743.24
773.184	15886.52
773.519	15995.44
773.855	15972.16
774.19	16099.17
774.525	16182.55
774.86	16304.13
775.195	16376.45
775.53	16467.29
775.865	16389.1
776.2	16358.14
776.535	16396.56
776.87	16577.35
777.205	16541.87
777.539	16584.35
777.874	16771.69
778.209	16706.16
778.543	16678.36
778.878	16770.56
779.212	16822.76
779.547	16839.26
779.881	17000.61
780.215	16927.39
780.55	17058.46
780.884	16940.95
781.218	16994.51
781.552	17113.38
781.886	17022.31
782.22	16981.4
782.554	17021.63
782.888	16931.46
783.222	16979.82
783.556	16894.17
783.889	17006.71
784.223	16871.58
784.557	16945.25
784.89	16960.61
785.224	17029.54
785.557	16883.33
785.891	16886.27
786.224	16928.98
786.558	16947.28
786.891	16837.9
787.224	16834.29
787.557	16768.08
787.891	16840.16
788.224	16889.88
788.557	16963.33
788.89	16892.37
789.223	16924.23
789.556	16813.05
789.888	16867.28
790.221	16792.71
790.554	16706.61
790.887	16707.29
791.219	16702.99
791.552	16661.41
791.884	16591.58
792.217	16591.58
792.549	16630.23
792.882	16471.81
793.214	16507.74
793.546	16503.68
793.879	16424.13
794.211	16312.72
794.543	16390.68
794.875	16384.36
795.207	16433.85
795.539	16436.11
795.871	16391.36
796.203	16275.43
796.535	16242.21
796.867	16168.77
797.198	16071.15
797.53	16174.87
797.862	16056.68
798.193	16081.77
798.525	15894.88
798.856	16000.41
799.188	15897.82
799.519	15901.21
799.85	15834.99
800.182	15922.67
800.513	15890.36
800.844	15659.63
801.175	15869.57
801.506	15736.69
801.837	15643.36
802.168	15755
802.499	15564.72
802.83	15531.95
803.161	15502.57
803.491	15533.76
803.822	15600.42
804.153	15462.8
804.483	15340.54
804.814	15352.29
805.145	15363.59
805.475	15294.22
805.805	15281.11
806.136	15306.42
806.466	15270.49
806.796	15211.28
807.126	15091.51
807.457	15043.6
807.787	15109.59
808.117	15008.8
808.447	14998.63
808.777	14959.54
809.107	15024.17
809.436	14973.77
809.766	14942.59
810.096	14872.53
810.426	14794.79
810.755	14799.77
811.085	14743.27
811.414	14786.43
811.744	14679.09
812.073	14668.47
812.403	14662.37
812.732	14533.11
813.061	14572.43
813.39	14542.6
813.719	14474.35
814.049	14592.31
814.378	14497.85
814.707	14506.67
815.036	14532.88
815.365	14337.18
815.693	14224.87
816.022	14297.41
816.351	14276.62
816.68	14174.47
817.008	14317.07
817.337	14176.96
817.665	14080.92
817.994	14137.41
818.322	14205.66
818.651	14146.22
818.979	14012.22
819.307	14124.53
819.636	13997.08
819.964	13962.95
820.292	14079.79
820.62	14009.96
820.948	13983.74
821.276	14098.09
821.604	13943.97
821.932	14054.02
822.259	13979.45
822.587	13947.36
822.915	13877.3
823.243	14009.96
823.57	13976.96
823.898	13968.6
824.225	14001.6
824.553	13904.87
824.88	13891.99
825.207	14063.06
825.535	14020.58
825.862	13984.87
826.189	13938.55
826.516	14100.58
826.843	13981.93
827.17	14009.5
827.497	13976.51
827.824	14028.71
828.151	13992.33
828.478	13998.88
828.805	14066
829.131	13969.96
829.458	14018.32
829.785	13938.77
830.111	13978.77
830.438	14077.98
830.764	13997.98
831.09	14032.1
831.417	13941.48
831.743	13947.81
832.069	14014.7
832.395	13964.31
832.722	13935.38
833.048	13843.86
833.374	14042.27
833.7	13877.98
834.026	13914.37
834.351	13905.1
834.677	13916.63
835.003	13915.72
835.329	13908.26
835.654	13866.46
835.98	13760.7
836.306	13891.32
836.631	13828.27
836.956	13878.66
837.282	13855.16
837.607	13710.3
837.932	13793.01
838.258	13704.88
838.583	13666.91
838.908	13616.75
839.233	13701.04
839.558	13600.25
839.883	13625.11
840.208	13552.57
840.533	13477.32
840.858	13576.52
841.182	13466.24
841.507	13520.25
841.832	13433.47
842.156	13433.25
842.481	13449.07
842.805	13426.47
843.13	13368.17
843.454	13383.76
843.778	13225.57
844.103	13187.83
844.427	13205.46
844.751	13210.43
845.075	13179.92
845.399	13160.49
845.723	13039.59
846.047	13087.04
846.371	12946.26
846.695	12992.81
847.019	12849.08
847.343	12833.72
847.666	12753.49
847.99	12705.36
848.313	12704.23
848.637	12694.28
848.96	12645.7
849.284	12526.15
849.607	12448.19
849.931	12510.11
850.254	12400.51
850.577	12342.88
850.9	12347.85
851.223	12253.62
851.546	12185.6
851.869	12078.03
852.192	12188.76
852.515	12076.22
852.838	12000.52
853.161	12008.88
853.483	11934.98
853.806	11920.75
854.129	11869.67
854.451	11784.03
854.774	11808.66
855.096	11762.78
855.419	11625.16
855.741	11627.65
856.063	11580.19
856.385	11582.45
856.708	11565.05
857.03	11482.57
857.352	11522.79
857.674	11475.33
857.996	11426.07
858.318	11380.42
858.64	11390.82
858.961	11262.01
859.283	11377.94
859.605	11172.07
859.926	11217.04
860.248	11220.88
860.57	11145.17
860.891	11237.83
861.212	11144.95
861.534	11109.69
861.855	11059.98
862.176	11047.55
862.498	10998.28
862.819	11044.38
863.14	10949.25
863.461	10944.5
863.782	10928.68
864.103	10927.1
864.424	10880.1
864.745	10949.02
865.065	10830.83
865.386	10811.85
865.707	10871.96
866.027	10805.52
866.348	10850.04
866.668	10807.78
866.989	10745.64
867.309	10691.4
867.63	10710.38
867.95	10709.7
868.27	10578.63
868.59	10631.29
868.91	10637.16
869.23	10603.27
869.55	10522.36
869.87	10593.78
870.19	10549.03
870.51	10521.23
870.83	10536.15
871.15	10501.35
871.469	10464.06
871.789	10528.92
872.109	10485.98
872.428	10378.87
872.748	10416.6
873.067	10452.08
873.386	10402.59
873.706	10389.71
874.025	10370.5
874.344	10340.9
874.663	10361.92
874.982	10345.19
875.301	10288.25
875.62	10267.23
875.939	10259.77
876.258	10337.96
876.577	10213.45
876.896	10149.72
877.214	10218.87
877.533	10132.77
877.852	10237.17
878.17	10121.02
878.489	10155.37
878.807	10141.13
879.125	10116.27
879.444	10107.46
879.762	10037.86
880.08	10067.01
880.398	9996.28
880.716	10011.64
881.034	9979.1
881.352	10023.85
881.67	10022.04
881.988	10005.54
882.306	9928.48
882.624	9848.48
882.941	9909.27
883.259	9895.71
883.577	9810.29
883.894	9798.32
884.212	9749.96
884.529	9821.37
884.846	9716.51
885.164	9812.78
885.481	9643.97
885.798	9673.12
886.115	9620.69
886.432	9653.01
886.75	9564.2
887.067	9585.67
887.383	9576.63
887.7	9569.4
888.017	9512.22
888.334	9518.32
888.651	9472.22
888.967	9448.04
889.284	9420.25
889.6	9383.19
889.917	9286.46
890.233	9340.02
890.55	9272.68
890.866	9324.66
891.182	9237.88
891.498	9202.17
891.815	9173.47
892.131	9150.42
892.447	9105.9
892.763	9081.27
893.079	9072.69
893.395	9021.16
893.71	8971.9
894.026	9036.3
894.342	8986.81
894.657	8931.9
894.973	8926.47
895.289	8832.69
895.604	8859.81
895.92	8811.45
896.235	8772.13
896.55	8784.33
896.865	8751.56
897.181	8741.17
897.496	8656.65
897.811	8684.67
898.126	8597.67
898.441	8624.34
898.756	8526.94
899.071	8544.56
899.386	8505.02
899.7	8407.39
900.015	8491.46
900.33	8349.77
900.644	8350.44
900.959	8348.86
901.273	8335.53
901.588	8272.03
901.902	8200.39
902.216	8209.43
902.531	8238.58
902.845	8212.37
903.159	8105.03
903.473	8097.8
903.787	8123.78
904.101	7953.84
904.415	7977.35
904.729	7938.7
905.042	7951.58
905.356	7895.99
905.67	7888.99
905.984	7880.17
906.297	7884.92
906.611	7750.46
906.924	7758.6
907.237	7698.94
907.551	7714.53
907.864	7645.15
908.177	7634.76
908.491	7660.97
908.804	7530.35
909.117	7524.7
909.43	7474.54
909.743	7519.05
910.056	7465.04
910.368	7384.82
910.681	7344.82
910.994	7309.79
911.307	7347.76
911.619	7246.07
911.932	7263.47
912.244	7200.19
912.557	7201.55
912.869	7193.41
913.181	7162.45
913.494	7152.06
913.806	7062.79
914.118	7068.44
914.43	6996.58
914.742	6969.69
915.054	6975.11
915.366	7002.01
915.678	6971.95
915.99	6892.18
916.302	6815.34
916.613	6830.48
916.925	6809.24
917.236	6832.52
917.548	6723.14
917.859	6751.16
918.171	6678.17
918.482	6642.24
918.794	6618.29
919.105	6661.68
919.416	6541.45
919.727	6605.86
920.038	6518.4
920.349	6494.9
920.66	6475.69
920.971	6402.02
921.282	6462.13
921.593	6376.26
921.903	6341.68
922.214	6349.14
922.525	6299.42
922.835	6263.95
923.146	6272.31
923.456	6233.89
923.767	6232.31
924.077	6184.63
924.387	6204.74
924.697	6165.42
925.008	6128.36
925.318	6100.56
925.628	6120.9
925.938	6059.66
926.248	6055.36
926.558	5976.04
926.867	5990.28
927.177	5952.32
927.487	5951.86
927.796	5869.83
928.106	5895.14
928.416	5849.72
928.725	5790.29
929.034	5801.36
929.344	5789.61
929.653	5800.45
929.962	5723.62
930.271	5715.94
930.581	5711.42
930.89	5669.84
931.199	5672.32
931.508	5604.3
931.817	5603.17
932.125	5584.64
932.434	5604.98
932.743	5550.97
933.051	5490.86
933.36	5444.53
933.669	5487.92
933.977	5470.07
934.286	5429.17
934.594	5457.19
934.902	5369.51
935.21	5357.98
935.519	5349.85
935.827	5324.76
936.135	5247.25
936.443	5310.3
936.751	5281.15
937.059	5249.51
937.367	5191.21
937.674	5233.24
937.982	5192.79
938.29	5103.52
938.597	5141.72
938.905	5087.71
939.213	5066.24
939.52	5049.97
939.827	5015.62
940.135	5000.48
940.442	4978.1
940.749	4949.4
941.056	4964.77
941.363	4949.4
941.67	4891.33
941.977	4866.47
942.284	4845.23
942.591	4848.62
942.898	4850.88
943.205	4777.88
943.511	4783.76
943.818	4754.61
944.125	4708.28
944.431	4714.83
944.738	4735.85
945.044	4675.06
945.35	4658.56
945.657	4568.62
945.963	4600.71
946.269	4608.17
946.575	4623.76
946.881	4573.14
947.187	4564.78
947.493	4500.38
947.799	4483.88
948.105	4474.16
948.41	4465.12
948.716	4457.44
949.022	4427.61
949.327	4419.02
949.633	4379.25
949.938	4387.16
950.244	4374.28
950.549	4321.62
950.854	4322.98
951.16	4275.75
951.465	4295.64
951.77	4247.73
952.075	4247.28
952.38	4201.4
952.685	4197.56
952.99	4145.13
953.294	4148.52
953.599	4158.46
953.904	4132.25
954.209	4119.6
954.513	4114.85
954.818	4066.94
955.122	4057.68
955.426	4057.45
955.731	4033.72
956.035	3986.72
956.339	4031.01
956.643	3994.17
956.948	3915.31
957.252	3952.14
957.556	3899.94
957.86	3949.2
958.163	3900.17
958.467	3883.44
958.771	3857.91
959.075	3844.12
959.378	3823.11
959.682	3852.03
959.985	3792.37
960.289	3770.45
960.592	3775.88
960.896	3746.72
961.199	3707.18
961.502	3710.34
961.805	3683.45
962.108	3694.75
962.411	3685.48
962.714	3623.34
963.017	3659.72
963.32	3626.73
963.623	3572.26
963.926	3610.91
964.228	3575.2
964.531	3622.88
964.833	3539.27
965.136	3511.02
965.438	3494.53
965.741	3478.26
966.043	3426.05
966.345	3485.04
966.648	3438.26
966.95	3426.05
967.252	3407.07
967.554	3389.22
967.856	3379.28
968.158	3313.74
968.46	3383.34
968.761	3337.47
969.063	3340.86
969.365	3315.55
969.666	3309.9
969.968	3311.03
970.269	3284.36
970.571	3258.15
970.872	3247.75
971.174	3240.07
971.475	3250.24
971.776	3230.13
972.077	3172.73
972.378	3145.16
972.679	3145.16
972.98	3153.29
973.281	3139.51
973.582	3110.36
973.883	3101.09
974.183	3078.49
974.484	3085.72
974.785	3064.03
975.085	3054.76
975.386	3061.77
975.686	3022.67
975.986	3005.5
976.287	3025.39
976.587	2993.3
976.887	2985.61
977.187	2951.04
977.487	3006.86
977.787	2914.2
978.087	2940.64
978.387	2916.01
978.687	2912.85
978.987	2860.19
979.286	2860.87
979.586	2883.47
979.885	2857.03
980.185	2820.19
980.484	2848.44
980.784	2826.52
981.083	2769.8
981.382	2768.67
981.682	2776.13
981.981	2729.8
982.28	2716.02
982.579	2745.17
982.878	2736.81
983.177	2724.38
983.475	2687.32
983.774	2666.3
984.073	2694.1
984.372	2654.77
984.67	2635.34
984.969	2635.34
985.267	2625.85
985.566	2597.83
985.864	2597.38
986.162	2614.55
986.461	2554.89
986.759	2598.28
987.057	2564.16
987.355	2523.03
987.653	2569.13
987.951	2531.16
988.249	2526.19
988.547	2497.72
988.844	2476.93
989.142	2479.19
989.44	2462.01
989.737	2462.46
990.035	2462.24
990.332	2428.79
990.63	2393.54
990.927	2416.59
991.224	2425.85
991.521	2387.66
991.819	2372.3
992.116	2367.32
992.413	2359.64
992.71	2340.66
993.006	2327.55
993.303	2325.29
993.6	2325.52
993.897	2291.17
994.193	2330.94
994.49	2280.1
994.787	2293.2
995.083	2285.97
995.379	2224.5
995.676	2240.32
995.972	2219.98
996.268	2217.72
996.565	2184.05
996.861	2182.7
997.157	2201.68
997.453	2168.46
997.749	2175.01
998.044	2143.15
998.34	2121.91
998.636	2100.44
998.932	2137.73
999.227	2086.2
999.523	2109.7
999.818	2088.01
1000.114	2083.72
1000.409	2032.19
1000.704	2048.46
1001	2021.35
1001.295	2028.58
1001.59	2037.16
1001.885	1977.73
1002.18	2012.53
1002.475	2007.11
1002.77	1961.01
1003.065	1952.19
1003.359	1951.29
1003.654	1923.72
1003.949	1930.95
1004.243	1940.67
1004.538	1909.26
1004.832	1894.57
1005.127	1886.89
1005.421	1918.07
1005.715	1860.22
1006.009	1860.45
1006.304	1838.53
1006.598	1865.87
1006.892	1798.98
1007.186	1787.23
1007.48	1785.19
1007.773	1799.2
1008.067	1768.47
1008.361	1784.06
1008.655	1743.39
1008.948	1740.22
1009.242	1757.17
1009.535	1747.91
1009.829	1730.73
1010.122	1678.76
1010.415	1721.92
1010.708	1695.93
1011.001	1693.44
1011.295	1673.33
1011.588	1658.64
1011.881	1648.02
1012.173	1634.24
1012.466	1668.36
1012.759	1619.77
1013.052	1623.16
1013.344	1617.06
1013.637	1608.25
1013.93	1585.65
1014.222	1563.05
1014.514	1588.81
1014.807	1548.59
1015.099	1559.44
1015.391	1545.88
1015.683	1555.37
1015.976	1542.94
1016.268	1533.45
1016.56	1516.95
1016.851	1513.34
1017.143	1485.99
1017.435	1474.01
1017.727	1470.85
1018.018	1497.52
1018.31	1443.28
1018.602	1433.79
1018.893	1452.32
1019.185	1430.17
1019.476	1424.75
1019.767	1420.68
1020.058	1392.21
1020.35	1385.2
1020.641	1361.93
1020.932	1373
1021.223	1377.07
1021.514	1378.88
1021.804	1347.69
1022.095	1349.95
1022.386	1344.75
1022.677	1326.22
1022.967	1319.22
1023.258	1292.78
1023.548	1295.26
1023.839	1277.18
1024.129	1306.56
1024.419	1281.48
1024.709	1265.43
1025	1288.48
1025.29	1248.71
1025.58	1221.59
1025.87	1218.88
1026.16	1245.09
1026.449	1218.43
1026.739	1239.44
1027.029	1184.98
1027.319	1188.37
1027.608	1172.33
1027.898	1200.58
1028.187	1145.66
1028.477	1185.89
1028.766	1171.2
1029.055	1136.4
1029.344	1139.79
1029.634	1122.16
1029.923	1131.43
1030.212	1114.93
1030.501	1120.13
1030.79	1126.45
1031.078	1079.22
1031.367	1102.27
1031.656	1088.49
1031.945	1073.35
1032.233	1063.86
1032.522	1086.45
1032.81	1049.85
1033.099	1042.39
1033.387	1038.55
1033.675	1036.06
1033.963	1024.31
1034.251	1008.49
1034.54	1040.13
1034.828	1022.73
1035.116	1021.82
1035.403	983.63
1035.691	996.06
1035.979	986.34
1036.267	1003.29
1036.554	952.22
1036.842	978.66
1037.129	972.11
1037.417	958.55
1037.704	931.2
1037.992	954.48
1038.279	938.66
1038.566	916.52
1038.853	916.52
1039.14	916.52
