Data from hue_36_FLMS001491_00007.txt Node
Date: Tue Feb 07 17:29:19 GMT 2017
User: dcchb
Spectrometer: FLMS00149
Trigger mode: 0
Integration Time (sec): 2.000000E-2
Scans to average: 10
Electric dark correction enabled: true
Nonlinearity correction enabled: false
Boxcar width: 0
XAxis mode: Wavelengths
Number of Pixels in Spectrum: 2048
>>>>>Begin Spectral Data<<<<<
341.393	-3.35
341.776	-3.35
342.16	-3.35
342.543	-78.6
342.927	-67.3
343.31	-60.75
343.693	-57.36
344.077	-78.83
344.46	-56
344.843	-37.24
345.226	-34.76
345.61	-48.32
345.993	-15.55
346.376	-10.8
346.759	15.18
347.142	36.43
347.525	39.59
347.908	65.13
348.291	44.11
348.674	88.63
349.057	110.55
349.44	121.85
349.823	127.72
350.206	176.76
350.588	209.75
350.971	205.91
351.354	219.47
351.737	229.41
352.119	249.53
352.502	271
352.884	291.33
353.267	294.5
353.65	304.44
354.032	320.49
354.414	302.41
354.797	322.75
355.179	322.07
355.562	341.28
355.944	324.78
356.326	329.3
356.709	331.33
357.091	353.25
357.473	353.25
357.855	358.45
358.238	337.89
358.62	360.48
359.002	335.17
359.384	329.98
359.766	332.91
360.148	336.98
360.53	365.46
360.912	338.11
361.294	329.53
361.676	325.68
362.057	339.02
362.439	315.74
362.821	331.56
363.203	342.86
363.584	331.56
363.966	337.66
364.348	310.32
364.729	334.04
365.111	331.33
365.493	326.36
365.874	327.72
366.256	307.83
366.637	314.16
367.019	313.25
367.4	320.71
367.781	303.54
368.163	319.58
368.544	317.77
368.925	328.85
369.306	310.32
369.688	310.77
370.069	324.55
370.45	294.72
370.831	318.9
371.212	311.9
371.593	338.79
371.974	320.49
372.355	318.45
372.736	306.93
373.117	325.23
373.498	317.32
373.879	315.29
374.26	315.97
374.641	319.58
375.021	315.97
375.402	304.22
375.783	325.23
376.163	323.42
376.544	334.04
376.925	329.75
377.305	340.82
377.686	344.67
378.066	319.81
378.447	321.62
378.827	312.58
379.208	329.07
379.588	338.56
379.968	337.43
380.349	346.93
380.729	339.69
381.109	336.98
381.489	332.01
381.87	327.04
382.25	328.85
382.63	334.27
383.01	334.95
383.39	357.32
383.77	348.06
384.15	335.63
384.53	330.2
384.91	351.22
385.29	336.76
385.67	347.38
386.049	342.41
386.429	344.44
386.809	345.57
387.189	348.06
387.568	325.68
387.948	352.8
388.328	341.28
388.707	354.61
389.087	343.76
389.466	358.45
389.846	374.27
390.225	364.78
390.605	367.04
390.984	362.07
391.363	382.18
391.743	364.78
392.122	377.66
392.501	372.24
392.881	378.34
393.26	374.27
393.639	360.48
394.018	366.59
394.397	368.17
394.776	369.75
395.155	386.02
395.534	369.52
395.913	383.08
396.292	394.16
396.671	372.01
397.05	382.41
397.429	395.06
397.808	389.64
398.186	397.55
398.565	379.47
398.944	392.8
399.323	398.22
399.701	406.13
400.08	391.9
400.458	388.96
400.837	405.46
401.215	411.78
401.594	389.41
401.972	406.36
402.351	409.52
402.729	385.79
403.107	421.05
403.486	404.1
403.864	409.98
404.242	400.71
404.62	440.26
404.999	410.2
405.377	404.33
405.755	421.73
406.133	420.82
406.511	432.35
406.889	421.95
407.267	449.3
407.645	431.44
408.023	439.35
408.401	442.52
408.779	434.16
409.156	424.21
409.534	460.6
409.912	449.3
410.29	436.19
410.667	447.94
411.045	441.61
411.422	448.17
411.8	442.97
412.178	469.86
412.555	454.72
412.933	450.2
413.31	485.68
413.687	491.33
414.065	474.15
414.442	498.79
414.819	470.99
415.197	495.17
415.574	466.92
415.951	488.17
416.328	488.84
416.705	484.1
417.082	499.92
417.46	503.76
417.837	526.13
418.214	495.17
418.591	496.07
418.967	502.18
419.344	512.57
419.721	504.66
420.098	524.32
420.475	529.52
420.852	497.43
421.228	526.13
421.605	530.2
421.982	507.15
422.358	531.55
422.735	528.39
423.111	536.98
423.488	542.63
423.864	540.37
424.241	568.61
424.617	563.64
424.994	541.05
425.37	545.11
425.746	570.42
426.123	560.48
426.499	568.84
426.875	575.85
427.251	549.18
427.627	582.85
428.003	572.68
428.379	576.3
428.756	572.46
429.132	588.5
429.507	608.84
429.883	616.75
430.259	623.08
430.635	639.12
431.011	622.85
431.387	629.63
431.763	620.82
432.138	643.87
432.514	640.93
432.89	638.44
433.265	641.16
433.641	644.55
434.016	668.5
434.392	648.61
434.767	671.44
435.143	668.95
435.518	682.06
435.894	681.15
436.269	684.32
436.644	685.22
437.02	693.36
437.395	692.91
437.77	711.44
438.145	704.66
438.52	724.77
438.895	712.79
439.271	709.4
439.646	752.34
440.021	723.41
440.395	734.71
440.77	750.31
441.145	742.62
441.52	767.93
441.895	767.93
442.27	776.29
442.645	754.15
443.019	768.61
443.394	781.49
443.769	775.16
444.143	739.23
444.518	787.82
444.892	793.69
445.267	781.04
445.641	786.91
446.016	786.01
446.39	801.38
446.764	810.19
447.139	809.06
447.513	819.68
447.887	823.52
448.262	808.83
448.636	801.83
449.01	843.18
449.384	837.31
449.758	831.88
450.132	852.45
450.506	836.4
450.88	845.44
451.254	863.07
451.628	869.85
452.002	876.18
452.376	882.73
452.75	904.88
453.123	899
453.497	909.62
453.871	906.23
454.244	914.82
454.618	928.38
454.992	964.76
455.365	930.19
455.739	959.34
456.112	987.81
456.486	981.49
456.859	971.09
457.232	984.2
457.606	983.97
457.979	1014.03
458.352	1000.92
458.725	1042.73
459.099	1012.9
459.472	1041.6
459.845	1052.22
460.218	1084.76
460.591	1064.2
460.964	1074.14
461.337	1085.44
461.71	1119.79
462.083	1101.03
462.456	1132.22
462.829	1140.58
463.201	1168.15
463.574	1155.27
463.947	1167.24
464.32	1190.07
464.692	1213.34
465.065	1202.72
465.438	1217.19
465.81	1250.86
466.183	1241.14
466.555	1285.88
466.928	1256.96
467.3	1309.16
467.672	1320.69
468.045	1351.42
468.417	1382.15
468.789	1401.14
469.161	1395.49
469.534	1420.8
469.906	1458.54
470.278	1447.46
470.65	1486.33
471.022	1516.84
471.394	1564.52
471.766	1586.44
472.138	1604.97
472.51	1606.55
472.882	1628.7
473.253	1671.64
473.625	1728.81
473.997	1741.92
474.369	1747.34
474.74	1800.67
475.112	1834.8
475.484	1865.08
475.855	1914.57
476.227	1921.8
476.598	2001.57
476.97	2042.93
477.341	2067.56
477.713	2135.35
478.084	2158.18
478.455	2217.84
478.827	2270.72
479.198	2336.25
479.569	2371.96
479.94	2413.76
480.311	2503.93
480.682	2558.62
481.053	2625.28
481.424	2687.2
481.795	2739.63
482.166	2810.59
482.537	2868.89
482.908	2929.68
483.279	3026.63
483.65	3150.02
484.021	3173.29
484.391	3279.73
484.762	3315.66
485.133	3387.52
485.503	3395.43
485.874	3571.47
486.244	3620.74
486.615	3730.79
486.985	3825.7
487.356	3900.96
487.726	3929.43
488.097	4084.23
488.467	4134.17
488.837	4255.75
489.207	4351.57
489.578	4435.86
489.948	4546.59
490.318	4626.36
490.688	4696.42
491.058	4816.86
491.428	4858.22
491.798	4953.13
492.168	5144.31
492.538	5207.14
492.908	5267.47
493.278	5426.34
493.648	5429.5
494.017	5567.81
494.387	5661.36
494.757	5738.65
495.126	5812.54
495.496	5917.63
495.866	6012.31
496.235	6095.7
496.605	6175.7
496.974	6235.81
497.344	6378.86
497.713	6461.12
498.082	6528.46
498.452	6580.21
498.821	6703.82
499.19	6706.31
499.559	6856.36
499.928	6967.54
500.298	6959.18
500.667	7090.03
501.036	7111.95
501.405	7207.08
501.774	7252.73
502.143	7393.07
502.512	7380.19
502.88	7538.38
503.249	7574.76
503.618	7667.64
503.987	7715.77
504.356	7798.48
504.724	7871.02
505.093	7907.41
505.462	8011.81
505.83	8114.41
506.199	8155.53
506.567	8304.23
506.936	8277.79
507.304	8388.3
507.672	8474.85
508.041	8482.31
508.409	8602.08
508.777	8646.14
509.145	8727.27
509.514	8735.41
509.882	8783.99
510.25	8899.24
510.618	8997.77
510.986	9076.87
511.354	9107.6
511.722	9171.33
512.09	9222.62
512.458	9298.33
512.826	9396.86
513.193	9381.94
513.561	9439.79
513.929	9572.45
514.297	9621.48
514.664	9671.2
515.032	9731.09
515.4	9774.7
515.767	9840.91
516.135	9875.26
516.502	9878.65
516.869	10053.56
517.237	10085.65
517.604	10095.6
517.972	10223.5
518.339	10318.19
518.706	10296.49
519.073	10401.12
519.44	10380.33
519.808	10538.52
520.175	10485.87
520.542	10600.44
520.909	10685.41
521.276	10698.74
521.643	10800.21
522.009	10909.81
522.376	10920.43
522.743	11007.21
523.11	11082.69
523.477	11223.25
523.843	11250.59
524.21	11412.62
524.577	11424.83
524.943	11543.02
525.31	11566.97
525.676	11645.84
526.043	11734.88
526.409	11760.86
526.776	11829.56
527.142	11856.91
527.508	11940.29
527.874	12045.6
528.241	12120.63
528.607	12148.42
528.973	12313.39
529.339	12279.04
529.705	12318.81
530.071	12442.88
530.437	12493.5
530.803	12623.44
531.169	12717.67
531.535	12698.01
531.901	12714.51
532.267	12825.02
532.632	12913.6
532.998	12937.1
533.364	13038.57
533.73	13090.77
534.095	13148.85
534.461	13142.3
534.826	13319.69
535.192	13309.52
535.557	13488.5
535.923	13449.63
536.288	13458.45
536.653	13557.88
537.019	13536.18
537.384	13629.29
537.749	13691.43
538.114	13686.24
538.479	13658.67
538.845	13832.45
539.21	13801.71
539.575	13868.83
539.94	13910.86
540.305	14015.27
540.67	14069.73
541.034	14116.51
541.399	14191.53
541.764	14185.88
542.129	14301.36
542.494	14291.42
542.858	14414.35
543.223	14365.99
543.587	14500.9
543.952	14550.85
544.316	14635.36
544.681	14622.26
545.045	14732.99
545.41	14778.41
545.774	14740.67
546.138	14777.51
546.503	14882.81
546.867	14895.02
547.231	14947.22
547.595	15111.06
547.959	15018.18
548.324	15196.7
548.688	15226.99
549.052	15313.99
549.416	15319.41
549.779	15362.35
550.143	15346.53
550.507	15441.44
550.871	15492.74
551.235	15531.84
551.599	15665.85
551.962	15630.82
552.326	15676.47
552.689	15804.6
553.053	15765.05
553.417	15753.98
553.78	15998.72
554.143	15949.23
554.507	16027.19
554.87	16108.32
555.234	16217.24
555.597	16137.02
555.96	16298.6
556.323	16318.71
556.686	16335.66
557.05	16535.88
557.413	16472.6
557.776	16573.39
558.139	16610.23
558.502	16734.52
558.865	16661.98
559.228	16820.39
559.59	16835.53
559.953	16883.44
560.316	16997.11
560.679	17040.95
561.041	17160.27
561.404	17234.17
561.767	17391.45
562.129	17224.67
562.492	17499.92
562.854	17377.89
563.217	17471.67
563.579	17544.89
563.941	17718.45
564.304	17720.03
564.666	17853.36
565.028	17765
565.39	17786.92
565.753	18023.98
566.115	18081.6
566.477	18060.36
566.839	18116.63
567.201	18224.2
567.563	18372.67
567.925	18390.07
568.287	18410.86
568.648	18463.96
569.01	18612.66
569.372	18682.71
569.734	18745.99
570.095	18708.03
570.457	18835.71
570.819	18973.1
571.18	18952.09
571.542	19069.6
571.903	19079.54
572.265	19248.12
572.626	19243.6
572.987	19332.87
573.349	19449.93
573.71	19556.36
574.071	19637.72
574.432	19852.18
574.794	19909.58
575.155	19951.38
575.516	19930.37
575.877	20074.54
576.238	20209.23
576.599	20390.92
576.96	20479.28
577.32	20481.54
577.681	20675.66
578.042	20783.68
578.403	20907.29
578.763	21014.41
579.124	21173.27
579.485	21274.74
579.845	21531.91
580.206	21447.16
580.566	21662.75
580.927	21812.58
581.287	22020.93
581.648	22089.86
582.008	22319.23
582.368	22402.62
582.728	22652.78
583.089	22829.72
583.449	22905.2
583.809	23200.79
584.169	23320.79
584.529	23468.8
584.889	23906.08
585.249	23794.44
585.609	23912.18
585.969	24282.12
586.329	24483.01
586.688	24691.14
587.048	24835.55
587.408	25026.28
587.768	25247.29
588.127	25475.53
588.487	25478.92
588.846	25963.2
589.206	26092.69
589.565	26287.71
589.925	26532.68
590.284	26856.51
590.643	27128.59
591.003	27235.71
591.362	27603.38
591.721	27659.65
592.08	27938.52
592.44	28232.07
592.799	28520.2
593.158	28504.6
593.517	28833.18
593.876	28996.34
594.235	29283.11
594.593	29475.65
594.952	29765.81
595.311	29960.38
595.67	30238.57
596.029	30599.46
596.387	30722.62
596.746	30940.7
597.104	30997.87
597.463	31207.58
597.822	31407.13
598.18	31703.16
598.538	31727.34
598.897	32248.01
599.255	32036.49
599.613	32735.45
599.972	32746.75
600.33	32978.16
600.688	33004.82
601.046	33230.58
601.404	33569.33
601.762	33704.69
602.12	34123.66
602.478	34233.94
602.836	34402.08
603.194	34366.82
603.552	34682.97
603.91	34623.09
604.268	35160.47
604.625	35096.29
604.983	35370.64
605.341	35323.41
605.698	35678.65
606.056	35859.66
606.413	35871.64
606.771	36124.52
607.128	36215.81
607.485	36254.68
607.843	36516.37
608.2	36747.32
608.557	36847.89
608.914	36929.92
609.272	37245.62
609.629	37477.25
609.986	37686.28
610.343	37558.15
610.7	37980.06
611.057	37963.79
611.414	38031.36
611.771	38205.14
612.127	38455.08
612.484	38382.99
612.841	38736.65
613.198	38567.39
613.554	38744.56
613.911	39093.25
614.267	39105
614.624	39155.85
614.98	39289.86
615.337	39611.43
615.693	39579.11
616.05	39726.91
616.406	39913.8
616.762	39810.97
617.118	40023.62
617.475	40104.07
617.831	40274.46
618.187	40278.98
618.543	40456.61
618.899	40644.85
619.255	40695.02
619.611	40556.26
619.967	40816.6
620.323	40960.77
620.678	40816.6
621.034	40936.14
621.39	41001.45
621.746	41092.3
622.101	41477.6
622.457	41117.61
622.812	41348.56
623.168	41444.6
623.523	41534.09
623.879	41534.32
624.234	41392.4
624.589	41578.61
624.945	41728.89
625.3	41787.87
625.655	41821.09
626.01	41895.44
626.365	42045.94
626.72	41910.58
627.075	41969.33
627.43	41948.09
627.785	41803.69
628.14	42005.72
628.495	42126.84
628.85	41972.5
629.205	41913.06
629.559	42257.91
629.914	42150.8
630.269	42012.5
630.623	42138.6
630.978	42063.12
631.332	42229.21
631.687	42485.7
632.041	42130.23
632.396	42297.46
632.75	42153.28
633.104	42313.05
633.459	42087.75
633.813	42125.71
634.167	42112.38
634.521	42116.9
634.875	42252.26
635.229	42141.08
635.583	41826.06
635.937	42028.99
636.291	42043.91
636.645	42126.17
636.999	42060.41
637.352	42153.06
637.706	41876.23
638.06	42201.87
638.413	41954.19
638.767	41816.34
639.121	42099.05
639.474	41832.61
639.828	41817.47
640.181	42017.47
640.534	41899.73
640.888	41724.37
641.241	41653.64
641.594	41682.56
641.947	41926.17
642.301	41692.28
642.654	41699.28
643.007	41855.44
643.36	41788.1
643.713	41717.36
644.066	41855.21
644.419	41482.34
644.771	41320.31
645.124	40961
645.477	40810.72
645.83	40670.16
646.182	40533.67
646.535	40469.26
646.888	40573.66
647.24	40209.61
647.593	40604.4
647.945	40494.12
648.298	40396.04
648.65	40359.66
649.002	40348.81
649.355	40580.44
649.707	40379.32
650.059	40556.49
650.411	40951.73
650.763	41106.98
651.115	41344.94
651.467	41232.86
651.819	41306.75
652.171	41178.39
652.523	41208.22
652.875	41022.01
653.227	40792.19
653.578	41266.08
653.93	41118.28
654.282	40808.69
654.633	40871.96
654.985	40843.71
655.337	40930.04
655.688	40973.88
656.039	41065.4
656.391	40838.97
656.742	40870.61
657.094	40970.72
657.445	41073.09
657.796	40957.38
658.147	40885.52
658.498	40878.97
658.849	40932.53
659.2	40830.16
659.551	40732.53
659.902	40916.71
660.253	40666.77
660.604	40899.31
660.955	40709.25
661.306	40876.26
661.656	40878.52
662.007	40695.24
662.358	40752.42
662.708	40795.13
663.059	40716.03
663.409	40473.78
663.76	40828.12
664.11	40688.46
664.461	40714.68
664.811	40882.81
665.161	40597.84
665.511	40557.62
665.862	40640.56
666.212	40871.96
666.562	40770.5
666.912	40555.13
667.262	40618.18
667.612	40669.26
667.962	40669.03
668.312	40677.84
668.662	40845.97
669.011	40631.52
669.361	40713.1
669.711	40606.43
670.06	40498.41
670.41	40544.74
670.76	40411.64
671.109	40658.18
671.459	40424.74
671.808	40520.11
672.157	40595.59
672.507	40227.69
672.856	40236.05
673.205	40367.12
673.554	40440.11
673.904	40215.26
674.253	40542.71
674.602	40371.86
674.951	39865.89
675.3	39648.72
675.649	40440.11
675.998	40253
676.346	40365.53
676.695	40290.96
677.044	39903.63
677.393	40174.35
677.741	40212.09
678.09	40146.56
678.438	40076.28
678.787	40095.49
679.135	40194.47
679.484	39965.09
679.832	40104.52
680.181	39899.56
680.529	39961.25
680.877	39936.85
681.225	39806.45
681.573	40101.13
681.922	39642.16
682.27	39576.4
682.618	39628.83
682.966	39470.64
683.314	39658.21
683.661	39380.48
684.009	39368.05
684.357	39126.25
684.705	39146.13
685.053	39259.12
685.4	39144.1
685.748	38959.7
686.095	38870.88
686.443	38877.66
686.79	38731.23
687.138	38846.93
687.485	38815.29
687.832	38729.19
688.18	38777.55
688.527	38632.7
688.874	38445.59
689.221	38487.84
689.568	38479.03
689.915	38259.83
690.262	38386.38
690.609	38181.86
690.956	38000.85
691.303	38066.61
691.65	37854.87
691.997	38081.3
692.344	37730.8
692.69	37641.99
693.037	37590.69
693.383	37465.5
693.73	37419.62
694.077	37338.95
694.423	37303.69
694.769	37136.69
695.116	37090.59
695.462	37106.19
695.808	36995.45
696.155	37126.75
696.501	36819.19
696.847	36695.57
697.193	36486.31
697.539	36722.69
697.885	36390.72
698.231	36287.22
698.577	36274.79
698.923	36252.87
699.269	36044.97
699.614	35824.64
699.96	35778.54
700.306	35898.31
700.651	35691.99
700.997	35581.48
701.342	35592.78
701.688	35521.82
702.033	35310.3
702.379	35335.16
702.724	35336.74
703.069	35299
703.415	34894.27
703.76	35050.42
704.105	34912.12
704.45	34826.02
704.795	34693.37
705.14	34435.52
705.485	34614.95
705.83	34394.84
706.175	34364.34
706.52	34366.14
706.865	34230.1
707.209	34136.09
707.554	34056.32
707.899	34151.23
708.243	34004.35
708.588	33961.64
708.932	33709.89
709.277	33686.61
709.621	33724.35
709.966	33458.15
710.31	33510.35
710.654	33250.69
710.998	33295.66
711.342	33513.51
711.687	33272.84
712.031	33197.81
712.375	33169.79
712.719	33103.58
713.063	33035.11
713.407	33102.67
713.75	32953.53
714.094	32770.93
714.438	32688.22
714.782	32698.84
715.125	32655.68
715.469	32687.77
715.812	32463.14
716.156	32469.92
716.499	32334.33
716.843	32278.52
717.186	32201.68
717.53	32387.89
717.873	32390.6
718.216	32212.98
718.559	32029.71
718.902	31974.79
719.246	31797.62
719.589	31792.43
719.932	31703.84
720.275	31645.54
720.617	31674.24
720.96	31561.47
721.303	31533.22
721.646	31521.25
721.989	31470.85
722.331	31436.28
722.674	31329.84
723.016	31415.71
723.359	31247.81
723.701	31299.56
724.044	31168.49
724.386	30985.22
724.729	31144.31
725.071	31108.15
725.413	31032.45
725.755	30926.23
726.097	30865.45
726.439	30727.82
726.782	30749.52
727.124	30849.4
727.465	30575.28
727.807	30717.2
728.149	30515.62
728.491	30508.17
728.833	30630.42
729.175	30573.02
729.516	30418
729.858	30402.63
730.199	30347.94
730.541	30312.92
730.882	30348.62
731.224	30278.12
731.565	29991.12
731.906	30141.62
732.248	29980.95
732.589	29815.53
732.93	29820.95
733.271	29885.58
733.612	29912.93
733.953	29940.95
734.294	29783.67
734.635	29702.54
734.976	29757.23
735.317	29598.13
735.658	29618.92
735.999	29627.51
736.339	29528.76
736.68	29628.19
737.021	29391.13
737.361	29375.09
737.702	29475.43
738.042	29415.09
738.383	29331.93
738.723	29377.58
739.063	29293.74
739.404	29285.15
739.744	29164.25
740.084	29141.65
740.424	29132.16
740.764	29065.49
741.104	29198.6
741.444	28988.88
741.784	28896.68
742.124	28887.19
742.464	28890.36
742.804	28772.39
743.143	28658.72
743.483	28767.2
743.823	28591.61
744.162	28569.46
744.502	28589.57
744.841	28492.4
745.181	28649.68
745.52	28454.44
745.86	28479.97
746.199	28390.93
746.538	28505.28
746.877	28424.83
747.216	28495.56
747.556	28326.3
747.895	28322.69
748.234	28093.54
748.573	28077.04
748.911	28113.2
749.25	28133.31
749.589	27861.46
749.928	27889.48
750.267	27984.39
750.605	27975.58
750.944	27919.53
751.283	27653.55
751.621	27853.1
751.96	27705.53
752.298	27753.66
752.636	27574.23
752.975	27552.31
753.313	27314.35
753.651	27443.16
753.989	27357.29
754.327	27320
754.666	27188.25
755.004	27266.22
755.342	27237.74
755.679	27237.52
756.017	27078.43
756.355	27148.93
756.693	26868.49
757.031	26993.68
757.368	26707.59
757.706	26792.33
758.044	26674.37
758.381	26845.66
758.719	26610.42
759.056	26557.99
759.394	26549.17
759.731	26337.2
760.068	26336.98
760.405	26113.25
760.743	26124.55
761.08	26169.75
761.417	26042.07
761.754	26032.58
762.091	25948.29
762.428	25814.73
762.765	25655.41
763.102	25720.95
763.438	25666.94
763.775	25581.97
764.112	25397.11
764.449	25530.9
764.785	25473.95
765.122	25254.75
765.458	25158.02
765.795	25035.54
766.131	25058.59
766.467	24963.68
766.804	24907.41
767.14	24819.5
767.476	24858.15
767.812	24629.23
768.148	24593.52
768.485	24491.15
768.821	24339.52
769.157	24405.95
769.492	24258.84
769.828	24161.21
770.164	24115.79
770.5	24017.04
770.836	24092.97
771.171	23782.24
771.507	23846.42
771.842	23689.36
772.178	23565.07
772.513	23533.89
772.849	23531.18
773.184	23367.56
773.519	23482.36
773.855	23354.46
774.19	23149.49
774.525	23032.21
774.86	23127.34
775.195	23063.62
775.53	22869.05
775.865	22768.26
776.2	22531.43
776.535	22452.33
776.87	22557.64
777.205	22344.09
777.539	22343.41
777.874	22408.94
778.209	22200.14
778.543	22054.15
778.878	22082.85
779.212	22066.35
779.547	21828.39
779.881	21923.76
780.215	21740.04
780.55	21690.32
780.884	21585.46
781.218	21481.96
781.552	21589.76
781.886	21372.14
782.22	21225.02
782.554	21147.96
782.888	21002.88
783.222	20929.44
783.556	20840.85
783.889	20870
784.223	20672.49
784.557	20654.64
784.89	20525.6
785.224	20510.24
785.557	20448.54
785.891	20414.87
786.224	20332.39
786.558	20367.42
786.891	20065.28
787.224	20078.16
787.557	19970.59
787.891	19988.44
788.224	19948.67
788.557	19880.65
788.89	19892.63
789.223	19848.11
789.556	19627.32
789.888	19630.49
790.221	19555.69
790.554	19398.85
790.887	19387.78
791.219	19299.42
791.552	19291.51
791.884	19214
792.217	19079.77
792.549	19067.11
792.882	18853.78
793.214	18883.61
793.546	18836.84
793.879	18841.35
794.211	18703.05
794.543	18752.77
794.875	18636.84
795.207	18699.21
795.539	18501.93
795.871	18546.9
796.203	18430.29
796.535	18251.54
796.867	18197.3
797.198	18224.2
797.53	18124.76
797.862	18056.29
798.193	18125.67
798.525	17888.39
798.856	17931.55
799.188	17833.47
799.519	17706.24
799.85	17610.65
800.182	17638
800.513	17679.13
800.844	17494.05
801.175	17619.69
801.506	17622.4
801.837	17486.14
802.168	17406.36
802.499	17270.77
802.83	17306.71
803.161	17245.24
803.491	17155.75
803.822	17090.67
804.153	17165.92
804.483	16900.84
804.814	16887.51
805.145	16820.84
805.475	16839.37
805.805	16673.95
806.136	16837.57
806.466	16727.06
806.796	16672.15
807.126	16536.1
807.457	16524.13
807.787	16570.91
808.117	16473.73
808.447	16415.2
808.777	16393.96
809.107	16328.43
809.436	16186.28
809.766	16264.02
810.096	16172.27
810.426	16056.34
810.755	16078.94
811.085	16057.93
811.414	16069.9
811.744	15953.07
812.073	15918.49
812.403	15862.9
812.732	15765.05
813.061	15792.4
813.39	15665.17
813.719	15674.88
814.049	15704.49
814.378	15621.78
814.707	15574.32
815.036	15600.54
815.365	15418.39
815.693	15394.44
816.022	15419.98
816.351	15282.13
816.68	15180.89
817.008	15338.62
817.337	15147.44
817.665	15199.87
817.994	15138.85
818.322	15143.15
818.651	15052.75
818.979	15002.36
819.307	15142.47
819.636	14979.08
819.964	14950.61
820.292	15010.72
820.62	14980.67
820.948	14927.79
821.276	14997.39
821.604	14933.44
821.932	14944.51
822.259	14912.19
822.587	14839.88
822.915	14790.61
823.243	14863.15
823.57	14821.57
823.898	14839.2
824.225	14790.16
824.553	14879.65
824.88	14875.58
825.207	14848.01
825.535	14785.42
825.862	14872.65
826.189	14793.33
826.516	14878.52
826.843	14889.14
827.17	14797.17
827.497	14801.69
827.824	14874
828.151	14878.97
828.478	14819.77
828.805	14920.55
829.131	14859.31
829.458	14738.86
829.785	14738.64
830.111	14745.19
830.438	14788.13
830.764	14743.84
831.09	14725.76
831.417	14692.31
831.743	14671.52
832.069	14799.88
832.395	14678.53
832.722	14739.32
833.048	14629.04
833.374	14602.6
833.7	14646.44
834.026	14621.8
834.351	14621.8
834.677	14570.05
835.003	14636.72
835.329	14624.74
835.654	14601.24
835.98	14498.19
836.306	14499.77
836.631	14448.93
836.956	14536.38
837.282	14463.62
837.607	14425.88
837.932	14374.58
838.258	14334.13
838.583	14331.87
838.908	14330.51
839.233	14306.11
839.558	14262.94
839.883	14271.76
840.208	14118.09
840.533	14137.07
840.858	14198.77
841.182	14189.95
841.507	14206.45
841.832	14038.54
842.156	14052.1
842.481	14029.28
842.805	14040.35
843.13	13946.12
843.454	13956.06
843.778	13836.97
844.103	13913.12
844.427	13858.66
844.751	13916.51
845.075	13742.96
845.399	13686.69
845.723	13659.34
846.047	13650.53
846.371	13493.02
846.695	13594.94
847.019	13488.05
847.343	13403.98
847.666	13379.8
847.99	13267.72
848.313	13309.07
848.637	13169.19
848.96	13199.92
849.284	13066.37
849.607	13072.69
849.931	13022.52
850.254	12919.25
850.577	12917.67
850.9	12726.04
851.223	12689.43
851.546	12690.1
851.869	12629.31
852.192	12699.14
852.515	12539.15
852.838	12566.94
853.161	12500.28
853.483	12437.91
853.806	12402.2
854.129	12335.31
854.451	12320.62
854.774	12265.48
855.096	12193.39
855.419	12172.83
855.741	12211.7
856.063	12065.26
856.385	12061.19
856.708	12029.33
857.03	11952.04
857.352	12008.99
857.674	11969.9
857.996	11833.4
858.318	11862.1
858.64	11805.16
858.961	11744.82
859.283	11749.11
859.605	11717.25
859.926	11714.99
860.248	11621.43
860.57	11606.06
860.891	11632.96
861.212	11520.19
861.534	11418.27
861.855	11487.42
862.176	11469.12
862.498	11421.66
862.819	11507.54
863.14	11417.82
863.461	11455.56
863.782	11382.57
864.103	11350.48
864.424	11327.43
864.745	11259.63
865.065	11229.35
865.386	11252.18
865.707	11248.79
866.027	11213.76
866.348	11294.21
866.668	11174.21
866.989	11188.9
867.309	11081.11
867.63	11141.44
867.95	11066.19
868.27	11106.64
868.59	11047.66
868.91	11019.41
869.23	11064.16
869.55	11023.71
869.87	11054.44
870.19	11042.24
870.51	10959.3
870.83	10953.65
871.15	10933.09
871.469	10967.21
871.789	10868.01
872.109	10894.67
872.428	10859.64
872.748	10849.47
873.067	10817.16
873.386	10838.63
873.706	10798.85
874.025	10698.52
874.344	10645.86
874.663	10770.15
874.982	10689.7
875.301	10649.48
875.62	10702.36
875.939	10612.42
876.258	10630.27
876.577	10587.79
876.896	10560.44
877.214	10545.98
877.533	10601.57
877.852	10562.93
878.17	10544.17
878.489	10550.5
878.807	10517.51
879.125	10541.23
879.444	10469.82
879.762	10485.19
880.08	10434.34
880.398	10371.97
880.716	10452.65
881.034	10448.81
881.352	10312.31
881.67	10330.39
881.988	10332.2
882.306	10241.58
882.624	10245.65
882.941	10216.27
883.259	10205.2
883.577	10192.54
883.894	10131.75
884.212	10143.28
884.529	10107.12
884.846	10097.18
885.164	10026.45
885.481	10080.23
885.798	10072.77
886.115	9942.61
886.432	9945.32
886.75	9957.07
887.067	9979.22
887.383	9896.96
887.7	9969.5
888.017	9804.98
888.334	9900.35
888.651	9826
888.967	9801.82
889.284	9736.06
889.6	9669.17
889.917	9626.68
890.233	9654.7
890.55	9560.69
890.866	9594.37
891.182	9595.27
891.498	9565.89
891.815	9571.09
892.131	9489.74
892.447	9534.93
892.763	9431.66
893.079	9378.55
893.395	9375.84
893.71	9308.27
894.026	9328.16
894.342	9312.34
894.657	9249.74
894.973	9254.26
895.289	9225.34
895.604	9252.45
895.92	9205.22
896.235	9120.03
896.55	9133.81
896.865	9086.13
897.181	8972.91
897.496	9027.15
897.811	9033.25
898.126	8992.57
898.441	8935.63
898.756	8933.37
899.071	8871.45
899.386	8898.57
899.7	8801.84
900.015	8741.96
900.33	8664.22
900.644	8670.55
900.959	8699.25
901.273	8681.17
901.588	8593.94
901.902	8537.9
902.216	8555.98
902.531	8506.94
902.845	8522.98
903.159	8421.52
903.473	8400.95
903.787	8376.55
904.101	8362.99
904.415	8359.6
904.729	8296.77
905.042	8224.68
905.356	8250.9
905.67	8276.89
905.984	8233.05
906.297	8234.4
906.611	8162.99
906.924	8118.47
907.237	8074.18
907.551	8028.98
907.864	8001.87
908.177	7995.99
908.491	7997.8
908.804	7895.88
909.117	7861.98
909.43	7868.99
909.743	7750.8
910.056	7806.16
910.368	7749.67
910.681	7693.85
910.994	7671.03
911.307	7695.43
911.619	7596.9
911.932	7584.48
912.244	7586.06
912.557	7511.26
912.869	7441.43
913.181	7491.14
913.494	7464.7
913.806	7417.47
914.118	7331.6
914.43	7283.69
914.742	7352.17
915.054	7233.75
915.366	7232.39
915.678	7198.72
915.99	7235.33
916.302	7145.62
916.613	7112.62
916.925	7077.14
917.236	7081.44
917.548	7053.87
917.859	7007.77
918.171	6979.75
918.482	6970.93
918.794	6939.75
919.105	6899.3
919.416	6845.74
919.727	6877.38
920.038	6887.54
920.349	6791.28
920.66	6752.41
920.971	6749.24
921.282	6741.33
921.593	6685.74
921.903	6631.96
922.214	6604.84
922.525	6603.94
922.835	6563.71
923.146	6476.71
923.456	6505.86
923.767	6496.14
924.077	6454.11
924.387	6429.7
924.697	6423.15
925.008	6375.47
925.318	6336.82
925.628	6325.98
925.938	6305.87
926.248	6180.22
926.558	6210.95
926.867	6209.6
927.177	6163.72
927.487	6137.06
927.796	6112.88
928.106	6119.43
928.416	6101.8
928.725	6038.53
929.034	5989.49
929.344	5991.3
929.653	5984.07
929.962	5893.45
930.271	5958.76
930.581	5853.22
930.89	5879.66
931.199	5794.47
931.508	5798.99
931.817	5748.14
932.125	5729.38
932.434	5773
932.743	5678.09
933.051	5633.11
933.36	5674.24
933.669	5545.66
933.977	5610.06
934.286	5575.71
934.594	5509.5
934.902	5537.07
935.21	5518.09
935.519	5494.36
935.827	5452.33
936.135	5444.19
936.443	5408.49
936.751	5392.22
937.059	5410.07
937.367	5345.21
937.674	5355.61
937.982	5314.93
938.29	5287.59
938.597	5236.51
938.905	5232.9
939.213	5253.01
939.52	5199
939.827	5203.52
940.135	5165.78
940.442	5157.42
940.749	5073.81
941.056	5104.54
941.363	5073.36
941.67	5023.41
941.977	5030.19
942.284	4966.47
942.591	4961.95
942.898	4950.65
943.205	4940.48
943.511	4954.49
943.818	4927.14
944.125	4865
944.431	4884.89
944.738	4852.57
945.044	4861.16
945.35	4790.65
945.657	4737.77
945.963	4740.93
946.269	4690.09
946.575	4756.53
946.881	4701.39
947.187	4696.42
947.493	4644.44
947.799	4651.45
948.105	4604.67
948.41	4629.3
948.716	4562.41
949.022	4526.7
949.327	4534.16
949.633	4515.63
949.938	4495.07
950.244	4471.11
950.549	4438.34
950.854	4459.59
951.16	4407.61
951.465	4394.5
951.77	4395.18
952.075	4328.74
952.38	4362.41
952.685	4336.65
952.99	4273.15
953.294	4279.03
953.599	4271.79
953.904	4253.04
954.209	4205.13
954.513	4211.68
954.818	4162.19
955.122	4183.21
955.426	4116.54
955.731	4101.86
956.035	4154.28
956.339	4053.95
956.643	4083.1
956.948	4050.33
957.252	4041.52
957.556	4008.75
957.86	4029.54
958.163	4004.46
958.467	4011.46
958.771	3947.28
959.075	4010.78
959.378	3950.9
959.682	3939.83
959.985	3907.51
960.289	3915.65
960.592	3878.13
960.896	3796.33
961.199	3808.76
961.502	3773.5
961.805	3799.04
962.108	3783.67
962.411	3755.65
962.714	3740.51
963.017	3757.46
963.32	3749.32
963.623	3707.52
963.926	3676.1
964.228	3662.09
964.531	3638.36
964.833	3666.39
965.136	3614.41
965.438	3569.21
965.741	3575.54
966.043	3578.71
966.345	3548.2
966.648	3571.7
966.95	3540.74
967.252	3491.7
967.554	3505.49
967.856	3512.49
968.158	3465.04
968.46	3433.62
968.761	3407.64
969.063	3437.47
969.365	3377.81
969.666	3378.48
969.968	3359.95
970.269	3344.59
970.571	3303.46
970.872	3353.17
971.174	3312.05
971.475	3284.25
971.776	3270.24
972.077	3264.14
972.378	3263.69
972.679	3249.67
972.98	3229.56
973.281	3225.95
973.582	3213.97
973.883	3172.84
974.183	3169.9
974.484	3155.44
974.785	3152.5
975.085	3119.96
975.386	3139.85
975.686	3119.96
975.986	3126.97
976.287	3107.08
976.587	3050.58
976.887	3007.19
977.187	3002.45
977.487	3030.92
977.787	3007.87
978.087	3007.19
978.387	2993.18
978.687	2960.87
978.987	2957.48
979.286	2961.09
979.586	2929.91
979.885	2907.31
980.185	2905.28
980.484	2883.36
980.784	2893.98
981.083	2878.38
981.382	2850.59
981.682	2837.71
981.981	2804.71
982.28	2810.82
982.579	2794.32
982.878	2770.82
983.177	2751.83
983.475	2757.94
983.774	2748.22
984.073	2765.39
984.372	2700.76
984.67	2714.77
984.969	2685.85
985.267	2715
985.566	2662.57
985.864	2659.86
986.162	2697.6
986.461	2649.92
986.759	2622.12
987.057	2591.16
987.355	2609.92
987.653	2598.62
987.951	2587.77
988.249	2571.05
988.547	2572.18
988.844	2575.34
989.142	2563.59
989.44	2548.22
989.737	2577.38
990.035	2491.95
990.332	2506.64
990.63	2512.97
990.927	2481.56
991.224	2461.9
991.521	2449.24
991.819	2449.92
992.116	2444.05
992.413	2421
992.71	2420.09
993.006	2405.85
993.303	2391.62
993.6	2391.62
993.897	2357.27
994.193	2357.95
994.49	2355.46
994.787	2330.83
995.083	2307.1
995.379	2284.95
995.676	2268.68
995.972	2318.17
996.268	2284.05
996.565	2233.88
996.861	2260.32
997.157	2228.01
997.453	2251.73
997.749	2207.89
998.044	2174.9
998.34	2186.65
998.636	2150.27
998.932	2152.53
999.227	2167.67
999.523	2157.95
999.818	2143.26
1000.114	2131.51
1000.409	2106.43
1000.704	2117.27
1001	2099.42
1001.295	2062.14
1001.59	2073.43
1001.885	2085.86
1002.18	2068.01
1002.475	2040.44
1002.77	2014
1003.065	2010.84
1003.359	2013.55
1003.654	1985.07
1003.949	1991.18
1004.243	1982.82
1004.538	1954.12
1004.832	1943.95
1005.127	1913.44
1005.421	1954.12
1005.715	1913.21
1006.009	1912.31
1006.304	1920.67
1006.598	1885.64
1006.892	1873.44
1007.186	1872.76
1007.48	1862.59
1007.773	1855.81
1008.067	1869.82
1008.361	1808.36
1008.655	1816.04
1008.948	1787.57
1009.242	1845.42
1009.535	1790.5
1009.829	1799.09
1010.122	1730.62
1010.415	1767
1010.708	1726.1
1011.001	1705.08
1011.295	1707.34
1011.588	1713.67
1011.881	1714.35
1012.173	1725.65
1012.466	1687
1012.759	1691.3
1013.052	1668.7
1013.344	1685.42
1013.637	1658.3
1013.93	1665.08
1014.222	1609.49
1014.514	1614.69
1014.807	1615.37
1015.099	1605.88
1015.391	1572.88
1015.683	1595.48
1015.976	1589.83
1016.268	1583.5
1016.56	1543.05
1016.851	1555.71
1017.143	1518.87
1017.435	1540.57
1017.727	1510.51
1018.018	1517.06
1018.31	1465.54
1018.602	1489.95
1018.893	1510.96
1019.185	1465.31
1019.476	1470.74
1019.767	1463.28
1020.058	1455.82
1020.35	1428.71
1020.641	1405.2
1020.932	1425.32
1021.223	1392.55
1021.514	1407.46
1021.804	1371.53
1022.095	1372.21
1022.386	1385.54
1022.677	1367.01
1022.967	1360.91
1023.258	1329.5
1023.548	1336.96
1023.839	1316.84
1024.129	1321.14
1024.419	1315.26
1024.709	1295.83
1025	1296.05
1025.29	1285.21
1025.58	1253.57
1025.87	1260.8
1026.16	1263.51
1026.449	1245.66
1026.739	1228.94
1027.029	1246.34
1027.319	1226
1027.608	1228.48
1027.898	1192.78
1028.187	1195.04
1028.477	1203.63
1028.766	1187.58
1029.055	1190.97
1029.344	1167.47
1029.634	1176.51
1029.923	1157.3
1030.212	1141.48
1030.501	1115.72
1030.79	1143.06
1031.078	1124.31
1031.367	1136.06
1031.656	1101.71
1031.945	1083.18
1032.233	1093.8
1032.522	1118.21
1032.81	1108.94
1033.099	1079.56
1033.387	1061.26
1033.675	1060.13
1033.963	1046.34
1034.251	1064.2
1034.54	1031.65
1034.828	1048.6
1035.116	988.72
1035.403	1042.73
1035.691	997.98
1035.979	1018.09
1036.267	1019
1036.554	993.69
1036.842	989.62
1037.129	978.32
1037.417	980.81
1037.704	971.77
1037.992	954.82
1038.279	953.24
1038.566	929.06
1038.853	929.06
1039.14	929.06
