Data from hue_170_FLMS001491_00022.txt Node
Date: Tue Feb 07 16:48:27 GMT 2017
User: dcchb
Spectrometer: FLMS00149
Trigger mode: 0
Integration Time (sec): 2.000000E-2
Scans to average: 10
Electric dark correction enabled: true
Nonlinearity correction enabled: false
Boxcar width: 0
XAxis mode: Wavelengths
Number of Pixels in Spectrum: 2048
>>>>>Begin Spectral Data<<<<<
341.393	-27.74
341.776	-27.74
342.16	-27.74
342.543	-53.5
342.927	-85.82
343.31	-68.19
343.693	-77.23
344.077	-58.47
344.46	-59.83
344.843	-50.56
345.226	-31.58
345.61	-35.42
345.993	-20.28
346.376	-4.92
346.759	12.26
347.142	23.33
347.525	30.11
347.908	61.75
348.291	82.31
348.674	85.03
349.057	111.69
349.44	122.99
349.823	145.14
350.206	142.43
350.588	173.39
350.971	226.27
351.354	215.87
351.737	229.88
352.119	226.94
352.502	240.95
352.884	280.73
353.267	280.5
353.65	289.31
354.032	309.88
354.414	315.75
354.797	315.3
355.179	319.14
355.562	319.6
355.944	314.62
356.326	321.86
356.709	335.41
357.091	325.47
357.473	325.47
357.855	346.49
358.238	340.16
358.62	306.26
359.002	334.96
359.384	347.62
359.766	319.6
360.148	323.89
360.53	335.41
360.912	325.47
361.294	329.99
361.676	319.14
362.057	329.31
362.439	322.31
362.821	327.05
363.203	342.65
363.584	318.69
363.966	322.31
364.348	299.26
364.729	320.27
365.111	308.07
365.493	318.01
365.874	314.4
366.256	316.43
366.637	297.45
367.019	329.54
367.4	312.36
367.781	320.5
368.163	299.26
368.544	309.65
368.925	299.03
369.306	304.91
369.688	295.19
370.069	318.92
370.45	309.65
370.831	314.4
371.212	303.78
371.593	326.83
371.974	318.92
372.355	298.81
372.736	325.7
373.117	318.69
373.498	326.38
373.879	295.64
374.26	318.92
374.641	323.66
375.021	322.31
375.402	306.04
375.783	309.88
376.163	323.44
376.544	338.35
376.925	317.11
377.305	310.56
377.686	335.41
378.066	306.26
378.447	321.63
378.827	335.87
379.208	344
379.588	327.73
379.968	313.95
380.349	335.19
380.729	332.48
381.109	325.47
381.489	337.67
381.87	334.28
382.25	331.35
382.63	319.14
383.01	327.51
383.39	338.35
383.77	348.52
384.15	340.84
384.53	345.36
384.91	346.71
385.29	339.26
385.67	357.56
386.049	337.22
386.429	341.52
386.809	352.14
387.189	320.73
387.568	346.71
387.948	353.95
388.328	350.78
388.707	340.39
389.087	342.65
389.466	363.44
389.846	364.34
390.225	363.21
390.605	352.82
390.984	377.22
391.363	368.63
391.743	365.24
392.122	388.52
392.501	373.38
392.881	346.71
393.26	367.28
393.639	375.19
394.018	373.15
394.397	385.36
394.776	350.56
395.155	340.61
395.534	362.53
395.913	375.64
396.292	375.87
396.671	372.48
397.05	377.67
397.429	367.73
397.808	369.54
398.186	412.93
398.565	383.78
398.944	400.05
399.323	395.07
399.701	402.08
400.08	412.7
400.458	404.79
400.837	409.54
401.215	429.2
401.594	393.49
401.972	396.2
402.351	409.09
402.729	400.72
403.107	412.25
403.486	406.15
403.864	400.95
404.242	419.93
404.62	411.57
404.999	440.5
405.377	427.62
405.755	440.5
406.133	453.83
406.511	444.56
406.889	453.83
407.267	450.21
407.645	460.16
408.023	457.45
408.401	472.59
408.779	448.41
409.156	473.26
409.534	470.55
409.912	458.58
410.29	480.5
410.667	480.95
411.045	491.12
411.422	481.85
411.8	500.38
412.178	505.35
412.555	510.1
412.933	504.22
413.31	505.81
413.687	522.3
414.065	509.65
414.442	513.49
414.819	518.01
415.197	541.96
415.574	560.72
415.951	531.12
416.328	545.35
416.705	554.62
417.082	569.31
417.46	588.29
417.837	570.44
418.214	555.07
418.591	581.51
418.967	576.54
419.344	579.25
419.721	582.41
420.098	602.75
420.475	586.71
420.852	602.98
421.228	599.81
421.605	603.2
421.982	611.79
422.358	648.4
422.735	638.91
423.111	634.16
423.488	663.09
423.864	642.75
424.241	673.26
424.617	668.97
424.994	691.11
425.37	673.94
425.746	710.32
426.123	698.12
426.499	702.41
426.875	713.48
427.251	711
427.627	725.01
428.003	758.23
428.379	731.11
428.756	735.86
429.132	739.47
429.507	747.61
429.883	764.78
430.259	794.61
430.635	805.91
431.011	787.15
431.387	793.26
431.763	817.21
432.138	813.59
432.514	817.21
432.89	823.76
433.265	837.77
433.641	869.64
434.016	863.76
434.392	903.54
434.767	887.49
435.143	891.56
435.518	941.95
435.894	925.46
436.269	938.56
436.644	936.53
437.02	939.01
437.395	971.33
437.77	985.79
438.145	1008.17
438.52	1007.71
438.895	1016.75
439.271	1040.93
439.646	1025.79
440.021	1050.2
440.395	1042.74
440.77	1039.35
441.145	1063.53
441.52	1058.11
441.895	1068.73
442.27	1086.13
442.645	1119.12
443.019	1106.47
443.394	1117.77
443.769	1080.93
444.143	1141.5
444.518	1169.52
444.892	1130.65
445.267	1141.04
445.641	1153.47
446.016	1190.76
446.39	1199.8
446.764	1200.93
447.139	1201.83
447.513	1229.85
447.887	1218.33
448.262	1237.76
448.636	1250.87
449.01	1249.06
449.384	1262.4
449.758	1266.69
450.132	1308.72
450.506	1277.09
450.88	1275.73
451.254	1341.04
451.628	1327.71
452.002	1330.19
452.376	1352.34
452.75	1364.99
453.123	1372
453.497	1411.32
453.871	1425.1
454.244	1428.95
454.618	1436.63
454.992	1455.16
455.365	1453.58
455.739	1494.25
456.112	1506.46
456.486	1528.15
456.859	1552.11
457.232	1581.26
457.606	1568.38
457.979	1596.17
458.352	1620.58
458.725	1639.34
459.099	1660.8
459.472	1676.85
459.845	1718.2
460.218	1708.03
460.591	1750.29
460.964	1735.15
461.337	1780.8
461.71	1843.62
462.083	1851.99
462.456	1842.04
462.829	1865.09
463.201	1891.08
463.574	1908.71
463.947	1920.91
464.32	2023.51
464.692	2035.03
465.065	2073.45
465.438	2061.02
465.81	2086.56
466.183	2134.69
466.555	2171.98
466.928	2181.02
467.3	2220.79
467.672	2255.82
468.045	2308.7
468.417	2359.32
468.789	2364.74
469.161	2404.97
469.534	2459.88
469.906	2494.91
470.278	2503.04
470.65	2548.24
471.022	2607.45
471.394	2681.12
471.766	2677.5
472.138	2736.71
472.51	2806.54
472.882	2871.85
473.253	2917.95
473.625	2948.91
473.997	3014.89
474.369	3077.04
474.74	3104.61
475.112	3183.02
475.484	3238.84
475.855	3317.48
476.227	3369.01
476.598	3481.55
476.97	3523.35
477.341	3642.67
477.713	3703.46
478.084	3724.93
478.455	3891.71
478.827	3937.58
479.198	4067.97
479.569	4085.15
479.94	4234.75
480.311	4275.42
480.682	4409.43
481.053	4499.15
481.424	4632.03
481.795	4709.31
482.166	4823.88
482.537	4901.4
482.908	5021.85
483.279	5101.17
483.65	5224.1
484.021	5429.74
484.391	5506.35
484.762	5530.53
485.133	5677.2
485.503	5772.11
485.874	5916.06
486.244	6031.76
486.615	6180.46
486.985	6278.99
487.356	6426.78
487.726	6534.35
488.097	6720.33
488.467	6716.94
488.837	6936.37
489.207	6999.87
489.578	7210.94
489.948	7301.56
490.318	7407.32
490.688	7463.14
491.058	7717.37
491.428	7810.02
491.798	7950.36
492.168	8060.86
492.538	8204.59
492.908	8293.4
493.278	8435.09
493.648	8442.55
494.017	8638.7
494.387	8752.82
494.757	8853.16
495.126	8998.46
495.496	9023.32
495.866	9144.45
496.235	9224.22
496.605	9337.44
496.974	9346.7
497.344	9531.11
497.713	9575.17
498.082	9678.22
498.452	9819.01
498.821	9902.39
499.19	9938.1
499.559	9982.84
499.928	10172.22
500.298	10157.3
500.667	10293.35
501.036	10300.12
501.405	10439.33
501.774	10445.88
502.143	10577.18
502.512	10581.7
502.88	10694.92
503.249	10692.88
503.618	10720.23
503.987	10868.02
504.356	10892.88
504.724	10977.62
505.093	11000.9
505.462	10938.75
505.83	11158.41
506.199	11189.37
506.567	11355.01
506.936	11367.67
507.304	11418.74
507.672	11479.08
508.041	11460.32
508.409	11596.36
508.777	11658.73
509.145	11684.5
509.514	11685.4
509.882	11731.73
510.25	11742.35
510.618	11832.29
510.986	11825.51
511.354	11957.93
511.722	11982.11
512.09	12118.83
512.458	11998.39
512.826	12168.32
513.193	12151.83
513.561	12226.63
513.929	12241.77
514.297	12309.11
514.664	12312.73
515.032	12317.7
515.4	12422.33
515.767	12466.62
516.135	12531.93
516.502	12384.14
516.869	12583.23
517.237	12588.88
517.604	12493.06
517.972	12597.69
518.339	12662.1
518.706	12610.12
519.073	12632.94
519.44	12794.07
519.808	12820.96
520.175	12777.35
520.542	12830.91
520.909	12838.81
521.276	12858.25
521.643	12935.54
522.009	12969.21
522.376	12964.91
522.743	12990.9
523.11	13082.88
523.477	13135.08
523.843	13228.18
524.21	13213.95
524.577	13219.6
524.943	13249.2
525.31	13235.64
525.676	13378.91
526.043	13326.49
526.409	13374.85
526.776	13495.07
527.142	13427.73
527.508	13480.15
527.874	13531.9
528.241	13486.71
528.607	13433.83
528.973	13504.79
529.339	13554.28
529.705	13489.87
530.071	13524.67
530.437	13494.16
530.803	13524.22
531.169	13549.53
531.535	13506.14
531.901	13464.34
532.267	13482.87
532.632	13550.21
532.998	13450.1
533.364	13485.58
533.73	13409.87
534.095	13431.79
534.461	13491
534.826	13497.78
535.192	13493.26
535.557	13448.97
535.923	13385.92
536.288	13476.31
536.653	13430.21
537.019	13300.72
537.384	13345.24
537.749	13294.85
538.114	13269.09
538.479	13243.78
538.845	13208.07
539.21	13151.58
539.575	13170.33
539.94	13108.86
540.305	13073.16
540.67	13104.8
541.034	13049.2
541.399	12965.37
541.764	12988.64
542.129	13014.4
542.494	12934.18
542.858	12874.75
543.223	12861.41
543.587	12786.39
543.952	12772.15
544.316	12720.17
544.681	12710.23
545.045	12740.96
545.41	12703.23
545.774	12624.81
546.138	12640.85
546.503	12627.97
546.867	12578.03
547.231	12656.22
547.595	12545.26
547.959	12520.41
548.324	12428.66
548.688	12390.92
549.052	12456.9
549.416	12329.22
549.779	12294.65
550.143	12261.2
550.507	12317.25
550.871	12270.69
551.235	12129
551.599	12248.1
551.962	12207.42
552.326	12193.63
552.689	12187.31
553.053	12020.76
553.417	12022.79
553.78	12117.03
554.143	12067.08
554.507	12039.51
554.87	11961.78
555.234	12092.62
555.597	11901.44
555.96	12002.45
556.323	11935.11
556.686	11926.52
557.05	11928.33
557.413	11906.86
557.776	11853.53
558.139	11860.31
558.502	11781.44
558.865	11823.7
559.228	11889.46
559.59	11892.4
559.953	11846.3
560.316	11917.26
560.679	11795
561.041	11835.9
561.404	11895.56
561.767	11882.68
562.129	11789.13
562.492	11931.27
562.854	11888.11
563.217	11825.28
563.579	11783.7
563.941	11907.77
564.304	11810.82
564.666	11887.2
565.028	11835.45
565.39	11822.12
565.753	11968.1
566.115	11918.84
566.477	11887.65
566.839	11868.9
567.201	11941.89
567.563	11973.08
567.925	11986.41
568.287	11984.37
568.648	11966.3
569.01	12060.08
569.372	11974.66
569.734	12042.45
570.095	12069.8
570.457	12118.38
570.819	12104.37
571.18	12018.05
571.542	12079.74
571.903	11984.83
572.265	12108.44
572.626	12121.09
572.987	12070.93
573.349	12161.77
573.71	12167.65
574.071	12123.58
574.432	12196.12
574.794	12196.8
575.155	12183.46
575.516	12069.12
575.877	12164.48
576.238	12150.02
576.599	12175.33
576.96	12198.83
577.32	12219.85
577.681	12248.32
578.042	12240.19
578.403	12223.69
578.763	12209.68
579.124	12231.6
579.485	12272.28
579.845	12270.47
580.206	12166.74
580.566	12213.52
580.927	12174.2
581.287	12239.96
581.648	12143.24
582.008	12203.13
582.368	12150.92
582.728	12222.11
583.089	12184.59
583.449	12206.06
583.809	12215.78
584.169	12087.65
584.529	12091.26
584.889	12194.31
585.249	12123.13
585.609	12112.73
585.969	12175.56
586.329	12098.72
586.688	12170.13
587.048	12140.53
587.408	12059.85
587.768	12057.59
588.127	11969.46
588.487	11968.78
588.846	12112.51
589.206	12015.79
589.565	11907.54
589.925	12002.23
590.284	11976.01
590.643	11992.06
591.003	11907.31
591.362	12044.26
591.721	11978.72
592.08	11962.68
592.44	11986.86
592.799	12011.94
593.158	11948.22
593.517	12010.14
593.876	11983.92
594.235	11941.21
594.593	11935.79
594.952	11916.58
595.311	11962.45
595.67	11892.85
596.029	11987.09
596.387	11974.43
596.746	11908.9
597.104	11848.78
597.463	11917.03
597.822	11926.3
598.18	11837.71
598.538	11947.54
598.897	11887.43
599.255	11846.3
599.613	12006.07
599.972	11902.12
600.33	11953.41
600.688	11864.6
601.046	11930.36
601.404	11913.87
601.762	11900.53
602.12	11871.83
602.478	11911.16
602.836	11861.21
603.194	11929.46
603.552	11883.81
603.91	11833.64
604.268	11902.12
604.625	11827.54
604.983	11791.16
605.341	11816.92
605.698	11838.39
606.056	11837.03
606.413	11894.43
606.771	11955.67
607.128	11898.27
607.485	11859.18
607.843	11866.41
608.2	11915.9
608.557	11916.81
608.914	11860.99
609.272	11957.26
609.629	11980.76
609.986	12049.01
610.343	11998.61
610.7	11996.8
611.057	11961.32
611.414	11962.68
611.771	11955.22
612.127	12040.42
612.484	11987.99
612.841	12012.17
613.198	11970.36
613.554	12027.99
613.911	12152.96
614.267	12036.8
614.624	12018.72
614.98	12024.15
615.337	12173.97
615.693	12066.63
616.05	12114.77
616.406	12223.46
616.762	12159.96
617.118	12096.91
617.475	12180.53
617.831	12168.55
618.187	12179.62
618.543	12172.84
618.899	12247.19
619.255	12259.62
619.611	12228.66
619.967	12179.85
620.323	12172.62
620.678	12206.52
621.034	12150.47
621.39	12172.39
621.746	12076.12
622.101	12263.46
622.457	12136.69
622.812	12221.43
623.168	12173.3
623.523	12179.85
623.879	12209
624.234	12081.09
624.589	12207.65
624.945	12246.51
625.3	12109.79
625.655	12135.1
626.01	12221.43
626.365	12280.19
626.72	12169.91
627.075	12227.76
627.43	12180.98
627.785	12154.09
628.14	12156.12
628.495	12187.53
628.85	12168.55
629.205	12075.22
629.559	12144.82
629.914	12166.74
630.269	12121.55
630.623	12061.66
630.978	12046.29
631.332	12108.21
631.687	12135.33
632.041	11999.97
632.396	12040.42
632.75	11976.01
633.104	12022.34
633.459	11986.18
633.813	11960.42
634.167	12000.42
634.521	11964.26
634.875	12037.48
635.229	11948.67
635.583	11911.83
635.937	11964.49
636.291	11951.83
636.645	11799.75
636.999	11787.09
637.352	11814.44
637.706	11838.62
638.06	11800.42
638.413	11819.63
638.767	11721.33
639.121	11735.34
639.474	11697.15
639.828	11708.22
640.181	11742.8
640.534	11710.48
640.888	11653.99
641.241	11680.88
641.594	11691.05
641.947	11678.39
642.301	11705.51
642.654	11707.77
643.007	11701.44
643.36	11712.97
643.713	11627.77
644.066	11612.18
644.419	11609.47
644.771	11542.35
645.124	11422.81
645.477	11311.17
645.83	11295.13
646.182	11278.86
646.535	11271.17
646.888	11282.25
647.24	11193.66
647.593	11289.03
647.945	11332.19
648.298	11185.75
648.65	11147.56
649.002	11155.24
649.355	11210.38
649.707	11156.15
650.059	11279.31
650.411	11406.08
650.763	11359.98
651.115	11500.77
651.467	11422.81
651.819	11428.91
652.171	11553.88
652.523	11366.76
652.875	11402.47
653.227	11443.6
653.578	11463.03
653.93	11415.35
654.282	11411.73
654.633	11437.95
654.985	11369.7
655.337	11441.56
655.688	11414.45
656.039	11485.4
656.391	11388.91
656.742	11401.79
657.094	11451.05
657.445	11486.53
657.796	11536.93
658.147	11486.99
658.498	11467.1
658.849	11434.11
659.2	11486.08
659.551	11446.54
659.902	11510.71
660.253	11476.59
660.604	11504.84
660.955	11488.79
661.306	11501.9
661.656	11535.57
662.007	11584.84
662.358	11551.39
662.708	11531.73
663.059	11631.16
663.409	11489.25
663.76	11540.77
664.11	11500.77
664.461	11551.62
664.811	11550.71
665.161	11588.68
665.511	11449.92
665.862	11534.67
666.212	11585.97
666.562	11512.52
666.912	11620.32
667.262	11596.14
667.612	11540.54
667.962	11578.28
668.312	11477.49
668.662	11512.07
669.011	11496.48
669.361	11515.46
669.711	11529.24
670.06	11525.63
670.41	11518.4
670.76	11434.78
671.109	11542.35
671.459	11442.69
671.808	11378.29
672.157	11513.2
672.507	11403.37
672.856	11433.88
673.205	11421
673.554	11528.34
673.904	11344.16
674.253	11470.94
674.602	11392.75
674.951	11260.33
675.3	11217.16
675.649	11430.49
675.998	11376.03
676.346	11335.58
676.695	11352.75
677.044	11276.82
677.393	11300.32
677.741	11388.23
678.09	11361.11
678.438	11319.31
678.787	11281.34
679.135	11385.07
679.484	11218.97
679.832	11216.03
680.181	11238.41
680.529	11265.97
680.877	11185.53
681.225	11171.29
681.573	11203.83
681.922	11154.11
682.27	11123.15
682.618	11120.22
682.966	11051.52
683.314	11089.48
683.661	11030.95
684.009	11035.02
684.357	10921.58
684.705	10978.3
685.053	10993.44
685.4	11032.08
685.748	10891.07
686.095	10892.65
686.443	10778.98
686.79	10777.4
687.138	10812.2
687.485	10835.03
687.832	10698.98
688.18	10772.43
688.527	10616.73
688.874	10681.36
689.221	10656.05
689.568	10585.99
689.915	10553.9
690.262	10643.17
690.609	10552.77
690.956	10486.56
691.303	10513.68
691.65	10402.04
691.997	10418.77
692.344	10353.68
692.69	10369.73
693.037	10320.69
693.383	10181.26
693.73	10189.85
694.077	10171.31
694.423	10209.96
694.769	10119.34
695.116	10074.14
695.462	10115.95
695.808	10080.47
696.155	10046.12
696.501	9998.66
696.847	9960.92
697.193	9803.87
697.539	9887.48
697.885	9811.32
698.231	9805
698.577	9775.84
698.923	9762.51
699.269	9699.24
699.614	9548.05
699.96	9623.08
700.306	9665.34
700.651	9550.31
700.997	9560.48
701.342	9516.87
701.688	9464.21
702.033	9458.79
702.379	9416.08
702.724	9401.62
703.069	9415.63
703.415	9272.36
703.76	9297.21
704.105	9333.6
704.45	9299.25
704.795	9186.03
705.14	9125.92
705.485	9153.49
705.83	9090.89
706.175	9131.79
706.52	9115.52
706.865	9069.42
707.209	8987.62
707.554	8987.39
707.899	9014.28
708.243	8986.26
708.588	8890.22
708.932	8807.96
709.277	8805.25
709.621	8850.67
709.966	8787.85
710.31	8797.11
710.654	8648.87
710.998	8646.83
711.342	8740.84
711.687	8707.62
712.031	8683.67
712.375	8683.44
712.719	8591.92
713.063	8624.46
713.407	8658.36
713.75	8623.78
714.094	8507.63
714.438	8502.88
714.782	8523.45
715.125	8462.66
715.469	8515.76
715.812	8438.93
716.156	8437.12
716.499	8446.39
716.843	8455.88
717.186	8448.65
717.53	8421.53
717.873	8392.83
718.216	8376.33
718.559	8317.35
718.902	8277.35
719.246	8282.1
719.589	8331.14
719.932	8250.01
720.275	8223.34
720.617	8227.86
720.96	8273.29
721.303	8261.53
721.646	8223.12
721.989	8151.48
722.331	8252.27
722.674	8176.11
723.016	8190.12
723.359	8152.38
723.701	8204.59
724.044	8120.97
724.386	8139.5
724.729	8164.36
725.071	8168.2
725.413	8181.54
725.755	8140.63
726.097	8113.74
726.439	8039.62
726.782	8100.63
727.124	8144.02
727.465	8105.15
727.807	8109.45
728.149	8091.14
728.491	8086.17
728.833	8125.04
729.175	8053.18
729.516	8078.04
729.858	8070.8
730.199	8043.01
730.541	7986.74
730.882	7941.32
731.224	8082.33
731.565	7966.17
731.906	8065.83
732.248	8022.22
732.589	8011.6
732.93	8014.54
733.271	8015.21
733.612	8037.81
733.953	8070.13
734.294	7957.81
734.635	7961.66
734.976	8033.52
735.317	7994.87
735.658	8029.45
735.999	7999.62
736.339	7970.92
736.68	8035.78
737.021	8030.35
737.361	8039.39
737.702	8088.43
738.042	8080.52
738.383	8081.65
738.723	8087.3
739.063	8089.34
739.404	8100.18
739.744	8066.51
740.084	8078.04
740.424	8094.76
740.764	8087.08
741.104	8102.22
741.444	8141.99
741.784	8182.21
742.124	8195.1
742.464	8111.71
742.804	8144.25
743.143	8194.87
743.483	8181.76
743.823	8158.71
744.162	8241.87
744.502	8316.45
744.841	8296.79
745.181	8333.4
745.52	8363.45
745.86	8426.5
746.199	8449.55
746.538	8407.52
746.877	8565.93
747.216	8612.49
747.556	8601.19
747.895	8712.82
748.234	8713.05
748.573	8760.05
748.911	8898.81
749.25	8840.5
749.589	8881.63
749.928	9003.89
750.267	9029.65
750.605	9112.59
750.944	9171.57
751.283	9234.84
751.621	9341.05
751.96	9407.04
752.298	9536.53
752.636	9580.82
752.975	9628.96
753.313	9746.92
753.651	9900.14
753.989	9951.43
754.327	10020.58
754.666	10132.67
755.004	10294.48
755.342	10401.82
755.679	10460.8
756.017	10688.14
756.355	10736.95
756.693	10819.43
757.031	11013.78
757.368	11076.83
757.706	11298.74
758.044	11376.25
758.381	11568.34
758.719	11724.72
759.056	11843.36
759.394	12037.03
759.731	12072.96
760.068	12256.46
760.405	12429.79
760.743	12583.23
761.08	12809.21
761.417	12911.36
761.754	13093.5
762.091	13246.71
762.428	13409.2
762.765	13527.84
763.102	13640.6
763.438	13797.43
763.775	13939.58
764.112	14152
764.449	14330.53
764.785	14441.03
765.122	14450.3
765.458	14738.88
765.795	14810.51
766.131	15015.71
766.467	15136.38
766.804	15293.44
767.14	15398.07
767.476	15568.23
767.812	15623.83
768.148	15853.42
768.485	15899.98
768.821	15916.93
769.157	16076.24
769.492	16226.3
769.828	16374.77
770.164	16355.56
770.5	16462
770.836	16577.93
771.171	16741.99
771.507	16772.95
771.842	16895.43
772.178	16966.84
772.513	17092.71
772.849	17051.36
773.184	17099.27
773.519	17302.43
773.855	17287.74
774.19	17452.7
774.525	17380.62
774.86	17510.1
775.195	17614.28
775.53	17618.58
775.865	17603.89
776.2	17692.25
776.535	17519.82
776.87	17663.09
777.205	17715.97
777.539	17742.19
777.874	17788.97
778.209	17788.52
778.543	17819.47
778.878	17791.91
779.212	17811.11
779.547	17868.51
779.881	17956.19
780.215	17931.11
780.55	18016.98
780.884	17971.79
781.218	18043.2
781.552	18144.44
781.886	18126.36
782.22	18010.2
782.554	17971.56
782.888	17938.12
783.222	17994.61
783.556	17866.71
783.889	17895.63
784.223	17928.4
784.557	17802.98
784.89	17916.65
785.224	17871.23
785.557	17804.33
785.891	17804.11
786.224	17793.94
786.558	17791.91
786.891	17634.4
787.224	17682.3
787.557	17707.61
787.891	17654.73
788.224	17671.91
788.557	17701.96
788.89	17645.47
789.223	17666.26
789.556	17487.28
789.888	17471.24
790.221	17502.87
790.554	17431.46
790.887	17447.06
791.219	17353.05
791.552	17358.7
791.884	17319.6
792.217	17281.41
792.549	17333.84
792.882	17262.2
793.214	17181.75
793.546	17281.18
793.879	17066.27
794.211	17095.65
794.543	17157.35
794.875	17092.49
795.207	17139.72
795.539	16981.53
795.871	17034.64
796.203	16901.76
796.535	16833.06
796.867	16845.49
797.198	16691.6
797.53	16785.15
797.862	16709.22
798.193	16683.01
798.525	16514.42
798.856	16655.21
799.188	16488.89
799.519	16378.38
799.85	16468.55
800.182	16407.08
800.513	16442.11
800.844	16303.36
801.175	16389.68
801.506	16311.94
801.837	16241.66
802.168	16308.55
802.499	16151.5
802.83	16184.72
803.161	16069.46
803.491	16021.78
803.822	16071.5
804.153	16014.1
804.483	15876.02
804.814	15913.08
805.145	15844.16
805.475	15770.26
805.805	15776.14
806.136	15805.29
806.466	15740.66
806.796	15783.82
807.126	15612.08
807.457	15615.69
807.787	15635.13
808.117	15546.31
808.447	15498.41
808.777	15504.06
809.107	15403.49
809.436	15365.08
809.766	15461.12
810.096	15431.74
810.426	15252.31
810.755	15310.61
811.085	15288.24
811.414	15283.72
811.744	15137.74
812.073	15163.95
812.403	15231.07
812.732	15084.18
813.061	15056.61
813.39	14994.69
813.719	14943.39
814.049	15023.16
814.378	14922.15
814.707	14805.54
815.036	14921.92
815.365	14797.41
815.693	14778.88
816.022	14761.93
816.351	14733
816.68	14663.4
817.008	14637.19
817.337	14582.27
817.665	14584.08
817.994	14574.36
818.322	14566.45
818.651	14525.32
818.979	14471.54
819.307	14526.91
819.636	14545.21
819.964	14366.68
820.292	14470.18
820.62	14455.95
820.948	14415.95
821.276	14494.36
821.604	14329.17
821.932	14374.59
822.259	14410.3
822.587	14303.18
822.915	14274.26
823.243	14487.59
823.57	14357.19
823.898	14410.07
824.225	14304.99
824.553	14345.89
824.88	14397.42
825.207	14418.89
825.535	14391.77
825.862	14434.25
826.189	14362.16
826.516	14430.86
826.843	14547.24
827.17	14422.5
827.497	14488.26
827.824	14437.64
828.151	14436.06
828.478	14406.46
828.805	14434.03
829.131	14359.9
829.458	14387.7
829.785	14349.96
830.111	14363.75
830.438	14492.1
830.764	14438.55
831.09	14461.6
831.417	14324.43
831.743	14512.44
832.069	14448.26
832.395	14352.45
832.722	14374.37
833.048	14254.14
833.374	14426.8
833.7	14293.01
834.026	14307.25
834.351	14274.03
834.677	14229.96
835.003	14307.02
835.329	14291.88
835.654	14264.77
835.98	14273.35
836.306	14279.91
836.631	14239.23
836.956	14254.82
837.282	14131.21
837.607	14116.97
837.932	14043.76
838.258	14121.27
838.583	14062.29
838.908	14064.32
839.233	14032.23
839.558	13996.3
839.883	13967.15
840.208	13888.05
840.533	13931.89
840.858	13942.97
841.182	13971.67
841.507	13871.56
841.832	13789.52
842.156	13785.91
842.481	13844.21
842.805	13800.15
843.13	13721.73
843.454	13598.34
843.778	13630.88
844.103	13626.59
844.427	13562.41
844.751	13562.19
845.075	13587.72
845.399	13494.62
845.723	13494.62
846.047	13507.95
846.371	13401.51
846.695	13348.18
847.019	13250.1
847.343	13182.76
847.666	13151.35
847.99	13029.32
848.313	13049.43
848.637	12927.63
848.96	12897.8
849.284	12905.25
849.607	12786.16
849.931	12794.3
850.254	12750.68
850.577	12716.78
850.9	12560.63
851.223	12679.5
851.546	12474.3
851.869	12463.23
852.192	12420.75
852.515	12431.59
852.838	12339.62
853.161	12394.31
853.483	12270.24
853.806	12177.14
854.129	12244.25
854.451	12098.04
854.774	12073.86
855.096	12072.51
855.419	12012.17
855.741	11974.2
856.063	11915.9
856.385	11926.75
856.708	11877.03
857.03	11783.02
857.352	11794.77
857.674	11737.15
857.996	11701.22
858.318	11640.88
858.64	11647.66
858.961	11645.4
859.283	11553.2
859.605	11506.19
859.926	11583.93
860.248	11515.69
860.57	11469.81
860.891	11441.11
861.212	11388.46
861.534	11399.3
861.855	11302.36
862.176	11347.78
862.498	11326.09
862.819	11317.73
863.14	11293.77
863.461	11224.85
863.782	11280.89
864.103	11222.59
864.424	11176.49
864.745	11164.96
865.065	11156.15
865.386	11156.83
865.707	11059.43
866.027	11063.27
866.348	11069.37
866.668	11094.23
866.989	10982.59
867.309	10952.76
867.63	11010.39
867.95	10945.98
868.27	10920.45
868.59	10920.67
868.91	10930.16
869.23	10850.62
869.55	10812.2
869.87	10883.16
870.19	10867.12
870.51	10838.87
870.83	10876.15
871.15	10835.93
871.469	10739.44
871.789	10811.07
872.109	10813.56
872.428	10731.98
872.748	10704.41
873.067	10713.9
873.386	10657.86
873.706	10719.1
874.025	10595.94
874.344	10570.85
874.663	10551.19
874.982	10635.03
875.301	10524.98
875.62	10579.67
875.939	10558.65
876.258	10504.64
876.577	10424.42
876.896	10451.53
877.214	10449.5
877.533	10444.3
877.852	10391.2
878.17	10397.3
878.489	10409.95
878.807	10413.57
879.125	10400.24
879.444	10327.02
879.762	10335.83
880.08	10307.13
880.398	10279.79
880.716	10233.01
881.034	10212.9
881.352	10229.39
881.67	10242.95
881.988	10180.13
882.306	10192.78
882.624	10128.38
882.941	10024.43
883.259	10088.15
883.577	10068.94
883.894	10051.54
884.212	10047.48
884.529	10030.75
884.846	10023.75
885.164	9968.61
885.481	9909.17
885.798	9903.52
886.115	9840.7
886.432	9785.11
886.75	9799.8
887.067	9882.96
887.383	9741.72
887.7	9800.02
888.017	9747.6
888.334	9754.38
888.651	9699.46
888.967	9613.36
889.284	9642.06
889.6	9627.37
889.917	9512.57
890.233	9589.41
890.55	9590.76
890.866	9498.79
891.182	9489.3
891.498	9442.07
891.815	9424.89
892.131	9373.37
892.447	9408.4
892.763	9375.86
893.079	9256.54
893.395	9323.65
893.71	9260.38
894.026	9238.23
894.342	9217.22
894.657	9172.24
894.973	9176.76
895.289	9110.55
895.604	9111.68
895.92	9076.2
896.235	8975.19
896.55	8973.38
896.865	8941.06
897.181	8902.87
897.496	8932.93
897.811	8920.5
898.126	8871.24
898.441	8817.23
898.756	8750.11
899.071	8726.61
899.386	8732.03
899.7	8650.68
900.015	8640.73
900.33	8563.45
900.644	8581.53
900.959	8517.35
901.273	8505.6
901.588	8553.73
901.902	8383.79
902.216	8410.46
902.531	8423.11
902.845	8410.23
903.159	8355.09
903.473	8257.24
903.787	8278.93
904.101	8156
904.415	8153.06
904.729	8106.06
905.042	8144.25
905.356	8044.82
905.67	8132.5
905.984	8061.54
906.297	8060.41
906.611	8008.66
906.924	7994.2
907.237	7934.54
907.551	7871.71
907.864	7893.86
908.177	7908.32
908.491	7806.86
908.804	7762.56
909.117	7699.74
909.43	7640.76
909.743	7675.33
910.056	7632.4
910.368	7578.39
910.681	7561.89
910.994	7483.7
911.307	7494.1
911.619	7436.25
911.932	7470.37
912.244	7436.25
912.557	7388.79
912.869	7340.2
913.181	7351.28
913.494	7278.74
913.806	7238.96
914.118	7210.71
914.43	7164.84
914.742	7185.18
915.054	7130.94
915.366	7118.97
915.678	7078.29
915.99	7094.56
916.302	6982.02
916.613	6992.64
916.925	6974.56
917.236	6979.08
917.548	6984.05
917.859	6971.85
918.171	6841.91
918.482	6826.77
918.794	6776.38
919.105	6829.93
919.416	6754.46
919.727	6759.43
920.038	6730.05
920.349	6655.25
920.66	6632.42
920.971	6615.25
921.282	6609.37
921.593	6569.15
921.903	6553.1
922.214	6502.03
922.525	6495.7
922.835	6488.47
923.146	6428.59
923.456	6360.12
923.767	6385.88
924.077	6376.39
924.387	6320.57
924.697	6338.19
925.008	6260.68
925.318	6273.56
925.628	6238.08
925.938	6216.84
926.248	6147.01
926.558	6151.76
926.867	6116.28
927.177	6089.39
927.487	6122.16
927.796	6016.85
928.106	5970.07
928.416	5980.69
928.725	5983.18
929.034	5972.78
929.344	5913.57
929.653	5923.74
929.962	5881.94
930.271	5902.5
930.581	5817.98
930.89	5800.13
931.199	5789.28
931.508	5710.19
931.817	5768.27
932.125	5710.41
932.434	5731.43
932.743	5672.45
933.051	5593.81
933.36	5621.38
933.669	5586.35
933.977	5572.34
934.286	5561.49
934.594	5496.18
934.902	5468.16
935.21	5430.65
935.519	5464.77
935.827	5455.05
936.135	5395.17
936.443	5378.45
936.751	5335.28
937.059	5364.44
937.367	5290.99
937.674	5317.2
937.982	5259.13
938.29	5260.94
938.597	5250.99
938.905	5168.73
939.213	5229.07
939.52	5197.43
939.827	5195.17
940.135	5128.96
940.442	5171.45
940.749	5068.85
941.056	5072.47
941.363	5057.55
941.67	5006.93
941.977	5041.73
942.284	4952.69
942.591	4924.9
942.898	4936.42
943.205	4900.94
943.511	4860.72
943.818	4886.93
944.125	4863.66
944.431	4805.13
944.738	4810.55
945.044	4791.34
945.35	4767.84
945.657	4768.07
945.963	4733.94
946.269	4649.43
946.575	4708.63
946.881	4653.04
947.187	4659.37
947.493	4645.36
947.799	4599.48
948.105	4574.17
948.41	4547.51
948.716	4537.11
949.022	4518.13
949.327	4543.21
949.633	4500.05
949.938	4466.38
950.244	4491.92
950.549	4430.22
950.854	4381.86
951.16	4375.76
951.465	4314.75
951.77	4389.77
952.075	4339.83
952.38	4333.73
952.685	4286.72
952.99	4291.7
953.294	4272.94
953.599	4183.68
953.904	4279.49
954.209	4176.44
954.513	4188.87
954.818	4137.8
955.122	4149.55
955.426	4159.72
955.731	4100.51
956.035	4100.74
956.339	4063.45
956.643	4074.53
956.948	4029.78
957.252	4043.79
957.556	4020.52
957.86	4010.12
958.163	3973.29
958.467	3939.39
958.771	3981.42
959.075	3946.85
959.378	3908.88
959.682	3938.48
959.985	3866.17
960.289	3875.43
960.592	3832.05
960.896	3794.31
961.199	3810.13
961.502	3779.84
961.805	3777.58
962.108	3753.18
962.411	3758.6
962.714	3721.77
963.017	3701.43
963.32	3713.86
963.623	3677.93
963.926	3675.89
964.228	3637.47
964.531	3655.55
964.833	3597.48
965.136	3596.8
965.438	3547.08
965.741	3559.74
966.043	3571.94
966.345	3519.74
966.648	3541.21
966.95	3534.2
967.252	3473.86
967.554	3465.95
967.856	3448.1
968.158	3428.21
968.46	3412.17
968.761	3409.46
969.063	3397.26
969.365	3374.43
969.666	3373.98
969.968	3300.99
970.269	3343.02
970.571	3347.31
970.872	3327.65
971.174	3302.57
971.475	3319.29
971.776	3287.88
972.077	3251.27
972.378	3265.96
972.679	3207.43
972.98	3233.42
973.281	3225.06
973.582	3231.16
973.883	3177.37
974.183	3167.88
974.484	3168.79
974.785	3185.74
975.085	3140.99
975.386	3123.14
975.686	3091.5
975.986	3088.79
976.287	3110.03
976.587	3033.88
976.887	3057.6
977.187	3027.55
977.487	3016.7
977.787	3000.66
978.087	2997.27
978.387	2985.06
978.687	2972.63
978.987	2914.56
979.286	2911.84
979.586	2920.21
979.885	2915.69
980.185	2895.8
980.484	2890.6
980.784	2889.02
981.083	2842.69
981.382	2856.93
981.682	2845.18
981.981	2849.02
982.28	2799.98
982.579	2747.55
982.878	2779.87
983.177	2757.05
983.475	2767.22
983.774	2704.62
984.073	2719.31
984.372	2666.43
984.67	2712.08
984.969	2715.69
985.267	2663.72
985.566	2698.06
985.864	2646.99
986.162	2641.12
986.461	2650.38
986.759	2631.85
987.057	2612.87
987.355	2596.37
987.653	2556.83
987.951	2593.43
988.249	2557.05
988.547	2552.98
988.844	2548.01
989.142	2522.25
989.44	2518.63
989.737	2499.2
990.035	2486.32
990.332	2478.18
990.63	2463.27
990.927	2481.12
991.224	2415.81
991.521	2478.41
991.819	2427.34
992.116	2428.69
992.413	2439.99
992.71	2375.36
993.006	2409.48
993.303	2385.53
993.6	2374.23
993.897	2330.39
994.193	2322.48
994.49	2317.06
994.787	2338.75
995.083	2295.14
995.379	2284.29
995.676	2278.19
995.972	2294.01
996.268	2225.76
996.565	2262.14
996.861	2195.25
997.157	2254.01
997.453	2217.4
997.749	2192.77
998.044	2188.47
998.34	2186.89
998.636	2178.53
998.932	2148.02
999.227	2138.08
999.523	2118.87
999.818	2145.99
1000.114	2122.49
1000.409	2088.82
1000.704	2085.43
1001	2078.65
1001.295	2056.5
1001.59	2034.81
1001.885	2060.12
1002.18	2011.98
1002.475	2032.55
1002.77	2007.69
1003.065	2013.11
1003.359	2001.36
1003.654	1978.31
1003.949	1988.03
1004.243	1960.23
1004.538	1969.04
1004.832	1940.34
1005.127	1938.08
1005.421	1889.72
1005.715	1911.19
1006.009	1890.4
1006.304	1915.94
1006.598	1840.46
1006.892	1870.74
1007.186	1840.69
1007.48	1856.5
1007.773	1830.06
1008.067	1817.18
1008.361	1788.26
1008.655	1811.08
1008.948	1767.92
1009.242	1773.8
1009.535	1801.59
1009.829	1774.7
1010.122	1732.21
1010.415	1738.77
1010.708	1740.35
1011.001	1710.29
1011.295	1708.94
1011.588	1702.84
1011.881	1689.5
1012.173	1684.53
1012.466	1700.8
1012.759	1683.4
1013.052	1665.55
1013.344	1665.55
1013.637	1645.66
1013.93	1654.25
1014.222	1599.34
1014.514	1625.1
1014.807	1601.6
1015.099	1593.46
1015.391	1596.17
1015.683	1577.64
1015.976	1546.91
1016.268	1537.87
1016.56	1549.62
1016.851	1524.31
1017.143	1541.94
1017.435	1504.65
1017.727	1500.81
1018.018	1470.98
1018.31	1468.27
1018.602	1490.41
1018.893	1470.3
1019.185	1458.1
1019.476	1444.76
1019.767	1462.84
1020.058	1429.62
1020.35	1434.82
1020.641	1388.04
1020.932	1402.51
1021.223	1410.19
1021.514	1367.93
1021.804	1410.87
1022.095	1380.13
1022.386	1352.11
1022.677	1341.26
1022.967	1348.5
1023.258	1310.53
1023.548	1327.71
1023.839	1297.2
1024.129	1275.28
1024.419	1315.5
1024.709	1286.8
1025	1293.81
1025.29	1274.15
1025.58	1269.63
1025.87	1272.11
1026.16	1247.93
1026.449	1263.98
1026.739	1250.42
1027.029	1209.97
1027.319	1217.88
1027.608	1200.48
1027.898	1217.2
1028.187	1208.16
1028.477	1195.05
1028.766	1162.74
1029.055	1160.93
1029.344	1151.89
1029.634	1141.95
1029.923	1164.55
1030.212	1165.68
1030.501	1138.78
1030.79	1109.86
1031.078	1125.22
1031.367	1099.91
1031.656	1111.89
1031.945	1099.46
1032.233	1089.52
1032.522	1099.01
1032.81	1082.06
1033.099	1068.28
1033.387	1065.11
1033.675	1067.37
1033.963	1042.29
1034.251	1030.76
1034.54	1061.72
1034.828	1037.09
1035.116	1009.3
1035.403	1021.5
1035.691	1007.04
1035.979	983.76
1036.267	961.16
1036.554	975.85
1036.842	988.73
1037.129	976.98
1037.417	963.2
1037.704	969.75
1037.992	956.87
1038.279	932.24
1038.566	929.52
1038.853	929.52
1039.14	929.52
