Data from hue_170_FLMS001491_00016.txt Node
Date: Tue Feb 07 16:48:19 GMT 2017
User: dcchb
Spectrometer: FLMS00149
Trigger mode: 0
Integration Time (sec): 2.000000E-2
Scans to average: 10
Electric dark correction enabled: true
Nonlinearity correction enabled: false
Boxcar width: 0
XAxis mode: Wavelengths
Number of Pixels in Spectrum: 2048
>>>>>Begin Spectral Data<<<<<
341.393	-14.79
341.776	-14.79
342.16	-14.79
342.543	-56.37
342.927	-70.83
343.31	-65.18
343.693	-67.89
344.077	-71.06
344.46	-67.44
344.843	-40.32
345.226	-48.23
345.61	-22.25
345.993	-32.19
346.376	-15.24
346.759	-1.45
347.142	17.08
347.525	53.69
347.908	60.92
348.291	73.57
348.674	94.36
349.057	131.65
349.44	125.1
349.823	136.85
350.206	154.02
350.588	203.96
350.971	197.64
351.354	228.6
351.737	230.4
352.119	250.74
352.502	255.26
352.884	275.83
353.267	277.18
353.65	293.68
354.032	307.92
354.414	304.75
354.797	305.2
355.179	311.98
355.562	299.78
355.944	328.48
356.326	326.45
356.709	344.98
357.091	352.66
357.473	345.2
357.855	337.29
358.238	344.07
358.62	350.17
359.002	319.89
359.384	327.58
359.766	326.45
360.148	342.94
360.53	344.3
360.912	341.36
361.294	336.62
361.676	336.16
362.057	329.16
362.439	329.16
362.821	325.54
363.203	320.8
363.584	332.77
363.966	325.09
364.348	328.03
364.729	304.75
365.111	303.85
365.493	322.15
365.874	329.38
366.256	315.15
366.637	328.25
367.019	325.54
367.4	322.15
367.781	312.66
368.163	318.99
368.544	303.85
368.925	327.35
369.306	324.64
369.688	318.31
370.069	294.81
370.45	293
370.831	319.44
371.212	292.77
371.593	318.08
371.974	292.55
372.355	317.86
372.736	304.75
373.117	297.52
373.498	323.73
373.879	322.38
374.26	314.92
374.641	307.01
375.021	324.86
375.402	312.21
375.783	309.05
376.163	328.93
376.544	328.48
376.925	340.68
377.305	326.67
377.686	334.81
378.066	347.69
378.447	341.36
378.827	319.21
379.208	322.15
379.588	342.49
379.968	343.39
380.349	333.45
380.729	345.2
381.109	331.64
381.489	329.16
381.87	344.98
382.25	346.33
382.63	355.6
383.01	335.49
383.39	342.49
383.77	354.47
384.15	326.22
384.53	321.93
384.91	332.77
385.29	341.36
385.67	351.76
386.049	354.92
386.429	362.83
386.809	344.75
387.189	355.15
387.568	354.24
387.948	365.99
388.328	380.91
388.707	333.23
389.087	358.08
389.466	374.81
389.846	356.95
390.225	370.51
390.605	349.72
390.984	387.24
391.363	388.37
391.743	369.61
392.122	382.26
392.501	365.99
392.881	377.29
393.26	357.18
393.639	373.22
394.018	372.09
394.397	385.65
394.776	370.96
395.155	395.82
395.534	382.72
395.913	395.6
396.292	407.35
396.671	403.73
397.05	390.4
397.429	418.42
397.808	394.47
398.186	399.44
398.565	397.18
398.944	403.96
399.323	406.44
399.701	395.82
400.08	391.98
400.458	385.2
400.837	417.07
401.215	418.65
401.594	404.86
401.972	435.82
402.351	413.9
402.729	438.53
403.107	433.56
403.486	409.83
403.864	404.86
404.242	421.58
404.62	440.57
404.999	421.13
405.377	441.47
405.755	452.32
406.133	443.73
406.511	433.56
406.889	454.35
407.267	458.42
407.645	447.35
408.023	466.1
408.401	474.46
408.779	449.38
409.156	479.21
409.534	504.07
409.912	485.76
410.29	494.8
410.667	503.84
411.045	505.65
411.422	517.18
411.8	501.81
412.178	495.26
412.555	536.84
412.933	529.83
413.31	529.38
413.687	528.02
414.065	549.72
414.442	540.68
414.819	531.86
415.197	572.09
415.574	549.49
415.951	568.02
416.328	566.44
416.705	569.83
417.082	536.84
417.46	565.54
417.837	589.72
418.214	572.09
418.591	611.41
418.967	589.26
419.344	605.76
419.721	601.92
420.098	623.61
420.475	614.35
420.852	631.3
421.228	635.59
421.605	646.21
421.982	671.07
422.358	640.11
422.735	649.15
423.111	671.52
423.488	683.27
423.864	657.51
424.241	695.25
424.617	674.69
424.994	714.68
425.37	702.03
425.746	695.7
426.123	744.06
426.499	727.34
426.875	725.31
427.251	743.61
427.627	745.64
428.003	767.56
428.379	766.21
428.756	773.44
429.132	789.26
429.507	774.12
429.883	776.83
430.259	793.33
430.635	814.57
431.011	822.48
431.387	840.33
431.763	864.96
432.138	861.35
432.514	858.18
432.89	865.64
433.265	880.78
433.641	903.15
434.016	903.83
434.392	918.52
434.767	933.44
435.143	949.48
435.518	957.84
435.894	972.08
436.269	980.21
436.644	990.84
437.02	1030.83
437.395	1017.5
437.77	1038.07
438.145	1035.81
438.52	1023.38
438.895	1039.42
439.271	1056.37
439.646	1061.34
440.021	1079.65
440.395	1079.87
440.77	1098.63
441.145	1135.24
441.52	1125.07
441.895	1126.65
442.27	1138.85
442.645	1150.15
443.019	1163.03
443.394	1144.05
443.769	1178.4
444.143	1208.91
444.518	1187.89
444.892	1182.02
445.267	1229.02
445.641	1218.85
446.016	1217.04
446.39	1252.52
446.764	1208.68
447.139	1254.78
447.513	1282.58
447.887	1275.57
448.262	1271.96
448.636	1299.08
449.01	1311.51
449.384	1313.99
449.758	1328.45
450.132	1363.71
450.506	1375.01
450.88	1381.11
451.254	1389.7
451.628	1379.75
452.002	1415.46
452.376	1406.87
452.75	1446.42
453.123	1442.35
453.497	1457.04
453.871	1485.06
454.244	1495
454.618	1527.77
454.992	1536.58
455.365	1551.95
455.739	1604.38
456.112	1590.14
456.486	1575.68
456.859	1603.93
457.232	1658.16
457.606	1646.64
457.979	1644.83
458.352	1711.04
458.725	1743.36
459.099	1735.45
459.472	1800.08
459.845	1839.4
460.218	1820.64
460.591	1852.73
460.964	1877.37
461.337	1875.11
461.71	1906.07
462.083	1915.33
462.456	1927.53
462.829	1959.17
463.201	2035.33
463.574	2035.78
463.947	2040.98
464.32	2095.67
464.692	2126.85
465.065	2110.81
465.438	2155.78
465.81	2165.49
466.183	2270.58
466.555	2270.8
466.928	2318.71
467.3	2306.28
467.672	2359.84
468.045	2447.29
468.417	2451.81
468.789	2460.4
469.161	2497.24
469.534	2568.42
469.906	2650.45
470.278	2662.66
470.65	2668.98
471.022	2762.31
471.394	2802.99
471.766	2865.36
472.138	2876.44
472.51	2988.75
472.882	3035.3
473.253	3060.61
473.625	3131.34
473.997	3177.67
474.369	3231.91
474.74	3280.72
475.112	3377.21
475.484	3455.86
475.855	3458.12
476.227	3529.75
476.598	3647.94
476.97	3696.08
477.341	3789.63
477.713	3919.12
478.084	3968.61
478.455	4007.71
478.827	4145.33
479.198	4249.73
479.569	4304.42
479.94	4503.29
480.311	4536.28
480.682	4655.82
481.053	4763.39
481.424	4887.46
481.795	4980.56
482.166	5046.77
482.537	5172.42
482.908	5318.18
483.279	5414.9
483.65	5523.82
484.021	5660.77
484.391	5752.97
484.762	5902.34
485.133	5988.44
485.503	6121.55
485.874	6273.41
486.244	6351.15
486.615	6528.09
486.985	6679.5
487.356	6809.44
487.726	6877.01
488.097	7098.25
488.467	7104.12
488.837	7365.58
489.207	7439.71
489.578	7597.67
489.948	7696.87
490.318	7851.67
490.688	7956.3
491.058	8145.9
491.428	8261.83
491.798	8332.34
492.168	8557.19
492.538	8596.51
492.908	8728.26
493.278	8928.71
493.648	8938.88
494.017	9154.69
494.387	9248.92
494.757	9338.41
495.126	9493.44
495.496	9590.84
495.866	9609.82
496.235	9796.71
496.605	9878.74
496.974	10022.46
497.344	10056.13
497.713	10163.93
498.082	10303.59
498.452	10358.5
498.821	10442.56
499.19	10514.43
499.559	10584.93
499.928	10752.84
500.298	10751.48
500.667	10939.27
501.036	10900.63
501.405	11057.92
501.774	11112.83
502.143	11221.3
502.512	11289.55
502.88	11329.09
503.249	11391.24
503.618	11385.82
503.987	11483.44
504.356	11629.2
504.724	11588.97
505.093	11737.22
505.462	11750.78
505.83	11823.55
506.199	11956.42
506.567	12059.92
506.936	11991.9
507.304	12122.97
507.672	12225.34
508.041	12224.21
508.409	12259.01
508.777	12347.37
509.145	12380.37
509.514	12432.79
509.882	12472.12
510.25	12559.57
510.618	12578.55
510.986	12579.01
511.354	12647.03
511.722	12809.73
512.09	12917.98
512.458	12766.57
512.826	12966.79
513.193	12972.22
513.561	12954.81
513.929	13018.99
514.297	13134.25
514.664	13201.14
515.032	13181.93
515.4	13242.94
515.767	13247.24
516.135	13244.52
516.502	13176.73
516.869	13392.77
517.237	13349.15
517.604	13371.3
517.972	13454.69
518.339	13474.8
518.706	13384.41
519.073	13441.36
519.44	13482.94
519.808	13596.83
520.175	13507.12
520.542	13684.51
520.909	13636.15
521.276	13691.97
521.643	13736.94
522.009	13726.55
522.376	13697.62
522.743	13871.4
523.11	13943.94
523.477	14057.84
523.843	14043.15
524.21	14124.28
524.577	14040.66
524.943	14073.43
525.31	14117.95
525.676	14188
526.043	14183.71
526.409	14129.02
526.776	14304.84
527.142	14197.49
527.508	14288.56
527.874	14312.97
528.241	14308.68
528.607	14327.89
528.973	14251.96
529.339	14209.02
529.705	14397.04
530.071	14292.63
530.437	14413.53
530.803	14357.94
531.169	14392.97
531.535	14265.97
531.901	14297.6
532.267	14278.17
532.632	14347.77
532.998	14322.91
533.364	14301.67
533.73	14236.59
534.095	14359.07
534.461	14249.92
534.826	14232.3
535.192	14234.56
535.557	14307.1
535.923	14194.1
536.288	14226.19
536.653	14123.15
537.019	14140.77
537.384	14110.72
537.749	14171.05
538.114	14051.74
538.479	13940.33
538.845	13967.44
539.21	13920.67
539.575	13909.59
539.94	13838.18
540.305	13903.49
540.67	13837.5
541.034	13788.69
541.399	13697.39
541.764	13844.28
542.129	13775.58
542.494	13665.53
542.858	13572.43
543.223	13604.06
543.587	13587.79
543.952	13477.51
544.316	13595.02
544.681	13503.05
545.045	13428.47
545.41	13433.22
545.774	13390.06
546.138	13316.84
546.503	13340.79
546.867	13269.16
547.231	13291.98
547.595	13242.72
547.959	13178.09
548.324	13172.66
548.688	13146.22
549.052	13095.15
549.416	13060.12
549.779	12982.38
550.143	12974.7
550.507	12999.79
550.871	12958.66
551.235	12898.55
551.599	12948.04
551.962	12826.46
552.326	12779.45
552.689	12800.92
553.053	12741.71
553.417	12760.47
553.78	12871.2
554.143	12683.64
554.507	12679.34
554.87	12611.09
555.234	12676.4
555.597	12585.56
555.96	12658.55
556.323	12612.68
556.686	12563.19
557.05	12597.99
557.413	12488.39
557.776	12562.73
558.139	12540.59
558.502	12580.36
558.865	12425.79
559.228	12579.91
559.59	12499.46
559.953	12544.66
560.316	12590.3
560.679	12465.11
561.041	12488.16
561.404	12509.18
561.767	12564.99
562.129	12447.48
562.492	12526.58
562.854	12418.11
563.217	12471.66
563.579	12466.47
563.941	12451.78
564.304	12510.53
564.666	12569.97
565.028	12544.43
565.39	12534.03
565.753	12527.71
566.115	12598.21
566.477	12562.73
566.839	12576.52
567.201	12686.8
567.563	12592.34
567.925	12586.01
568.287	12738.78
568.648	12566.58
569.01	12575.62
569.372	12723.18
569.734	12615.84
570.095	12660.59
570.457	12672.11
570.819	12644.31
571.18	12755.27
571.542	12736.97
571.903	12743.97
572.265	12706.23
572.626	12644.31
572.987	12714.82
573.349	12714.37
573.71	12736.29
574.071	12809.73
574.432	12762.96
574.794	12835.5
575.155	12802.05
575.516	12771.09
575.877	12794.82
576.238	12855.38
576.599	12831.43
576.96	12829.62
577.32	12867.81
577.681	12830.07
578.042	12854.93
578.403	12845.44
578.763	12812.45
579.124	12823.97
579.485	12896.29
579.845	12946.45
580.206	12808.15
580.566	12873.01
580.927	12726.35
581.287	12772.22
581.648	12882.27
582.008	12739.23
582.368	12801.37
582.728	12800.47
583.089	12874.36
583.449	12849.51
583.809	12785.33
584.169	12761.83
584.529	12706.91
584.889	12807.93
585.249	12749.85
585.609	12697.19
585.969	12694.48
586.329	12633.24
586.688	12745.55
587.048	12661.26
587.408	12633.24
587.768	12676.63
588.127	12593.69
588.487	12592.56
588.846	12751.88
589.206	12625.56
589.565	12601.6
589.925	12614.26
590.284	12585.78
590.643	12551.21
591.003	12649.29
591.362	12664.88
591.721	12639.12
592.08	12624.43
592.44	12632.34
592.799	12585.11
593.158	12581.72
593.517	12514.37
593.876	12525.9
594.235	12576.97
594.593	12545.79
594.952	12550.08
595.311	12496.97
595.67	12482.74
596.029	12595.73
596.387	12525.9
596.746	12589.4
597.104	12533.81
597.463	12470.31
597.822	12550.08
598.18	12497.88
598.538	12437.99
598.897	12480.02
599.255	12379.91
599.613	12522.96
599.972	12483.41
600.33	12550.31
600.688	12464.21
601.046	12443.42
601.404	12485.67
601.762	12552.57
602.12	12519.35
602.478	12529.29
602.836	12494.94
603.194	12492
603.552	12447.03
603.91	12405.68
604.268	12436.41
604.625	12468.95
604.983	12451.78
605.341	12345.57
605.698	12425.56
606.056	12412.68
606.413	12497.65
606.771	12488.39
607.128	12463.98
607.485	12444.55
607.843	12438.9
608.2	12600.47
608.557	12576.52
608.914	12509.85
609.272	12593.69
609.629	12505.34
609.986	12655.61
610.343	12575.39
610.7	12652.22
611.057	12655.39
611.414	12578.33
611.771	12568.16
612.127	12555.73
612.484	12646.8
612.841	12639.79
613.198	12554.83
613.554	12624.43
613.911	12619.68
614.267	12681.15
614.624	12579.23
614.98	12664.88
615.337	12706.46
615.693	12715.05
616.05	12708.49
616.406	12762.73
616.762	12766.35
617.118	12742.84
617.475	12679.79
617.831	12754.37
618.187	12780.58
618.543	12784.42
618.899	12896.74
619.255	12739.91
619.611	12829.17
619.967	12877.3
620.323	12878.66
620.678	12736.74
621.034	12767.25
621.39	12798.21
621.746	12848.83
622.101	12799.11
622.457	12746.46
622.812	12788.04
623.168	12823.29
623.523	12821.71
623.879	12902.61
624.234	12768.83
624.589	12837.98
624.945	12883.86
625.3	12836.17
625.655	12866.91
626.01	12764.31
626.365	12781.49
626.72	12863.97
627.075	12813.8
627.43	12908.26
627.785	12811.09
628.14	12823.29
628.495	12839.79
628.85	12711.43
629.205	12724.31
629.559	12783.07
629.914	12674.82
630.269	12720.92
630.623	12691.54
630.978	12810.86
631.332	12746.68
631.687	12768.38
632.041	12662.62
632.396	12678.66
632.75	12714.14
633.104	12660.59
633.459	12560.25
633.813	12603.86
634.167	12541.27
634.521	12616.52
634.875	12571.77
635.229	12559.12
635.583	12393.02
635.937	12546.24
636.291	12497.2
636.645	12541.94
636.999	12441.38
637.352	12455.62
637.706	12363.19
638.06	12385.11
638.413	12460.14
638.767	12379.91
639.121	12474.83
639.474	12365.9
639.828	12379.01
640.181	12372.46
640.534	12350.08
640.888	12269.41
641.241	12356.86
641.594	12287.71
641.947	12329.75
642.301	12334.94
642.654	12212.24
643.007	12287.49
643.36	12295.17
643.713	12281.16
644.066	12341.95
644.419	12233.7
644.771	12190.99
645.124	12081.17
645.477	11969.76
645.83	11900.61
646.182	11885.01
646.535	11892.7
646.888	11824.67
647.24	11835.52
647.593	11875.07
647.945	11848.63
648.298	11770.67
648.65	11778.12
649.002	11775.86
649.355	11896.76
649.707	11845.01
650.059	11806.14
650.411	11998
650.763	11970.66
651.115	12160.71
651.467	12045.69
651.819	12037.55
652.171	12057.66
652.523	12055.18
652.875	12101.5
653.227	12013.37
653.578	12051.56
653.93	12153.93
654.282	12070.09
654.633	12036.87
654.985	12079.58
655.337	12124.1
655.688	12045.91
656.039	12154.16
656.391	12031.68
656.742	11966.37
657.094	12080.26
657.445	12129.07
657.796	12035.97
658.147	12034.61
658.498	12110.54
658.849	12093.14
659.2	12093.14
659.551	12065.8
659.902	12116.42
660.253	12104.22
660.604	12067.38
660.955	12118.23
661.306	12108.28
661.656	12053.6
662.007	12153.25
662.358	12156.42
662.708	12085.46
663.059	12162.29
663.409	12072.13
663.76	12168.39
664.11	12150.54
664.461	12193.7
664.811	12162.75
665.161	12123.42
665.511	12145.8
665.862	12173.37
666.212	12202.74
666.562	12210.2
666.912	12144.21
667.262	12136.76
667.612	12169.07
667.962	12231.44
668.312	12193.03
668.662	12183.31
669.011	12177.89
669.361	12191.22
669.711	12171.78
670.06	12100.37
670.41	12107.61
670.76	12115.06
671.109	12141.5
671.459	12131.11
671.808	12148.51
672.157	12097.89
672.507	12016.76
672.856	11997.1
673.205	12015.18
673.554	12084.56
673.904	12019.02
674.253	12132.01
674.602	12047.95
674.951	11892.24
675.3	11864.67
675.649	12006.59
675.998	11948.06
676.346	12007.72
676.695	12081.84
677.044	11917.1
677.393	11923.2
677.741	11939.02
678.09	11904.9
678.438	11883.88
678.787	11913.03
679.135	11898.12
679.484	11777.44
679.832	11859.02
680.181	11710.1
680.529	11812.7
680.877	11771.12
681.225	11704.23
681.573	11802.53
681.922	11648.41
682.27	11730.89
682.618	11630.33
682.966	11668.75
683.314	11691.8
683.661	11609.09
684.009	11532.25
684.357	11565.25
684.705	11505.14
685.053	11534.74
685.4	11561.41
685.748	11446.15
686.095	11476.44
686.443	11455.42
686.79	11428.98
687.138	11398.92
687.485	11404.8
687.832	11360.73
688.18	11306.04
688.527	11271.47
688.874	11240.96
689.221	11174.3
689.568	11151.25
689.915	11169.55
690.262	11056.11
690.609	11108.99
690.956	11028.76
691.303	10990.12
691.65	10972.04
691.997	10918.26
692.344	10865.38
692.69	10865.15
693.037	10917.13
693.383	10763.01
693.73	10837.81
694.077	10718.72
694.423	10722.11
694.769	10670.36
695.116	10615.44
695.462	10638.04
695.808	10549.68
696.155	10561.66
696.501	10536.35
696.847	10484.6
697.193	10425.16
697.539	10430.14
697.885	10293.87
698.231	10230.59
698.577	10255.45
698.923	10266.52
699.269	10191.05
699.614	10153.76
699.96	10069.47
700.306	10095.45
700.651	10059.75
700.997	10038.06
701.342	9966.64
701.688	9994.44
702.033	9944.5
702.379	9886.19
702.724	9823.82
703.069	9904.05
703.415	9747.67
703.76	9766.65
704.105	9749.02
704.45	9739.98
704.795	9744.96
705.14	9611.63
705.485	9544.73
705.83	9590.16
706.175	9541.35
706.52	9533.66
706.865	9464.06
707.209	9437.17
707.554	9478.3
707.899	9350.62
708.243	9339.54
708.588	9392.65
708.932	9266.78
709.277	9294.12
709.621	9298.87
709.966	9187.23
710.31	9225.87
710.654	9186.55
710.998	9134.12
711.342	9136.84
711.687	9095.48
712.031	9125.76
712.375	9044.41
712.719	9047.12
713.063	9058.42
713.407	9080.34
713.75	8970.06
714.094	8986.78
714.438	8941.36
714.782	8914.02
715.125	8940.23
715.469	8894.81
715.812	8846
716.156	8868.82
716.499	8892.77
716.843	8799.67
717.186	8797.86
717.53	8839.22
717.873	8850.52
718.216	8799.22
718.559	8814.58
718.902	8766
719.246	8745.89
719.589	8682.16
719.932	8694.36
720.275	8702.72
720.617	8684.19
720.96	8618.88
721.303	8636.51
721.646	8656.85
721.989	8589.51
722.331	8619.56
722.674	8629.5
723.016	8608.71
723.359	8586.79
723.701	8647.13
724.044	8553.8
724.386	8493.24
724.729	8502.05
725.071	8523.07
725.413	8497.76
725.755	8523.74
726.097	8506.8
726.439	8456.85
726.782	8473.58
727.124	8500.24
727.465	8541.6
727.807	8543.41
728.149	8517.19
728.491	8406.23
728.833	8501.37
729.175	8449.85
729.516	8492.56
729.858	8445.78
730.199	8496.85
730.541	8431.77
730.882	8431.32
731.224	8426.57
731.565	8388.38
731.906	8419.79
732.248	8413.01
732.589	8380.02
732.93	8393.13
733.271	8421.15
733.612	8391.32
733.953	8430.41
734.294	8464.54
734.635	8392
734.976	8453.01
735.317	8473.8
735.658	8432.67
735.999	8477.42
736.339	8445.1
736.68	8496.17
737.021	8420.7
737.361	8436.52
737.702	8511.09
738.042	8431.77
738.383	8333.47
738.723	8500.02
739.063	8458.66
739.404	8556.06
739.744	8464.09
740.084	8519.9
740.424	8526.91
740.764	8531.88
741.104	8592.9
741.444	8497.3
741.784	8552.22
742.124	8560.13
742.464	8631.76
742.804	8612.56
743.143	8624.08
743.483	8625.44
743.823	8629.73
744.162	8643.74
744.502	8734.13
744.841	8788.6
745.181	8787.69
745.52	8772.1
745.86	8868.59
746.199	8891.87
746.538	8894.58
746.877	9010.29
747.216	9011.64
747.556	9077.63
747.895	9132.32
748.234	9113.56
748.573	9158.08
748.911	9263.84
749.25	9360.33
749.589	9333.44
749.928	9456.38
750.267	9526.43
750.605	9521.46
750.944	9574.56
751.283	9604.39
751.621	9802.58
751.96	9882.13
752.298	9971.16
752.636	10059.75
752.975	10135.45
753.313	10164.83
753.651	10373.87
753.989	10413.86
754.327	10544.26
754.666	10627.64
755.004	10771.82
755.342	10923.68
755.679	11086.62
756.017	11173.17
756.355	11320.96
756.693	11408.19
757.031	11559.15
757.368	11692.02
757.706	11837.78
758.044	11996.2
758.381	12190.77
758.719	12308.28
759.056	12571.55
759.394	12718.21
759.731	12727.7
760.068	13004.53
760.405	13090.18
760.743	13288.59
761.08	13493.56
761.417	13499.89
761.754	13750.95
762.091	13908.24
762.428	14057.61
762.765	14146.87
763.102	14458.28
763.438	14580.99
763.775	14717.48
764.112	14766.52
764.449	15184.36
764.785	15168.09
765.122	15334.64
765.458	15437.46
765.795	15634.29
766.131	15771.46
766.467	15955.41
766.804	16059.82
767.14	16170.55
767.476	16332.35
767.812	16407.83
768.148	16671.78
768.485	16805.11
768.821	16770.99
769.157	16931.66
769.492	17091.43
769.828	17246.68
770.164	17237.64
770.5	17385.88
770.836	17479.44
771.171	17513.11
771.507	17729.38
771.842	17760.11
772.178	17864.52
772.513	17957.62
772.849	17999.65
773.184	18141.8
773.519	18225.41
773.855	18238.74
774.19	18279.65
774.525	18433.09
774.86	18406.87
775.195	18586.31
775.53	18571.39
775.865	18640.54
776.2	18507.44
776.535	18600.32
776.87	18624.5
777.205	18718.5
777.539	18791.05
777.874	18882.12
778.209	18669.47
778.543	18790.82
778.878	18775.23
779.212	18987.2
779.547	18891.61
779.881	18915.34
780.215	18953.3
780.55	19022.68
780.884	18960.31
781.218	19024.71
781.552	19107.87
781.886	19018.61
782.22	18926.18
782.554	18897.94
782.888	18878.27
783.222	18912.62
783.556	18854.09
783.889	18941.1
784.223	18798.5
784.557	18798.73
784.89	18872.85
785.224	18838.95
785.557	18795.79
785.891	18813.42
786.224	18752.4
786.558	18817.26
786.891	18680.77
787.224	18571.84
787.557	18595.8
787.891	18646.42
788.224	18541.79
788.557	18703.36
788.89	18762.35
789.223	18595.34
789.556	18583.59
789.888	18523.71
790.221	18533.2
790.554	18337.72
790.887	18456.59
791.219	18387.44
791.552	18476.25
791.884	18340.66
792.217	18279.42
792.549	18398.51
792.882	18134.11
793.214	18234.45
793.546	18180.67
793.879	18162.14
794.211	18005.76
794.543	18114.68
794.875	18083.72
795.207	18140.67
795.539	17967.79
795.871	18059.77
796.203	17844.86
796.535	17775.25
796.867	17838.75
797.198	17755.14
797.53	17734.58
797.862	17658.87
798.193	17686.22
798.525	17481.93
798.856	17570.06
799.188	17359.44
799.519	17412.1
799.85	17338.43
800.182	17332.1
800.513	17353.57
800.844	17172.56
801.175	17239.9
801.506	17252.55
801.837	17225.89
802.168	17189.96
802.499	17145.66
802.83	17074.93
803.161	17117.87
803.491	17089.17
803.822	17012.56
804.153	16970.98
804.483	16898.44
804.814	16807.37
805.145	16735.51
805.475	16769.18
805.805	16734.6
806.136	16638.11
806.466	16598.56
806.796	16564.44
807.126	16543.65
807.457	16506.59
807.787	16541.39
808.117	16499.13
808.447	16464.33
808.777	16430.66
809.107	16299.36
809.436	16312.69
809.766	16306.82
810.096	16180.04
810.426	16143.21
810.755	16199.02
811.085	16162.41
811.414	16170.55
811.744	16067.5
812.073	16032.7
812.403	16015.98
812.732	15969.42
813.061	15968.52
813.39	15861.63
813.719	15779.83
814.049	15922.19
814.378	15893.49
814.707	15778.92
815.036	15849.2
815.365	15665.93
815.693	15536.22
816.022	15553.16
816.351	15516.56
816.68	15510.45
817.008	15494.86
817.337	15382.77
817.665	15480.85
817.994	15360.4
818.322	15394.52
818.651	15379.38
818.979	15271.14
819.307	15318.14
819.636	15429.78
819.964	15223.68
820.292	15334.87
820.62	15247.41
820.948	15178.71
821.276	15299.84
821.604	15292.15
821.932	15251.7
822.259	15158.37
822.587	15301.19
822.915	15212.83
823.243	15233.62
823.57	15144.81
823.898	15219.16
824.225	15093.52
824.553	15159.95
824.88	15222.1
825.207	15211.7
825.535	15244.47
825.862	15331.48
826.189	15163.8
826.516	15278.37
826.843	15202.67
827.17	15257.58
827.497	15320.85
827.824	15268.65
828.151	15222.55
828.478	15216.22
828.805	15305.94
829.131	15176.9
829.458	15166.73
829.785	15164.02
830.111	15187.07
830.438	15348.65
830.764	15211.48
831.09	15278.82
831.417	15168.09
831.743	15330.57
832.069	15288.99
832.395	15189.11
832.722	15206.51
833.048	15092.16
833.374	15155.89
833.7	15052.84
834.026	15187.52
834.351	15129.9
834.677	15115.21
835.003	15162.21
835.329	15119.5
835.654	15148.43
835.98	15020.52
836.306	15026.17
836.631	15011.94
836.956	15032.05
837.282	15076.11
837.607	14964.48
837.932	14900.07
838.258	14976.46
838.583	14925.61
838.908	14921.09
839.233	14851.04
839.558	14784.15
839.883	14799.51
840.208	14762
840.533	14736.69
840.858	14712.96
841.182	14795.22
841.507	14696.46
841.832	14578.73
842.156	14576.47
842.481	14588.22
842.805	14578.5
843.13	14523.36
843.454	14461.44
843.778	14482.01
844.103	14412.63
844.427	14424.83
844.751	14304.84
845.075	14411.95
845.399	14273.42
845.723	14185.97
846.047	14236.81
846.371	14088.12
846.695	14096.48
847.019	13957.27
847.343	13931.96
847.666	13847.45
847.99	13789.82
848.313	13808.8
848.637	13653.55
848.96	13684.74
849.284	13625.98
849.607	13564.29
849.931	13499.21
850.254	13538.08
850.577	13379.44
850.9	13298.99
851.223	13359.32
851.546	13197.52
851.869	13100.35
852.192	13305.77
852.515	13123.85
852.838	13061.93
853.161	13063.06
853.483	13005.89
853.806	12875.72
854.129	12870.52
854.451	12886.79
854.774	12779.9
855.096	12742.62
855.419	12663.07
855.741	12628.5
856.063	12607.48
856.385	12600.7
856.708	12641.83
857.03	12514.37
857.352	12480.02
857.674	12483.41
857.996	12352.34
858.318	12362.06
858.64	12331.33
858.961	12364.32
859.283	12231.9
859.605	12217.21
859.926	12254.27
860.248	12251.56
860.57	12125.46
860.891	12153.48
861.212	12106.93
861.534	12044.78
861.855	11988.51
862.176	11990.77
862.498	11989.42
862.819	11968.63
863.14	11950.55
863.461	11869.65
863.782	11847.73
864.103	11921.62
864.424	11798.69
864.745	11909.64
865.065	11763.21
865.386	11701.51
865.707	11695.86
866.027	11769.08
866.348	11747.16
866.668	11694.96
866.989	11624.91
867.309	11555.3
867.63	11626.49
867.95	11616.09
868.27	11608.86
868.59	11554.85
868.91	11542.42
869.23	11509.43
869.55	11457.68
869.87	11525.7
870.19	11504.91
870.51	11491.35
870.83	11487.51
871.15	11355.76
871.469	11360.28
871.789	11436.21
872.109	11452.71
872.428	11333.61
872.748	11369.32
873.067	11363.9
873.386	11326.38
873.706	11305.14
874.025	11316.44
874.344	11213.17
874.663	11226.27
874.982	11177.91
875.301	11200.96
875.62	11180.17
875.939	11127.07
876.258	11148.76
876.577	11143.34
876.896	11102.21
877.214	11081.87
877.533	11034.64
877.852	11049.55
878.17	11077.8
878.489	11026.73
878.807	11029.67
879.125	10940.18
879.444	10985.6
879.762	10878.03
880.08	10963.68
880.398	10843.23
880.716	10847.3
881.034	10858.15
881.352	10916.22
881.67	10743.12
881.988	10801.43
882.306	10763.69
882.624	10669.23
882.941	10730.47
883.259	10677.13
883.577	10671.71
883.894	10619.96
884.212	10673.29
884.529	10624.71
884.846	10604.82
885.164	10566.63
885.481	10499.96
885.798	10504.26
886.115	10401.89
886.432	10422.9
886.75	10417.71
887.067	10478.04
887.383	10397.14
887.7	10383.13
888.017	10326.86
888.334	10320.53
888.651	10288.44
888.967	10269.46
889.284	10173.19
889.6	10231.5
889.917	10158.5
890.233	10159.63
890.55	10048.9
890.866	10054.78
891.182	10056.13
891.498	10025.63
891.815	9882.13
892.131	9942.92
892.447	9903.14
892.763	9856.37
893.079	9853.65
893.395	9824.28
893.71	9841
894.026	9797.16
894.342	9726.88
894.657	9671.51
894.973	9714
895.289	9640.33
895.604	9621.34
895.92	9540.67
896.235	9508.13
896.55	9472.42
896.865	9410.28
897.181	9410.05
897.496	9475.58
897.811	9360.11
898.126	9386.1
898.441	9335.7
898.756	9222.03
899.071	9218.19
899.386	9218.42
899.7	9116.27
900.015	9076.72
900.33	9086.22
900.644	9047.12
900.959	9035.82
901.273	9006.22
901.588	8970.29
901.902	8955.37
902.216	8937.07
902.531	8891.19
902.845	8859.78
903.159	8859.78
903.473	8776.62
903.787	8718.77
904.101	8717.19
904.415	8639.45
904.729	8655.72
905.042	8564.42
905.356	8599.9
905.67	8601.71
905.984	8533.01
906.297	8488.27
906.611	8403.07
906.924	8447.81
907.237	8422.28
907.551	8375.95
907.864	8340.02
908.177	8258.89
908.491	8306.8
908.804	8243.98
909.117	8208.27
909.43	8168.95
909.743	8078.78
910.056	8098.9
910.368	8065.68
910.681	8030.65
910.994	8077.88
911.307	7987.04
911.619	7938.68
911.932	7970.54
912.244	7869.52
912.557	7837.44
912.869	7777.32
913.181	7750.88
913.494	7808.51
913.806	7714.95
914.118	7661.39
914.43	7605.35
914.742	7631.79
915.054	7592.02
915.366	7544.79
915.678	7521.06
915.99	7460.72
916.302	7425.92
916.613	7419.82
916.925	7364.91
917.236	7398.12
917.548	7301.4
917.859	7333.49
918.171	7274.06
918.482	7246.72
918.794	7232.25
919.105	7188.64
919.416	7096.89
919.727	7143.22
920.038	7168.07
920.349	6992.94
920.66	7013.73
920.971	6988.42
921.282	6927.18
921.593	6922.43
921.903	6912.71
922.214	6882.66
922.525	6884.01
922.835	6827.74
923.146	6807.63
923.456	6770.12
923.767	6758.82
924.077	6758.59
924.387	6679.73
924.697	6660.06
925.008	6603.57
925.318	6598.37
925.628	6605.6
925.938	6521.09
926.248	6525.83
926.558	6493.52
926.867	6473.4
927.177	6452.39
927.487	6385.72
927.796	6322.45
928.106	6420.98
928.416	6352.05
928.725	6340.53
929.034	6236.12
929.344	6317.25
929.653	6259.4
929.962	6229.12
930.271	6195.67
930.581	6140.3
930.89	6153.86
931.199	6106.63
931.508	6077.93
931.817	6044.26
932.125	6083.58
932.434	6044.49
932.743	5967.65
933.051	5922.46
933.36	5936.24
933.669	5859.63
933.977	5912.51
934.286	5839.3
934.594	5835.91
934.902	5738.06
935.21	5797.26
935.519	5768.56
935.827	5788.45
936.135	5727.89
936.443	5663.48
936.751	5648.11
937.059	5608.12
937.367	5592.07
937.674	5590.71
937.982	5588.23
938.29	5512.3
938.597	5553.65
938.905	5486.54
939.213	5455.35
939.52	5430.27
939.827	5461.9
940.135	5432.98
940.442	5362.25
940.749	5377.61
941.056	5359.31
941.363	5337.16
941.67	5320.21
941.977	5261.46
942.284	5218.07
942.591	5226.88
942.898	5203.83
943.205	5220.55
943.511	5156.83
943.818	5121.8
944.125	5119.99
944.431	5099.2
944.738	5048.13
945.044	5102.14
945.35	5020.56
945.657	4986.21
945.963	4972.2
946.269	4944.63
946.575	4933.56
946.881	4914.12
947.187	4898.3
947.493	4864.86
947.799	4836.16
948.105	4797.06
948.41	4791.87
948.716	4807.91
949.022	4826.44
949.327	4745.54
949.633	4739.66
949.938	4707.12
950.244	4715.03
950.549	4675.48
950.854	4641.59
951.16	4633
951.465	4597.52
951.77	4594.13
952.075	4562.27
952.38	4550.06
952.685	4605.43
952.99	4514.36
953.294	4483.4
953.599	4468.94
953.904	4515.04
954.209	4428.94
954.513	4389.39
954.818	4371.54
955.122	4410.18
955.426	4364.53
955.731	4355.27
956.035	4335.61
956.339	4316.4
956.643	4314.59
956.948	4269.17
957.252	4217.42
957.556	4257.64
957.86	4231.65
958.163	4226.68
958.467	4204.76
958.771	4124.54
959.075	4160.47
959.378	4099
959.682	4109.4
959.985	4092
960.289	4080.02
960.592	4087.03
960.896	4028.27
961.199	4001.38
961.502	3971.77
961.805	3968.61
962.108	3968.84
962.411	3940.36
962.714	3933.13
963.017	3937.42
963.32	3919.57
963.623	3888.84
963.926	3892.91
964.228	3865.79
964.531	3827.37
964.833	3834.38
965.136	3783.08
965.438	3789.41
965.741	3768.39
966.043	3741.05
966.345	3744.44
966.648	3715.06
966.95	3729.75
967.252	3669.86
967.554	3667.38
967.856	3666.47
968.158	3658.34
968.46	3662.86
968.761	3610.43
969.063	3562.29
969.365	3577.66
969.666	3549.64
969.968	3537.21
970.269	3548.06
970.571	3526.14
970.872	3457.21
971.174	3449.53
971.475	3484.56
971.776	3477.55
972.077	3492.46
972.378	3431.45
972.679	3399.81
972.98	3400.94
973.281	3397.1
973.582	3346.48
973.883	3356.42
974.183	3343.99
974.484	3299.02
974.785	3287.95
975.085	3325.24
975.386	3296.31
975.686	3273.49
975.986	3234.62
976.287	3249.08
976.587	3217.44
976.887	3225.58
977.187	3214.51
977.487	3200.95
977.787	3188.74
978.087	3149.42
978.387	3135.86
978.687	3140.38
978.987	3125.24
979.286	3112.36
979.586	3090.89
979.885	3090.22
980.185	3057.22
980.484	3045.7
980.784	3033.49
981.083	3018.8
981.382	3024.45
981.682	2999.14
981.981	2957.34
982.28	2946.49
982.579	2985.59
982.878	2924.12
983.177	2922.08
983.475	2904.01
983.774	2909.2
984.073	2880.28
984.372	2855.42
984.67	2843.89
984.969	2848.41
985.267	2833.5
985.566	2827.4
985.864	2826.72
986.162	2780.84
986.461	2747.4
986.759	2755.31
987.057	2734.52
987.355	2726.16
987.653	2730
987.951	2733.61
988.249	2703.33
988.547	2697.91
988.844	2676.89
989.142	2698.36
989.44	2688.19
989.737	2649.55
990.035	2605.03
990.332	2618.82
990.63	2578.36
990.927	2563.9
991.224	2609.1
991.521	2623.11
991.819	2577.01
992.116	2541.3
992.413	2550.57
992.71	2507.41
993.006	2512.15
993.303	2459.72
993.6	2493.85
993.897	2491.36
994.193	2493.17
994.49	2450.68
994.787	2433.28
995.083	2425.83
995.379	2417.92
995.676	2404.58
995.972	2405.26
996.268	2394.87
996.565	2346.05
996.861	2359.16
997.157	2337.47
997.453	2307.41
997.749	2300.41
998.044	2310.12
998.34	2288.88
998.636	2308.32
998.932	2278.26
999.227	2245.94
999.523	2249.79
999.818	2242.78
1000.114	2225.15
1000.409	2218.37
1000.704	2194.87
1001	2186.51
1001.295	2173.86
1001.59	2175.89
1001.885	2189.22
1002.18	2133.63
1002.475	2133.63
1002.77	2146.96
1003.065	2089.34
1003.359	2093.63
1003.654	2117.13
1003.949	2068.1
1004.243	2046.18
1004.538	2036.91
1004.832	2052.05
1005.127	2044.59
1005.421	2011.6
1005.715	2006.4
1006.009	1998.04
1006.304	2024.71
1006.598	1968.44
1006.892	1964.14
1007.186	1940.42
1007.48	1926.18
1007.773	1922.56
1008.067	1918.27
1008.361	1887.54
1008.655	1893.41
1008.948	1881.89
1009.242	1866.97
1009.535	1841.89
1009.829	1851.6
1010.122	1807.09
1010.415	1842.34
1010.708	1832.4
1011.001	1832.17
1011.295	1778.39
1011.588	1803.7
1011.881	1767.76
1012.173	1751.95
1012.466	1755.11
1012.759	1744.71
1013.052	1733.87
1013.344	1704.94
1013.637	1739.97
1013.93	1730.93
1014.222	1695
1014.514	1674.21
1014.807	1636.92
1015.099	1687.54
1015.391	1672.17
1015.683	1662.23
1015.976	1667.88
1016.268	1623.59
1016.56	1638.73
1016.851	1648.45
1017.143	1592.63
1017.435	1565.51
1017.727	1570.03
1018.018	1547.88
1018.31	1592.18
1018.602	1536.58
1018.893	1540.2
1019.185	1529.13
1019.476	1523.25
1019.767	1502.91
1020.058	1481.44
1020.35	1486.42
1020.641	1475.34
1020.932	1476.47
1021.223	1466.3
1021.514	1440.77
1021.804	1423.14
1022.095	1427.89
1022.386	1414.1
1022.677	1439.86
1022.967	1430.6
1023.258	1363.26
1023.548	1376.14
1023.839	1369.13
1024.129	1386.53
1024.419	1383.14
1024.709	1372.29
1025	1357.38
1025.29	1313.54
1025.58	1297.49
1025.87	1316.93
1026.16	1310.15
1026.449	1295.23
1026.739	1266.31
1027.029	1290.04
1027.319	1254.78
1027.608	1273.54
1027.898	1288
1028.187	1254.33
1028.477	1247.1
1028.766	1240.77
1029.055	1204.62
1029.344	1206.42
1029.634	1180.44
1029.923	1213.65
1030.212	1177.05
1030.501	1138.4
1030.79	1164.16
1031.078	1162.58
1031.367	1161.45
1031.656	1159.87
1031.945	1145.18
1032.233	1148.8
1032.522	1131.62
1032.81	1110.15
1033.099	1102.02
1033.387	1104.05
1033.675	1097.73
1033.963	1103.83
1034.251	1090.04
1034.54	1055.47
1034.828	1086.88
1035.116	1051.62
1035.403	1062.25
1035.691	1062.25
1035.979	1033.55
1036.267	1018.86
1036.554	1034.68
1036.842	1039.65
1037.129	1011.4
1037.417	1020.21
1037.704	1012.53
1037.992	1000.1
1038.279	1010.5
1038.566	987.22
1038.853	987.22
1039.14	987.22
