Data from hue_320_FLMS001491_16.txt Node
Date: Mon Feb 06 15:46:47 GMT 2017
User: dcchb
Spectrometer: FLMS00149
Trigger mode: 0
Integration Time (sec): 2.000000E-2
Scans to average: 10
Electric dark correction enabled: true
Nonlinearity correction enabled: false
Boxcar width: 0
XAxis mode: Wavelengths
Number of Pixels in Spectrum: 2048
>>>>>Begin Spectral Data<<<<<
341.393	-26.91
341.776	-26.91
342.16	-26.91
342.543	-56.51
342.927	-80.46
343.31	-74.14
343.693	-61.26
344.077	-52.44
344.46	-71.42
344.843	-53.35
345.226	-37.53
345.61	-51.31
345.993	-6.12
346.376	-2.27
346.759	-2.27
347.142	23.49
347.525	35.24
347.908	60.1
348.291	84.05
348.674	91.96
349.057	117.27
349.44	114.56
349.823	168.34
350.206	169.7
350.588	188.91
350.971	217.38
351.354	237.27
351.737	224.84
352.119	238.17
352.502	244.73
352.884	252.86
353.267	275.23
353.65	278.17
354.032	289.24
354.414	304.16
354.797	312.97
355.179	321.33
355.562	310.49
355.944	325.18
356.326	338.28
356.709	340.99
357.091	315.91
357.473	329.47
357.855	332.18
358.238	344.61
358.62	351.84
359.002	355.68
359.384	327.66
359.766	344.38
360.148	336.25
360.53	346.87
360.912	325.85
361.294	318.4
361.676	316.14
362.057	320.2
362.439	333.99
362.821	329.24
363.203	349.58
363.584	320.2
363.966	318.4
364.348	293.54
364.729	321.33
365.111	312.29
365.493	324.5
365.874	302.35
366.256	329.92
366.637	298.74
367.019	318.17
367.4	311.16
367.781	301.9
368.163	309.13
368.544	319.3
368.925	297.83
369.306	326.53
369.688	296.93
370.069	303.03
370.45	308.23
370.831	309.58
371.212	326.53
371.593	305.29
371.974	319.53
372.355	324.72
372.736	318.85
373.117	313.2
373.498	290.15
373.879	322.24
374.26	305.74
374.641	304.38
375.021	316.14
375.402	313.42
375.783	299.19
376.163	322.46
376.544	316.14
376.925	314.78
377.305	314.33
377.686	329.02
378.066	329.92
378.447	303.25
378.827	336.25
379.208	296.7
379.588	294.89
379.968	315.46
380.349	339.19
380.729	326.53
381.109	328.79
381.489	328.79
381.87	331.73
382.25	323.14
382.63	344.38
383.01	326.3
383.39	350.71
383.77	331.05
384.15	352.97
384.53	341.45
384.91	336.47
385.29	336.25
385.67	333.76
386.049	351.16
386.429	339.41
386.809	340.32
387.189	350.94
387.568	344.84
387.948	339.41
388.328	340.54
388.707	343.25
389.087	327.43
389.466	349.81
389.846	347.32
390.225	348.45
390.605	353.42
390.984	364.27
391.363	360.43
391.743	369.47
392.122	368.34
392.501	359.98
392.881	365.17
393.26	360.88
393.639	371.28
394.018	372.18
394.397	356.13
394.776	367.21
395.155	371.95
395.534	383.25
395.913	381.67
396.292	394.33
396.671	392.07
397.05	375.57
397.429	383.25
397.808	394.55
398.186	398.85
398.565	380.54
398.944	402.46
399.323	398.17
399.701	382.8
400.08	386.87
400.458	386.19
400.837	389.35
401.215	415.79
401.594	397.26
401.972	404.27
402.351	404.95
402.729	376.93
403.107	409.69
403.486	425.29
403.864	426.42
404.242	429.13
404.62	424.38
404.999	438.84
405.377	432.52
405.755	416.7
406.133	423.03
406.511	435.23
406.889	454.89
407.267	445.17
407.645	453.31
408.023	441.33
408.401	462.8
408.779	467.77
409.156	471.39
409.534	458.05
409.912	458.73
410.29	478.39
410.667	476.13
411.045	497.83
411.422	499.18
411.8	501.89
412.178	517.94
412.555	508.22
412.933	505.06
413.31	513.87
413.687	520.65
414.065	524.49
414.442	513.64
414.819	535.79
415.197	545.96
415.574	566.98
415.951	558.84
416.328	581.44
416.705	582.34
417.082	591.83
417.46	598.84
417.837	611.04
418.214	605.85
418.591	616.92
418.967	616.69
419.344	625.51
419.721	632.51
420.098	631.61
420.475	653.98
420.852	660.08
421.228	662.34
421.605	651.49
421.982	659.86
422.358	670.93
422.735	697.37
423.111	677.48
423.488	691.04
423.864	677.26
424.241	694.43
424.617	703.24
424.994	718.39
425.37	698.5
425.746	719.51
426.123	747.54
426.499	728.78
426.875	748.67
427.251	753.41
427.627	771.49
428.003	777.37
428.379	781.66
428.756	796.58
429.132	798.83
429.507	813.75
429.883	807.2
430.259	824.82
430.635	825.05
431.011	828.44
431.387	832.73
431.763	837.93
432.138	859.62
432.514	861.43
432.89	873.86
433.265	901.43
433.641	911.83
434.016	910.92
434.392	942.79
434.767	945.72
435.143	934.2
435.518	929
435.894	952.28
436.269	963.12
436.644	975.78
437.02	997.47
437.395	973.07
437.77	1004.93
438.145	980.75
438.52	1020.98
438.895	1041.54
439.271	1047.42
439.646	1035.89
440.021	1078.83
440.395	1079.51
440.77	1057.13
441.145	1064.36
441.52	1076.57
441.895	1099.17
442.27	1108.43
442.645	1110.92
443.019	1112.05
443.394	1100.97
443.769	1111.82
444.143	1092.84
444.518	1137.36
444.892	1113.18
445.267	1130.13
445.641	1096.68
446.016	1103.23
446.39	1119.28
446.764	1138.71
447.139	1140.07
447.513	1166.96
447.887	1150.01
448.262	1169.67
448.636	1176.68
449.01	1167.64
449.384	1198.82
449.758	1203.57
450.132	1206.51
450.506	1187.3
450.88	1208.32
451.254	1200.86
451.628	1210.8
452.002	1213.29
452.376	1221.65
452.75	1204.47
453.123	1258.48
453.497	1263.23
453.871	1263
454.244	1296
454.618	1271.59
454.992	1286.51
455.365	1299.84
455.739	1322.89
456.112	1336.67
456.486	1317.47
456.859	1316.56
457.232	1357.01
457.606	1371.7
457.979	1348.2
458.352	1373.74
458.725	1385.26
459.099	1392.94
459.472	1406.95
459.845	1423.9
460.218	1398.14
460.591	1438.37
460.964	1442.89
461.337	1488.08
461.71	1503
462.083	1515.88
462.456	1484.47
462.829	1481.08
463.201	1538.25
463.574	1513.62
463.947	1559.27
464.32	1555.43
464.692	1583.9
465.065	1584.8
465.438	1588.87
465.81	1604.24
466.183	1628.19
466.555	1628.64
466.928	1667.51
467.3	1633.62
467.672	1686.72
468.045	1722.43
468.417	1688.98
468.789	1719.71
469.161	1734.86
469.534	1752.48
469.906	1757.91
470.278	1778.47
470.65	1792.71
471.022	1820.95
471.394	1846.27
471.766	1856.66
472.138	1894.4
472.51	1904.79
472.882	1930.33
473.253	1953.38
473.625	1959.93
473.997	1980.72
474.369	2005.58
474.74	1990.22
475.112	2015.98
475.484	2035.41
475.855	2098.91
476.227	2056.43
476.598	2131
476.97	2143.88
477.341	2205.58
477.713	2214.62
478.084	2223.2
478.455	2278.8
478.827	2277.67
479.198	2346.59
479.569	2369.42
479.94	2386.36
480.311	2409.87
480.682	2440.6
481.053	2481.05
481.424	2541.39
481.795	2498.23
482.166	2538.22
482.537	2551.78
482.908	2617.09
483.279	2615.28
483.65	2653.25
484.021	2691.89
484.391	2740.25
484.762	2754.72
485.133	2757.43
485.503	2790.65
485.874	2834.49
486.244	2811.66
486.615	2894.15
486.985	2953.58
487.356	2913.13
487.726	2972.11
488.097	3041.26
488.467	3034.71
488.837	3094.14
489.207	3095.95
489.578	3146.8
489.948	3144.31
490.318	3202.16
490.688	3263.4
491.058	3220.92
491.428	3231.09
491.798	3292.55
492.168	3367.13
492.538	3348.15
492.908	3400.12
493.278	3457.75
493.648	3424.98
494.017	3445.32
494.387	3490.74
494.757	3495.26
495.126	3570.97
495.496	3537.97
495.866	3590.85
496.235	3567.58
496.605	3606.44
496.974	3630.4
497.344	3661.58
497.713	3670.17
498.082	3703.62
498.452	3735.25
498.821	3703.62
499.19	3752.66
499.559	3801.69
499.928	3826.33
500.298	3829.04
500.667	3868.13
501.036	3811.64
501.405	3849.83
501.774	3874.46
502.143	3912.88
502.512	3871.3
502.88	3914.91
503.249	3929.6
503.618	3970.5
503.987	3970.5
504.356	3994.91
504.724	3994.01
505.093	4027
505.462	3990.62
505.83	4027.22
506.199	4059.77
506.567	4078.3
506.936	4084.17
507.304	4108.35
507.672	4111.74
508.041	4144.06
508.409	4159.65
508.777	4189.03
509.145	4163.94
509.514	4212.98
509.882	4184.96
510.25	4189.03
510.618	4268.35
510.986	4222.25
511.354	4289.82
511.722	4318.06
512.09	4334.11
512.458	4327.1
512.826	4353.54
513.193	4345.86
513.561	4322.58
513.929	4341.57
514.297	4386.31
514.664	4438.97
515.032	4395.12
515.4	4399.87
515.767	4442.13
516.135	4473.09
516.502	4420.21
516.869	4490.49
517.237	4533.88
517.604	4444.39
517.972	4528.91
518.339	4521
518.706	4546.76
519.073	4549.92
519.44	4518.96
519.808	4620.66
520.175	4596.02
520.542	4605.97
520.909	4676.47
521.276	4613.42
521.643	4649.58
522.009	4636.25
522.376	4688.22
522.743	4757.37
523.11	4780.43
523.477	4779.3
523.843	4777.94
524.21	4828.79
524.577	4867.88
524.943	4856.13
525.31	4860.88
525.676	4950.36
526.043	4891.38
526.409	4984.26
526.776	4992.4
527.142	5020.42
527.508	5000.08
527.874	5039.4
528.241	5086.63
528.607	5101.77
528.973	5123.02
529.339	5156.91
529.705	5179.96
530.071	5222.67
530.437	5240.07
530.803	5226.06
531.169	5300.41
531.535	5252.28
531.901	5315.55
532.267	5309.9
532.632	5309
532.998	5329.34
533.364	5398.94
533.73	5407.75
534.095	5418.83
534.461	5475.77
534.826	5506.06
535.192	5525.72
535.557	5533.17
535.923	5504.25
536.288	5519.84
536.653	5564.36
537.019	5534.08
537.384	5625.6
537.749	5632.15
538.114	5663.11
538.479	5629.44
538.845	5708.99
539.21	5690.01
539.575	5736.11
539.94	5754.18
540.305	5795.77
540.67	5823.56
541.034	5843.9
541.399	5909.21
541.764	5853.39
542.129	5886.61
542.494	5928.64
542.858	5950.11
543.223	5949.21
543.587	6024.01
543.952	5983.78
544.316	6077.79
544.681	6055.65
545.045	6092.71
545.41	6126.15
545.774	6170.9
546.138	6159.37
546.503	6132.71
546.867	6221.52
547.231	6237.56
547.595	6291.12
547.959	6302.42
548.324	6329.99
548.688	6303.55
549.052	6345.58
549.416	6378.8
549.779	6352.59
550.143	6408.86
550.507	6394.17
550.871	6426.26
551.235	6417.9
551.599	6476.88
551.962	6490.66
552.326	6539.02
552.689	6537.44
553.053	6538.8
553.417	6591.68
553.78	6658.57
554.143	6577.44
554.507	6693.14
554.87	6669.42
555.234	6742.18
555.597	6729.75
555.96	6745.8
556.323	6775.4
556.686	6737.44
557.05	6816.08
557.413	6802.74
557.776	6815.63
558.139	6833.48
558.502	6865.12
558.865	6870.09
559.228	6908.96
559.59	6917.09
559.953	6938.11
560.316	7017.88
560.679	6999.8
561.041	7047.03
561.404	7104.43
561.767	7157.99
562.129	7021.27
562.492	7154.6
562.854	7183.75
563.217	7136.07
563.579	7174.26
563.941	7263.3
564.304	7258.55
564.666	7343.75
565.028	7267.14
565.39	7323.64
565.753	7372.67
566.115	7394.59
566.477	7432.78
566.839	7387.36
567.201	7485.21
567.563	7456.74
567.925	7499.9
568.287	7543.97
568.648	7498.77
569.01	7568.37
569.372	7611.09
569.734	7618.09
570.095	7656.51
570.457	7687.69
570.819	7677.3
571.18	7737.41
571.542	7836.16
571.903	7855.82
572.265	7872.55
572.626	7951.64
572.987	8008.81
573.349	8066.44
573.71	8094.46
574.071	8079.55
574.432	8135.82
574.794	8195.02
575.155	8242.48
575.516	8279.77
575.877	8366.09
576.238	8483.15
576.599	8525.19
576.96	8611.28
577.32	8652.87
577.681	8738.97
578.042	8811.28
578.403	8907.77
578.763	8955
579.124	9058.96
579.485	9095.79
579.845	9274.54
580.206	9354.09
580.566	9514.76
580.927	9621.88
581.287	9769.9
581.648	9847.18
582.008	9954.07
582.368	10088.76
582.728	10293.95
583.089	10428.19
583.449	10571.46
583.809	10752.7
584.169	10951.11
584.529	11025.01
584.889	11332.57
585.249	11470.87
585.609	11723.29
585.969	11949.95
586.329	12023.85
586.688	12332.54
587.048	12601.91
587.408	12844.62
587.768	13070.15
588.127	13285.29
588.487	13452.51
588.846	13757.36
589.206	13976.34
589.565	14244.58
589.925	14535.87
590.284	14673.5
590.643	15105.13
591.003	15374.27
591.362	15690.19
591.721	15892.22
592.08	16188.71
592.44	16511.64
592.799	16690.39
593.158	17060.55
593.517	17351.62
593.876	17639.52
594.235	17997.7
594.593	18351.82
594.952	18643.56
595.311	18813.73
595.67	19127.84
596.029	19505.69
596.387	19889.86
596.746	20145.44
597.104	20255.05
597.463	20578.88
597.822	21079.66
598.18	21126.66
598.538	21512.87
598.897	21966.64
599.255	22057.71
599.613	22662.89
599.972	22852.49
600.33	23132.94
600.688	23350.56
601.046	23689.08
601.404	24113.7
601.762	24432.11
602.12	24751.88
602.478	24983.51
602.836	25232.77
603.194	25390.5
603.552	25601.8
603.91	25848.35
604.268	26326.3
604.625	26420.53
604.983	26791.82
605.341	26990.01
605.698	27380.73
606.056	27711.8
606.413	27769.65
606.771	28161.96
607.128	28408.5
607.485	28564.66
607.843	28770.98
608.2	29198.54
608.557	29390.85
608.914	29494.13
609.272	29810.95
609.629	30113.77
609.986	30380.66
610.343	30346.31
610.7	30824.49
611.057	31047.98
611.414	31168.21
611.771	31406.39
612.127	31595.54
612.484	31819.71
612.841	32047.05
613.198	32187.16
613.554	32392.81
613.911	32718.22
614.267	32790.76
614.624	32905.34
614.98	33165.67
615.337	33376.96
615.693	33447.69
616.05	33546
616.406	33909.83
616.762	33965.42
617.118	33978.08
617.475	34218.75
617.831	34388.23
618.187	34573.09
618.543	34648.11
618.899	35007.88
619.255	35013.75
619.611	35288.1
619.967	35420.98
620.323	35660.07
620.678	35580.07
621.034	35554.98
621.39	35735.32
621.746	35787.29
622.101	36325.36
622.457	36130.79
622.812	36234.29
623.168	36583.66
623.523	36592.7
623.879	36748.85
624.234	36618.46
624.589	36850.09
624.945	36770.32
625.3	37012.35
625.655	36991.56
626.01	37123.08
626.365	37323.98
626.72	37251.21
627.075	37342.96
627.43	37408.95
627.785	37266.58
628.14	37495.27
628.495	37467.7
628.85	37546.12
629.205	37531.2
629.559	37703.85
629.914	37658.2
630.269	37700.01
630.623	37734.36
630.978	37761.7
631.332	37829.27
631.687	38011.64
632.041	37799.44
632.396	37968.71
632.75	37917.63
633.104	38063.62
633.459	37888.48
633.813	37964.19
634.167	37884.19
634.521	37878.76
634.875	38213.22
635.229	38131.19
635.583	37989.72
635.937	38011.87
636.291	37920.57
636.645	38056.39
636.999	38120.11
637.352	38089.38
637.706	37987.01
638.06	38149.49
638.413	38009.38
638.767	37965.77
639.121	38220.68
639.474	37870.18
639.828	38000.79
640.181	38069.04
640.534	38063.84
640.888	37920.8
641.241	37787.47
641.594	37950.85
641.947	38122.15
642.301	37914.92
642.654	38026.33
643.007	37934.36
643.36	37909.05
643.713	37907.24
644.066	38164.63
644.419	37914.02
644.771	37647.36
645.124	37233.81
645.477	37332.34
645.83	37083.98
646.182	37004.89
646.535	36860.26
646.888	37016.41
647.24	36790.2
647.593	37036.3
647.945	36821.62
648.298	36785.91
648.65	36712.01
649.002	36684.9
649.355	36785.69
649.707	36723.54
650.059	36907.72
650.411	37355.61
650.763	37371.66
651.115	37824.3
651.467	37655.94
651.819	37505.44
652.171	37631.31
652.523	37499.34
652.875	37471.54
653.227	37259.8
653.578	37519.9
653.93	37560.58
654.282	37391.55
654.633	37364.88
654.985	37373.24
655.337	37345.9
655.688	37405.78
656.039	37512.22
656.391	37144.77
656.742	37245.56
657.094	37264.99
657.445	37400.58
657.796	37373.24
658.147	37229.97
658.498	37279.23
658.849	37359.23
659.2	37241.94
659.551	37253.02
659.902	37438.78
660.253	37222.06
660.604	37229.06
660.955	37095.73
661.306	37272.68
661.656	37205.56
662.007	37254.6
662.358	37118.78
662.708	37227.48
663.059	37287.82
663.409	36958.11
663.76	37193.58
664.11	37186.13
664.461	37119.91
664.811	37139.57
665.161	37228.16
665.511	37077.43
665.862	37045.79
666.212	37234.71
666.562	37201.95
666.912	36954.95
667.262	37008.5
667.612	37107.94
667.962	37177.99
668.312	37064.55
668.662	37192.91
669.011	37114.72
669.361	37125.11
669.711	37039.01
670.06	36969.86
670.41	37010.09
670.76	36906.13
671.109	37056.64
671.459	36998.56
671.808	36918.11
672.157	36963.31
672.507	36719.02
672.856	36808.74
673.205	36896.42
673.554	36988.84
673.904	36936.42
674.253	37010.54
674.602	36854.84
674.951	36284.23
675.3	36212.59
675.649	36791.79
675.998	36727.38
676.346	36767.61
676.695	36895.96
677.044	36509.53
677.393	36670.21
677.741	36639.02
678.09	36644.45
678.438	36567.39
678.787	36709.3
679.135	36580.27
679.484	36525.13
679.832	36475.86
680.181	36314.96
680.529	36373.04
680.877	36275.87
681.225	36307.96
681.573	36487.61
681.922	36242.65
682.27	36176.21
682.618	36163.78
682.966	36088.08
683.314	36292.36
683.661	36013.95
684.009	35890.34
684.357	35894.18
684.705	35823.45
685.053	35752.72
685.4	35706.17
685.748	35503.69
686.095	35537.13
686.443	35477.47
686.79	35416.23
687.138	35530.35
687.485	35406.06
687.832	35365.61
688.18	35372.16
688.527	35122.23
688.874	35182.34
689.221	35133.07
689.568	35082.45
689.915	34890.37
690.262	34940.99
690.609	34876.58
690.956	34697.15
691.303	34721.33
691.65	34625.97
691.997	34626.65
692.344	34389.14
692.69	34376.48
693.037	34419.65
693.383	33982.37
693.73	34058.98
694.077	33990.73
694.423	34029.83
694.769	33920.68
695.116	33896.72
695.462	33721.81
695.808	33665.77
696.155	33763.84
696.501	33390.29
696.847	33482.27
697.193	33284.31
697.539	33444.76
697.885	33143.75
698.231	32909.4
698.577	33003.41
698.923	32797.99
699.269	32685.68
699.614	32686.81
699.96	32670.54
700.306	32682.74
700.651	32716.19
700.997	32442.3
701.342	32366.14
701.688	32358.68
702.033	32300.83
702.379	32226.26
702.724	32157.56
703.069	32223.32
703.415	31853.84
703.76	31842.54
704.105	31826.49
704.45	31817.68
704.795	31604.8
705.14	31541.76
705.485	31537.46
705.83	31395.77
706.175	31475.77
706.52	31258.15
706.865	31306.06
707.209	31262.44
707.554	31131.6
707.899	31162.56
708.243	30842.79
708.588	30869.46
708.932	30751.27
709.277	30651.61
709.621	30680.08
709.966	30612.06
710.31	30543.14
710.654	30310.6
710.998	30405.74
711.342	30396.25
711.687	30312.18
712.031	30098.86
712.375	30069.03
712.719	30056.82
713.063	30074.45
713.407	30098.18
713.75	29955.13
714.094	29886.43
714.438	29803.5
714.782	29813.21
715.125	29748.13
715.469	29756.04
715.812	29530.51
716.156	29422.26
716.499	29521.7
716.843	29630.62
717.186	29297.07
717.53	29416.84
717.873	29412.32
718.216	29295.49
718.559	29215.49
718.902	29043.06
719.246	29076.74
719.589	29014.14
719.932	28825.22
720.275	28865.89
720.617	28836.52
720.96	28791.55
721.303	28833.8
721.646	28943.18
721.989	28560.82
722.331	28667.48
722.674	28577.99
723.016	28577.09
723.359	28572.34
723.701	28460.03
724.044	28359.92
724.386	28264.55
724.729	28382.29
725.071	28314.95
725.413	28243.99
725.755	28248.28
726.097	28107.72
726.439	27888.29
726.782	28019.81
727.124	28117.66
727.465	27860.72
727.807	27964.45
728.149	27878.8
728.491	27817.11
728.833	27827.73
729.175	27821.4
729.516	27611.46
729.858	27636.1
730.199	27665.02
730.541	27586.83
730.882	27429.77
731.224	27539.83
731.565	27328.08
731.906	27350.91
732.248	27448.08
732.589	27277.46
732.93	27131.02
733.271	27209.21
733.612	27282.43
733.953	27243.79
734.294	27048.77
734.635	27031.37
734.976	27108.2
735.317	26952.95
735.658	26935.32
735.999	26991.37
736.339	27046.96
736.68	26936.45
737.021	26908.43
737.361	26697.81
737.702	26855.1
738.042	26675.89
738.383	26621.21
738.723	26667.53
739.063	26561.1
739.404	26670.02
739.744	26503.02
740.084	26386.86
740.424	26456.24
740.764	26411.04
741.104	26491.27
741.444	26381.21
741.784	26230.93
742.124	26319.75
742.464	26210.14
742.804	26251.27
743.143	26180.99
743.483	26211.73
743.823	26009.47
744.162	26103.25
744.502	26060.32
744.841	25840.66
745.181	26049.24
745.52	25952.3
745.86	25861
746.199	25809.25
746.538	25797.5
746.877	25810.15
747.216	25782.58
747.556	25724.06
747.895	25760.89
748.234	25463.72
748.573	25548.01
748.911	25534
749.25	25527.45
749.589	25462.37
749.928	25417.62
750.267	25283.61
750.605	25347.79
750.944	25274.8
751.283	25245.2
751.621	25302.15
751.96	25159.32
752.298	25080.91
752.636	25149.61
752.975	24897.64
753.313	24859.22
753.651	24809.95
753.989	24882.5
754.327	24763.63
754.666	24629.17
755.004	24653.8
755.342	24646.8
755.679	24510.98
756.017	24429.63
756.355	24578.1
756.693	24407.71
757.031	24384.88
757.368	24246.13
757.706	24238.9
758.044	24164.77
758.381	24130.2
758.719	24053.82
759.056	24089.97
759.394	24007.94
759.731	23847.04
760.068	23799.13
760.405	23684.11
760.743	23641.85
761.08	23727.27
761.417	23560.5
761.754	23495.41
762.091	23446.38
762.428	23298.58
762.765	23170.45
763.102	23252.26
763.438	23178.36
763.775	22959.16
764.112	23011.36
764.449	23125.93
764.785	22874.86
765.122	22699.95
765.458	22722.33
765.795	22643.91
766.131	22544.48
766.467	22515.1
766.804	22427.42
767.14	22297.7
767.476	22329.79
767.812	22233.53
768.148	22240.98
768.485	22129.35
768.821	21949.69
769.157	21919.64
769.492	21941.56
769.828	21907.21
770.164	21608.23
770.5	21606.65
770.836	21625.86
771.171	21530.72
771.507	21500.66
771.842	21316.71
772.178	21322.82
772.513	21276.04
772.849	21205.08
773.184	21076.72
773.519	21076.72
773.855	21022.26
774.19	20958.76
774.525	20834.47
774.86	20856.16
775.195	20775.26
775.53	20612.78
775.865	20558.54
776.2	20434.93
776.535	20287.59
776.87	20279.23
777.205	20191.32
777.539	20118.55
777.874	20173.69
778.209	19950.65
778.543	20001.27
778.878	19817.77
779.212	19746.13
779.547	19625.91
779.881	19789.52
780.215	19518.79
780.55	19617.55
780.884	19370.55
781.218	19401.51
781.552	19471.79
781.886	19220.05
782.22	19165.13
782.554	19080.84
782.888	18921.07
783.222	18870.9
783.556	18904.57
783.889	18753.39
784.223	18698.93
784.557	18615.32
784.89	18690.79
785.224	18517.92
785.557	18430.69
785.891	18453.74
786.224	18311.37
786.558	18332.16
786.891	18142.33
787.224	18102.56
787.557	18035.9
787.891	18039.74
788.224	18079.74
788.557	18002.22
788.89	17953.41
789.223	17909.35
789.556	17690.14
789.888	17786.41
790.221	17653.76
790.554	17491.73
790.887	17495.8
791.219	17432.07
791.552	17392.52
791.884	17301.45
792.217	17329.7
792.549	17188.69
792.882	17057.62
793.214	17022.36
793.546	17045.64
793.879	16866.66
794.211	16835.48
794.543	16952.53
794.875	16770.62
795.207	16861.24
795.539	16682.94
795.871	16687.91
796.203	16517.29
796.535	16490.17
796.867	16449.72
797.198	16399.1
797.53	16343.51
797.862	16266.9
798.193	16244.76
798.525	16235.94
798.856	16192.55
799.188	15889.51
799.519	15958.44
799.85	15919.79
800.182	15839.57
800.513	15906.69
800.844	15706.69
801.175	15820.13
801.506	15740.59
801.837	15624.66
802.168	15731.1
802.499	15603.42
802.83	15506.92
803.161	15452.46
803.491	15504.89
803.822	15481.16
804.153	15404.1
804.483	15209.98
804.814	15162.98
805.145	15229.87
805.475	15219.92
805.805	15063.77
806.136	15149.87
806.466	15084.11
806.796	15043.88
807.126	14935.19
807.457	14906.26
807.787	14831.23
808.117	14888.63
808.447	14748.3
808.777	14809.54
809.107	14684.8
809.436	14635.31
809.766	14709.66
810.096	14666.72
810.426	14558.7
810.755	14579.72
811.085	14545.37
811.414	14486.61
811.744	14325.94
812.073	14284.58
812.403	14340.4
812.732	14253.4
813.061	14216.11
813.39	14167.07
813.719	14178.6
814.049	14194.19
814.378	14132.27
814.707	14047.98
815.036	14022.67
815.365	13943.8
815.693	13831.03
816.022	13867.42
816.351	13858.83
816.68	13792.84
817.008	13718.72
817.337	13694.32
817.665	13622.23
817.994	13636.69
818.322	13587.88
818.651	13635.79
818.979	13529.57
819.307	13603.02
819.636	13537.26
819.964	13477.15
820.292	13576.13
820.62	13478.95
820.948	13402.57
821.276	13468.56
821.604	13403.25
821.932	13416.81
822.259	13424.27
822.587	13426.75
822.915	13379.3
823.243	13410.25
823.57	13398.28
823.898	13389.46
824.225	13288.45
824.553	13417.71
824.88	13290.48
825.207	13378.17
825.535	13316.25
825.862	13379.75
826.189	13283.93
826.516	13340.65
826.843	13356.7
827.17	13413.64
827.497	13429.69
827.824	13405.06
828.151	13306.08
828.478	13353.99
828.805	13380.88
829.131	13314.89
829.458	13329.13
829.785	13217.04
830.111	13320.99
830.438	13367.54
830.764	13283.93
831.09	13365.06
831.417	13237.6
831.743	13270.82
832.069	13244.61
832.395	13234.44
832.722	13284.61
833.048	13285.06
833.374	13274.21
833.7	13154.22
834.026	13226.53
834.351	13286.19
834.677	13158.74
835.003	13220.66
835.329	13132.52
835.654	13176.59
835.98	13059.53
836.306	13105.63
836.631	13069.25
836.956	13018.4
837.282	13131.39
837.607	12965.29
837.932	12972.53
838.258	12932.98
838.583	13069.47
838.908	12942.24
839.233	12952.87
839.558	12882.58
839.883	12881.91
840.208	12820.89
840.533	12799.88
840.858	12846.65
841.182	12824.51
841.507	12834
841.832	12752.42
842.156	12658.86
842.481	12722.59
842.805	12591.75
843.13	12556.49
843.454	12573.21
843.778	12523.05
844.103	12523.27
844.427	12431.98
844.751	12481.69
845.075	12367.57
845.399	12429.72
845.723	12379.32
846.047	12317.63
846.371	12195.6
846.695	12214.81
847.019	12103.17
847.343	12046.45
847.666	12074.92
847.99	11914.02
848.313	12008.94
848.637	11894.36
848.96	11853.23
849.284	11824.76
849.607	11719.9
849.931	11742.5
850.254	11627.7
850.577	11582.51
850.9	11504.09
851.223	11505.22
851.546	11374.6
851.869	11349.29
852.192	11459.57
852.515	11319.24
852.838	11258.9
853.161	11288.28
853.483	11190.43
853.806	11127.6
854.129	11145.46
854.451	11046.25
854.774	11046.02
855.096	11006.7
855.419	10979.81
855.741	11004.44
856.063	10904.56
856.385	10842.19
856.708	10829.76
857.03	10826.14
857.352	10836.54
857.674	10740.72
857.996	10716.99
858.318	10631.34
858.64	10674.73
858.961	10649.65
859.283	10601.06
859.605	10528.07
859.926	10604.68
860.248	10488.98
860.57	10438.81
860.891	10534.85
861.212	10420.28
861.534	10437.9
861.855	10404.23
862.176	10372.37
862.498	10360.17
862.819	10343.89
863.14	10348.41
863.461	10250.11
863.782	10294.4
864.103	10200.85
864.424	10208.08
864.745	10235.87
865.065	10207.18
865.386	10102.55
865.707	10134.63
866.027	10121.53
866.348	10220.51
866.668	10086.95
866.989	10048.99
867.309	9960.18
867.63	10081.98
867.95	10078.82
868.27	9978.25
868.59	10043.79
868.91	9993.62
869.23	9956.11
869.55	9891.48
869.87	9972.61
870.19	9865.72
870.51	9917.47
870.83	9952.27
871.15	9788.66
871.469	9814.64
871.789	9852.38
872.109	9839.95
872.428	9835.21
872.748	9865.26
873.067	9769.22
873.386	9821.42
873.706	9718.15
874.025	9747.07
874.344	9681.31
874.663	9716.57
874.982	9675.44
875.301	9650.13
875.62	9654.87
875.939	9678.38
876.258	9624.37
876.577	9609.9
876.896	9518.83
877.214	9505.05
877.533	9554.54
877.852	9503.69
878.17	9558.15
878.489	9549.11
878.807	9488.78
879.125	9431.6
879.444	9477.7
879.762	9394.99
880.08	9432.96
880.398	9407.65
880.716	9390.93
881.034	9342.34
881.352	9367.2
881.67	9275.67
881.988	9385.95
882.306	9266.86
882.624	9264.38
882.941	9222.34
883.259	9185.06
883.577	9173.98
883.894	9126.75
884.212	9227.99
884.529	9093.98
884.846	9086.75
885.164	9057.83
885.481	9092.85
885.798	9075.68
886.115	9010.14
886.432	8997.94
886.75	8959.3
887.067	8991.16
887.383	8931.5
887.7	8943.25
888.017	8858.51
888.334	8889.7
888.651	8820.77
888.967	8786.65
889.284	8781.45
889.6	8737.61
889.917	8719.08
890.233	8739.42
890.55	8690.15
890.866	8678.18
891.182	8657.61
891.498	8630.49
891.815	8611.28
892.131	8531.29
892.447	8563.38
892.763	8523.6
893.079	8476.6
893.395	8456.94
893.71	8509.59
894.026	8428.46
894.342	8403.15
894.657	8364.96
894.973	8378.52
895.289	8359.09
895.604	8330.84
895.92	8236.38
896.235	8303.95
896.55	8203.39
896.865	8213.56
897.181	8180.79
897.496	8194.8
897.811	8116.83
898.126	8099.43
898.441	8063.28
898.756	8088.59
899.071	8025.54
899.386	8035.03
899.7	7966.1
900.015	7892.89
900.33	7874.58
900.644	7875.71
900.959	7922.49
901.273	7812.89
901.588	7758.65
901.902	7784.19
902.216	7729.95
902.531	7737.64
902.845	7739.44
903.159	7623.97
903.473	7597.3
903.787	7652.67
904.101	7516.17
904.415	7571.99
904.729	7542.16
905.042	7427.36
905.356	7426.01
905.67	7435.72
905.984	7398.66
906.297	7383.29
906.611	7334.26
906.924	7341.26
907.237	7351.43
907.551	7320.7
907.864	7220.14
908.177	7190.76
908.491	7198.67
908.804	7111.89
909.117	7079.57
909.43	7095.84
909.743	7037.77
910.056	7053.36
910.368	6998.22
910.681	6966.36
910.994	6970.65
911.307	6909.86
911.619	6889.75
911.932	6838.22
912.244	6809.07
912.557	6817.43
912.869	6708.06
913.181	6759.13
913.494	6759.13
913.806	6677.55
914.118	6659.25
914.43	6633.71
914.742	6627.83
915.054	6591.9
915.366	6557.78
915.678	6544.45
915.99	6475.52
916.302	6521.85
916.613	6423.09
916.925	6395.07
917.236	6442.53
917.548	6411.79
917.859	6357.56
918.171	6270.56
918.482	6277.33
918.794	6312.36
919.105	6215.64
919.416	6166.83
919.727	6192.59
920.038	6165.7
920.349	6178.13
920.66	6131.35
920.971	6081.86
921.282	6024.23
921.593	6047.51
921.903	6027.17
922.214	5951.69
922.525	5953.73
922.835	5937.91
923.146	5857.01
923.456	5907.18
923.767	5852.26
924.077	5851.13
924.387	5835.54
924.697	5813.84
925.008	5717.8
925.318	5752.6
925.628	5739.27
925.938	5654.98
926.248	5609.33
926.558	5647.52
926.867	5601.19
927.177	5586.96
927.487	5593.96
927.796	5541.99
928.106	5549.67
928.416	5505.83
928.725	5488.43
929.034	5444.81
929.344	5422.22
929.653	5380.18
929.962	5398.71
930.271	5339.73
930.581	5328.66
930.89	5346.96
931.199	5293.86
931.508	5199.62
931.817	5277.81
932.125	5202.56
932.434	5193.75
932.743	5192.84
933.051	5158.04
933.36	5200.98
933.669	5109.23
933.977	5071.04
934.286	5059.74
934.594	5091.6
934.902	5043.02
935.21	5000.31
935.519	4977.48
935.827	4963.7
936.135	4918.5
936.443	4906.52
936.751	4892.29
937.059	4883.47
937.367	4793.31
937.674	4862.68
937.982	4795.34
938.29	4759.63
938.597	4787.43
938.905	4742.69
939.213	4724.16
939.52	4720.54
939.827	4708.11
940.135	4672.18
940.442	4687.09
940.749	4672.86
941.056	4690.48
941.363	4619.3
941.67	4630.15
941.977	4595.12
942.284	4569.36
942.591	4566.19
942.898	4538.4
943.205	4460.21
943.511	4452.52
943.818	4420.21
944.125	4422.92
944.431	4405.29
944.738	4438.97
945.044	4392.19
945.35	4333.43
945.657	4356.03
945.963	4315.35
946.269	4298.86
946.575	4269.25
946.881	4284.39
947.187	4214.34
947.493	4249.14
947.799	4241.23
948.105	4176.83
948.41	4155.81
948.716	4144.74
949.022	4149.03
949.327	4133.21
949.633	4093.89
949.938	4048.24
950.244	4040.11
950.549	4042.82
950.854	4007.11
951.16	3965.53
951.465	4025.19
951.77	3989.71
952.075	3958.98
952.38	3941.58
952.685	3952.65
952.99	3927.11
953.294	3902.48
953.599	3890.96
953.904	3874.01
954.209	3846.21
954.513	3853.9
954.818	3829.26
955.122	3803.73
955.426	3817.29
955.731	3789.72
956.035	3778.19
956.339	3740.45
956.643	3714.01
956.948	3739.32
957.252	3673.79
957.556	3651.19
957.86	3640.79
958.163	3655.26
958.467	3596.73
958.771	3619.78
959.075	3580.68
959.378	3559.44
959.682	3583.62
959.985	3554.24
960.289	3505.43
960.592	3527.12
960.896	3523.06
961.199	3504.3
961.502	3441.93
961.805	3449.61
962.108	3422.95
962.411	3445.77
962.714	3405.09
963.017	3406.68
963.32	3382.95
963.623	3364.19
963.926	3387.47
964.228	3309.5
964.531	3293.23
964.833	3300.01
965.136	3309.73
965.438	3298.88
965.741	3272.44
966.043	3240.58
966.345	3234.93
966.648	3246.91
966.95	3209.84
967.252	3189.73
967.554	3210.52
967.856	3149.28
968.158	3129.4
968.46	3163.74
968.761	3119.23
969.063	3111.77
969.365	3111.32
969.666	3076.74
969.968	3086.68
970.269	3055.72
970.571	3010.53
970.872	3029.51
971.174	3003.07
971.475	3036.74
971.776	2984.77
972.077	2968.5
972.378	2998.55
972.679	2989.96
972.98	2970.76
973.281	2921.94
973.582	2894.15
973.883	2927.14
974.183	2881.72
974.484	2900.47
974.785	2846.01
975.085	2848.72
975.386	2863.19
975.686	2831.32
975.986	2791.55
976.287	2820.48
976.587	2813.47
976.887	2796.07
977.187	2756.52
977.487	2763.76
977.787	2747.48
978.087	2751.33
978.387	2711.1
978.687	2685.11
978.987	2700.48
979.286	2658.45
979.586	2653.7
979.885	2665.68
980.185	2656.41
980.484	2627.71
980.784	2633.81
981.083	2625.23
981.382	2625.45
981.682	2607.15
981.981	2570.77
982.28	2568.96
982.579	2518.34
982.878	2557.66
983.177	2536.42
983.475	2569.18
983.774	2524.67
984.073	2521.73
984.372	2482.63
984.67	2504.78
984.969	2443.31
985.267	2461.16
985.566	2439.7
985.864	2446.48
986.162	2431.11
986.461	2436.76
986.759	2397.21
987.057	2398.57
987.355	2344.78
987.653	2372.13
987.951	2355.86
988.249	2367.16
988.547	2359.7
988.844	2321.05
989.142	2307.72
989.44	2291.23
989.737	2279.93
990.035	2322.18
990.332	2276.76
990.63	2289.19
990.927	2272.02
991.224	2283.54
991.521	2230.89
991.819	2253.94
992.116	2262.3
992.413	2211.23
992.71	2185.69
993.006	2172.58
993.303	2194.96
993.6	2146.6
993.897	2149.99
994.193	2169.42
994.49	2122.87
994.787	2160.38
995.083	2108.41
995.379	2102.76
995.676	2112.02
995.972	2086.26
996.268	2069.31
996.565	2061.17
996.861	2069.31
997.157	2050.55
997.453	2025.02
997.749	1987.05
998.044	2015.07
998.34	1980.27
998.636	2004.23
998.932	1989.54
999.227	2003.32
999.523	1998.13
999.818	1926.04
1000.114	1958.8
1000.409	1926.49
1000.704	1946.6
1001	1905.47
1001.295	1892.14
1001.59	1907.51
1001.885	1891.46
1002.18	1876.77
1002.475	1854.63
1002.77	1865.47
1003.065	1868.41
1003.359	1833.61
1003.654	1817.79
1003.949	1827.06
1004.243	1810.33
1004.538	1827.28
1004.832	1782.76
1005.127	1768.3
1005.421	1780.73
1005.715	1774.18
1006.009	1768.98
1006.304	1752.71
1006.598	1718.81
1006.892	1692.6
1007.186	1705.25
1007.48	1719.94
1007.773	1695.99
1008.067	1693.5
1008.361	1704.12
1008.655	1659.38
1008.948	1655.31
1009.242	1658.7
1009.535	1629.77
1009.829	1607.18
1010.122	1621.64
1010.415	1625.71
1010.708	1618.47
1011.001	1602.88
1011.295	1584.35
1011.588	1596.1
1011.881	1568.98
1012.173	1569.89
1012.466	1556.56
1012.759	1575.76
1013.052	1506.39
1013.344	1530.57
1013.637	1511.13
1013.93	1536.67
1014.222	1523.56
1014.514	1498.03
1014.807	1482.21
1015.099	1467.74
1015.391	1489.21
1015.683	1455.31
1015.976	1468.87
1016.268	1449.44
1016.56	1428.87
1016.851	1425.26
1017.143	1423
1017.435	1399.72
1017.727	1411.47
1018.018	1387.97
1018.31	1379.61
1018.602	1390.46
1018.893	1337.35
1019.185	1356.11
1019.476	1360.4
1019.767	1347.3
1020.058	1354.3
1020.35	1305.49
1020.641	1292.16
1020.932	1316.34
1021.223	1301.19
1021.514	1295.32
1021.804	1277.69
1022.095	1288.54
1022.386	1292.61
1022.677	1278.37
1022.967	1272.27
1023.258	1225.26
1023.548	1215.77
1023.839	1201.31
1024.129	1223
1024.419	1216.23
1024.709	1219.39
1025	1194.08
1025.29	1195.66
1025.58	1160.41
1025.87	1191.82
1026.16	1164.48
1026.449	1144.59
1026.739	1157.92
1027.029	1146.4
1027.319	1158.15
1027.608	1131.71
1027.898	1121.99
1028.187	1117.7
1028.477	1118.83
1028.766	1107.08
1029.055	1090.58
1029.344	1079.51
1029.634	1086.74
1029.923	1064.82
1030.212	1070.47
1030.501	1082.67
1030.79	1097.13
1031.078	1048.32
1031.367	1038.83
1031.656	1030.02
1031.945	1025.5
1032.233	1037.02
1032.522	1013.52
1032.81	996.34
1033.099	1023.91
1033.387	999.51
1033.675	986.4
1033.963	982.78
1034.251	982.78
1034.54	991.6
1034.828	961.77
1035.116	953.86
1035.403	972.39
1035.691	952.96
1035.979	929.9
1036.267	939.4
1036.554	915.89
1036.842	903.69
1037.129	946.4
1037.417	900.53
1037.704	924.48
1037.992	909.79
1038.279	928.32
1038.566	903.69
1038.853	903.69
1039.14	903.69
