Data from hue_210_FLMS001491_00052.txt Node
Date: Tue Feb 07 16:41:23 GMT 2017
User: dcchb
Spectrometer: FLMS00149
Trigger mode: 0
Integration Time (sec): 2.000000E-2
Scans to average: 10
Electric dark correction enabled: true
Nonlinearity correction enabled: false
Boxcar width: 0
XAxis mode: Wavelengths
Number of Pixels in Spectrum: 2048
>>>>>Begin Spectral Data<<<<<
341.393	-18.09
341.776	-18.09
342.16	-18.09
342.543	-47.92
342.927	-68.26
343.31	-57.19
343.693	-83.18
344.077	-69.39
344.46	-63.29
344.843	-57.64
345.226	-35.72
345.61	-14.7
345.993	-25.55
346.376	-20.8
346.759	10.83
347.142	31.17
347.525	19.87
347.908	50.15
348.291	93.54
348.674	91.06
349.057	130.83
349.44	153.43
349.823	146.65
350.206	166.31
350.588	195.69
350.971	203.14
351.354	227.1
351.737	225.52
352.119	250.15
352.502	264.39
352.884	268
353.267	277.04
353.65	265.74
354.032	269.36
354.414	300.77
354.797	307.1
355.179	315.46
355.562	316.36
355.944	336.47
356.326	318.85
356.709	338.73
357.091	308.23
357.473	317.27
357.855	343.03
358.238	349.13
358.62	338.06
359.002	319.07
359.384	324.72
359.766	355.68
360.148	333.31
360.53	319.3
360.912	330.82
361.294	326.53
361.676	322.24
362.057	317.04
362.439	319.3
362.821	306.42
363.203	322.24
363.584	310.26
363.966	309.13
364.348	322.92
364.729	303.71
365.111	319.53
365.493	307.77
365.874	320.43
366.256	313.65
366.637	291.05
367.019	303.48
367.4	295.35
367.781	285.4
368.163	305.74
368.544	297.83
368.925	309.81
369.306	321.11
369.688	313.42
370.069	306.42
370.45	308.23
370.831	314.33
371.212	295.8
371.593	300.99
371.974	322.01
372.355	300.32
372.736	284.72
373.117	322.69
373.498	324.27
373.879	312.29
374.26	289.47
374.641	324.72
375.021	331.5
375.402	309.13
375.783	310.49
376.163	325.4
376.544	336.02
376.925	336.25
377.305	312.07
377.686	296.25
378.066	311.84
378.447	327.66
378.827	320.43
379.208	318.85
379.588	308.23
379.968	345.51
380.349	326.08
380.729	324.27
381.109	326.53
381.489	336.7
381.87	330.6
382.25	339.19
382.63	331.28
383.01	312.97
383.39	319.07
383.77	314.55
384.15	311.39
384.53	338.06
384.91	326.3
385.29	323.82
385.67	340.32
386.049	324.72
386.429	326.08
386.809	324.95
387.189	333.08
387.568	326.76
387.948	346.87
388.328	339.86
388.707	340.54
389.087	360.2
389.466	369.47
389.846	364.27
390.225	345.51
390.605	362.24
390.984	348.23
391.363	349.13
391.743	366.98
392.122	357.72
392.501	365.63
392.881	349.58
393.26	383.03
393.639	361.56
394.018	373.54
394.397	350.71
394.776	371.73
395.155	367.66
395.534	380.54
395.913	385.96
396.292	411.27
396.671	392.97
397.05	394.1
397.429	368.79
397.808	371.95
398.186	364.72
398.565	388.68
398.944	384.83
399.323	381.9
399.701	395.68
400.08	387.77
400.458	394.33
400.837	421.22
401.215	396.36
401.594	418.28
401.972	401.56
402.351	425.51
402.729	408.11
403.107	408.56
403.486	435.45
403.864	432.74
404.242	436.13
404.62	424.83
404.999	434.78
405.377	416.47
405.755	447.21
406.133	437.04
406.511	453.08
406.889	438.17
407.267	452.86
407.645	454.89
408.023	485.4
408.401	465.06
408.779	472.74
409.156	498.96
409.534	488.79
409.912	494.21
410.29	486.75
410.667	531.05
411.045	505.74
411.422	544.15
411.8	530.37
412.178	534.21
412.555	543.47
412.933	544.15
413.31	546.41
413.687	566.75
414.065	574.89
414.442	579.63
414.819	598.61
415.197	607.2
415.574	614.43
415.951	618.5
416.328	629.57
416.705	637.48
417.082	652.17
417.46	627.54
417.837	647.65
418.214	686.52
418.591	673.64
418.967	686.07
419.344	727.65
419.721	707.99
420.098	700.08
420.475	729.68
420.852	756.12
421.228	742.57
421.605	735.56
421.982	781.89
422.358	779.4
422.735	814.43
423.111	812.62
423.488	848.33
423.864	830.92
424.241	870.7
424.617	858.27
424.994	856.69
425.37	907.53
425.746	885.39
426.123	922
426.499	897.36
426.875	932.16
427.251	956.57
427.627	991.37
428.003	996.34
428.379	971.49
428.756	1019.62
429.132	1032.73
429.507	1044.25
429.883	1075.44
430.259	1050.13
430.635	1076.12
431.011	1097.36
431.387	1070.92
431.763	1137.13
432.138	1122.67
432.514	1120.41
432.89	1162.22
433.265	1206.51
433.641	1210.35
434.016	1228.65
434.392	1252.38
434.767	1270.91
435.143	1273.17
435.518	1318.37
435.894	1314.08
436.269	1331.7
436.644	1343.91
437.02	1397.92
437.395	1415.09
437.77	1437.46
438.145	1473.85
438.52	1481.98
438.895	1518.59
439.271	1514.07
439.646	1556.33
440.021	1582.54
440.395	1599.72
440.77	1609.89
441.145	1652.37
441.52	1693.05
441.895	1658.02
442.27	1683.78
442.645	1688.53
443.019	1733.05
443.394	1731.01
443.769	1792.26
444.143	1791.58
444.518	1818.7
444.892	1785.7
445.267	1828.19
445.641	1853.04
446.016	1855.08
446.39	1872.25
446.764	1858.24
447.139	1870.67
447.513	1872.25
447.887	1897.34
448.262	1920.39
448.636	1937.11
449.01	1943.89
449.384	1974.17
449.758	2004.45
450.132	2026.15
450.506	2033.38
450.88	2034.96
451.254	2053.49
451.628	2054.62
452.002	2093.49
452.376	2116.99
452.75	2142.98
453.123	2137.78
453.497	2166.03
453.871	2199.48
454.244	2217.78
454.618	2276.08
454.992	2300.04
455.365	2274.73
455.739	2317.89
456.112	2336.65
456.486	2368.51
456.859	2394.5
457.232	2419.13
457.606	2453.03
457.979	2487.38
458.352	2538
458.725	2534.83
459.099	2567.15
459.472	2568.05
459.845	2615.74
460.218	2652.12
460.591	2634.94
460.964	2658.9
461.337	2719.69
461.71	2762.4
462.083	2772.57
462.456	2800.14
462.829	2794.04
463.201	2849.18
463.574	2878.33
463.947	2918.78
464.32	2966.46
464.692	2977.08
465.065	3012.34
465.438	3076.52
465.81	3082.16
466.183	3109.51
466.555	3174.37
466.928	3197.87
467.3	3214.82
467.672	3223.4
468.045	3321.25
468.417	3345.66
468.789	3350.18
469.161	3376.17
469.534	3467.01
469.906	3525.09
470.278	3509.05
470.65	3558.99
471.022	3628.59
471.394	3707.01
471.766	3740.23
472.138	3705.88
472.51	3823.16
472.882	3895.02
473.253	3919.2
473.625	3961.01
473.997	4024.74
474.369	4072.42
474.74	4108.8
475.112	4150.16
475.484	4198.07
475.855	4263.83
476.227	4296.6
476.598	4409.81
476.97	4433.32
477.341	4562.13
477.713	4582.46
478.084	4605.29
478.455	4678.05
478.827	4699.07
479.198	4880.08
479.569	4890.48
479.94	5002.57
480.311	5013.87
480.682	5145.39
481.053	5243.24
481.424	5261.54
481.795	5271.49
482.166	5396.68
482.537	5428.77
482.908	5580.18
483.279	5605.26
483.65	5704.02
484.021	5800.29
484.391	5875.76
484.762	5882.32
485.133	5942.2
485.503	6016.1
485.874	6150.11
486.244	6174.29
486.615	6251.12
486.985	6319.59
487.356	6449.31
487.726	6490.44
488.097	6599.59
488.467	6588.06
488.837	6730.43
489.207	6794.38
489.578	6859.69
489.948	6907.6
490.318	6983.76
490.688	7015.62
491.058	7035.96
491.428	7208.38
491.798	7180.14
492.168	7320.7
492.538	7334.03
492.908	7439.34
493.278	7446.34
493.648	7505.78
494.017	7584.87
494.387	7674.36
494.757	7675.49
495.126	7772.21
495.496	7719.56
495.866	7828.03
496.235	7874.13
496.605	7920.46
496.974	7943.96
497.344	8026.22
497.713	8004.07
498.082	8056.5
498.452	8136.95
498.821	8167.68
499.19	8149.15
499.559	8258.07
499.928	8318.64
500.298	8289.26
500.667	8315.47
501.036	8331.97
501.405	8391.86
501.774	8466.43
502.143	8439.31
502.512	8476.6
502.88	8524.51
503.249	8502.36
503.618	8561.79
503.987	8542.59
504.356	8573.77
504.724	8581.91
505.093	8710.27
505.462	8662.36
505.83	8749.81
506.199	8762.47
506.567	8762.47
506.936	8796.82
507.304	8872.29
507.672	8825.29
508.041	8835.69
508.409	8863.26
508.777	8955
509.145	8943.03
509.514	8929.24
509.882	8960.43
510.25	9009.01
510.618	8982.35
510.986	8976.47
511.354	9052.86
511.722	9081.78
512.09	9140.31
512.458	9050.82
512.826	9147.32
513.193	9102.8
513.561	9130.37
513.929	9155.45
514.297	9190.7
514.664	9265.28
515.032	9199.52
515.4	9287.2
515.767	9227.54
516.135	9251.04
516.502	9185.96
516.869	9251.04
517.237	9276.58
517.604	9231.16
517.972	9274.09
518.339	9290.82
518.706	9319.97
519.073	9299.63
519.44	9253.3
519.808	9357.25
520.175	9282.45
520.542	9343.92
520.909	9417.82
521.276	9313.87
521.643	9351.38
522.009	9437.25
522.376	9441.55
522.743	9344.82
523.11	9442.9
523.477	9520.19
523.843	9495.33
524.21	9477.48
524.577	9551.6
524.943	9490.58
525.31	9535.1
525.676	9507.76
526.043	9475.22
526.409	9516.57
526.776	9591.15
527.142	9515.22
527.508	9595.44
527.874	9561.32
528.241	9526.74
528.607	9540.53
528.973	9618.04
529.339	9465.5
529.705	9510.24
530.071	9505.5
530.437	9508.44
530.803	9559.51
531.169	9507.08
531.535	9481.54
531.901	9351.38
532.267	9373.3
532.632	9409.46
532.998	9437.48
533.364	9425.73
533.73	9392.51
534.095	9386.18
534.461	9419.17
534.826	9321.32
535.192	9329.91
535.557	9372.39
535.923	9222.57
536.288	9302.34
536.653	9309.57
537.019	9180.76
537.384	9188.9
537.749	9125.4
538.114	9072.52
538.479	9089.69
538.845	9117.71
539.21	9022.57
539.575	9052.86
539.94	8989.58
540.305	9042.69
540.67	8930.37
541.034	8938.06
541.399	8914.33
541.764	8837.27
542.129	8832.3
542.494	8797.95
542.858	8765.86
543.223	8779.42
543.587	8688.57
543.952	8626.65
544.316	8676.14
544.681	8658.97
545.045	8600.44
545.41	8531.06
545.774	8602.7
546.138	8520.89
546.503	8483.83
546.867	8436.15
547.231	8376.71
547.595	8440.89
547.959	8398.41
548.324	8279.99
548.688	8290.16
549.052	8224.18
549.416	8240.45
549.779	8184.4
550.143	8134.24
550.507	8141.24
550.871	8173.1
551.235	8123.39
551.599	8082.71
551.962	7992.77
552.326	8029.61
552.689	8016.95
553.053	7890.17
553.417	7891.53
553.78	7974.01
554.143	7890.63
554.507	7833.45
554.87	7811.76
555.234	7798.88
555.597	7724.3
555.96	7809.05
556.323	7735.15
556.686	7752.55
557.05	7746.67
557.413	7698.31
557.776	7659.22
558.139	7692.21
558.502	7617.86
558.865	7680.46
559.228	7642.95
559.59	7558.66
559.953	7681.37
560.316	7671.2
560.679	7640.46
561.041	7619.9
561.404	7632.78
561.767	7665.55
562.129	7484.31
562.492	7645.89
562.854	7573.35
563.217	7594.59
563.579	7505.78
563.941	7510.97
564.304	7532.67
564.666	7574.93
565.028	7556.17
565.39	7554.59
565.753	7574.93
566.115	7605.66
566.477	7533.57
566.839	7570.63
567.201	7613.12
567.563	7543.97
567.925	7567.92
568.287	7583.52
568.648	7529.05
569.01	7550.3
569.372	7642.04
569.734	7611.99
570.095	7617.64
570.457	7619.45
570.819	7593.23
571.18	7604.08
571.542	7666
571.903	7623.06
572.265	7647.47
572.626	7634.81
572.987	7552.56
573.349	7614.25
573.71	7590.07
574.071	7635.04
574.432	7654.93
574.794	7724.98
575.155	7701.48
575.516	7598.66
575.877	7611.76
576.238	7650.86
576.599	7657.86
576.96	7687.69
577.32	7693.34
577.681	7703.74
578.042	7741.03
578.403	7653.34
578.763	7698.31
579.124	7753.68
579.485	7745.54
579.845	7781.7
580.206	7741.48
580.566	7735.15
580.927	7726.11
581.287	7820.35
581.648	7789.84
582.008	7813.11
582.368	7766.79
582.728	7815.37
583.089	7835.03
583.449	7828.93
583.809	7820.8
584.169	7843.17
584.529	7850.85
584.889	7805.2
585.249	7751.42
585.609	7795.94
585.969	7865.77
586.329	7864.19
586.688	7876.61
587.048	7874.36
587.408	7861.25
587.768	7828.93
588.127	7881.59
588.487	7824.64
588.846	7921.81
589.206	7845.2
589.565	7859.89
589.925	7867.8
590.284	7857.86
590.643	7893.11
591.003	7898.99
591.362	7953.22
591.721	7937.18
592.08	7924.52
592.44	7966.78
592.799	7950.96
593.158	7964.3
593.517	7955.93
593.876	7943.51
594.235	7917.07
594.593	7913
594.952	7948.48
595.311	7902.6
595.67	7915.26
596.029	7954.8
596.387	7923.62
596.746	7958.19
597.104	7936.05
597.463	7911.87
597.822	7970.85
598.18	8010.85
598.538	7864.64
598.897	7982.83
599.255	7943.05
599.613	7995.26
599.972	7939.21
600.33	7998.19
600.688	7952.32
601.046	7982.83
601.404	8023.05
601.762	7975.37
602.12	8002.04
602.478	7953.45
602.836	8010.4
603.194	7986.89
603.552	7974.24
603.91	7953
604.268	7962.26
604.625	7938.99
604.983	7982.15
605.341	7974.69
605.698	7964.3
606.056	7991.64
606.413	7983.5
606.771	8016.95
607.128	8017.18
607.485	7988.25
607.843	8016.95
608.2	8039.77
608.557	8088.59
608.914	7949.16
609.272	8043.84
609.629	8056.95
609.986	8101.92
610.343	8090.39
610.7	8090.62
611.057	8110.06
611.414	8099.89
611.771	8095.37
612.127	8112.77
612.484	8138.75
612.841	8161.13
613.198	8114.12
613.554	8183.5
613.911	8166.78
614.267	8155.7
614.624	8134.91
614.98	8138.98
615.337	8112.31
615.693	8134.24
616.05	8146.89
616.406	8203.39
616.762	8127.46
617.118	8226.89
617.475	8166.78
617.831	8154.57
618.187	8206.1
618.543	8187.34
618.899	8231.86
619.255	8190.28
619.611	8188.25
619.967	8259.43
620.323	8217.85
620.678	8234.35
621.034	8216.04
621.39	8217.4
621.746	8207.68
622.101	8245.87
622.457	8184.63
622.812	8258.75
623.168	8261.69
623.523	8250.16
623.879	8297.17
624.234	8216.27
624.589	8243.61
624.945	8182.14
625.3	8246.77
625.655	8227.34
626.01	8279.32
626.365	8277.28
626.72	8224.63
627.075	8222.82
627.43	8221.01
627.785	8203.84
628.14	8203.39
628.495	8207.91
628.85	8219.66
629.205	8168.58
629.559	8245.42
629.914	8120.68
630.269	8200.9
630.623	8216.04
630.978	8139.21
631.332	8125.2
631.687	8175.36
632.041	8162.94
632.396	8162.94
632.75	8030.06
633.104	8086.55
633.459	8106.67
633.813	8089.49
634.167	8149.38
634.521	8108.47
634.875	8043.84
635.229	8081.58
635.583	8043.84
635.937	8034.8
636.291	8075.93
636.645	8055.14
636.999	7968.82
637.352	8028.48
637.706	7939.89
638.06	8023.28
638.413	7947.57
638.767	7967.46
639.121	7957.29
639.474	7923.17
639.828	7934.69
640.181	7992.09
640.534	7931.98
640.888	7929.49
641.241	7874.13
641.594	7898.54
641.947	7916.39
642.301	7938.53
642.654	7948.48
643.007	7818.31
643.36	7930.4
643.713	7858.08
644.066	7913
644.419	7845.88
644.771	7796.17
645.124	7754.13
645.477	7687.69
645.83	7690.18
646.182	7637.07
646.535	7600.46
646.888	7635.27
647.24	7579.67
647.593	7592.55
647.945	7599.56
648.298	7575.38
648.65	7586.68
649.002	7580.58
649.355	7667.35
649.707	7523.63
650.059	7630.07
650.411	7711.87
650.763	7719.78
651.115	7779.89
651.467	7808.37
651.819	7833
652.171	7790.74
652.523	7725.66
652.875	7754.36
653.227	7764.98
653.578	7773.34
653.93	7723.85
654.282	7732.89
654.633	7709.61
654.985	7818.76
655.337	7788.26
655.688	7821.02
656.039	7833.45
656.391	7765.43
656.742	7775.37
657.094	7814.92
657.445	7809.5
657.796	7769.73
658.147	7757.52
658.498	7831.87
658.849	7812.66
659.2	7830.74
659.551	7801.81
659.902	7850.4
660.253	7809.27
660.604	7871.64
660.955	7825.09
661.306	7823.06
661.656	7771.53
662.007	7793
662.358	7830.06
662.708	7842.72
663.059	7826.67
663.409	7799.1
663.76	7821.25
664.11	7847.92
664.461	7823.28
664.811	7880.23
665.161	7888.59
665.511	7914.35
665.862	7885.2
666.212	7906.22
666.562	7882.94
666.912	7816.96
667.262	7844.75
667.612	7901.7
667.962	7885.88
668.312	7854.69
668.662	7859.89
669.011	7828.48
669.361	7814.47
669.711	7885.2
670.06	7903.05
670.41	7789.61
670.76	7831.19
671.109	7831.19
671.459	7846.11
671.808	7826.9
672.157	7851.53
672.507	7753.45
672.856	7881.59
673.205	7762.95
673.554	7859.44
673.904	7772.66
674.253	7887.69
674.602	7842.27
674.951	7733.34
675.3	7699.67
675.649	7806.79
675.998	7760.91
676.346	7745.32
676.695	7799.78
677.044	7723.85
677.393	7725.66
677.741	7688.15
678.09	7720.23
678.438	7688.82
678.787	7771.31
679.135	7694.92
679.484	7658.09
679.832	7649.73
680.181	7618.54
680.529	7616.28
680.877	7547.58
681.225	7577.19
681.573	7602.27
681.922	7536.28
682.27	7562.95
682.618	7553.01
682.966	7564.31
683.314	7555.49
683.661	7513.23
684.009	7459.9
684.357	7461.94
684.705	7441.82
685.053	7519.79
685.4	7396.63
685.748	7462.16
686.095	7396.85
686.443	7340.58
686.79	7384.42
687.138	7418.77
687.485	7377.64
687.832	7384.88
688.18	7277.99
688.527	7288.61
688.874	7271.66
689.221	7183.3
689.568	7170.19
689.915	7199.8
690.262	7174.71
690.609	7196.41
690.956	7130.65
691.303	7124.09
691.65	7091.1
691.997	7069.86
692.344	7065.79
692.69	6995.96
693.037	6980.59
693.383	6969.52
693.73	6969.97
694.077	6948.28
694.423	6883.19
694.769	6910.99
695.116	6886.36
695.462	6900.82
695.808	6861.73
696.155	6821.28
696.501	6780.37
696.847	6765.01
697.193	6692.01
697.539	6701.5
697.885	6720.94
698.231	6594.84
698.577	6588.97
698.923	6636.87
699.269	6582.64
699.614	6491.57
699.96	6526.14
700.306	6484.79
700.651	6467.61
700.997	6418.57
701.342	6428.74
701.688	6384.45
702.033	6357.11
702.379	6378.58
702.724	6330.44
703.069	6380.61
703.415	6268.07
703.76	6281.18
704.105	6274.62
704.45	6253.61
704.795	6222.87
705.14	6191.01
705.485	6183.33
705.83	6145.14
706.175	6159.6
706.52	6059.26
706.865	6144.23
707.209	6076.66
707.554	6021.3
707.899	6023.78
708.243	6048.87
708.588	6020.39
708.932	6028.53
709.277	5938.59
709.621	5958.47
709.966	5921.41
710.31	5944.69
710.654	5838.25
710.998	5894.97
711.342	5830.57
711.687	5803.68
712.031	5814.3
712.375	5800.74
712.719	5831.47
713.063	5833.96
713.407	5807.52
713.75	5724.13
714.094	5760.29
714.438	5755.99
714.782	5754.41
715.125	5760.96
715.469	5743.11
715.812	5685.71
716.156	5694.53
716.499	5731.36
716.843	5699.95
717.186	5669.67
717.53	5670.12
717.873	5683
718.216	5667.86
718.559	5634.64
718.902	5614.75
719.246	5641.87
719.589	5632.83
719.932	5591.93
720.275	5621.08
720.617	5579.05
720.96	5595.09
721.303	5577.69
721.646	5627.63
721.989	5530.01
722.331	5610.01
722.674	5574.53
723.016	5559.61
723.359	5537.69
723.701	5548.99
724.044	5481.2
724.386	5531.14
724.729	5546.28
725.071	5500.86
725.413	5525.72
725.755	5502.89
726.097	5481.42
726.439	5492.04
726.782	5495.43
727.124	5491.59
727.465	5537.92
727.807	5531.37
728.149	5462.22
728.491	5455.89
728.833	5504.7
729.175	5521.65
729.516	5490.24
729.858	5462.44
730.199	5443.91
730.541	5447.07
730.882	5496.11
731.224	5530.24
731.565	5454.31
731.906	5491.82
732.248	5491.14
732.589	5422.22
732.93	5469.9
733.271	5480.75
733.612	5506.96
733.953	5517.58
734.294	5458.83
734.635	5477.81
734.976	5482.33
735.317	5445.27
735.658	5534.53
735.999	5540.18
736.339	5517.81
736.68	5556.45
737.021	5554.42
737.361	5499.5
737.702	5528.65
738.042	5560.97
738.383	5526.17
738.723	5516.45
739.063	5533.17
739.404	5618.82
739.744	5580.4
740.084	5609.56
740.424	5589.44
740.764	5588.77
741.104	5632.83
741.444	5591.25
741.784	5624.7
742.124	5654.07
742.464	5680.06
742.804	5669.67
743.143	5708.76
743.483	5726.16
743.823	5765.71
744.162	5747.63
744.502	5769.78
744.841	5816.78
745.181	5831.7
745.52	5831.24
745.86	5933.62
746.199	5906.95
746.538	5985.37
746.877	6031.69
747.216	6062.65
747.556	6103.1
747.895	6143.33
748.234	6190.11
748.573	6285.92
748.911	6334.51
749.25	6336.54
749.589	6355.75
749.928	6468.52
750.267	6554.39
750.605	6579.02
750.944	6611.11
751.283	6697.21
751.621	6788.28
751.96	6878
752.298	6955.51
752.636	7057.65
752.975	7176.52
753.313	7161.83
753.651	7357.08
753.989	7402.96
754.327	7554.82
754.666	7630.52
755.004	7710.97
755.342	7924.52
755.679	7994.58
756.017	8145.76
756.355	8262.59
756.693	8355.25
757.031	8525.86
757.368	8713.43
757.706	8855.57
758.044	8953.65
758.381	9062.35
758.719	9236.58
759.056	9434.54
759.394	9544.59
759.731	9740.29
760.068	9900.52
760.405	10049.89
760.743	10134.86
761.08	10383.44
761.417	10531.01
761.754	10726.94
762.091	10772.81
762.428	11033.37
762.765	11146.59
763.102	11391.78
763.438	11519.01
763.775	11675.39
764.112	11778.43
764.449	12030.63
764.785	12122.6
765.122	12219.1
765.458	12400.56
765.795	12642.59
766.131	12709.03
766.467	12883.94
766.804	13002.81
767.14	13139.98
767.476	13299.3
767.812	13429.92
768.148	13608.89
768.485	13741.09
768.821	13830.58
769.157	13954.65
769.492	14048.88
769.828	14325.48
770.164	14348.08
770.5	14440.74
770.836	14553.73
771.171	14623.1
771.507	14814.06
771.842	14831.46
772.178	14969.54
772.513	15061.96
772.849	15179.25
773.184	15177.89
773.519	15339.47
773.855	15294.05
774.19	15530.65
774.525	15539.46
774.86	15644.09
775.195	15734.49
775.53	15829.63
775.865	15778.1
776.2	15798.89
776.535	15807.71
776.87	15875.95
777.205	15981.71
777.539	15890.19
777.874	16050.86
778.209	16014.71
778.543	16025.78
778.878	16096.96
779.212	16181.26
779.547	16096.74
779.881	16193.91
780.215	16165.89
780.55	16282.27
780.884	16216.73
781.218	16338.77
781.552	16370.18
781.886	16392.32
782.22	16334.92
782.554	16415.15
782.888	16303.96
783.222	16323.62
783.556	16249.5
783.889	16297.86
784.223	16241.37
784.557	16235.49
784.89	16334.92
785.224	16219.45
785.557	16227.58
785.891	16321.14
786.224	16241.14
786.558	16305.09
786.891	16178.32
787.224	16198.43
787.557	16196.4
787.891	16156.4
788.224	16194.81
788.557	16193.01
788.89	16210.18
789.223	16172.67
789.556	16148.71
789.888	16108.04
790.221	16043.86
790.554	15902.62
790.887	16028.49
791.219	15974.26
791.552	15944.65
791.884	15884.09
792.217	15924.76
792.549	15926.8
792.882	15787.59
793.214	15774.49
793.546	15831.66
793.879	15736.07
794.211	15634.6
794.543	15796.18
794.875	15783.53
795.207	15790.76
795.539	15690.19
795.871	15755.96
796.203	15528.39
796.535	15527.94
796.867	15488.17
797.198	15473.7
797.53	15473.25
797.862	15457.21
798.193	15489.52
798.525	15299.7
798.856	15390.54
799.188	15225.8
799.519	15167.5
799.85	15186.03
800.182	15176.99
800.513	15188.74
800.844	15012.92
801.175	15170.89
801.506	15150.32
801.837	15051.34
802.168	14992.36
802.499	14944.23
802.83	14984
803.161	14878.92
803.491	14969.99
803.822	14904.68
804.153	14866.04
804.483	14767.73
804.814	14726.15
805.145	14755.3
805.475	14706.72
805.805	14592.82
806.136	14659.94
806.466	14725.47
806.796	14642.76
807.126	14527.97
807.457	14529.55
807.787	14498.81
808.117	14411.58
808.447	14394.64
808.777	14402.09
809.107	14393.51
809.436	14417.91
809.766	14284.58
810.096	14368.2
810.426	14149.44
810.755	14204.58
811.085	14203.45
811.414	14204.81
811.744	14054.31
812.073	14053.18
812.403	14057.7
812.732	13968.66
813.061	13983.57
813.39	13985.38
813.719	13906.96
814.049	14057.47
814.378	13964.59
814.707	13931.37
815.036	13923.69
815.365	13698.61
815.693	13696.8
816.022	13741.77
816.351	13726.86
816.68	13604.6
817.008	13643.24
817.337	13609.8
817.665	13538.84
817.994	13561.89
818.322	13532.29
818.651	13432.85
818.979	13501.1
819.307	13518.73
819.636	13487.09
819.964	13392.63
820.292	13484.15
820.62	13466.52
820.948	13384.04
821.276	13459.52
821.604	13441.67
821.932	13453.87
822.259	13420.42
822.587	13370.48
822.915	13355.34
823.243	13450.03
823.57	13398.05
823.898	13350.37
824.225	13374.78
824.553	13358.05
824.88	13462.23
825.207	13400.54
825.535	13419.29
825.862	13407.09
826.189	13307.66
826.516	13421.78
826.843	13418.16
827.17	13419.07
827.497	13479.86
827.824	13444.15
828.151	13476.47
828.478	13442.8
828.805	13471.04
829.131	13449.58
829.458	13398.96
829.785	13348.79
830.111	13405.06
830.438	13511.95
830.764	13365.74
831.09	13383.36
831.417	13467.2
831.743	13447.32
832.069	13417.03
832.395	13375.68
832.722	13381.78
833.048	13326.42
833.374	13339.3
833.7	13373.19
834.026	13324.83
834.351	13395.34
834.677	13392.63
835.003	13356.47
835.329	13295.68
835.654	13315.57
835.98	13256.13
836.306	13245.29
836.631	13235.12
836.956	13146.76
837.282	13309.47
837.607	13233.76
837.932	13172.07
838.258	13173.65
838.583	13157.83
838.908	13071.28
839.233	13089.36
839.558	13045.97
839.883	13024.95
840.208	13027.89
840.533	13055.01
840.858	13045.29
841.182	12976.37
841.507	12985.18
841.832	12902.47
842.156	12990.15
842.481	12918.97
842.805	12830.38
843.13	12843.26
843.454	12795.13
843.778	12681.46
844.103	12709.93
844.427	12684.17
844.751	12640.33
845.075	12685.53
845.399	12619.32
845.723	12523.72
846.047	12528.24
846.371	12540.22
846.695	12445.76
847.019	12336.84
847.343	12330.28
847.666	12314.46
847.99	12220
848.313	12173
848.637	12093.68
848.96	12075.83
849.284	12134.81
849.607	11950.86
849.931	11895.27
850.254	11844.42
850.577	11804.65
850.9	11743.41
851.223	11691.2
851.546	11693.24
851.869	11588.61
852.192	11738.66
852.515	11604.2
852.838	11523.07
853.161	11545.67
853.483	11434.04
853.806	11446.46
854.129	11424.32
854.451	11321.27
854.774	11326.69
855.096	11218.67
855.419	11246.47
855.741	11188.39
856.063	11246.02
856.385	11098.9
856.708	11109.52
857.03	11060.94
857.352	11049.64
857.674	10995.85
857.996	11006.02
858.318	10837.89
858.64	10920.83
858.961	10907.27
859.283	10784.56
859.605	10779.59
859.926	10871.79
860.248	10708.18
860.57	10738.69
860.891	10756.31
861.212	10683.55
861.534	10687.61
861.855	10615.07
862.176	10680.16
862.498	10623.44
862.819	10603.77
863.14	10487.85
863.461	10528.07
863.782	10511.8
864.103	10453.95
864.424	10463.67
864.745	10498.24
865.065	10366.27
865.386	10483.33
865.707	10382.76
866.027	10401.07
866.348	10341.63
866.668	10307.51
866.989	10307.96
867.309	10244.46
867.63	10335.08
867.95	10282.65
868.27	10230.23
868.59	10186.16
868.91	10218.02
869.23	10101.87
869.55	10112.94
869.87	10153.17
870.19	10113.17
870.51	10224.58
870.83	10137.57
871.15	10044.24
871.469	10106.39
871.789	10107.06
872.109	10126.95
872.428	10026.39
872.748	10086.05
873.067	10023.45
873.386	10012.83
873.706	10015.54
874.025	9901.42
874.344	9901.42
874.663	9970.12
874.982	9919.5
875.301	9899.84
875.62	9896.22
875.939	9870.23
876.258	9846.28
876.577	9781.65
876.896	9889.44
877.214	9810.58
877.533	9839.95
877.852	9794.53
878.17	9767.41
878.489	9759.73
878.807	9756.57
879.125	9731.93
879.444	9736.45
879.762	9725.83
880.08	9660.52
880.398	9618.49
880.716	9691.26
881.034	9624.37
881.352	9580.75
881.67	9608.32
881.988	9546.63
882.306	9589.34
882.624	9469.57
882.941	9406.97
883.259	9450.58
883.577	9459.62
883.894	9424.82
884.212	9418.27
884.529	9406.52
884.846	9359.51
885.164	9354.32
885.481	9259.4
885.798	9314.32
886.115	9291.49
886.432	9207.88
886.75	9263.7
887.067	9240.19
887.383	9189.57
887.7	9231.38
888.017	9125.4
888.334	9122.46
888.651	9102.57
888.967	9083.36
889.284	9026.42
889.6	9037.71
889.917	8934.21
890.233	9002.91
890.55	8937.38
890.866	8966.98
891.182	8868.45
891.498	8849.02
891.815	8788
892.131	8788.46
892.447	8806.53
892.763	8688.8
893.079	8726.31
893.395	8707.78
893.71	8658.97
894.026	8615.8
894.342	8610.38
894.657	8611.28
894.973	8524.28
895.289	8529.93
895.604	8526.99
895.92	8498.52
896.235	8504.62
896.55	8432.76
896.865	8401.35
897.181	8416.71
897.496	8363.38
897.811	8367.68
898.126	8296.26
898.441	8214.46
898.756	8265.31
899.071	8167.23
899.386	8172.2
899.7	8067.57
900.015	8092.43
900.33	8061.69
900.644	8066.44
900.959	8065.31
901.273	7980.79
901.588	7925.65
901.902	7908.93
902.216	7911.87
902.531	7926.11
902.845	7891.98
903.159	7781.7
903.473	7795.04
903.787	7705.77
904.101	7771.53
904.415	7688.37
904.729	7655.38
905.042	7595.72
905.356	7583.06
905.67	7599.33
905.984	7652.21
906.297	7557.75
906.611	7472.33
906.924	7433.46
907.237	7467.36
907.551	7452.9
907.864	7354.14
908.177	7395.72
908.491	7362.96
908.804	7278.66
909.117	7209.74
909.43	7159.8
909.743	7163.19
910.056	7190.98
910.368	7105.56
910.681	7080.7
910.994	7047.94
911.307	7075.73
911.619	7019.91
911.932	7030.54
912.244	6932.01
912.557	6920.71
912.869	6884.55
913.181	6862.4
913.494	6861.5
913.806	6813.14
914.118	6810.43
914.43	6777.89
914.742	6800.71
915.054	6703.99
915.366	6726.81
915.678	6666.25
915.99	6616.31
916.302	6581.96
916.613	6575.18
916.925	6542.64
917.236	6551.45
917.548	6487.05
917.859	6443.21
918.171	6441.17
918.482	6424.22
918.794	6388.52
919.105	6396.88
919.416	6328.41
919.727	6340.84
920.038	6322.76
920.349	6254.06
920.66	6205.25
920.971	6229.65
921.282	6166.38
921.593	6181.07
921.903	6134.06
922.214	6111.24
922.525	6114.18
922.835	6074.63
923.146	6048.64
923.456	5982.65
923.767	5965.25
924.077	5986.27
924.387	5920.51
924.697	5944.46
925.008	5917.8
925.318	5902.88
925.628	5896.55
925.938	5866.72
926.248	5807.97
926.558	5806.84
926.867	5762.77
927.177	5707.86
927.487	5722.55
927.796	5696.33
928.106	5664.24
928.416	5649.55
928.725	5634.19
929.034	5624.02
929.344	5606.39
929.653	5565.94
929.962	5518.94
930.271	5490.24
930.581	5440.97
930.89	5378.15
931.199	5421.31
931.508	5440.07
931.817	5375.66
932.125	5360.52
932.434	5309.9
932.743	5330.69
933.051	5250.24
933.36	5284.37
933.669	5268.77
933.977	5218.83
934.286	5213.41
934.594	5242.11
934.902	5181.77
935.21	5125.73
935.519	5191.71
935.827	5130.02
936.135	5072.39
936.443	5029.68
936.751	4988.33
937.059	5096.58
937.367	5000.08
937.674	5022.23
937.982	4986.97
938.29	4931.16
938.597	4963.47
938.905	4870.82
939.213	4876.92
939.52	4902.91
939.827	4835.79
940.135	4809.8
940.442	4827.66
940.749	4811.61
941.056	4770.71
941.363	4744.04
941.67	4760.76
941.977	4677.15
942.284	4659.3
942.591	4681.44
942.898	4672.63
943.205	4668.79
943.511	4628.56
943.818	4619.07
944.125	4603.25
944.431	4572.3
944.738	4526.87
945.044	4501.56
945.35	4468.79
945.657	4448.46
945.963	4420.43
946.269	4397.84
946.575	4423.37
946.881	4407.1
947.187	4391.73
947.493	4394.45
947.799	4370.94
948.105	4348.12
948.41	4240.78
948.716	4273.55
949.022	4299.53
949.327	4248.91
949.633	4211.17
949.938	4240.55
950.244	4193.1
950.549	4170.27
950.854	4168.69
951.16	4156.26
951.465	4163.72
951.77	4123.04
952.075	4066.09
952.38	4019.32
952.685	4030.16
952.99	4008.24
953.294	3979.99
953.599	4004.85
953.904	3942.93
954.209	3978.41
954.513	3910.17
954.818	3927.57
955.122	3905.65
955.426	3946.55
955.731	3867.45
956.035	3883.05
956.339	3858.64
956.643	3863.84
956.948	3761.24
957.252	3818.64
957.556	3800.79
957.86	3747.68
958.163	3724.18
958.467	3702.26
958.771	3682.6
959.075	3715.59
959.378	3689.38
959.682	3689.61
959.985	3690.96
960.289	3635.37
960.592	3614.81
960.896	3622.49
961.199	3594.92
961.502	3558.99
961.805	3578.87
962.108	3550.63
962.411	3557.63
962.714	3496.62
963.017	3511.31
963.32	3512.44
963.623	3484.19
963.926	3427.24
964.228	3451.65
964.531	3462.27
964.833	3442.38
965.136	3417.07
965.438	3406.22
965.741	3371.42
966.043	3316.96
966.345	3360.35
966.648	3336.85
966.95	3333.23
967.252	3258.21
967.554	3288.94
967.856	3257.3
968.158	3255.95
968.46	3220.24
968.761	3223.18
969.063	3200.58
969.365	3181.15
969.666	3224.99
969.968	3200.58
970.269	3182.73
970.571	3161.71
970.872	3131.65
971.174	3149.73
971.475	3088.27
971.776	3077.42
972.077	3070.41
972.378	3061.37
972.679	3066.12
972.98	3020.02
973.281	3035.39
973.582	3015.27
973.883	2968.72
974.183	2971.89
974.484	2977.31
974.785	2947.03
975.085	2955.61
975.386	2944.09
975.686	2942.73
975.986	2927.82
976.287	2895.05
976.587	2904.54
976.887	2821.61
977.187	2896.41
977.487	2872.68
977.787	2858.44
978.087	2804.43
978.387	2793.36
978.687	2836.07
978.987	2779.57
979.286	2755.39
979.586	2770.08
979.885	2758.33
980.185	2751.1
980.484	2725.79
980.784	2721.72
981.083	2683.53
981.382	2683.08
981.682	2678.11
981.981	2672.91
982.28	2679.24
982.579	2676.07
982.878	2657.09
983.177	2649.86
983.475	2569.18
983.774	2588.62
984.073	2570.31
984.372	2578
984.67	2521.95
984.969	2559.47
985.267	2545.91
985.566	2510.43
985.864	2525.34
986.162	2513.59
986.461	2492.35
986.759	2446.93
987.057	2465.23
987.355	2441.73
987.653	2413.03
987.951	2416.19
988.249	2424.78
988.547	2418
988.844	2394.5
989.142	2372.8
989.44	2381.17
989.737	2382.07
990.035	2318.12
990.332	2344.78
990.63	2327.83
990.927	2347.95
991.224	2306.82
991.521	2296.2
991.819	2309.76
992.116	2303.2
992.413	2295.97
992.71	2282.41
993.006	2242.86
993.303	2226.82
993.6	2248.29
993.897	2195.86
994.193	2216.65
994.49	2177.1
994.787	2188.4
995.083	2182.3
995.379	2175.52
995.676	2187.72
995.972	2128.74
996.268	2125.58
996.565	2114.05
996.861	2118.8
997.157	2118.57
997.453	2137.1
997.749	2117.67
998.044	2088.74
998.34	2091.68
998.636	2046.26
998.932	2027.96
999.227	2043.77
999.523	2008.07
999.818	2034.06
1000.114	2006.26
1000.409	1960.84
1000.704	1961.06
1001	1989.54
1001.295	1960.61
1001.59	1972.14
1001.885	1930.33
1002.18	1919.94
1002.475	1936.66
1002.77	1932.14
1003.065	1910.22
1003.359	1853.72
1003.654	1855.76
1003.949	1902.99
1004.243	1832.71
1004.538	1846.49
1004.832	1846.72
1005.127	1847.39
1005.421	1851.24
1005.715	1800.39
1006.009	1792.93
1006.304	1789.77
1006.598	1756.55
1006.892	1760.39
1007.186	1765.82
1007.48	1763.33
1007.773	1744.57
1008.067	1736.89
1008.361	1700.96
1008.655	1727.17
1008.948	1717.45
1009.242	1690.56
1009.535	1662.32
1009.829	1661.86
1010.122	1652.15
1010.415	1666.61
1010.708	1635.65
1011.001	1633.84
1011.295	1628.42
1011.588	1594.07
1011.881	1608.08
1012.173	1589.1
1012.466	1581.41
1012.759	1562.2
1013.052	1587.51
1013.344	1561.3
1013.637	1544.58
1013.93	1532.83
1014.222	1532.83
1014.514	1505.26
1014.807	1518.36
1015.099	1485.6
1015.391	1487.63
1015.683	1511.13
1015.976	1481.08
1016.268	1445.15
1016.56	1470
1016.851	1486.95
1017.143	1454.64
1017.435	1426.84
1017.727	1425.03
1018.018	1415.32
1018.31	1414.86
1018.602	1402.66
1018.893	1404.92
1019.185	1363.57
1019.476	1400.63
1019.767	1359.05
1020.058	1347.97
1020.35	1330.35
1020.641	1336.22
1020.932	1312.72
1021.223	1310.46
1021.514	1322.44
1021.804	1301.87
1022.095	1317.24
1022.386	1302.32
1022.677	1258.94
1022.967	1292.83
1023.258	1287.41
1023.548	1258.94
1023.839	1247.86
1024.129	1244.47
1024.419	1234.98
1024.709	1231.14
1025	1236.11
1025.29	1221.42
1025.58	1193.63
1025.87	1171.03
1026.16	1177.36
1026.449	1190.01
1026.739	1183.68
1027.029	1154.31
1027.319	1183.91
1027.608	1145.04
1027.898	1144.36
1028.187	1121.54
1028.477	1133.29
1028.766	1124.48
1029.055	1107.98
1029.344	1115.21
1029.634	1106.62
1029.923	1098.04
1030.212	1112.72
1030.501	1099.39
1030.79	1089.9
1031.078	1056.91
1031.367	1042.22
1031.656	1074.08
1031.945	1041.54
1032.233	1031.6
1032.522	1036.34
1032.81	1054.65
1033.099	1031.15
1033.387	1046.51
1033.675	1009.22
1033.963	1008.77
1034.251	997.7
1034.54	1002.67
1034.828	969.23
1035.116	983.24
1035.403	970.13
1035.691	938.94
1035.979	953.18
1036.267	979.17
1036.554	920.64
1036.842	952.96
1037.129	928.55
1037.417	913.41
1037.704	898.49
1037.992	913.18
1038.279	895.1
1038.566	909.79
1038.853	909.79
1039.14	909.79
