Data from hue_32_FLMS001491_00059.txt Node
Date: Tue Feb 07 17:23:37 GMT 2017
User: dcchb
Spectrometer: FLMS00149
Trigger mode: 0
Integration Time (sec): 2.000000E-2
Scans to average: 10
Electric dark correction enabled: true
Nonlinearity correction enabled: false
Boxcar width: 0
XAxis mode: Wavelengths
Number of Pixels in Spectrum: 2048
>>>>>Begin Spectral Data<<<<<
341.393	-22.64
341.776	-22.64
342.16	-22.64
342.543	-68.06
342.927	-54.96
343.31	-63.32
343.693	-84.33
344.077	-60.61
344.46	-44.11
344.843	-80.49
345.226	-43.43
345.61	-19.7
345.993	-23.09
346.376	1.54
346.759	12.39
347.142	27.53
347.525	34.53
347.908	60.52
348.291	77.47
348.674	93.97
349.057	111.14
349.44	121.08
349.823	160.86
350.206	149.56
350.588	194.75
350.971	220.97
351.354	237.69
351.737	228.43
352.119	257.35
352.502	255.32
352.884	291.93
353.267	283.34
353.65	312.49
354.032	309.33
354.414	305.26
354.797	325.37
355.179	329.21
355.562	316.56
355.944	335.54
356.326	339.84
356.709	343.9
357.091	327.63
357.473	354.98
357.855	337.58
358.238	334.64
358.62	345.94
359.002	337.8
359.384	331.93
359.766	350.91
360.148	343.45
360.53	321.31
360.912	332.38
361.294	323.11
361.676	329.89
362.057	352.94
362.439	352.04
362.821	323.56
363.203	316.79
363.584	333.28
363.966	344.13
364.348	314.98
364.729	329.89
365.111	319.05
365.493	314.53
365.874	310.46
366.256	314.3
366.637	320.85
367.019	299.38
367.4	330.34
367.781	308.42
368.163	326.05
368.544	323.56
368.925	321.31
369.306	312.49
369.688	335.54
370.069	303
370.45	337.12
370.831	324.69
371.212	318.82
371.593	316.56
371.974	317.24
372.355	295.54
372.736	319.27
373.117	318.14
373.498	329.89
373.879	335.99
374.26	309.78
374.641	328.08
375.021	331.47
375.402	310.91
375.783	326.28
376.163	322.21
376.544	328.31
376.925	332.38
377.305	337.12
377.686	339.61
378.066	328.08
378.447	326.73
378.827	337.58
379.208	337.8
379.588	340.97
379.968	331.25
380.349	328.54
380.729	356.56
381.109	340.51
381.489	333.73
381.87	358.59
382.25	350
382.63	338.93
383.01	340.06
383.39	344.13
383.77	339.84
384.15	359.95
384.53	355.65
384.91	343
385.29	347.07
385.67	354.98
386.049	359.04
386.429	369.21
386.809	341.87
387.189	359.27
387.568	361.53
387.948	347.97
388.328	360.85
388.707	350.68
389.087	341.64
389.466	380.51
389.846	350.68
390.225	362.43
390.605	354.52
390.984	370.12
391.363	374.86
391.743	348.2
392.122	400.17
392.501	373.06
392.881	385.03
393.26	377.12
393.639	380.06
394.018	365.15
394.397	383.22
394.776	405.14
395.155	364.92
395.534	382.77
395.913	400.17
396.292	361.53
396.671	407.18
397.05	383
397.429	409.66
397.808	388.65
398.186	394.3
398.565	400.17
398.944	385.48
399.323	387.52
399.701	411.25
400.08	392.49
400.458	413.96
400.837	414.64
401.215	396.78
401.594	405.6
401.972	421.19
402.351	395.2
402.729	409.44
403.107	410.34
403.486	423.45
403.864	407.4
404.242	397.91
404.62	418.93
404.999	415.54
405.377	417.8
405.755	431.13
406.133	430
406.511	447.63
406.889	420.96
407.267	441.75
407.645	435.43
408.023	425.26
408.401	426.61
408.779	438.36
409.156	454.18
409.534	443.79
409.912	467.74
410.29	458.25
410.667	474.97
411.045	474.52
411.422	455.76
411.8	484.46
412.178	473.17
412.555	486.72
412.933	489.66
413.31	483.79
413.687	467.06
414.065	501.41
414.442	483.33
414.819	479.27
415.197	487.63
415.574	507.74
415.951	506.38
416.328	518.36
416.705	488.98
417.082	492.15
417.46	510.45
417.837	504.13
418.214	525.82
418.591	521.3
418.967	543.45
419.344	524.01
419.721	528.31
420.098	521.3
420.475	534.86
420.852	544.58
421.228	544.12
421.605	536.44
421.982	534.63
422.358	554.29
422.735	551.13
423.111	545.71
423.488	541.86
423.864	543.9
424.241	575.08
424.617	564.24
424.994	563.11
425.37	568.08
425.746	562.2
426.123	565.37
426.499	563.56
426.875	575.54
427.251	579.15
427.627	601.3
428.003	591.13
428.379	586.83
428.756	599.04
429.132	606.72
429.507	594.29
429.883	619.6
430.259	619.83
430.635	611.92
431.011	621.86
431.387	638.58
431.763	643.1
432.138	657.34
432.514	641.97
432.89	648.53
433.265	669.77
433.641	688.3
434.016	684.23
434.392	702.99
434.767	705.7
435.143	686.49
435.518	695.08
435.894	714.06
436.269	716.32
436.644	721.07
437.02	710.22
437.395	703.67
437.77	721.29
438.145	751.58
438.52	737.79
438.895	718.81
439.271	743.21
439.646	766.04
440.021	769.43
440.395	730.33
440.77	763.78
441.145	787.51
441.52	774.63
441.895	782.76
442.27	798.35
442.645	773.72
443.019	806.72
443.394	815.98
443.769	800.84
444.143	813.04
444.518	795.64
444.892	806.26
445.267	825.7
445.641	827.28
446.016	844.23
446.39	819.37
446.764	848.75
447.139	842.42
447.513	865.47
447.887	833.38
448.262	867.05
448.636	869.54
449.01	868.86
449.384	862.53
449.758	879.71
450.132	898.24
450.506	881.52
450.88	897.79
451.254	885.13
451.628	904.11
452.002	908.18
452.376	913.15
452.75	927.16
453.123	921.74
453.497	932.14
453.871	930.33
454.244	930.33
454.618	960.61
454.992	996.09
455.365	989.54
455.739	967.39
456.112	985.02
456.486	1019.59
456.859	1021.17
457.232	1029.54
457.606	1037.44
457.979	1030.44
458.352	1043.77
458.725	1079.03
459.099	1084
459.472	1076.77
459.845	1107.05
460.218	1118.35
460.591	1120.61
460.964	1108.86
461.337	1140.49
461.71	1166.25
462.083	1161.28
462.456	1177.1
462.829	1187.05
463.201	1213.49
463.574	1206.03
463.947	1239.02
464.32	1228.4
464.692	1268.17
465.065	1280.6
465.438	1283.54
465.81	1327.83
466.183	1310.66
466.555	1316.99
466.928	1370.54
467.3	1345.46
467.672	1380.03
468.045	1415.74
468.417	1422.52
468.789	1410.32
469.161	1425.68
469.534	1486.7
469.906	1522.4
470.278	1506.13
470.65	1531.89
471.022	1557.2
471.394	1577.32
471.766	1603.31
472.138	1640.82
472.51	1637.2
472.882	1707.94
473.253	1713.13
473.625	1713.58
473.997	1787.71
474.369	1790.19
474.74	1800.36
475.112	1844.43
475.484	1893.47
475.855	1964.65
476.227	1949.51
476.598	2030.19
476.97	2031.32
477.341	2083.29
477.713	2137.98
478.084	2166.91
478.455	2207.58
478.827	2280.8
479.198	2352.66
479.569	2364.64
479.94	2444.41
480.311	2497.29
480.682	2536.84
481.053	2607.8
481.424	2663.62
481.795	2712.43
482.166	2766.44
482.537	2822.48
482.908	2907.23
483.279	2987.45
483.65	2999.2
484.021	3102.7
484.391	3176.82
484.762	3226.54
485.133	3254.11
485.503	3343.37
485.874	3436.7
486.244	3491.62
486.615	3586.08
486.985	3665.17
487.356	3776.81
487.726	3786.07
488.097	3914.2
488.467	3960.76
488.837	4042.56
489.207	4131.37
489.578	4244.14
489.948	4312.16
490.318	4399.16
490.688	4466.73
491.058	4537.01
491.428	4640.06
491.798	4694.75
492.168	4826.95
492.538	4885.03
492.908	4968.64
493.278	5037.79
493.648	5089.99
494.017	5166.6
494.387	5281.17
494.757	5321.63
495.126	5401.85
495.496	5448.18
495.866	5540.15
496.235	5609.53
496.605	5705.34
496.974	5757.09
497.344	5848.39
497.713	5893.81
498.082	5999.35
498.452	5990.31
498.821	6095.16
499.19	6169.29
499.559	6249.06
499.928	6296.29
500.298	6337.42
500.667	6417.64
501.036	6480.47
501.405	6602.27
501.774	6598.65
502.143	6682.49
502.512	6705.32
502.88	6754.58
503.249	6820.57
503.618	6900.57
503.987	6920
504.356	7058.76
504.724	7060.34
505.093	7026.44
505.462	7142.37
505.83	7214.46
506.199	7305.75
506.567	7379.42
506.936	7428.46
507.304	7462.59
507.672	7519.76
508.041	7617.61
508.409	7613.99
508.777	7726.08
509.145	7786.42
509.514	7786.65
509.882	7858.73
510.25	7868.45
510.618	7946.19
510.986	7987.77
511.354	8053.08
511.722	8133.3
512.09	8223.7
512.458	8201.55
512.826	8275.45
513.193	8282.68
513.561	8337.59
513.929	8366.07
514.297	8441.09
514.664	8553.86
515.032	8542.56
515.4	8541.43
515.767	8661.88
516.135	8678.15
516.502	8657.58
516.869	8858.03
517.237	8795.21
517.604	8746.17
517.972	9012.15
518.339	8971.93
518.706	8932.83
519.073	8939.84
519.44	9055.09
519.808	9199.04
520.175	9169.66
520.542	9203.33
520.909	9225.03
521.276	9299.15
521.643	9379.37
522.009	9383.21
522.376	9515.64
522.743	9563.1
523.11	9677.9
523.477	9735.52
523.843	9750.44
524.21	9875.18
524.577	9939.81
524.943	9935.74
525.31	10018
525.676	10061.39
526.043	10112.01
526.409	10178.9
526.776	10246.69
527.142	10305.9
527.508	10330.76
527.874	10353.81
528.241	10427.71
528.607	10507.48
528.973	10537.08
529.339	10615.72
529.705	10678.09
530.071	10705.89
530.437	10841.48
530.803	10900.91
531.169	10910.18
531.535	10936.62
531.901	10952.44
532.267	11004.87
532.632	11123.51
532.998	11163.28
533.364	11236.5
533.73	11192.66
534.095	11260.9
534.461	11346.33
534.826	11392.43
535.192	11415.48
535.557	11548.81
535.923	11575.02
536.288	11523.27
536.653	11647.33
537.019	11633.1
537.384	11736.82
537.749	11769.59
538.114	11774.11
538.479	11878.06
538.845	11880.1
539.21	11906.31
539.575	11955.8
539.94	11978.63
540.305	12069.7
540.67	12128.45
541.034	12153.76
541.399	12254.55
541.764	12285.96
542.129	12358.28
542.494	12380.88
542.858	12325.74
543.223	12421.55
543.587	12455.9
543.952	12535.45
544.316	12616.12
544.681	12548.1
545.045	12640.08
545.41	12753.07
545.774	12749.9
546.138	12772.73
546.503	12906.28
546.867	12899.96
547.231	12969.11
547.595	13004.59
547.959	13117.13
548.324	13161.19
548.688	13110.35
549.052	13245.26
549.416	13284.81
549.779	13252.94
550.143	13275.54
550.507	13437.34
550.871	13472.82
551.235	13370.68
551.599	13555.08
551.962	13609.32
552.326	13578.81
552.689	13670.33
553.053	13593.27
553.417	13656.32
553.78	13834.17
554.143	13785.36
554.507	13867.84
554.87	13915.75
555.234	14024.45
555.597	13976.54
555.96	13924.11
556.323	14053.6
556.686	14096.54
557.05	14114.84
557.413	14205.23
557.776	14175.4
558.139	14385.79
558.502	14436.64
558.865	14456.98
559.228	14576.75
559.59	14488.16
559.953	14593.25
560.316	14752.11
560.679	14703.07
561.041	14801.83
561.404	14828.49
561.767	14890.87
562.129	14910.98
562.492	15076.4
562.854	15054.93
563.217	15078.21
563.579	15121.37
563.941	15135.38
564.304	15266.9
564.666	15375.82
565.028	15378.76
565.39	15410.63
565.753	15385.77
566.115	15495.14
566.477	15631.86
566.839	15591.64
567.201	15733.33
567.563	15726.32
567.925	15778.98
568.287	15859.2
568.648	15927.22
569.01	15979.2
569.372	16040.44
569.734	16148.69
570.095	16231.85
570.457	16286.99
570.819	16332.41
571.18	16283.6
571.542	16416.25
571.903	16490.15
572.265	16564.49
572.626	16717.03
572.987	16742.57
573.349	16801.55
573.71	16837.71
574.071	16795.45
574.432	17012.84
574.794	17201.31
575.155	17221.88
575.516	17286.96
575.877	17390.69
576.238	17537.58
576.599	17604.92
576.96	17639.04
577.32	17655.31
577.681	17925.59
578.042	18028.18
578.403	18102.08
578.763	18230.89
579.124	18366.03
579.485	18516.76
579.845	18674.49
580.206	18745.23
580.566	18886.69
580.927	19140.25
581.287	19263.18
581.648	19319.45
582.008	19550.4
582.368	19801.02
582.728	19890.51
583.089	20001.69
583.449	20135.47
583.809	20375.69
584.169	20633.09
584.529	20732.97
584.889	21138.38
585.249	21277.14
585.609	21463.8
585.969	21742.44
586.329	21780.18
586.688	22059.94
587.048	22232.14
587.408	22418.8
587.768	22729.76
588.127	22957.32
588.487	23175.85
588.846	23420.36
589.206	23729.28
589.565	23882.72
589.925	24328.81
590.284	24386.89
590.643	24746.88
591.003	24990.49
591.362	25420.08
591.721	25472.73
592.08	25696.68
592.44	25988.65
592.799	26336.89
593.158	26481.3
593.517	26763.32
593.876	27084.44
594.235	27220.26
594.593	27528.95
594.952	27771.43
595.311	28011.2
595.67	28340.68
596.029	28775.7
596.387	29002.36
596.746	29348.56
597.104	29304.72
597.463	29557.37
597.822	29956.01
598.18	30137.7
598.538	30231.25
598.897	30795.31
599.255	30719.83
599.613	31348.51
599.972	31366.36
600.33	31711.89
600.688	31838.89
601.046	32144.88
601.404	32506.45
601.762	32595.94
602.12	33060.11
602.478	32997.73
602.836	33413.54
603.194	33303.71
603.552	33590.71
603.91	33752.06
604.268	34025.05
604.625	34197.7
604.983	34684.7
605.341	34574.64
605.698	35049.66
606.056	35260.27
606.413	35291.01
606.771	35495.75
607.128	35793.14
607.485	35910.65
607.843	36071.78
608.2	36318.32
608.557	36546.12
608.914	36555.83
609.272	36820.01
609.629	37033.79
609.986	37276.94
610.343	37341.57
610.7	37678.29
611.057	37685.07
611.414	37884.39
611.771	38044.83
612.127	38214.77
612.484	38331.83
612.841	38697.7
613.198	38491.83
613.554	38788.32
613.911	39050.68
614.267	39105.14
614.624	39244.35
614.98	39404.35
615.337	39609.99
615.693	39607.96
616.05	39793.49
616.406	40102.63
616.762	40099.02
617.118	40127.04
617.475	40115.74
617.831	40466.24
618.187	40505.33
618.543	40666.68
618.899	41032.33
619.255	40936.96
619.611	41004.3
619.967	41257.4
620.323	41328.36
620.678	41276.16
621.034	41456.27
621.39	41534.01
621.746	41451.75
622.101	41879.31
622.457	41585.98
622.812	41771.97
623.168	41868.01
623.523	41946.43
623.879	42213.31
624.234	42004.95
624.589	42252.41
624.945	42153.2
625.3	42441.1
625.655	42292.18
626.01	42325.85
626.365	42428.45
626.72	42418.28
627.075	42587.09
627.43	42442.01
627.785	42500.76
628.14	42613.3
628.495	42759.51
628.85	42689.23
629.205	42566.3
629.559	42898.26
629.914	42737.14
630.269	42838.38
630.623	42678.16
630.978	42700.98
631.332	42854.42
631.687	43016.23
632.041	42782.34
632.396	42964.48
632.75	42847.42
633.104	42967.64
633.459	42847.87
633.813	42812.62
634.167	42946.4
634.521	42851.49
634.875	42874.99
635.229	42976.68
635.583	42669.57
635.937	42674.32
636.291	42852.16
636.645	42959.05
636.999	42863.24
637.352	42772.84
637.706	42715.9
638.06	42864.14
638.413	42648.55
638.767	42740.75
639.121	42921.31
639.474	42555
639.828	42678.84
640.181	42678.16
640.534	42685.84
640.888	42528.78
641.241	42400.88
641.594	42454.66
641.947	42602
642.301	42532.85
642.654	42576.69
643.007	42544.15
643.36	42538.5
643.713	42346.64
644.066	42540.31
644.419	42394.78
644.771	42216.02
645.124	41945.07
645.477	41831.4
645.83	41463.5
646.182	41444.97
646.535	41394.35
646.888	41447
647.24	41169.72
647.593	41401.13
647.945	41423.73
648.298	41231.42
648.65	41168.37
649.002	41036.17
649.355	41331.3
649.707	40993.91
650.059	41391.64
650.411	41879.76
650.763	41832.3
651.115	42320.2
651.467	42077.27
651.819	42128.57
652.171	41953.43
652.523	42059.64
652.875	41779.42
653.227	41785.53
653.578	42085.86
653.93	41799.08
654.282	41848.57
654.633	41715.92
654.985	41902.81
655.337	41903.71
655.688	41974.45
656.039	41836.6
656.391	41676.83
656.742	41845.19
657.094	41971.51
657.445	42049.25
657.796	41847.9
658.147	41691.06
658.498	41785.75
658.849	41801.8
659.2	41736.04
659.551	41679.77
659.902	41784.17
660.253	41679.54
660.604	41793.21
660.955	41672.08
661.306	41797.05
661.656	41620.11
662.007	41738.07
662.358	41707.79
662.708	41584.4
663.059	41572.42
663.409	41418.3
663.76	41634.57
664.11	41524.52
664.461	41737.39
664.811	41718.18
665.161	41619.88
665.511	41475.7
665.862	41441.13
666.212	41624.4
666.562	41468.92
666.912	41455.59
667.262	41501.69
667.612	41350.06
667.962	41482.93
668.312	41384.41
668.662	41581.46
669.011	41424.63
669.361	41388.02
669.711	41391.64
670.06	41425.76
670.41	41332.88
670.76	41320.45
671.109	41305.99
671.459	41290.4
671.808	41342.37
672.157	41371.3
672.507	41129.95
672.856	41313.45
673.205	41286.33
673.554	41281.81
673.904	41177.86
674.253	41469.83
674.602	41186.9
674.951	40677.31
675.3	40608.38
675.649	40979.67
675.998	41127.92
676.346	41168.82
676.695	41361.36
677.044	40933.8
677.393	41127.24
677.741	41014.92
678.09	41007.47
678.438	41064.19
678.787	40981.7
679.135	40855.61
679.484	40697.64
679.832	40813.8
680.181	40628.27
680.529	40743.07
680.877	40694.71
681.225	40686.12
681.573	40758.43
681.922	40631.43
682.27	40333.13
682.618	40398.9
682.966	40382.85
683.314	40437.76
683.661	40352.12
684.009	40097.66
684.357	40265.11
684.705	40211.78
685.053	40182.18
685.4	40087.94
685.748	39772.7
686.095	39966.36
686.443	39738.12
686.79	39686.37
687.138	39648.86
687.485	39700.16
687.832	39529.99
688.18	39493.61
688.527	39351.24
688.874	39501.52
689.221	39324.8
689.568	39199.15
689.915	39212.71
690.262	39108.99
690.609	38899.05
690.956	38843.23
691.303	38784.47
691.65	38630.58
691.997	38616.57
692.344	38611.37
692.69	38432.17
693.037	38605.27
693.383	38085.28
693.73	38330.25
694.077	38102.23
694.423	38078.28
694.769	38031.05
695.116	37869.92
695.462	37930.49
695.808	37742.24
696.155	37778.63
696.501	37554
696.847	37466.54
697.193	37294.8
697.539	37376.83
697.885	36972.54
698.231	37107.91
698.577	36880.8
698.923	37105.2
699.269	36707.02
699.614	36681.93
699.96	36619.33
700.306	36676.73
700.651	36608.94
700.997	36391.54
701.342	36322.62
701.688	36231.1
702.033	35976.86
702.379	36057.99
702.724	35920.14
703.069	36121.27
703.415	35615.97
703.76	35626.82
704.105	35598.34
704.45	35627.27
704.795	35290.78
705.14	35236.32
705.485	35326.26
705.83	35109.54
706.175	35259.6
706.52	35077
706.865	35045.59
707.209	34891.92
707.554	34757.24
707.899	34810.12
708.243	34666.16
708.588	34688.09
708.932	34529.22
709.277	34294.88
709.621	34389.11
709.966	34215.56
710.31	34415.1
710.654	34066.41
710.998	34074.77
711.342	34053.07
711.687	33982.57
712.031	33852.85
712.375	33786.64
712.719	33753.42
713.063	33602.01
713.407	33797.26
713.75	33615.8
714.094	33419.64
714.438	33424.16
714.782	33536.7
715.125	33209.48
715.469	33295.13
715.812	33184.62
716.156	33044.74
716.499	33024.17
716.843	32907.11
717.186	32724.07
717.53	33013.1
717.873	32964.74
718.216	32895.59
718.559	32881.35
718.902	32447.69
719.246	32593.9
719.589	32425.09
719.932	32423.06
720.275	32336.96
720.617	32339.67
720.96	32182.16
721.303	32205.21
721.646	32250.86
721.989	32113.92
722.331	32070.75
722.674	32152.11
723.016	32094.93
723.359	31927.93
723.701	32024.88
724.044	31755.05
724.386	31625.11
724.729	31781.27
725.071	31706.69
725.413	31615.85
725.755	31587.83
726.097	31504.67
726.439	31344.44
726.782	31313.03
727.124	31567.04
727.465	31373.6
727.807	31294.05
728.149	31294.28
728.491	31265.35
728.833	31297.67
729.175	31121.85
729.516	31083.66
729.858	31112.36
730.199	31043.66
730.541	30933.16
730.882	30838.69
731.224	30958.24
731.565	30782.65
731.906	30775.42
732.248	30780.84
732.589	30704.46
732.93	30472.38
733.271	30605.03
733.612	30538.14
733.953	30578.14
734.294	30501.08
734.635	30405.71
734.976	30483.22
735.317	30294.53
735.658	30238.71
735.999	30333.17
736.339	30166.17
736.68	30212.5
737.021	30084.36
737.361	29944.26
737.702	30051.82
738.042	30073.52
738.383	29979.28
738.723	30034.2
739.063	29913.52
739.404	29906.74
739.744	29846.86
740.084	29777.48
740.424	29745.16
740.764	29649.57
741.104	29834.88
741.444	29595.79
741.784	29545.62
742.124	29655
742.464	29494.55
742.804	29464.72
743.143	29410.26
743.483	29437.15
743.823	29320.99
744.162	29329.13
744.502	29206.42
744.841	29259.53
745.181	29192.41
745.52	29125.29
745.86	29282.35
746.199	29103.6
746.538	29081.45
746.877	29216.36
747.216	29039.65
747.556	28933.66
747.895	28904.96
748.234	28856.15
748.573	28828.35
748.911	28738.19
749.25	28726.66
749.589	28673.33
749.928	28619.09
750.267	28646.21
750.605	28521.24
750.944	28467.23
751.283	28365.54
751.621	28550.17
751.96	28231.08
752.298	28198.31
752.636	28380.23
752.975	28126.68
753.313	28118.09
753.651	28128.94
753.989	28064.53
754.327	27998.09
754.666	27979.79
755.004	27981.37
755.342	27999.9
755.679	27851.65
756.017	27641.49
756.355	27813.24
756.693	27522.85
757.031	27663.64
757.368	27595.62
757.706	27555.17
758.044	27446.47
758.381	27505.45
758.719	27316.53
759.056	27288.05
759.394	27258
759.731	27049.42
760.068	27102.3
760.405	27018.68
760.743	26895.07
761.08	27025.46
761.417	26841.74
761.754	26758.58
762.091	26768.75
762.428	26590.22
762.765	26472.26
763.102	26429.55
763.438	26414.86
763.775	26280.62
764.112	26326.5
764.449	26177.57
764.785	26186.39
765.122	25995.21
765.458	25780.97
765.795	25796.79
766.131	25707.98
766.467	25630.47
766.804	25423.47
767.14	25576.01
767.476	25458.5
767.812	25291.04
768.148	25315
768.485	25236.58
768.821	25094.44
769.157	24998.4
769.492	24842.92
769.828	24889.25
770.164	24785.29
770.5	24861.22
770.836	24723.15
771.171	24527.45
771.507	24526.09
771.842	24291.97
772.178	24236.16
772.513	24304.18
772.849	24199.55
773.184	24033.45
773.519	24038.65
773.855	23896.5
774.19	23802.5
774.525	23854.92
774.86	23751.65
775.195	23590.07
775.53	23642.27
775.865	23446.35
776.2	23359.12
776.535	23134.72
776.87	23143.08
777.205	23073.93
777.539	22963.42
777.874	22986.92
778.209	22793.48
778.543	22750.55
778.878	22622.64
779.212	22587.61
779.547	22443.66
779.881	22586.26
780.215	22351.91
780.55	22405.7
780.884	22200.96
781.218	22237.11
781.552	22174.97
781.886	22003.9
782.22	21843.45
782.554	21772.72
782.888	21607.07
783.222	21605.27
783.556	21547.64
783.889	21495.21
784.223	21315.33
784.557	21231.72
784.89	21317.14
785.224	21160.08
785.557	20930.93
785.891	20985.39
786.224	20835.79
786.558	20746.53
786.891	20641.9
787.224	20622.24
787.557	20607.33
787.891	20532.98
788.224	20478.97
788.557	20463.83
788.89	20400.33
789.223	20383.83
789.556	20068.81
789.888	20108.13
790.221	20012.31
790.554	19912.88
790.887	19931.86
791.219	19880.11
791.552	19821.81
791.884	19706.33
792.217	19764.18
792.549	19598.54
792.882	19400.58
793.214	19406.68
793.546	19393.35
793.879	19276.51
794.211	19160.36
794.543	19196.74
794.875	19136.86
795.207	19203.29
795.539	18943.41
795.871	18947.71
796.203	18846.47
796.535	18783.64
796.867	18756.3
797.198	18661.16
797.53	18707.94
797.862	18511.79
798.193	18612.58
798.525	18466.36
798.856	18598.79
799.188	18252.36
799.519	18295.97
799.85	18126.26
800.182	18170.33
800.513	18146.15
800.844	17934.18
801.175	18132.81
801.506	18049.43
801.837	17923.78
802.168	17880.84
802.499	17939.15
802.83	17774.86
803.161	17721.07
803.491	17666.84
803.822	17747.29
804.153	17542.1
804.483	17412.61
804.814	17472.94
805.145	17456.45
805.475	17379.84
805.805	17215.78
806.136	17321.54
806.466	17267.53
806.796	17260.75
807.126	17066.18
807.457	17000.64
807.787	17030.92
808.117	16857.59
808.447	16853.53
808.777	16902.79
809.107	16798.39
809.436	16766.07
809.766	16689.01
810.096	16643.14
810.426	16693.76
810.755	16514.33
811.085	16441.33
811.414	16585.96
811.744	16307.33
812.073	16333.77
812.403	16277.04
812.732	16278.4
813.061	16263.71
813.39	16166.31
813.719	16192.07
814.049	16269.36
814.378	16063.49
814.707	15959.76
815.036	16019.42
815.365	15875.7
815.693	15830.05
816.022	15844.06
816.351	15771.52
816.68	15587.34
817.008	15726.78
817.337	15572.88
817.665	15567.23
817.994	15608.13
818.322	15564.75
818.651	15514.58
818.979	15546.89
819.307	15522.49
819.636	15452.21
819.964	15411.3
820.292	15419.44
820.62	15461.02
820.948	15289.27
821.276	15353.23
821.604	15306.22
821.932	15338.54
822.259	15385.09
822.587	15348.71
822.915	15268.48
823.243	15329.95
823.57	15198.2
823.898	15232.33
824.225	15198.65
824.553	15282.72
824.88	15239.33
825.207	15226.68
825.535	15209.73
825.862	15286.34
826.189	15281.36
826.516	15320.68
826.843	15193.46
827.17	15257.18
827.497	15232.33
827.824	15270.97
828.151	15308.26
828.478	15285.88
828.805	15348.71
829.131	15213.34
829.458	15269.16
829.785	15131.99
830.111	15160.01
830.438	15318.65
830.764	15226
831.09	15230.97
831.417	15148.94
831.743	15178.99
832.069	15218.54
832.395	15162.27
832.722	15201.82
833.048	15153.68
833.374	15165.43
833.7	15063.97
834.026	15094.7
834.351	15063.06
834.677	15016.06
835.003	15128.15
835.329	15036.17
835.654	15011.54
835.98	14944.88
836.306	14981.48
836.631	14957.53
836.956	14947.81
837.282	14927.7
837.607	14854.71
837.932	14793.47
838.258	14787.59
838.583	14811.32
838.908	14764.09
839.233	14740.81
839.558	14728.61
839.883	14626.92
840.208	14638.67
840.533	14540.82
840.858	14555.28
841.182	14579.46
841.507	14493.59
841.832	14559.35
842.156	14522.74
842.481	14439.8
842.805	14414.27
843.13	14347.6
843.454	14385.34
843.778	14374.27
844.103	14284.78
844.427	14296.76
844.751	14268.06
845.075	14141.51
845.399	14176.08
845.723	14087.5
846.047	13991.23
846.371	13958.01
846.695	13980.38
847.019	13865.81
847.343	13795.08
847.666	13714.85
847.99	13674.17
848.313	13678.02
848.637	13509.66
848.96	13551.01
849.284	13495.2
849.607	13384.69
849.931	13391.47
850.254	13312.15
850.577	13241.64
850.9	13156.67
851.223	13149.22
851.546	13050.24
851.869	12977.92
852.192	13079.16
852.515	12916.91
852.838	12890.92
853.161	12876
853.483	12791.49
853.806	12796.23
854.129	12697.48
854.451	12738.61
854.774	12662.68
855.096	12562.57
855.419	12577.03
855.741	12577.93
856.063	12450.25
856.385	12424.94
856.708	12365.28
857.03	12385.85
857.352	12416.58
857.674	12339.97
857.996	12231.95
858.318	12193.08
858.64	12193.54
858.961	12096.36
859.283	12116.02
859.605	12033.77
859.926	12050.26
860.248	11989.7
860.57	11883.94
860.891	11930.49
861.212	11910.38
861.534	11924.84
861.855	11777.73
862.176	11841.91
862.498	11765.52
862.819	11834.67
863.14	11793.55
863.461	11767.78
863.782	11686.43
864.103	11774.56
864.424	11666.09
864.745	11705.19
865.065	11643.49
865.386	11567.56
865.707	11606.21
866.027	11606.21
866.348	11521.01
866.668	11483.05
866.989	11499.54
867.309	11507.9
867.63	11468.13
867.95	11426.78
868.27	11386.78
868.59	11365.08
868.91	11421.8
869.23	11416.15
869.55	11246.22
869.87	11384.74
870.19	11355.37
870.51	11307.91
870.83	11355.82
871.15	11215.26
871.469	11208.48
871.789	11285.08
872.109	11249.61
872.428	11151.53
872.748	11152.43
873.067	11088.48
873.386	11172.32
873.706	11124.18
874.025	11015.94
874.344	11063.85
874.663	11091.87
874.982	11040.8
875.301	11076.95
875.62	11007.35
875.939	10974.81
876.258	10997.86
876.577	10938.2
876.896	10973.45
877.214	10885.55
877.533	10877.86
877.852	10864.53
878.17	10825.66
878.489	10837.86
878.807	10814.14
879.125	10776.4
879.444	10723.97
879.762	10760.8
880.08	10731.88
880.398	10683.29
880.716	10716.06
881.034	10627.93
881.352	10588.83
881.67	10599
881.988	10599.23
882.306	10538.21
882.624	10547.25
882.941	10468.61
883.259	10450.98
883.577	10436.97
883.894	10468.16
884.212	10447.59
884.529	10381.15
884.846	10364.2
885.164	10326.01
885.481	10337.76
885.798	10318.78
886.115	10204.66
886.432	10235.85
886.75	10180.25
887.067	10238.78
887.383	10216.41
887.7	10224.55
888.017	10117.88
888.334	10192.01
888.651	10152.23
888.967	10113.14
889.284	10065.91
889.6	9956.76
889.917	9944.33
890.233	10005.34
890.55	9888.74
890.866	9963.76
891.182	9857.33
891.498	9804.45
891.815	9853.48
892.131	9809.19
892.447	9749.53
892.763	9716.31
893.079	9730.78
893.395	9686.03
893.71	9615.98
894.026	9658.01
894.342	9617.56
894.657	9559.25
894.973	9493.49
895.289	9486.04
895.604	9522.65
895.92	9410.78
896.235	9375.3
896.55	9419.37
896.865	9324.91
897.181	9281.3
897.496	9330.79
897.811	9270
898.126	9277.45
898.441	9210.11
898.756	9149.77
899.071	9070
899.386	9125.14
899.7	9022.09
900.015	9009.89
900.33	9032.49
900.644	8938.25
900.959	8907.97
901.273	8919.05
901.588	8866.62
901.902	8834.3
902.216	8732.61
902.531	8738.94
902.845	8693.29
903.159	8653.97
903.473	8684.48
903.787	8601.54
904.101	8573.07
904.415	8619.62
904.729	8576
905.042	8485.16
905.356	8460.53
905.67	8411.26
905.984	8427.53
906.297	8396.35
906.611	8288.1
906.924	8351.15
907.237	8262.11
907.551	8252.4
907.864	8192.74
908.177	8245.84
908.491	8210.36
908.804	8213.75
909.117	8105.96
909.43	8034.55
909.743	8046.07
910.056	8013.98
910.368	7999.3
910.681	7926.75
910.994	7952.97
911.307	7872.29
911.619	7858.28
911.932	7842.46
912.244	7722.01
912.557	7719.98
912.869	7699.64
913.181	7693.99
913.494	7727.66
913.806	7639.76
914.118	7635.69
914.43	7597.27
914.742	7536.03
915.054	7515.47
915.366	7472.53
915.678	7436.15
915.99	7386.43
916.302	7354.57
916.613	7289.48
916.925	7315.92
917.236	7272.31
917.548	7228.02
917.859	7262.82
918.171	7176.94
918.482	7155.48
918.794	7153.22
919.105	7138.75
919.416	7069.83
919.727	7006.1
920.038	7020.56
920.349	6992.99
920.66	6921.36
920.971	6883.17
921.282	6919.55
921.593	6828.25
921.903	6814.92
922.214	6747.12
922.525	6785.99
922.835	6769.05
923.146	6703.74
923.456	6691.31
923.767	6623.29
924.077	6666.67
924.387	6643.62
924.697	6609.05
925.008	6574.02
925.318	6490.63
925.628	6465.78
925.938	6468.04
926.248	6455.83
926.558	6417.87
926.867	6353.69
927.177	6409.96
927.487	6343.75
927.796	6230.08
928.106	6300.81
928.416	6263.52
928.725	6223.75
929.034	6191.89
929.344	6209.51
929.653	6162.96
929.962	6136.97
930.271	6088.39
930.581	6011.55
930.89	6048.39
931.199	6002.06
931.508	5997.99
931.817	6015.39
932.125	5954.6
932.434	5914.6
932.743	5887.26
933.051	5876.64
933.36	5843.19
933.669	5807.94
933.977	5756.64
934.286	5759.13
934.594	5739.47
934.902	5669.87
935.21	5631.45
935.519	5652.01
935.827	5620.37
936.135	5596.19
936.443	5533.37
936.751	5494.5
937.059	5525.46
937.367	5535.41
937.674	5501.51
937.982	5498.34
938.29	5449.98
938.597	5419.25
938.905	5364.56
939.213	5368.86
939.52	5354.39
939.827	5329.08
940.135	5285.47
940.442	5251.34
940.749	5301.97
941.056	5284.56
941.363	5182.19
941.67	5226.26
941.977	5151.01
942.284	5107.17
942.591	5125.7
942.898	5120.05
943.205	5057
943.511	5033.5
943.818	5069.65
944.125	5012.26
944.431	4937.68
944.738	4993.5
945.044	4967.74
945.35	4954.18
945.657	4885.03
945.963	4850.45
946.269	4866.27
946.575	4865.37
946.881	4825.59
947.187	4796.44
947.493	4752.6
947.799	4766.61
948.105	4702.43
948.41	4666.05
948.716	4727.52
949.022	4700.17
949.327	4694.98
949.633	4645.26
949.938	4621.53
950.244	4603
950.549	4555.77
950.854	4518.93
951.16	4569.55
951.465	4507.86
951.77	4483.46
952.075	4483.46
952.38	4489.11
952.685	4471.7
952.99	4401.2
953.294	4365.49
953.599	4428.54
953.904	4318.04
954.209	4367.75
954.513	4306.29
954.818	4305.16
955.122	4255.21
955.426	4275.1
955.731	4240.52
956.035	4204.37
956.339	4227.87
956.643	4176.34
956.948	4166.63
957.252	4171.37
957.556	4179.51
957.86	4116.23
958.163	4129.34
958.467	4096.12
958.771	4097.93
959.075	4061.32
959.378	4036.69
959.682	3998.27
959.985	3983.13
960.289	3957.82
960.592	3933.64
960.896	3947.2
961.199	3938.39
961.502	3920.31
961.805	3907.88
962.108	3895.22
962.411	3862.23
962.714	3819.52
963.017	3839.4
963.32	3853.19
963.623	3811.83
963.926	3788.56
964.228	3748.79
964.531	3753.53
964.833	3719.86
965.136	3710.59
965.438	3712.4
965.741	3677.6
966.043	3648.68
966.345	3653.65
966.648	3657.49
966.95	3639.64
967.252	3628.11
967.554	3566.42
967.856	3586.53
968.158	3566.87
968.46	3541.79
968.761	3487.78
969.063	3521.22
969.365	3514.89
969.666	3498.17
969.968	3465.86
970.269	3424.27
970.571	3416.36
970.872	3407.55
971.174	3382.24
971.475	3376.82
971.776	3346.31
972.077	3347.44
972.378	3339.08
972.679	3284.62
972.98	3303.6
973.281	3307.44
973.582	3286.88
973.883	3285.75
974.183	3270.38
974.484	3236.03
974.785	3224.28
975.085	3245.97
975.386	3254.11
975.686	3220.89
975.986	3144.28
976.287	3165.3
976.587	3134.34
976.887	3125.75
977.187	3155.81
977.487	3115.13
977.787	3091.18
978.087	3074.68
978.387	3084.17
978.687	3064.51
978.987	3001.01
979.286	3034.45
979.586	3018.86
979.885	2961.46
980.185	3005.3
980.484	2935.02
980.784	2922.14
981.083	2933.21
981.382	2916.72
981.682	2887.34
981.981	2918.52
982.28	2948.13
982.579	2850.73
982.878	2851.41
983.177	2863.16
983.475	2836.27
983.774	2816.38
984.073	2819.77
984.372	2787.68
984.67	2794.91
984.969	2792.65
985.267	2783.84
985.566	2794.23
985.864	2723.73
986.162	2784.29
986.461	2700
986.759	2662.03
987.057	2695.48
987.355	2644.63
987.653	2655.71
987.951	2666.1
988.249	2632.88
988.547	2626.78
988.844	2617.74
989.142	2587.69
989.44	2572.55
989.737	2617.97
990.035	2547.01
990.332	2576.16
990.63	2545.2
990.927	2548.14
991.224	2540.46
991.521	2521.25
991.819	2488.48
992.116	2499.33
992.413	2474.47
992.71	2464.75
993.006	2456.84
993.303	2450.51
993.6	2407.58
993.897	2394.92
994.193	2414.13
994.49	2377.52
994.787	2398.76
995.083	2376.17
995.379	2367.58
995.676	2360.8
995.972	2345.88
996.268	2324.87
996.565	2305.66
996.861	2315.15
997.157	2305.66
997.453	2262.95
997.749	2274.02
998.044	2252.33
998.34	2193.12
998.636	2236.51
998.932	2225.89
999.227	2220.01
999.523	2224.76
999.818	2169.62
1000.114	2167.58
1000.409	2175.95
1000.704	2134.14
1001	2158.09
1001.295	2130.52
1001.59	2124.87
1001.885	2137.53
1002.18	2084.2
1002.475	2060.24
1002.77	2063.63
1003.065	2062.05
1003.359	2071.99
1003.654	2057.3
1003.949	2017.53
1004.243	1996.06
1004.538	2000.58
1004.832	1972.79
1005.127	2005.55
1005.421	1994.03
1005.715	1969.62
1006.009	1981.6
1006.304	1947.48
1006.598	1926.46
1006.892	1922.84
1007.186	1887.37
1007.48	1919.23
1007.773	1899.57
1008.067	1902.28
1008.361	1871.55
1008.655	1847.14
1008.948	1913.35
1009.242	1836.75
1009.535	1822.96
1009.829	1850.98
1010.122	1832.9
1010.415	1818.67
1010.708	1787.71
1011.001	1785.67
1011.295	1762.85
1011.588	1761.04
1011.881	1758.1
1012.173	1737.99
1012.466	1739.8
1012.759	1705
1013.052	1690.31
1013.344	1674.72
1013.637	1690.08
1013.93	1680.59
1014.222	1660.93
1014.514	1658.45
1014.807	1628.84
1015.099	1616.41
1015.391	1627.03
1015.683	1623.64
1015.976	1610.76
1016.268	1616.41
1016.56	1571.44
1016.851	1545.23
1017.143	1577.54
1017.435	1535.74
1017.727	1547.94
1018.018	1530.54
1018.31	1556.3
1018.602	1548.62
1018.893	1513.82
1019.185	1526.25
1019.476	1478.79
1019.767	1504.78
1020.058	1450.54
1020.35	1481.5
1020.641	1492.8
1020.932	1461.84
1021.223	1430.43
1021.514	1430.88
1021.804	1398.79
1022.095	1389.3
1022.386	1399.69
1022.677	1410.54
1022.967	1392.01
1023.258	1395.4
1023.548	1377.32
1023.839	1352.46
1024.129	1370.09
1024.419	1338.45
1024.709	1341.84
1025	1327.83
1025.29	1335.74
1025.58	1317.89
1025.87	1297.1
1026.16	1301.39
1026.449	1259.59
1026.739	1272.92
1027.029	1231.56
1027.319	1259.36
1027.608	1226.82
1027.898	1244.9
1028.187	1222.07
1028.477	1236.76
1028.766	1217.78
1029.055	1224.11
1029.344	1185.69
1029.634	1218
1029.923	1203.54
1030.212	1195.86
1030.501	1156.76
1030.79	1145.01
1031.078	1171
1031.367	1160.15
1031.656	1150.44
1031.945	1122.87
1032.233	1123.77
1032.522	1137.78
1032.81	1135.07
1033.099	1098.69
1033.387	1094.17
1033.675	1105.92
1033.963	1102.98
1034.251	1081.96
1034.54	1065.69
1034.828	1051.91
1035.116	1055.98
1035.403	1064.34
1035.691	1025.24
1035.979	1021.4
1036.267	1033.6
1036.554	1031.34
1036.842	1008.74
1037.129	1025.92
1037.417	1019.82
1037.704	999.25
1037.992	1016.2
1038.279	965.36
1038.566	967.16
1038.853	967.16
1039.14	967.16
