Data from hue_220_FLMS001491_00030.txt Node
Date: Tue Feb 07 16:39:12 GMT 2017
User: dcchb
Spectrometer: FLMS00149
Trigger mode: 0
Integration Time (sec): 2.000000E-2
Scans to average: 10
Electric dark correction enabled: true
Nonlinearity correction enabled: false
Boxcar width: 0
XAxis mode: Wavelengths
Number of Pixels in Spectrum: 2048
>>>>>Begin Spectral Data<<<<<
341.393	4.18
341.776	4.18
342.16	4.18
342.543	-88.02
342.927	-66.1
343.31	-64.97
343.693	-62.03
344.077	-60.9
344.46	-61.81
344.843	-59.09
345.226	-60.68
345.61	-31.75
345.993	-17.29
346.376	-12.54
346.759	17.06
347.142	34.46
347.525	36.95
347.908	51.19
348.291	74.91
348.674	108.58
349.057	107.91
349.44	128.92
349.823	142.48
350.206	156.49
350.588	187.23
350.971	218.19
351.354	226.77
351.737	226.77
352.119	246.43
352.502	261.35
352.884	271.97
353.267	256.83
353.65	283.5
354.032	290.27
354.414	295.7
354.797	304.29
355.179	311.74
355.562	318.75
355.944	307.45
356.326	308.81
356.709	320.1
357.091	333.66
357.473	340.44
357.855	321.46
358.238	347.45
358.62	332.76
359.002	317.17
359.384	316.49
359.766	343.61
360.148	321.46
360.53	321.46
360.912	321.91
361.294	343.83
361.676	316.26
362.057	302.25
362.439	333.66
362.821	331.63
363.203	318.52
363.584	304.74
363.966	315.36
364.348	319.88
364.729	326.43
365.111	306.32
365.493	302.25
365.874	297.28
366.256	318.52
366.637	297.05
367.019	325.75
367.4	320.56
367.781	297.05
368.163	315.81
368.544	310.16
368.925	289.14
369.306	304.96
369.688	283.5
370.069	309.71
370.45	318.3
370.831	301.57
371.212	305.42
371.593	321.69
371.974	304.51
372.355	318.97
372.736	325.3
373.117	322.59
373.498	282.82
373.879	322.59
374.26	330.05
374.641	313.55
375.021	328.69
375.402	323.95
375.783	304.29
376.163	323.04
376.544	325.75
376.925	301.8
377.305	320.1
377.686	327.56
378.066	323.95
378.447	302.48
378.827	320.56
379.208	298.64
379.588	327.34
379.968	326.88
380.349	335.92
380.729	318.97
381.109	316.26
381.489	303.61
381.87	314.46
382.25	349.71
382.63	320.56
383.01	334.79
383.39	332.76
383.77	314.23
384.15	321.91
384.53	307.45
384.91	328.47
385.29	334.12
385.67	340.89
386.049	342.93
386.429	347
386.809	330.73
387.189	326.88
387.568	346.09
387.948	347.45
388.328	343.83
388.707	343.15
389.087	331.86
389.466	335.47
389.846	354
390.225	350.16
390.605	335.7
390.984	351.29
391.363	356.49
391.743	348.58
392.122	379.09
392.501	360.78
392.881	365.98
393.26	373.44
393.639	366.43
394.018	360.56
394.397	367.79
394.776	377.96
395.155	354.45
395.534	376.6
395.913	372.76
396.292	374.11
396.671	361.23
397.05	373.89
397.429	387.45
397.808	366.21
398.186	365.08
398.565	394.23
398.944	408.69
399.323	396.26
399.701	397.16
400.08	407.79
400.458	410.95
400.837	421.34
401.215	404.17
401.594	401.01
401.972	397.39
402.351	386.77
402.729	384.28
403.107	412.76
403.486	396.49
403.864	403.72
404.242	422.25
404.62	431.74
404.999	425.19
405.377	421.34
405.755	440.78
406.133	439.2
406.511	430.84
406.889	454.11
407.267	448.24
407.645	463.6
408.023	446.2
408.401	464.51
408.779	454.34
409.156	485.52
409.534	495.24
409.912	484.85
410.29	483.49
410.667	512.64
411.045	511.96
411.422	486.2
411.8	521.23
412.178	525.52
412.555	551.28
412.933	519.65
413.31	524.84
413.687	541.79
414.065	554
414.442	569.36
414.819	594.22
415.197	596.71
415.574	601
415.951	592.64
416.328	605.75
416.705	620.44
417.082	607.55
417.46	618.63
417.837	624.96
418.214	628.8
418.591	635.58
418.967	656.37
419.344	653.43
419.721	666.08
420.098	684.61
420.475	690.04
420.852	699.53
421.228	732.3
421.605	714.67
421.982	725.29
422.358	754.22
422.735	754.44
423.111	765.52
423.488	782.47
423.864	788.57
424.241	800.09
424.617	847.32
424.994	798.06
425.37	832.86
425.746	855.23
426.123	859.07
426.499	905.17
426.875	896.81
427.251	919.41
427.627	928.9
428.003	938.85
428.379	924.38
428.756	936.36
429.132	941.78
429.507	966.42
429.883	993.08
430.259	982.01
430.635	992.18
431.011	1019.52
431.387	1034.44
431.763	1046.41
432.138	1073.53
432.514	1081.67
432.89	1075.34
433.265	1110.37
433.641	1126.41
434.016	1101.55
434.392	1159.63
434.767	1208.89
435.143	1188.56
435.518	1228.56
435.894	1250.25
436.269	1255.9
436.644	1330.02
437.02	1320.76
437.395	1300.87
437.77	1364.82
438.145	1340.19
438.52	1357.59
438.895	1398.27
439.271	1424.26
439.646	1435.78
440.021	1444.82
440.395	1492.96
440.77	1482.11
441.145	1500.41
441.52	1531.82
441.895	1556
442.27	1559.17
442.645	1579.96
443.019	1585.61
443.394	1600.97
443.769	1584.7
444.143	1620.86
444.518	1663.57
444.892	1686.85
445.267	1650.01
445.641	1693.18
446.016	1708.32
446.39	1699.73
446.764	1738.82
447.139	1711.03
447.513	1740.86
447.887	1743.57
448.262	1736.34
448.636	1767.07
449.01	1768.2
449.384	1833.06
449.758	1833.96
450.132	1851.82
450.506	1857.92
450.88	1854.98
451.254	1865.83
451.628	1892.49
452.002	1895.66
452.376	1926.16
452.75	1928.2
453.123	1951.47
453.497	2008.65
453.871	1993.73
454.244	2045.26
454.618	2057.23
454.992	2065.82
455.365	2058.14
455.739	2118.7
456.112	2168.19
456.486	2101.98
456.859	2179.26
457.232	2200.28
457.606	2203.67
457.979	2188.3
458.352	2243.44
458.725	2304.91
459.099	2307.85
459.472	2360.5
459.845	2353.5
460.218	2365.02
460.591	2403.67
460.964	2415.19
461.337	2461.52
461.71	2477.34
462.083	2551.68
462.456	2520.72
462.829	2541.06
463.201	2563.66
463.574	2583.1
463.947	2644.79
464.32	2667.16
464.692	2718.91
465.065	2727.05
465.438	2744.22
465.81	2791.23
466.183	2801.17
466.555	2849.3
466.928	2857.66
467.3	2865.57
467.672	2872.13
468.045	2961.84
468.417	3026.47
468.789	3016.53
469.161	3045.46
469.534	3087.49
469.906	3127.94
470.278	3135.62
470.65	3160.48
471.022	3235.06
471.394	3275.06
471.766	3297.43
472.138	3364.54
472.51	3425.33
472.882	3446.8
473.253	3471.89
473.625	3478.89
473.997	3568.15
474.369	3585.78
474.74	3620.81
475.112	3729.96
475.484	3761.37
475.855	3788.04
476.227	3849.96
476.598	3899.9
476.97	3941.7
477.341	4017.86
477.713	4054.02
478.084	4056.96
478.455	4183.05
478.827	4220.12
479.198	4290.85
479.569	4301.92
479.94	4403.39
480.311	4409.94
480.682	4488.58
481.053	4610.61
481.424	4686.09
481.795	4732.19
482.166	4722.7
482.537	4812.87
482.908	4832.3
483.279	4948.46
483.65	5009.7
484.021	5083.14
484.391	5128.57
484.762	5189.13
485.133	5182.12
485.503	5257.83
485.874	5338.5
486.244	5377.82
486.615	5427.31
486.985	5509.12
487.356	5587.76
487.726	5607.42
488.097	5701.21
488.467	5757.25
488.837	5840.19
489.207	5929.45
489.578	5940.97
489.948	5991.14
490.318	6066.17
490.688	6110.69
491.058	6156.79
491.428	6259.38
491.798	6333.96
492.168	6326.5
492.538	6385.48
492.908	6442.66
493.278	6501.41
493.648	6551.58
494.017	6580.28
494.387	6630.67
494.757	6637
495.126	6707.28
495.496	6744.34
495.866	6758.35
496.235	6844.45
496.605	6864.34
496.974	6862.53
497.344	6937.56
497.713	6967.16
498.082	6942.98
498.452	7062.53
498.821	7109.08
499.19	7083.77
499.559	7113.15
499.928	7160.83
500.298	7201.28
500.667	7219.13
501.036	7196.31
501.405	7288.73
501.774	7250.54
502.143	7288.51
502.512	7347.49
502.88	7384.55
503.249	7323.54
503.618	7434.95
503.987	7374.38
504.356	7449.86
504.724	7517.2
505.093	7489.18
505.462	7492.57
505.83	7519.92
506.199	7552.23
506.567	7575.51
506.936	7569.86
507.304	7661.83
507.672	7633.13
508.041	7636.07
508.409	7685.11
508.777	7726.92
509.145	7740.02
509.514	7690.31
509.882	7765.33
510.25	7794.48
510.618	7800.36
510.986	7793.35
511.354	7843.52
511.722	7823.64
512.09	7923.97
512.458	7835.84
512.826	7797.2
513.193	7937.76
513.561	7914.03
513.929	7926.46
514.297	7980.92
514.664	7946.12
515.032	7970.52
515.4	8060.47
515.767	7988.6
516.135	8014.37
516.502	7938.89
516.869	8075.38
517.237	8033.57
517.604	7981.37
517.972	8063.4
518.339	8066.34
518.706	8014.82
519.073	8084.19
519.44	7998.55
519.808	8133.23
520.175	8032.22
520.542	8091.88
520.909	8131.88
521.276	8160.35
521.643	8120.8
522.009	8096.85
522.376	8101.14
522.743	8160.12
523.11	8147.24
523.477	8193.12
523.843	8157.86
524.21	8217.52
524.577	8212.55
524.943	8178.2
525.31	8174.81
525.676	8205.32
526.043	8271.08
526.409	8200.12
526.776	8311.98
527.142	8260.46
527.508	8168.71
527.874	8282.16
528.241	8292.1
528.607	8234.92
528.973	8259.1
529.339	8262.95
529.705	8226.56
530.071	8290.97
530.437	8280.8
530.803	8298.43
531.169	8297.3
531.535	8233.12
531.901	8211.2
532.267	8226.34
532.632	8179.56
532.998	8246.45
533.364	8281.03
533.73	8202.16
534.095	8149.05
534.461	8235.15
534.826	8243.29
535.192	8189.73
535.557	8155.38
535.923	8112.22
536.288	8144.76
536.653	8124.19
537.019	8113.12
537.384	8120.13
537.749	8036.96
538.114	8001.71
538.479	7984.99
538.845	7980.69
539.21	7949.96
539.575	7873.35
539.94	7930.98
540.305	7937.31
540.67	7843.97
541.034	7875.39
541.399	7865.89
541.764	7807.59
542.129	7865.22
542.494	7833.58
542.858	7780.93
543.223	7773.24
543.587	7775.28
543.952	7692.79
544.316	7706.58
544.681	7653.47
545.045	7696.86
545.41	7648.73
545.774	7617.31
546.138	7566.47
546.503	7606.47
546.867	7517.66
547.231	7592.23
547.595	7536.86
547.959	7492.57
548.324	7498.45
548.688	7445.57
549.052	7421.16
549.416	7430.65
549.779	7420.03
550.143	7343.65
550.507	7428.17
550.871	7328.06
551.235	7299.36
551.599	7326.7
551.962	7254.84
552.326	7258.68
552.689	7306.14
553.053	7234.95
553.417	7167.61
553.78	7240.37
554.143	7184.1
554.507	7187.27
554.87	7178.23
555.234	7251.67
555.597	7131.9
555.96	7144.78
556.323	7086.03
556.686	7127.84
557.05	7131.45
557.413	7108.4
557.776	7101.85
558.139	7084.22
558.502	7081.51
558.865	7032.7
559.228	7056.88
559.59	7023.66
559.953	7048.29
560.316	7073.6
560.679	7048.97
561.041	7014.84
561.404	7090.55
561.767	7112.69
562.129	6996.99
562.492	7083.77
562.854	6997.44
563.217	7029.98
563.579	7050.32
563.941	7041.96
564.304	7053.03
564.666	7134.61
565.028	7091.45
565.39	7064.79
565.753	7085.58
566.115	7139.81
566.477	7067.05
566.839	7131.45
567.201	7132.58
567.563	7131.45
567.925	7143.88
568.287	7145.46
568.648	7206.93
569.01	7125.12
569.372	7192.69
569.734	7135.07
570.095	7229.75
570.457	7203.77
570.819	7197.44
571.18	7191.56
571.542	7220.04
571.903	7135.74
572.265	7261.62
572.626	7299.36
572.987	7224.78
573.349	7338.45
573.71	7234.73
574.071	7319.02
574.432	7272.46
574.794	7367.15
575.155	7336.19
575.516	7299.81
575.877	7393.36
576.238	7392.46
576.599	7429.75
576.96	7429.52
577.32	7419.13
577.681	7493.48
578.042	7489.63
578.403	7446.24
578.763	7447.37
579.124	7491.89
579.485	7537.32
579.845	7566.92
580.206	7597.88
580.566	7576.86
580.927	7533.25
581.287	7546.81
581.648	7483.98
582.008	7609.86
582.368	7614.15
582.728	7643.08
583.089	7660.7
583.449	7701.61
583.809	7700.93
584.169	7739.12
584.529	7666.35
584.889	7766.91
585.249	7742.06
585.609	7756.97
585.969	7722.17
586.329	7754.71
586.688	7828.83
587.048	7753.81
587.408	7753.13
587.768	7796.07
588.127	7763.52
588.487	7735.95
588.846	7810.08
589.206	7827.93
589.565	7835.84
589.925	7871.09
590.284	7819.79
590.643	7870.41
591.003	7900.47
591.362	7891.43
591.721	7920.58
592.08	7905.89
592.44	7932.33
592.799	7907.02
593.158	7967.81
593.517	7942.05
593.876	7972.11
594.235	7956.29
594.593	7986.57
594.952	8017.3
595.311	7953.8
595.67	8036.06
596.029	8073.12
596.387	8073.35
596.746	8067.92
597.104	8007.59
597.463	8029.96
597.822	8056.62
598.18	8035.83
598.538	8033.35
598.897	8098.66
599.255	8022.05
599.613	8112.67
599.972	8098.21
600.33	8073.57
600.688	8106.34
601.046	8074.25
601.404	8101.59
601.762	8106.34
602.12	8212.33
602.478	8154.93
602.836	8203.06
603.194	8094.82
603.552	8099.79
603.91	8071.77
604.268	8188.82
604.625	8152.67
604.983	8202.16
605.341	8112.22
605.698	8209.39
606.056	8153.57
606.413	8167.58
606.771	8216.62
607.128	8208.26
607.485	8178.88
607.843	8235.6
608.2	8242.38
608.557	8254.59
608.914	8210.29
609.272	8259.1
609.629	8300.23
609.986	8301.36
610.343	8297.52
610.7	8337.75
611.057	8273.12
611.414	8298.43
611.771	8233.57
612.127	8310.18
612.484	8282.16
612.841	8350.18
613.198	8264.3
613.554	8290.52
613.911	8349.72
614.267	8273.34
614.624	8341.36
614.98	8312.44
615.337	8420.91
615.693	8386.11
616.05	8409.84
616.406	8402.6
616.762	8349.95
617.118	8411.42
617.475	8327.8
617.831	8436.5
618.187	8401.47
618.543	8423.62
618.899	8433.79
619.255	8426.78
619.611	8456.39
619.967	8456.16
620.323	8495.03
620.678	8420.91
621.034	8452.32
621.39	8409.38
621.746	8445.31
622.101	8548.81
622.457	8464.98
622.812	8444.18
623.168	8422.49
623.523	8470.62
623.879	8432.89
624.234	8495.26
624.589	8487.8
624.945	8466.78
625.3	8432.43
625.655	8455.48
626.01	8482.83
626.365	8449.38
626.72	8491.87
627.075	8452.55
627.43	8458.65
627.785	8461.81
628.14	8467.01
628.495	8478.08
628.85	8397.63
629.205	8426.56
629.559	8462.49
629.914	8411.19
630.269	8352.21
630.623	8372.32
630.978	8399.44
631.332	8431.98
631.687	8420.46
632.041	8368.48
632.396	8387.92
632.75	8354.02
633.104	8353.11
633.459	8271.08
633.813	8330.74
634.167	8360.57
634.521	8293.68
634.875	8353.57
635.229	8321.7
635.583	8270.18
635.937	8252.33
636.291	8274.02
636.645	8252.78
636.999	8245.32
637.352	8268.37
637.706	8238.31
638.06	8269.73
638.413	8233.57
638.767	8180.46
639.121	8178.88
639.474	8128.26
639.828	8119.67
640.181	8140.46
640.534	8156.06
640.888	8140.24
641.241	8114.7
641.594	8129.16
641.947	8112.44
642.301	8098.66
642.654	8143.63
643.007	8182.72
643.36	8133.01
643.713	8079.67
644.066	8119.67
644.419	8072.67
644.771	8071.31
645.124	7984.99
645.477	7917.42
645.83	7913.35
646.182	7963.07
646.535	7879.91
646.888	7901.15
647.24	7737.54
647.593	7879.23
647.945	7800.81
648.298	7810.98
648.65	7796.52
649.002	7802.62
649.355	7818.21
649.707	7899.11
650.059	7855.73
650.411	7940.92
650.763	8000.35
651.115	8001.94
651.467	8012.11
651.819	7996.74
652.171	7954.71
652.523	7962.39
652.875	7960.81
653.227	7955.61
653.578	8069.96
653.93	7953.35
654.282	7983.86
654.633	7991.54
654.985	8003.29
655.337	8054.59
655.688	7960.36
656.039	8069.05
656.391	7976.63
656.742	7961.26
657.094	8014.14
657.445	8010.98
657.796	7961.94
658.147	7999
658.498	7931.43
658.849	8058.21
659.2	7990.41
659.551	7956.29
659.902	8050.07
660.253	8006
660.604	8036.51
660.955	8027.7
661.306	8029.51
661.656	7980.02
662.007	8088.49
662.358	8009.39
662.708	8042.39
663.059	7999.45
663.409	8019.56
663.76	8065.89
664.11	8053.69
664.461	8140.24
664.811	8144.53
665.161	8092.78
665.511	8063.18
665.862	8126
666.212	8109.5
666.562	8151.09
666.912	8097.3
667.262	8117.64
667.612	8106.34
667.962	8135.04
668.312	8053.69
668.662	8055.04
669.011	8137.07
669.361	8034.03
669.711	8013.91
670.06	8058.21
670.41	8009.17
670.76	8055.72
671.109	8043.74
671.459	8089.62
671.808	8060.24
672.157	8072.44
672.507	8058.43
672.856	8024.76
673.205	7969.17
673.554	8044.87
673.904	7988.83
674.253	7997.64
674.602	8010.3
674.951	7896.18
675.3	7801.72
675.649	7933.92
675.998	7916.29
676.346	7945.21
676.695	8023.86
677.044	7835.84
677.393	7927.81
677.741	7938.89
678.09	7934.59
678.438	7906.35
678.787	7943.18
679.135	7885.33
679.484	7857.76
679.832	7848.95
680.181	7755.62
680.529	7796.52
680.877	7771.66
681.225	7801.72
681.573	7874.26
681.922	7776.41
682.27	7732.79
682.618	7767.37
682.966	7712.45
683.314	7711.77
683.661	7665.9
684.009	7665.45
684.357	7668.84
684.705	7624.09
685.053	7722.85
685.4	7587.94
685.748	7613.02
686.095	7531.67
686.443	7565.11
686.79	7493.93
687.138	7519.46
687.485	7514.49
687.832	7469.97
688.18	7455.74
688.527	7427.04
688.874	7401.27
689.221	7465.91
689.568	7375.29
689.915	7410.99
690.262	7393.36
690.609	7324.67
690.956	7326.02
691.303	7331.9
691.65	7251.22
691.997	7250.77
692.344	7260.94
692.69	7195.63
693.037	7193.82
693.383	7193.14
693.73	7107.5
694.077	7092.36
694.423	7117.67
694.769	7041.06
695.116	7069.98
695.462	7067.72
695.808	7040.61
696.155	6946.37
696.501	6921.29
696.847	6957.67
697.193	6879.03
697.539	6924.22
697.885	6883.1
698.231	6843.1
698.577	6856.66
698.923	6797
699.269	6713.61
699.614	6706.83
699.96	6701.18
700.306	6715.64
700.651	6681.29
700.997	6632.48
701.342	6614.85
701.688	6607.85
702.033	6558.81
702.379	6603.1
702.724	6561.3
703.069	6546.83
703.415	6452.6
703.76	6437.01
704.105	6408.31
704.45	6405.82
704.795	6437.23
705.14	6329.89
705.485	6366.27
705.83	6336.22
706.175	6318.14
706.52	6277.46
706.865	6256.22
707.209	6230.46
707.554	6208.54
707.899	6246.28
708.243	6252.6
708.588	6192.72
708.932	6137.58
709.277	6146.84
709.621	6145.26
709.966	6093.29
710.31	6133.51
710.654	6070.91
710.998	6093.74
711.342	6070.69
711.687	6010.35
712.031	6037.47
712.375	6035.66
712.719	6001.31
713.063	5984.14
713.407	6025.72
713.75	5922.9
714.094	5908.66
714.438	5953.63
714.782	5955.44
715.125	5914.08
715.469	5943.69
715.812	5867.76
716.156	5868.66
716.499	5816.46
716.843	5920.18
717.186	5862.78
717.53	5855.55
717.873	5841.77
718.216	5795.67
718.559	5823.01
718.902	5789.11
719.246	5790.02
719.589	5784.82
719.932	5799.28
720.275	5804.93
720.617	5767.42
720.96	5738.95
721.303	5765.39
721.646	5729.91
721.989	5716.12
722.331	5708.66
722.674	5726.29
723.016	5778.72
723.359	5689.68
723.701	5743.24
724.044	5719.28
724.386	5687.87
724.729	5673.41
725.071	5712.96
725.413	5667.76
725.755	5656.01
726.097	5636.35
726.439	5652.85
726.782	5656.46
727.124	5716.57
727.465	5630.25
727.807	5685.61
728.149	5630.7
728.491	5670.92
728.833	5654.65
729.175	5662.56
729.516	5640.19
729.858	5705.73
730.199	5691.04
730.541	5669.57
730.882	5624.15
731.224	5684.48
731.565	5632.06
731.906	5615.56
732.248	5675.9
732.589	5628.67
732.93	5659.17
733.271	5646.52
733.612	5699.85
733.953	5635.9
734.294	5626.86
734.635	5650.59
734.976	5705.05
735.317	5641.55
735.658	5678.38
735.999	5640.42
736.339	5646.97
736.68	5674.99
737.021	5673.41
737.361	5661.21
737.702	5682.45
738.042	5633.64
738.383	5727.42
738.723	5692.62
739.063	5723.13
739.404	5691.49
739.744	5714.99
740.084	5709.34
740.424	5768.1
740.764	5728.55
741.104	5756.8
741.444	5754.99
741.784	5738.27
742.124	5766.52
742.464	5771.49
742.804	5825.04
743.143	5847.64
743.483	5879.05
743.823	5829.34
744.162	5839.06
744.502	5960.41
744.841	5952.95
745.181	5970.58
745.52	5945.04
745.86	6056
746.199	6067.75
746.538	6086.05
746.877	6088.09
747.216	6162.66
747.556	6218.71
747.895	6246.73
748.234	6260.51
748.573	6317.01
748.911	6398.36
749.25	6426.61
749.589	6437.91
749.928	6551.81
750.267	6626.61
750.605	6675.64
750.944	6727.85
751.283	6785.47
751.621	6894.62
751.96	6935.75
752.298	6989.31
752.636	7098.46
752.975	7203.77
753.313	7236.31
753.651	7319.92
753.989	7436.53
754.327	7597.43
754.666	7625.45
755.004	7763.52
755.342	7902.05
755.679	8017.08
756.017	8099.79
756.355	8344.75
756.693	8390.85
757.031	8546.33
757.368	8670.62
757.706	8774.12
758.044	8923.49
758.381	9092.3
758.719	9152.41
759.056	9371.62
759.394	9558.96
759.731	9622.23
760.068	9816.58
760.405	9941.32
760.743	10116.01
761.08	10313.74
761.417	10489.55
761.754	10624.69
762.091	10765.71
762.428	10902.88
762.765	11082.08
763.102	11439.36
763.438	11366.37
763.775	11539.7
764.112	11801.61
764.449	11981.04
764.785	12151.88
765.122	12218.77
765.458	12328.38
765.795	12552.78
766.131	12738.54
766.467	12850.85
766.804	13006.78
767.14	13067.79
767.476	13297.39
767.812	13364.06
768.148	13631.39
768.485	13651.05
768.821	13759.53
769.157	13915.68
769.492	14043.36
769.828	14201.32
770.164	14258.5
770.5	14335.1
770.836	14555.66
771.171	14613.06
771.507	14718.37
771.842	14761.53
772.178	14862.55
772.513	15058.02
772.849	15060.06
773.184	15257.34
773.519	15217.57
773.855	15406.94
774.19	15411.69
774.525	15416.2
774.86	15613.49
775.195	15763.31
775.53	15769.87
775.865	15750.66
776.2	15749.08
776.535	15821.84
776.87	15940.26
777.205	15954.95
777.539	15978
777.874	16166.02
778.209	16128.28
778.543	16047.15
778.878	16168.5
779.212	16238.33
779.547	16180.25
779.881	16365.33
780.215	16331.89
780.55	16391.55
780.884	16335.73
781.218	16458.89
781.552	16377.54
781.886	16423.64
782.22	16343.41
782.554	16460.02
782.888	16326.46
783.222	16254.15
783.556	16408.27
783.889	16270.65
784.223	16227.03
784.557	16315.16
784.89	16443.07
785.224	16282.62
785.557	16274.94
785.891	16337.99
786.224	16382.51
786.558	16425.9
786.891	16241.95
787.224	16343.19
787.557	16295.96
787.891	16306.12
788.224	16322.85
788.557	16328.95
788.89	16315.84
789.223	16308.38
789.556	16189.07
789.888	16246.47
790.221	16219.12
790.554	16073.81
790.887	16170.08
791.219	16076.53
791.552	16112.91
791.884	16099.35
792.217	16019.13
792.549	16029.3
792.882	15962.41
793.214	15910.66
793.546	15938.45
793.879	15865.68
794.211	15785.01
794.543	15889.64
794.875	15824.78
795.207	15897.32
795.539	15827.72
795.871	15827.27
796.203	15659.81
796.535	15623.43
796.867	15637.67
797.198	15613.71
797.53	15658.91
797.862	15534.39
798.193	15597.22
798.525	15466.82
798.856	15516.54
799.188	15381.4
799.519	15299.82
799.85	15318.35
800.182	15342.76
800.513	15283.1
800.844	15167.85
801.175	15304.8
801.506	15187.74
801.837	15147.96
802.168	15167.17
802.499	15136.89
802.83	15102.77
803.161	15043.33
803.491	14988.19
803.822	15020.06
804.153	14948.87
804.483	14885.82
804.814	14811.93
805.145	14850.34
805.475	14768.99
805.805	14737.13
806.136	14774.87
806.466	14747.3
806.796	14717.01
807.126	14651.93
807.457	14615.32
807.787	14570.35
808.117	14540.97
808.447	14478.6
808.777	14461.43
809.107	14473.18
809.436	14424.59
809.766	14421.43
810.096	14340.3
810.426	14373.75
810.755	14368.77
811.085	14406.74
811.414	14413.97
811.744	14237.48
812.073	14303.92
812.403	14220.08
812.732	14167.42
813.061	14169.68
813.39	14051.04
813.719	14054.66
814.049	14083.36
814.378	14105.28
814.707	14094.43
815.036	13958.16
815.365	13937.37
815.693	13928.79
816.022	13868
816.351	13851.27
816.68	13771.5
817.008	13811.73
817.337	13682.24
817.665	13698.74
817.994	13713.2
818.322	13695.35
818.651	13687.66
818.979	13609.7
819.307	13690.15
819.636	13607.66
819.964	13597.72
820.292	13589.13
820.62	13649.7
820.948	13527.44
821.276	13617.16
821.604	13524.05
821.932	13506.88
822.259	13585.07
822.587	13563.15
822.915	13549.59
823.243	13621.9
823.57	13503.03
823.898	13527.21
824.225	13426.65
824.553	13538.06
824.88	13631.17
825.207	13557.04
825.535	13468.91
825.862	13556.82
826.189	13555.24
826.516	13608.34
826.843	13635.69
827.17	13587.55
827.497	13599.3
827.824	13542.58
828.151	13531.06
828.478	13585.97
828.805	13619.87
829.131	13565.86
829.458	13575.58
829.785	13548.23
830.111	13617.83
830.438	13565.86
830.764	13585.52
831.09	13631.39
831.417	13491.06
831.743	13554.11
832.069	13531.28
832.395	13496.26
832.722	13532.64
833.048	13470.04
833.374	13548.91
833.7	13531.96
834.026	13476.37
834.351	13489.93
834.677	13504.16
835.003	13485.63
835.329	13527.21
835.654	13399.08
835.98	13352.3
836.306	13361.34
836.631	13356.37
836.956	13456.48
837.282	13355.02
837.607	13420.78
837.932	13323.6
838.258	13325.64
838.583	13350.72
838.908	13172.65
839.233	13186.66
839.558	13139.2
839.883	13132.42
840.208	13105.76
840.533	13144.63
840.858	13154.12
841.182	13166.55
841.507	13157.28
841.832	13044.74
842.156	12985.08
842.481	13042.48
842.805	12867.12
843.13	12956.38
843.454	12931.98
843.778	12915.03
844.103	12859.44
844.427	12825.76
844.751	12897.4
845.075	12834.8
845.399	12706.45
845.723	12719.1
846.047	12735.37
846.371	12640.23
846.695	12581.25
847.019	12532.44
847.343	12447.92
847.666	12417.19
847.99	12332.67
848.313	12296.29
848.637	12287.47
848.96	12198.89
849.284	12244.76
849.607	12061.04
849.931	12073.69
850.254	12017.42
850.577	11944.66
850.9	11908.73
851.223	11871.89
851.546	11776.3
851.869	11763.65
852.192	11766.58
852.515	11655.17
852.838	11594.84
853.161	11673.25
853.483	11537.89
853.806	11559.81
854.129	11493.82
854.451	11453.82
854.774	11478.91
855.096	11353.71
855.419	11388.74
855.741	11304.9
856.063	11332.02
856.385	11289.53
856.708	11209.54
857.03	11146.71
857.352	11120.5
857.674	11124.79
857.996	11060.84
858.318	11013.38
858.64	11089.54
858.961	10980.39
859.283	11033.72
859.605	10880.5
859.926	10926.38
860.248	10930.45
860.57	10888.87
860.891	10877.12
861.212	10783.33
861.534	10797.34
861.855	10730.9
862.176	10776.55
862.498	10745.37
862.819	10749.43
863.14	10641.42
863.461	10695.88
863.782	10580.4
864.103	10648.19
864.424	10559.61
864.745	10618.59
865.065	10569.55
865.386	10615.65
865.707	10534.75
866.027	10524.81
866.348	10508.54
866.668	10517.35
866.989	10417.92
867.309	10412.49
867.63	10366.39
867.95	10366.17
868.27	10323.01
868.59	10356.9
868.91	10404.36
869.23	10283.01
869.55	10235.55
869.87	10320.07
870.19	10278.49
870.51	10161.2
870.83	10256.34
871.15	10212.5
871.469	10104.71
871.789	10141.32
872.109	10160.98
872.428	10119.85
872.748	10072.62
873.067	10149.68
873.386	10115.78
873.706	10087.98
874.025	10027.87
874.344	10026.06
874.663	10064.71
874.982	10031.49
875.301	10097.7
875.62	9969.79
875.939	9966.4
876.258	9994.43
876.577	9917.14
876.896	9968.66
877.214	9902.45
877.533	9915.33
877.852	9849.12
878.17	9906.07
878.489	9859.06
878.807	9839.85
879.125	9806.63
879.444	9785.62
879.762	9827.43
880.08	9784.94
880.398	9731.16
880.716	9714.89
881.034	9663.59
881.352	9800.99
881.67	9704.72
881.988	9727.54
882.306	9666.75
882.624	9598.28
882.941	9582.91
883.259	9577.26
883.577	9547.43
883.894	9535.46
884.212	9522.12
884.529	9515.57
884.846	9490.94
885.164	9524.16
885.481	9413.65
885.798	9440.32
886.115	9346.08
886.432	9366.19
886.75	9313.77
887.067	9303.15
887.383	9311.05
887.7	9274.67
888.017	9273.99
888.334	9279.42
888.651	9212.07
888.967	9203.49
889.284	9103.83
889.6	9124.39
889.917	9031.97
890.233	9010.72
890.55	8936.83
890.866	8990.39
891.182	8980.44
891.498	8916.94
891.815	8936.38
892.131	8890.73
892.447	8855.02
892.763	8810.5
893.079	8828.58
893.395	8823.61
893.71	8793.78
894.026	8712.88
894.342	8761.69
894.657	8673.33
894.973	8681.92
895.289	8660.45
895.604	8657.96
895.92	8595.37
896.235	8575.25
896.55	8549.27
896.865	8469.95
897.181	8462.94
897.496	8522.6
897.811	8384.75
898.126	8399.67
898.441	8335.49
898.756	8313.57
899.071	8282.38
899.386	8293.45
899.7	8178.88
900.015	8147.24
900.33	8171.65
900.644	8080.13
900.959	8052.56
901.273	8128.94
901.588	8062.73
901.902	8013.46
902.216	8023.63
902.531	7984.76
902.845	7995.83
903.159	7873.35
903.473	7877.42
903.787	7855.27
904.101	7766.69
904.415	7827.48
904.729	7762.17
905.042	7717.2
905.356	7719.46
905.67	7687.59
905.984	7670.87
906.297	7679.69
906.611	7554.04
906.924	7538.22
907.237	7551.1
907.551	7467.49
907.864	7493.7
908.177	7467.94
908.491	7458.9
908.804	7336.87
909.117	7321.73
909.43	7293.93
909.743	7216.87
910.056	7219.36
910.368	7201.28
910.681	7188.4
910.994	7134.61
911.307	7207.16
911.619	7037.44
911.932	7151.56
912.244	7027.95
912.557	7028.4
912.869	6951.79
913.181	6870.67
913.494	6897.56
913.806	6841.52
914.118	6841.06
914.43	6877.22
914.742	6819.37
915.054	6759.03
915.366	6766.71
915.678	6788.86
915.99	6665.7
916.302	6652.37
916.613	6634.97
916.925	6634.97
917.236	6612.59
917.548	6597.23
917.859	6566.27
918.171	6515.87
918.482	6493.73
918.794	6450.11
919.105	6500.28
919.416	6419.15
919.727	6388.87
920.038	6429.55
920.349	6354.75
920.66	6290.34
920.971	6341.19
921.282	6290.34
921.593	6274.52
921.903	6188.42
922.214	6189.78
922.525	6158.14
922.835	6065.94
923.146	6090.12
923.456	6088.99
923.767	6055.32
924.077	6015.1
924.387	6021.65
924.697	5990.24
925.008	5970.8
925.318	5909.79
925.628	5903.46
925.938	5823.24
926.248	5869.11
926.558	5836.8
926.867	5799.73
927.177	5852.61
927.487	5766.06
927.796	5730.13
928.106	5732.84
928.416	5687.87
928.725	5638.16
929.034	5651.94
929.344	5666.86
929.653	5631.38
929.962	5591.38
930.271	5535.11
930.581	5576.01
930.89	5507.99
931.199	5493.98
931.508	5502.57
931.817	5446.98
932.125	5441.33
932.434	5456.47
932.743	5329.24
933.051	5383.25
933.36	5331.5
933.669	5313.19
933.977	5291.73
934.286	5265.06
934.594	5269.8
934.902	5232.74
935.21	5193.87
935.519	5208.56
935.827	5186.19
936.135	5170.15
936.443	5134.22
936.751	5106.19
937.059	5089.24
937.367	5118.62
937.674	5049.47
937.982	5017.61
938.29	4984.84
938.597	5001.34
938.905	4924.28
939.213	4912.75
939.52	4909.36
939.827	4902.13
940.135	4845.18
940.442	4909.81
940.749	4863.26
941.056	4838.63
941.363	4784.85
941.67	4773.77
941.977	4744.85
942.284	4762.93
942.591	4659.2
942.898	4717.28
943.205	4706.88
943.511	4659.65
943.818	4642.93
944.125	4616.49
944.431	4587.11
944.738	4572.65
945.044	4542.14
945.35	4553.21
945.657	4501.24
945.963	4529.71
946.269	4460.56
946.575	4476.15
946.881	4395.93
947.187	4438.64
947.493	4402.48
947.799	4395.48
948.105	4370.62
948.41	4372.65
948.716	4364.29
949.022	4286.1
949.327	4284.29
949.633	4240.68
949.938	4259.21
950.244	4220.79
950.549	4218.76
950.854	4145.31
951.16	4188.48
951.465	4151.42
951.77	4171.3
952.075	4148.48
952.38	4105.09
952.685	4097.63
952.99	4064.86
953.294	4031.19
953.599	4025.54
953.904	4083.62
954.209	3981.7
954.513	4010.63
954.818	4002.72
955.122	3962.72
955.426	3940.12
955.731	3955.49
956.035	3927.69
956.339	3911.42
956.643	3879.78
956.948	3858.99
957.252	3814.7
957.556	3837.98
957.86	3768.15
958.163	3822.16
958.467	3804.76
958.771	3745.55
959.075	3744.2
959.378	3735.38
959.682	3754.82
959.985	3724.76
960.289	3689.96
960.592	3665.55
960.896	3680.92
961.199	3659.45
961.502	3627.81
961.805	3658.1
962.108	3542.84
962.411	3569.28
962.714	3526.8
963.017	3543.52
963.32	3547.14
963.623	3508.95
963.926	3554.6
964.228	3473.92
964.531	3472.79
964.833	3432.34
965.136	3418.78
965.438	3447.93
965.741	3388.05
966.043	3444.99
966.345	3380.82
966.648	3407.71
966.95	3325.68
967.252	3300.82
967.554	3307.37
967.856	3258.33
968.158	3280.93
968.46	3263.76
968.761	3243.19
969.063	3219.01
969.365	3269.63
969.666	3284.55
969.968	3219.69
970.269	3182.4
970.571	3189.63
970.872	3147.37
971.174	3127.04
971.475	3148.96
971.776	3129.75
972.077	3146.47
972.378	3102.63
972.679	3058.34
972.98	3054.04
973.281	3096.98
973.582	3057.89
973.883	3059.24
974.183	3041.16
974.484	2989.64
974.785	2976.53
975.085	3007.49
975.386	2963.65
975.686	2989.64
975.986	2956.65
976.287	2927.95
976.587	2915.29
976.887	2863.54
977.187	2875.74
977.487	2881.17
977.787	2883.2
978.087	2848.17
978.387	2832.81
978.687	2832.35
978.987	2804.56
979.286	2793.03
979.586	2800.94
979.885	2798.68
980.185	2768.63
980.484	2748.52
980.784	2742.64
981.083	2721.17
981.382	2717.1
981.682	2718.69
981.981	2684.34
982.28	2677.33
982.579	2631
982.878	2672.36
983.177	2650.89
983.475	2650.21
983.774	2621.06
984.073	2588.52
984.372	2603.43
984.67	2592.81
984.969	2581.97
985.267	2598.01
985.566	2566.37
985.864	2551.23
986.162	2525.24
986.461	2519.59
986.759	2508.3
987.057	2503.32
987.355	2512.82
987.653	2456.77
987.951	2465.58
988.249	2467.62
988.547	2461.07
988.844	2404.8
989.142	2438.69
989.44	2427.62
989.737	2400.95
990.035	2359.82
990.332	2393.27
990.63	2351.92
990.927	2370.22
991.224	2329.09
991.521	2353.5
991.819	2338.81
992.116	2322.76
992.413	2292.26
992.71	2266.49
993.006	2245.93
993.303	2235.76
993.6	2253.61
993.897	2219.49
994.193	2237.57
994.49	2213.39
994.787	2212.71
995.083	2235.08
995.379	2170.9
995.676	2175.65
995.972	2180.62
996.268	2169.55
996.565	2129.32
996.861	2145.82
997.157	2115.31
997.453	2136.33
997.749	2121.41
998.044	2132.94
998.34	2088.19
998.636	2077.12
998.932	2071.02
999.227	2061.3
999.523	2077.12
999.818	2007.52
1000.114	2031.25
1000.409	1997.8
1000.704	1989.89
1001	1971.81
1001.295	1955.54
1001.59	1982.43
1001.885	1976.78
1002.18	1934.3
1002.475	1949.44
1002.77	1941.08
1003.065	1894.3
1003.359	1908.09
1003.654	1901.31
1003.949	1887.97
1004.243	1884.58
1004.538	1847.07
1004.832	1850.01
1005.127	1847.97
1005.421	1833.51
1005.715	1816.11
1006.009	1823.57
1006.304	1839.61
1006.598	1782.21
1006.892	1807.98
1007.186	1795.09
1007.48	1756.9
1007.773	1750.12
1008.067	1705.38
1008.361	1743.57
1008.655	1714.19
1008.948	1730.46
1009.242	1716.45
1009.535	1693.63
1009.829	1699.96
1010.122	1700.18
1010.415	1652.27
1010.708	1648.66
1011.001	1648.21
1011.295	1653.18
1011.588	1637.81
1011.881	1622.44
1012.173	1626.51
1012.466	1579.05
1012.759	1601.88
1013.052	1587.64
1013.344	1586.06
1013.637	1553.52
1013.93	1555.1
1014.222	1536.57
1014.514	1560.75
1014.807	1503.35
1015.099	1522.78
1015.391	1532.28
1015.683	1508.1
1015.976	1505.61
1016.268	1487.08
1016.56	1462
1016.851	1475.78
1017.143	1475.33
1017.435	1446.63
1017.727	1452.96
1018.018	1414.99
1018.31	1416.35
1018.602	1418.15
1018.893	1404.14
1019.185	1409.34
1019.476	1414.09
1019.767	1362.34
1020.058	1397.36
1020.35	1370.25
1020.641	1347.42
1020.932	1352.62
1021.223	1365.95
1021.514	1336.12
1021.804	1321.43
1022.095	1298.61
1022.386	1296.58
1022.677	1303.36
1022.967	1302
1023.258	1266.29
1023.548	1277.59
1023.839	1236.92
1024.129	1263.81
1024.419	1256.58
1024.709	1228.78
1025	1237.82
1025.29	1219.29
1025.58	1210.02
1025.87	1208.89
1026.16	1191.95
1026.449	1193.3
1026.739	1210.25
1027.029	1160.53
1027.319	1166.86
1027.608	1147.2
1027.898	1144.26
1028.187	1129.8
1028.477	1165.05
1028.766	1135
1029.055	1109.46
1029.344	1121.44
1029.634	1108.11
1029.923	1090.48
1030.212	1096.36
1030.501	1103.81
1030.79	1084.83
1031.078	1073.76
1031.367	1058.16
1031.656	1039.18
1031.945	1087.99
1032.233	1051.61
1032.522	1057.26
1032.81	1029.46
1033.099	1024.04
1033.387	998.5
1033.675	1011.61
1033.963	1024.27
1034.251	1016.36
1034.54	987.88
1034.828	995.34
1035.116	1010.26
1035.403	967.55
1035.691	960.99
1035.979	953.31
1036.267	933.2
1036.554	952.4
1036.842	963.25
1037.129	933.42
1037.417	935.91
1037.704	939.07
1037.992	918.28
1038.279	929.35
1038.566	913.99
1038.853	913.99
1039.14	913.99
