Data from hue_290_FLMS001491_00047.txt Node
Date: Tue Feb 07 15:52:48 GMT 2017
User: dcchb
Spectrometer: FLMS00149
Trigger mode: 0
Integration Time (sec): 2.000000E-2
Scans to average: 10
Electric dark correction enabled: true
Nonlinearity correction enabled: false
Boxcar width: 0
XAxis mode: Wavelengths
Number of Pixels in Spectrum: 2048
>>>>>Begin Spectral Data<<<<<
341.393	-7.25
341.776	-7.25
342.16	-7.25
342.543	-85.89
342.927	-71.42
343.31	-79.79
343.693	-77.07
344.077	-65.32
344.46	-67.13
344.843	-47.02
345.226	-9.51
345.61	-28.04
345.993	-20.8
346.376	4.28
346.759	9.93
347.142	21.91
347.525	36.6
347.908	58.29
348.291	57.84
348.674	113.43
349.057	92.41
349.44	115.69
349.823	141
350.206	156.14
350.588	199.08
350.971	212.64
351.354	221.67
351.737	214.9
352.119	253.54
352.502	269.81
352.884	270.04
353.267	284.72
353.65	301.9
354.032	284.72
354.414	279.53
354.797	308.23
355.179	317.49
355.562	315.91
355.944	334.89
356.326	297.15
356.709	338.51
357.091	329.69
357.473	304.61
357.855	344.16
358.238	342.35
358.62	331.5
359.002	329.47
359.384	348
359.766	348.68
360.148	324.27
360.53	325.4
360.912	337.6
361.294	326.08
361.676	310.26
362.057	333.31
362.439	328.11
362.821	320.43
363.203	329.24
363.584	320.88
363.966	339.86
364.348	335.57
364.729	287.66
365.111	310.71
365.493	315.91
365.874	327.21
366.256	299.64
366.637	312.07
367.019	317.27
367.4	308.68
367.781	306.87
368.163	333.31
368.544	333.99
368.925	302.12
369.306	293.31
369.688	313.42
370.069	306.87
370.45	318.17
370.831	319.07
371.212	322.69
371.593	297.61
371.974	306.64
372.355	311.62
372.736	324.72
373.117	326.3
373.498	312.75
373.879	318.17
374.26	291.05
374.641	316.81
375.021	312.75
375.402	324.72
375.783	328.79
376.163	334.89
376.544	332.18
376.925	327.89
377.305	322.24
377.686	322.24
378.066	335.34
378.447	327.21
378.827	312.07
379.208	323.14
379.588	340.09
379.968	340.32
380.349	321.79
380.729	338.06
381.109	346.87
381.489	343.03
381.87	356.13
382.25	340.32
382.63	328.79
383.01	347.32
383.39	364.04
383.77	343.03
384.15	326.3
384.53	341.9
384.91	338.51
385.29	314.33
385.67	330.6
386.049	347.77
386.429	376.93
386.809	344.16
387.189	361.56
387.568	366.76
387.948	335.8
388.328	357.04
388.707	361.78
389.087	360.65
389.466	355.23
389.846	370.82
390.225	378.96
390.605	372.41
390.984	360.2
391.363	378.73
391.743	367.89
392.122	371.5
392.501	382.35
392.881	364.5
393.26	389.81
393.639	393.2
394.018	398.39
394.397	399.98
394.776	389.58
395.155	392.97
395.534	399.07
395.913	409.01
396.292	402.69
396.671	389.35
397.05	398.39
397.429	393.87
397.808	407.43
398.186	406.08
398.565	394.1
398.944	427.77
399.323	411.27
399.701	408.56
400.08	423.25
400.458	420.54
400.837	435.45
401.215	426.64
401.594	423.93
401.972	434.55
402.351	437.26
402.729	446.53
403.107	422.8
403.486	428.22
403.864	444.49
404.242	448.56
404.62	460.99
404.999	456.47
405.377	485.85
405.755	479.97
406.133	463.02
406.511	490.14
406.889	497.15
407.267	483.81
407.645	475
408.023	504.61
408.401	492.85
408.779	532.4
409.156	497.15
409.534	500.76
409.912	509.35
410.29	540.76
410.667	551.84
411.045	531.27
411.422	548.45
411.8	564.26
412.178	551.84
412.555	554.77
412.933	576.69
413.31	594.32
413.687	604.72
414.065	586.86
414.442	607.88
414.819	618.73
415.197	619.86
415.574	631.16
415.951	633.64
416.328	667.09
416.705	661.89
417.082	680.87
417.46	664.83
417.837	672.96
418.214	686.75
418.591	700.08
418.967	687.2
419.344	730.81
419.721	746.86
420.098	711.38
420.475	764.26
420.852	749.57
421.228	752.06
421.605	775.78
421.982	769.68
422.358	792.73
422.735	784.82
423.111	805.16
423.488	840.42
423.864	808.1
424.241	839.96
424.617	852.84
424.994	829.12
425.37	864.14
425.746	874.77
426.123	851.49
426.499	889.68
426.875	882.9
427.251	920.19
427.627	896.23
428.003	943.69
428.379	923.8
428.756	974.2
429.132	947.08
429.507	965.16
429.883	970.81
430.259	988.89
430.635	1009.9
431.011	1033.41
431.387	1049.45
431.763	1051.26
432.138	1061.65
432.514	1081.77
432.89	1081.54
433.265	1109.11
433.641	1138.94
434.016	1144.81
434.392	1132.61
434.767	1144.81
435.143	1173.06
435.518	1197.02
435.894	1189.11
436.269	1203.57
436.644	1242.21
437.02	1230.69
437.395	1232.5
437.77	1273.17
438.145	1274.98
438.52	1272.27
438.895	1301.42
439.271	1310.23
439.646	1310.01
440.021	1345.04
440.395	1325.6
440.77	1352.72
441.145	1363.34
441.52	1391.36
441.895	1385.71
442.27	1398.14
442.645	1402.21
443.019	1419.84
443.394	1403.34
443.769	1430.91
444.143	1428.87
444.518	1467.52
444.892	1468.2
445.267	1475.43
445.641	1465.48
446.016	1494.18
446.39	1490.79
446.764	1504.35
447.139	1489.21
447.513	1512.49
447.887	1495.54
448.262	1489.21
448.636	1518.82
449.01	1532.15
449.384	1566.95
449.758	1562.88
450.132	1580.74
450.506	1564.01
450.88	1581.19
451.254	1562.88
451.628	1598.59
452.002	1646.04
452.376	1625.03
452.75	1617.34
453.123	1612.6
453.497	1677
453.871	1642.43
454.244	1689.43
454.618	1712.71
454.992	1717.23
455.365	1695.08
455.739	1752.93
456.112	1798.81
456.486	1783.22
456.859	1785.02
457.232	1800.39
457.606	1780.05
457.979	1839.94
458.352	1886.04
458.725	1866.15
459.099	1916.32
459.472	1913.61
459.845	1928.52
460.218	1924
460.591	1960.16
460.964	1920.84
461.337	1982.53
461.71	2001.97
462.083	2023.89
462.456	2020.5
462.829	2027.28
463.201	2051.46
463.574	2079.48
463.947	2052.14
464.32	2117.44
464.692	2127.61
465.065	2161.06
465.438	2183.43
465.81	2176.88
466.183	2201.96
466.555	2233.6
466.928	2246.25
467.3	2218.46
467.672	2278.12
468.045	2346.36
468.417	2302.07
468.789	2352.69
469.161	2368.96
469.534	2370.55
469.906	2432.01
470.278	2422.3
470.65	2485.57
471.022	2517.66
471.394	2533.48
471.766	2558.11
472.138	2566.47
472.51	2633.81
472.882	2607.83
473.253	2675.4
473.625	2669.07
473.997	2741.83
474.369	2721.72
474.74	2757.2
475.112	2798.1
475.484	2819.8
475.855	2862.28
476.227	2887.14
476.598	2960.59
476.97	2983.18
477.341	3058.21
477.713	3067.48
478.084	3043.52
478.455	3145.89
478.827	3147.02
479.198	3194.93
479.569	3215.95
479.94	3272.67
480.311	3323.51
480.682	3356.96
481.053	3400.35
481.424	3421.14
481.795	3481.25
482.166	3540.23
482.537	3561.02
482.908	3619.55
483.279	3625.65
483.65	3674.69
484.021	3741.81
484.391	3769.15
484.762	3780.68
485.133	3817.74
485.503	3822.71
485.874	3915.36
486.244	3930.73
486.615	4014.57
486.985	4054.79
487.356	4123.95
487.726	4154.68
488.097	4180.89
488.467	4195.58
488.837	4260.89
489.207	4331.62
489.578	4322.36
489.948	4351.28
490.318	4400.77
490.688	4412.07
491.058	4484.61
491.428	4503.6
491.798	4547.66
492.168	4698.62
492.538	4669.24
492.908	4670.15
493.278	4739.97
493.648	4732.97
494.017	4783.36
494.387	4807.77
494.757	4830.14
495.126	4891.61
495.496	4913.75
495.866	4912.63
496.235	4954.66
496.605	5004.6
496.974	5002.11
497.344	5048.89
497.713	5036.24
498.082	5060.42
498.452	5159.85
498.821	5128.44
499.19	5174.77
499.559	5197.59
499.928	5205.95
500.298	5227.87
500.667	5279.4
501.036	5280.98
501.405	5330.47
501.774	5329.34
502.143	5363.01
502.512	5387.64
502.88	5447.75
503.249	5447.53
503.618	5428.54
503.987	5499.5
504.356	5500.86
504.724	5538.15
505.093	5545.38
505.462	5544.25
505.83	5596
506.199	5661.53
506.567	5693.4
506.936	5659.72
507.304	5704.47
507.672	5718.25
508.041	5689.78
508.409	5771.13
508.777	5812.94
509.145	5838.7
509.514	5796.67
509.882	5800.51
510.25	5871.92
510.618	5853.84
510.986	5875.76
511.354	5892.94
511.722	5998.02
512.09	5955.08
512.458	5997.79
512.826	6029.21
513.193	6053.61
513.561	6007.74
513.929	6056.55
514.297	6091.8
514.664	6172.7
515.032	6137.9
515.4	6202.99
515.767	6171.8
516.135	6220.84
516.502	6163.89
516.869	6242.53
517.237	6285.92
517.604	6228.97
517.972	6316.66
518.339	6332.02
518.706	6352.81
519.073	6372.25
519.44	6419.7
519.808	6462.87
520.175	6426.03
520.542	6511.68
520.909	6471.91
521.276	6480.49
521.643	6578.57
522.009	6606.37
522.376	6617.66
522.743	6686.14
523.11	6635.07
523.477	6733.59
523.843	6679.36
524.21	6759.13
524.577	6808.85
524.943	6858.56
525.31	6903.53
525.676	6806.36
526.043	6976.3
526.409	6908.5
526.776	7043.64
527.142	7003.87
527.508	7063.08
527.874	7121.61
528.241	7108.27
528.607	7128.39
528.973	7186.46
529.339	7176.75
529.705	7254.26
530.071	7248.61
530.437	7332.67
530.803	7355.5
531.169	7451.99
531.535	7357.98
531.901	7416.51
532.267	7446.12
532.632	7494.03
532.998	7520.24
533.364	7566.79
533.73	7524.31
534.095	7583.06
534.461	7643.4
534.826	7641.14
535.192	7614.02
535.557	7703.96
535.923	7727.24
536.288	7727.92
536.653	7728.6
537.019	7705.09
537.384	7743.06
537.749	7800.01
538.114	7834.81
538.479	7866.22
538.845	7855.37
539.21	7848.59
539.575	7919.55
539.94	7916.84
540.305	7979.66
540.67	7967.46
541.034	8032.77
541.399	8044.75
541.764	8030.28
542.129	8071.41
542.494	8123.16
542.858	8097.85
543.223	8158.42
543.587	8177.17
543.952	8192.31
544.316	8266.21
544.681	8220.79
545.045	8226.89
545.41	8250.16
545.774	8297.85
546.138	8302.37
546.503	8353.66
546.867	8365.42
547.231	8474.79
547.595	8405.87
547.959	8406.77
548.324	8483.15
548.688	8489.03
549.052	8458.07
549.416	8455.13
549.779	8535.13
550.143	8529.03
550.507	8576.03
550.871	8585.97
551.235	8647.89
551.599	8645.63
551.962	8639.53
552.326	8728.8
552.689	8722.02
553.053	8724.73
553.417	8655.13
553.78	8744.61
554.143	8679.76
554.507	8796.82
554.87	8828.68
555.234	8866.19
555.597	8807.89
555.96	8881.56
556.323	8853.54
556.686	8882.69
557.05	8946.64
557.413	8942.35
557.776	8945.97
558.139	8940.09
558.502	9041.1
558.865	9043.36
559.228	9098.28
559.59	9108.22
559.953	9140.99
560.316	9176.92
560.679	9275.9
561.041	9271.15
561.404	9299.85
561.767	9325.16
562.129	9237.71
562.492	9355.22
562.854	9353.19
563.217	9357.03
563.579	9399.06
563.941	9455.78
564.304	9477.02
564.666	9550.47
565.028	9577.36
565.39	9575.78
565.753	9650.13
566.115	9601.09
566.477	9686.96
566.839	9643.12
567.201	9793.85
567.563	9721.31
567.925	9793.4
568.287	9780.29
568.648	9764.02
569.01	9877.01
569.372	10012.15
569.734	9915.43
570.095	10005.37
570.457	10063
570.819	10070.46
571.18	10106.61
571.542	10172.6
571.903	10183.45
572.265	10246.5
572.626	10248.53
572.987	10284.24
573.349	10302.99
573.71	10382.54
574.071	10398.36
574.432	10402.2
574.794	10540.27
575.155	10591.35
575.516	10550.89
575.877	10601.74
576.238	10627.73
576.599	10820.49
576.96	10716.77
577.32	10903.88
577.681	10868.63
578.042	10998.79
578.403	10967.38
578.763	11072.92
579.124	11114.04
579.485	11180.71
579.845	11259.12
580.206	11315.85
580.566	11432.68
580.927	11472.9
581.287	11551.55
581.648	11589.74
582.008	11766.91
582.368	11813.01
582.728	11872.89
583.089	11978.65
583.449	12100.68
583.809	12161.25
584.169	12270.4
584.529	12326.89
584.889	12577.73
585.249	12563.5
585.609	12611.63
585.969	12789.03
586.329	12916.26
586.688	13038.51
587.048	13105.4
587.408	13160.54
587.768	13380.2
588.127	13379.97
588.487	13588.33
588.846	13760.3
589.206	13892.5
589.565	13889.34
589.925	14086.85
590.284	14240.06
590.643	14384.24
591.003	14552.82
591.362	14741.29
591.721	14763.67
592.08	14906.71
592.44	15241.17
592.799	15280.49
593.158	15320.71
593.517	15455.17
593.876	15633.93
594.235	15809.74
594.593	15901.49
594.952	16198.2
595.311	16212.89
595.67	16358.2
596.029	16582.15
596.387	16673.9
596.746	16837.74
597.104	16847.68
597.463	16935.81
597.822	17132.64
598.18	17226.43
598.538	17355.69
598.897	17522.01
599.255	17566.3
599.613	17866.18
599.972	17894.43
600.33	18056.69
600.688	18064.6
601.046	18185.5
601.404	18479.5
601.762	18452.61
602.12	18646.95
602.478	18764.69
602.836	18786.84
603.194	18820.51
603.552	19077.45
603.91	19058.92
604.268	19145.02
604.625	19217.79
604.983	19368.52
605.341	19410.1
605.698	19588.62
606.056	19781.84
606.413	19683.76
606.771	19886.02
607.128	19940.48
607.485	19934.83
607.843	19973.47
608.2	20213.92
608.557	20286.68
608.914	20346.8
609.272	20495.72
609.629	20629.95
609.986	20702.94
610.343	20634.25
610.7	20890.74
611.057	20943.84
611.414	21001.24
611.771	21130.05
612.127	21237.62
612.484	21198.98
612.841	21258.86
613.198	21331.4
613.554	21283.95
613.911	21490.04
614.267	21465.64
614.624	21556.26
614.98	21685.07
615.337	21772.97
615.693	21725.97
616.05	21820.66
616.406	22005.28
616.762	21946.75
617.118	21891.84
617.475	21981.33
617.831	22074.66
618.187	22134.09
618.543	22215.22
618.899	22406.85
619.255	22463.35
619.611	22409.34
619.967	22410.47
620.323	22513.29
620.678	22435.78
621.034	22530.47
621.39	22465.61
621.746	22570.24
622.101	22773.4
622.457	22700.41
622.812	22771.36
623.168	22786.51
623.523	22774.98
623.879	22831.7
624.234	22748.09
624.589	22888.88
624.945	22890.23
625.3	22922.55
625.655	22899.5
626.01	22941.08
626.365	22998.25
626.72	22878.25
627.075	23057.46
627.43	22977.01
627.785	22918.03
628.14	22911.93
628.495	22987.4
628.85	22910.12
629.205	22825.15
629.559	23022.66
629.914	22997.8
630.269	22964.35
630.623	22947.86
630.978	23023.34
631.332	23113.73
631.687	23091.81
632.041	23038.7
632.396	23147.17
632.75	22963.9
633.104	22879.61
633.459	22921.87
633.813	22968.42
634.167	22958.93
634.521	22999.38
634.875	23043
635.229	22946.05
635.583	22882.32
635.937	22940.63
636.291	22879.61
636.645	22914.19
636.999	22845.26
637.352	22845.26
637.706	22723.68
638.06	22879.61
638.413	22883.45
638.767	22831.02
639.121	22840.52
639.474	22773.17
639.828	22738.15
640.181	22721.42
640.534	22729.56
640.888	22666.73
641.241	22612.27
641.594	22686.62
641.947	22696.79
642.301	22661.99
642.654	22707.86
643.007	22753.29
643.36	22636
643.713	22671.93
644.066	22802.32
644.419	22589.67
644.771	22547.87
645.124	22258.61
645.477	22277.82
645.83	22085.05
646.182	21944.27
646.535	21912.63
646.888	21993.98
647.24	21864.5
647.593	21922.57
647.945	21933.42
648.298	21749.92
648.65	21827.89
649.002	21736.36
649.355	21847.32
649.707	21897.72
650.059	22057.03
650.411	22170.02
650.763	22308.33
651.115	22458.6
651.467	22371.38
651.819	22380.41
652.171	22347.87
652.523	22336.12
652.875	22359.4
653.227	22334.09
653.578	22469.68
653.93	22469
654.282	22248.21
654.633	22304.94
654.985	22352.39
655.337	22363.47
655.688	22294.31
656.039	22497.02
656.391	22314.43
656.742	22344.03
657.094	22327.99
657.445	22436.91
657.796	22322.56
658.147	22373.41
658.498	22323.01
658.849	22453.63
659.2	22360.53
659.551	22373.63
659.902	22430.36
660.253	22405.95
660.604	22449.57
660.955	22286.41
661.306	22476.68
661.656	22377.25
662.007	22522.56
662.358	22488.43
662.708	22490.47
663.059	22506.74
663.409	22345.61
663.76	22461.09
664.11	22390.36
664.461	22461.99
664.811	22475.1
665.161	22461.54
665.511	22306.29
665.862	22345.16
666.212	22436.23
666.562	22526.63
666.912	22506.06
667.262	22424.48
667.612	22453.18
667.962	22525.95
668.312	22579.05
668.662	22585.61
669.011	22416.12
669.361	22397.82
669.711	22433.29
670.06	22438.94
670.41	22402.11
670.76	22269.46
671.109	22367.53
671.459	22337.7
671.808	22326.63
672.157	22261.55
672.507	22156.92
672.856	22248.44
673.205	22265.16
673.554	22354.2
673.904	22269.91
674.253	22367.76
674.602	22221.1
674.951	21864.04
675.3	21936.13
675.649	22214.32
675.998	22184.94
676.346	22123.92
676.695	22329.57
677.044	21978.84
677.393	22110.36
677.741	22218.61
678.09	22058.61
678.438	21910.37
678.787	22099.97
679.135	22015.68
679.484	21997.15
679.832	22000.31
680.181	21791.73
680.529	21920.99
680.877	21887.55
681.225	21680.32
681.573	21923.93
681.922	21734.33
682.27	21698.4
682.618	21592.41
682.966	21649.36
683.314	21670.6
683.661	21677.38
684.009	21512.64
684.357	21520.1
684.705	21431.51
685.053	21560.77
685.4	21414.56
685.748	21244.17
686.095	21349.03
686.443	21073.78
686.79	21201.91
687.138	21257.05
687.485	21169.6
687.832	21149.26
688.18	21020
688.527	20918.76
688.874	20912.88
689.221	20888.48
689.568	20952.88
689.915	20735.49
690.262	20709.05
690.609	20704.75
690.956	20568.48
691.303	20591.31
691.65	20469.96
691.997	20499.56
692.344	20377.98
692.69	20214.14
693.037	20281.49
693.383	20082.62
693.73	20178.89
694.077	20048.05
694.423	19952.91
694.769	19964.21
695.116	19953.59
695.462	19870.65
695.808	19748.62
696.155	19787.26
696.501	19732.12
696.847	19733.03
697.193	19532.58
697.539	19558.79
697.885	19451
698.231	19349.76
698.577	19359.02
698.923	19231.12
699.269	19128.97
699.614	19153.38
699.96	18953.39
700.306	18987.28
700.651	18901.18
700.997	18910.22
701.342	18875.2
701.688	18811.69
702.033	18748.65
702.379	18688.53
702.724	18583.23
703.069	18660.51
703.415	18368.54
703.76	18476.56
704.105	18421.65
704.45	18292.39
704.795	18216
705.14	18207.87
705.485	18069.34
705.83	18104.37
706.175	18189.11
706.52	17994.99
706.865	17881.55
707.209	17995.67
707.554	17848.1
707.899	17890.14
708.243	17796.35
708.588	17793.87
708.932	17600.65
709.277	17680.2
709.621	17516.36
709.966	17519.3
710.31	17521.33
710.654	17313.65
710.998	17324.95
711.342	17423.03
711.687	17260.1
712.031	17255.58
712.375	17239.76
712.719	17168.12
713.063	17147.56
713.407	17246.31
713.75	17104.62
714.094	17076.15
714.438	17049.26
714.782	17052.87
715.125	16940.78
715.469	16961.57
715.812	16872.99
716.156	16792.54
716.499	16809.49
716.843	16931.74
717.186	16788.47
717.53	16850.84
717.873	16832.09
718.216	16793.22
718.559	16623.05
718.902	16574.01
719.246	16651.3
719.589	16559.1
719.932	16438.88
720.275	16443.85
720.617	16478.42
720.96	16524.3
721.303	16401.36
721.646	16447.69
721.989	16239.78
722.331	16349.84
722.674	16352.55
723.016	16354.13
723.359	16317.97
723.701	16242.95
724.044	16215.6
724.386	16233.46
724.729	16240.69
725.071	16184.87
725.413	16162.27
725.755	16150.97
726.097	16063.97
726.439	16060.81
726.782	16031.43
727.124	16044.76
727.465	16050.86
727.807	16058.09
728.149	16049.28
728.491	15959.11
728.833	16040.47
729.175	15936.06
729.516	15939
729.858	15933.8
730.199	15984.2
730.541	15945.56
730.882	15927.25
731.224	15982.39
731.565	15898.32
731.906	15913.92
732.248	15910.3
732.589	15910.75
732.93	15875.73
733.271	15807.93
733.612	15826.46
733.953	15829.63
734.294	15752.34
734.635	15754.15
734.976	15806.35
735.317	15730.42
735.658	15783.75
735.999	15792.79
736.339	15706.92
736.68	15836.41
737.021	15805.22
737.361	15799.57
737.702	15874.82
738.042	15798.89
738.383	15774.49
738.723	15787.37
739.063	15777.65
739.404	15874.37
739.744	15780.36
740.084	15726.58
740.424	15889.29
740.764	15747.82
741.104	15807.93
741.444	15744.43
741.784	15825.33
742.124	15919.34
742.464	15812.9
742.804	15761.83
743.143	15910.53
743.483	15881.83
743.823	15843.86
744.162	15901.49
744.502	15907.82
744.841	15968.15
745.181	15986.68
745.52	15982.62
745.86	16007.25
746.199	16131.09
746.538	16048.6
746.877	16183.74
747.216	16236.85
747.556	16185.55
747.895	16327.01
748.234	16289.5
748.573	16398.42
748.911	16439.78
749.25	16515.26
749.589	16548.25
749.928	16572.66
750.267	16718.64
750.605	16764.74
750.944	16762.48
751.283	16796.38
751.621	16981.01
751.96	17003.83
752.298	17153.66
752.636	17188.69
752.975	17258.29
753.313	17205.86
753.651	17411.96
753.989	17437.95
754.327	17538.96
754.666	17622.35
755.004	17806.3
755.342	17894.43
755.679	17960.64
756.017	17964.94
756.355	18198.38
756.693	18235.44
757.031	18342.55
757.368	18390.69
757.706	18547.97
758.044	18569.67
758.381	18751.81
758.719	18875.65
759.056	18950.9
759.394	19076.32
759.731	19005.14
760.068	19190.89
760.405	19370.1
760.743	19438.12
761.08	19483.99
761.417	19607.15
761.754	19683.31
762.091	19843.98
762.428	19862.74
762.765	19885.11
763.102	20126.01
763.438	20087.82
763.775	20119.23
764.112	20259.11
764.449	20347.47
764.785	20473.57
765.122	20475.38
765.458	20544.08
765.795	20628.82
766.131	20650.52
766.467	20734.36
766.804	20702.94
767.14	20769.61
767.476	20853.45
767.812	20924.41
768.148	20966.44
768.485	20961.69
768.821	20909.72
769.157	20993.33
769.492	21080.11
769.828	20996.04
770.164	20977.97
770.5	20988.59
770.836	21068.13
771.171	21082.6
771.507	21100
771.842	21066.55
772.178	21040.11
772.513	21050.28
772.849	21076.27
773.184	21095.02
773.519	21146.1
773.855	20970.06
774.19	21064.06
774.525	21037.17
774.86	21010.05
775.195	21135.02
775.53	21019.09
775.865	20927.35
776.2	20880.79
776.535	20790.4
776.87	20844.41
777.205	20829.04
777.539	20781.13
777.874	20874.92
778.209	20700.91
778.543	20726.22
778.878	20620.46
779.212	20601.93
779.547	20625.66
779.881	20558.32
780.215	20535.04
780.55	20600.12
780.884	20507.24
781.218	20381.14
781.552	20395.38
781.886	20302.95
782.22	20238.55
782.554	20165.11
782.888	20070.64
783.222	19966.69
783.556	20010.31
783.889	20064.77
784.223	19845.34
784.557	19820.03
784.89	19868.84
785.224	19845.79
785.557	19745.91
785.891	19744.1
786.224	19638.11
786.558	19719.92
786.891	19571
787.224	19507.27
787.557	19363.32
787.891	19365.35
788.224	19333.04
788.557	19348.18
788.89	19252.59
789.223	19321.29
789.556	19188.18
789.888	19159.71
790.221	19174.4
790.554	18948.64
790.887	19023.21
791.219	18958.36
791.552	18865.93
791.884	18777.12
792.217	18732.15
792.549	18693.96
792.882	18597.69
793.214	18436.34
793.546	18556.79
793.879	18427.07
794.211	18261.43
794.543	18403.12
794.875	18287.64
795.207	18370.35
795.539	18348.43
795.871	18175.33
796.203	18058.27
796.535	18032.73
796.867	17865.96
797.198	17878.39
797.53	17927.88
797.862	17795
798.193	17698.28
798.525	17715.9
798.856	17779.63
799.188	17481.11
799.519	17565.17
799.85	17415.57
800.182	17457.83
800.513	17459.41
800.844	17201.34
801.175	17414.67
801.506	17325.41
801.837	17221.91
802.168	17224.39
802.499	17214.67
802.83	17066.88
803.161	17095.58
803.491	17086.09
803.822	17067.56
804.153	16884.06
804.483	16821.92
804.814	16819.2
805.145	16714.8
805.475	16742.6
805.805	16645.65
806.136	16712.99
806.466	16578.98
806.796	16575.37
807.126	16389.61
807.457	16433.45
807.787	16388.93
808.117	16382.61
808.447	16275.72
808.777	16298.31
809.107	16228.26
809.436	16222.61
809.766	16222.61
810.096	16164.76
810.426	16005.21
810.755	16104.42
811.085	15958.89
811.414	15885.9
811.744	15946.23
812.073	15846.35
812.403	15896.07
812.732	15873.01
813.061	15779.68
813.39	15694.71
813.719	15698.78
814.049	15782.17
814.378	15648.39
814.707	15538.79
815.036	15541.72
815.365	15567.03
815.693	15320.94
816.022	15416.08
816.351	15327.49
816.68	15300.83
817.008	15282.75
817.337	15180.15
817.665	15139.7
817.994	15238.91
818.322	15143.99
818.651	15093.6
818.979	15016.31
819.307	15135.18
819.636	15032.36
819.964	15080.04
820.292	15004.79
820.62	15026.48
820.948	14852.93
821.276	14987.61
821.604	14868.3
821.932	14973.83
822.259	14980.16
822.587	14862.19
822.915	14914.62
823.243	14908.29
823.57	14866.26
823.898	14908.52
824.225	14814.29
824.553	14854.96
824.88	14779.26
825.207	14902.87
825.535	14867.17
825.862	14892.93
826.189	14763.89
826.516	14937.45
826.843	14904.45
827.17	14945.36
827.497	14969.54
827.824	14951.23
828.151	14884.57
828.478	14937.22
828.805	14930.44
829.131	14840.27
829.458	14861.52
829.785	14725.47
830.111	14849.99
830.438	14870.33
830.764	14923.21
831.09	14863.32
831.417	14739.26
831.743	14891.12
832.069	14901.97
832.395	14793.95
832.722	14811.12
833.048	14787.85
833.374	14735.87
833.7	14685.25
834.026	14658.13
834.351	14712.82
834.677	14707.17
835.003	14740.39
835.329	14622.43
835.654	14609.77
835.98	14568.42
836.306	14612.71
836.631	14574.07
836.956	14577.23
837.282	14591.69
837.607	14547.4
837.932	14554.63
838.258	14522.09
838.583	14509.66
838.908	14431.47
839.233	14358.03
839.558	14311.7
839.883	14285.94
840.208	14279.38
840.533	14293.4
840.858	14300.63
841.182	14345.6
841.507	14305.37
841.832	14148.77
842.156	14120.52
842.481	14201.42
842.805	14188.09
843.13	14084.14
843.454	14010.46
843.778	13969.56
844.103	13946.74
844.427	13934.53
844.751	13978.6
845.075	13863.8
845.399	13843.01
845.723	13756.46
846.047	13742.45
846.371	13642.79
846.695	13651.38
847.019	13562.34
847.343	13451.61
847.666	13436.92
847.99	13357.37
848.313	13384.49
848.637	13284.16
848.96	13212.97
849.284	13184.5
849.607	13170.94
849.931	13081
850.254	13017.04
850.577	12965.52
850.9	12862.47
851.223	12791.29
851.546	12873.55
851.869	12780.89
852.192	12863.38
852.515	12681.69
852.838	12661.35
853.161	12691.18
853.483	12587
853.806	12501.8
854.129	12481.47
854.451	12462.71
854.774	12368.47
855.096	12318.31
855.419	12270.85
855.741	12277.4
856.063	12142.49
856.385	12167.35
856.708	12059.33
857.03	12136.39
857.352	12055.26
857.674	12007.81
857.996	12005.09
858.318	11998.31
858.64	11949.95
858.961	11954.02
859.283	11796.74
859.605	11860.92
859.926	11886.23
860.248	11814.14
860.57	11729.85
860.891	11698.44
861.212	11675.84
861.534	11635.61
861.855	11597.2
862.176	11575.95
862.498	11617.76
862.819	11589.74
863.14	11506.8
863.461	11478.33
863.782	11410.31
864.103	11502.51
864.424	11489.63
864.745	11413.25
865.065	11363.75
865.386	11332.34
865.707	11330.08
866.027	11257.32
866.348	11366.69
866.668	11280.82
866.989	11295.73
867.309	11257.54
867.63	11214.83
867.95	11220.48
868.27	11192.69
868.59	11121.05
868.91	11167.38
869.23	11158.79
869.55	11008.96
869.87	11153.59
870.19	11076.08
870.51	11055.97
870.83	11048.51
871.15	11020.26
871.469	11027.72
871.789	11016.65
872.109	11038.11
872.428	10902.07
872.748	10935.07
873.067	10868.85
873.386	10914.73
873.706	10905.24
874.025	10832.92
874.344	10834.5
874.663	10813.03
874.982	10787.05
875.301	10774.39
875.62	10766.26
875.939	10754.51
876.258	10749.31
876.577	10732.13
876.896	10734.62
877.214	10763.77
877.533	10709.99
877.852	10552.48
878.17	10665.02
878.489	10654.17
878.807	10668.63
879.125	10586.37
879.444	10576.66
879.762	10552.02
880.08	10546.6
880.398	10560.39
880.716	10475.87
881.034	10447.62
881.352	10432.71
881.67	10452.37
881.988	10416.44
882.306	10354.29
882.624	10304.8
882.941	10313.61
883.259	10278.59
883.577	10235.65
883.894	10228.19
884.212	10250.79
884.529	10245.82
884.846	10178.48
885.164	10149.32
885.481	10064.35
885.798	10135.99
886.115	10015.32
886.432	10065.71
886.75	10023
887.067	10038.82
887.383	9987.29
887.7	10006.95
888.017	9941.19
888.334	9956.33
888.651	9866.62
888.967	9831.82
889.284	9857.35
889.6	9845.15
889.917	9721.31
890.233	9743.46
890.55	9731.93
890.866	9745.49
891.182	9646.74
891.498	9619.17
891.815	9576.01
892.131	9512.05
892.447	9507.98
892.763	9447.2
893.079	9466.86
893.395	9425.95
893.71	9377.59
894.026	9466.18
894.342	9375.56
894.657	9314.54
894.973	9343.24
895.289	9338.95
895.604	9268.44
895.92	9126.75
896.235	9139.86
896.55	9122.01
896.865	9135.11
897.181	9125.85
897.496	9054.66
897.811	8998.62
898.126	9021.44
898.441	8960.65
898.756	8940.54
899.071	8899.41
899.386	8901.67
899.7	8805.86
900.015	8804.5
900.33	8749.13
900.644	8707.33
900.959	8713.43
901.273	8687.22
901.588	8609.48
901.902	8613.77
902.216	8600.21
902.531	8593.88
902.845	8466.88
903.159	8491.97
903.473	8433.44
903.787	8411.97
904.101	8387.34
904.415	8366.09
904.729	8326.77
905.042	8289.26
905.356	8319.54
905.67	8232.09
905.984	8216.49
906.297	8202.26
906.611	8156.83
906.924	8147.34
907.237	8140.34
907.551	8109.83
907.864	8042.26
908.177	8046.55
908.491	8018.76
908.804	7952.77
909.117	7867.35
909.43	7882.72
909.743	7815.15
910.056	7865.54
910.368	7804.3
910.681	7734.02
910.994	7749.39
911.307	7707.13
911.619	7660.8
911.932	7647.47
912.244	7623.97
912.557	7526.12
912.869	7521.37
913.181	7538.77
913.494	7493.12
913.806	7426.46
914.118	7400.7
914.43	7365.44
914.742	7317.31
915.054	7345.33
915.366	7316.86
915.678	7260.59
915.99	7237.76
916.302	7204.54
916.613	7132
916.925	7093.81
917.236	7161.38
917.548	7063.75
917.859	7043.19
918.171	7018.33
918.482	6981.27
918.794	6916.41
919.105	6935.62
919.416	6846.13
919.727	6853.82
920.038	6794.84
920.349	6739.92
920.66	6767.94
920.971	6797.1
921.282	6759.13
921.593	6693.14
921.903	6720.71
922.214	6652.47
922.525	6617.66
922.835	6514.84
923.146	6540.38
923.456	6525.01
923.767	6487.05
924.077	6475.3
924.387	6455.64
924.697	6385.13
925.008	6392.13
925.318	6356.88
925.628	6376.32
925.938	6337.22
926.248	6274.4
926.558	6275.98
926.867	6243.89
927.177	6212.48
927.487	6203.89
927.796	6144.23
928.106	6131.35
928.416	6113.72
928.725	6075.98
929.034	6010.9
929.344	6049.32
929.653	6049.54
929.962	5930.45
930.271	5927.74
930.581	5914.41
930.89	5957.12
931.199	5883.22
931.508	5867.4
931.817	5831.92
932.125	5771.59
932.434	5774.75
932.743	5701.53
933.051	5698.37
933.36	5709.89
933.669	5706.5
933.977	5671.48
934.286	5658.59
934.594	5620.63
934.902	5504.47
935.21	5527.07
935.519	5588.77
935.827	5547.86
936.135	5469.67
936.443	5420.41
936.751	5425.61
937.059	5455.89
937.367	5349.22
937.674	5347.42
937.982	5352.61
938.29	5369.11
938.597	5277.81
938.905	5271.03
939.213	5205.5
939.52	5240.53
939.827	5249.34
940.135	5188.1
940.442	5173.86
940.749	5160.53
941.056	5140.64
941.363	5087.54
941.67	5126.63
941.977	5040.53
942.284	5034.88
942.591	5049.57
942.898	4984.94
943.205	5000.08
943.511	4960.31
943.818	4938.16
944.125	4934.09
944.431	4879.18
944.738	4801.22
945.044	4829.01
945.35	4830.37
945.657	4799.86
945.963	4721.44
946.269	4727.55
946.575	4710.6
946.881	4718.96
947.187	4707.21
947.493	4674.67
947.799	4662.24
948.105	4608
948.41	4591.28
948.716	4611.84
949.022	4591.96
949.327	4542.69
949.633	4537.04
949.938	4530.26
950.244	4520.54
950.549	4463.6
950.854	4457.95
951.16	4481.22
951.465	4392.41
951.77	4408.01
952.075	4376.59
952.38	4372.98
952.685	4339.08
952.99	4280.55
953.294	4305.41
953.599	4299.08
953.904	4259.99
954.209	4219.08
954.513	4232.64
954.818	4218.18
955.122	4179.31
955.426	4182.93
955.731	4151.74
956.035	4140.89
956.339	4129.59
956.643	4130.5
956.948	4076.49
957.252	4017.51
957.556	4005.08
957.86	4034
958.163	4048.69
958.467	4038.3
958.771	4045.08
959.075	3999.2
959.378	3900.9
959.682	3965.53
959.985	3929.37
960.289	3874.23
960.592	3879.21
960.896	3850.05
961.199	3884.86
961.502	3822.71
961.805	3805.76
962.108	3794.91
962.411	3776.84
962.714	3749.27
963.017	3751.07
963.32	3763.28
963.623	3722.83
963.926	3674.24
964.228	3669.95
964.531	3635.82
964.833	3638.53
965.136	3619.78
965.438	3587.69
965.741	3621.13
966.043	3575.26
966.345	3538.65
966.648	3553.34
966.95	3570.29
967.252	3531.87
967.554	3532.1
967.856	3532.1
968.158	3465.88
968.46	3507.92
968.761	3454.58
969.063	3425.43
969.365	3430.63
969.666	3440.57
969.968	3384.53
970.269	3367.58
970.571	3358.32
970.872	3358.54
971.174	3304.31
971.475	3344.76
971.776	3281.48
972.077	3308.37
972.378	3272.67
972.679	3253.23
972.98	3258.66
973.281	3243.97
973.582	3189.28
973.883	3197.87
974.183	3166.68
974.484	3176.4
974.785	3184.76
975.085	3128.94
975.386	3135.27
975.686	3123.97
975.986	3117.42
976.287	3072.22
976.587	3043.97
976.887	3086.46
977.187	3031.09
977.487	3030.41
977.787	3005.33
978.087	3010.75
978.387	2965.78
978.687	2978.66
978.987	2972.11
979.286	2923.75
979.586	2907.25
979.885	2930.98
980.185	2932.34
980.484	2910.64
980.784	2881.49
981.083	2860.93
981.382	2857.99
981.682	2888.5
981.981	2811.89
982.28	2825.22
982.579	2836.97
982.878	2794.49
983.177	2784.32
983.475	2784.55
983.774	2752.23
984.073	2722.85
984.372	2763.3
984.67	2721.5
984.969	2726.47
985.267	2704.32
985.566	2702.74
985.864	2689.86
986.162	2650.54
986.461	2647.37
986.759	2640.59
987.057	2611.44
987.355	2602.4
987.653	2577.32
987.951	2613.7
988.249	2547.26
988.547	2535.06
988.844	2536.42
989.142	2566.47
989.44	2525.12
989.737	2537.32
990.035	2512.24
990.332	2545.91
990.63	2491.9
990.927	2451.67
991.224	2483.31
991.521	2447.61
991.819	2422.97
992.116	2471.79
992.413	2436.31
992.71	2407.38
993.006	2394.95
993.303	2397.89
993.6	2380.49
993.897	2366.93
994.193	2359.47
994.49	2326.03
994.787	2321.51
995.083	2328.96
995.379	2305.69
995.676	2312.69
995.972	2291.23
996.268	2282.64
996.565	2233.37
996.861	2256.42
997.157	2221.85
997.453	2202.64
997.749	2198.8
998.044	2194.96
998.34	2190.21
998.636	2180.72
998.932	2184.11
999.227	2162.19
999.523	2144.79
999.818	2137.56
1000.114	2143.21
1000.409	2102.3
1000.704	2086.48
1001	2093.94
1001.295	2046.03
1001.59	2094.85
1001.885	2053.49
1002.18	2056.88
1002.475	2034.73
1002.77	2039.48
1003.065	2029.31
1003.359	2015.53
1003.654	1996.32
1003.949	2004.23
1004.243	1949.31
1004.538	1961.97
1004.832	1945.7
1005.127	1945.47
1005.421	1937.79
1005.715	1917.45
1006.009	1918.58
1006.304	1910.67
1006.598	1882.65
1006.892	1868.64
1007.186	1864.12
1007.48	1831.58
1007.773	1841.29
1008.067	1840.84
1008.361	1796.55
1008.655	1813.05
1008.948	1797.23
1009.242	1779.15
1009.535	1770.11
1009.829	1777.57
1010.122	1754.06
1010.415	1745.48
1010.708	1755.42
1011.001	1728.53
1011.295	1703.44
1011.588	1759.94
1011.881	1715.2
1012.173	1681.3
1012.466	1669.09
1012.759	1653.05
1013.052	1659.38
1013.344	1669.09
1013.637	1650.79
1013.93	1610.11
1014.222	1637
1014.514	1615.76
1014.807	1615.31
1015.099	1595.88
1015.391	1567.4
1015.683	1596.33
1015.976	1554.07
1016.268	1547.97
1016.56	1547.06
1016.851	1500.51
1017.143	1518.36
1017.435	1514.97
1017.727	1517.01
1018.018	1488.08
1018.31	1495.54
1018.602	1472.26
1018.893	1453.28
1019.185	1465.71
1019.476	1477.46
1019.767	1462.32
1020.058	1413.06
1020.35	1415.77
1020.641	1414.86
1020.932	1401.98
1021.223	1402.43
1021.514	1392.72
1021.804	1370.12
1022.095	1382.32
1022.386	1349.1
1022.677	1331.7
1022.967	1331.25
1023.258	1366.28
1023.548	1314.3
1023.839	1318.14
1024.129	1312.95
1024.419	1319.95
1024.709	1274.75
1025	1271.14
1025.29	1261.2
1025.58	1266.62
1025.87	1256
1026.16	1261.2
1026.449	1227.07
1026.739	1224.36
1027.029	1219.61
1027.319	1233.85
1027.608	1210.35
1027.898	1196.56
1028.187	1193.63
1028.477	1202.21
1028.766	1191.37
1029.055	1151.82
1029.344	1173.97
1029.634	1133.74
1029.923	1131.71
1030.212	1134.19
1030.501	1132.84
1030.79	1135.78
1031.078	1111.14
1031.367	1095.1
1031.656	1092.61
1031.945	1105.27
1032.233	1105.95
1032.522	1073.18
1032.81	1081.99
1033.099	1080.86
1033.387	1072.27
1033.675	1052.84
1033.963	1041.09
1034.251	1030.24
1034.54	1030.24
1034.828	1027.08
1035.116	1049.9
1035.403	1013.29
1035.691	1002.9
1035.979	1009.22
1036.267	990.24
1036.554	988.66
1036.842	1010.35
1037.129	1007.19
1037.417	952.96
1037.704	949.57
1037.992	970.36
1038.279	949.34
1038.566	924.03
1038.853	924.03
1039.14	924.03
